x_pos,y_pos,x_vel,y_vel,angle,ang_vel,leg_1,leg_2,main_booster,lat_booster
-0.0015068054199218,1.403327465057373,-0.1532546877861023,-0.3374545276165008,0.0023087610024958,0.0455830506980419,0.0,0.0,-0.2487552165985107,0.9185473918914796
-0.0029187202453613,1.3954566717147827,-0.1420101672410965,-0.3498148918151855,0.0031205757986754,0.0162384398281574,0.0,0.0,-0.0750180482864379,0.8209351301193237
-0.0042354585602879,1.3872827291488647,-0.1310113817453384,-0.3632870614528656,0.0024678553454577,-0.0130557399243116,0.0,0.0,0.0016323328018188,0.6528394222259521
-0.0055680274963378,1.3792636394500732,-0.1316977143287658,-0.3563980460166931,0.0009352469351142,-0.0306551791727542,0.0,0.0,0.0316511392593383,0.2866543531417846
-0.006804752163589,1.3715585470199585,-0.1230021491646766,-0.3424548804759979,0.0002753047738224,-0.0132004646584391,0.0,0.0,-0.4427409172058105,0.0772429704666137
-0.0080263139680027,1.363556146621704,-0.121964655816555,-0.3556622862815857,8.424989937338978e-05,-0.0038211601786315,0.0,0.0,-0.1190921068191528,0.2682476043701172
-0.0092331888154149,1.3552566766738892,-0.1209582313895225,-0.3688649237155914,0.0003447649360168,0.0052107023075222,0.0,0.0,-0.4661843776702881,0.8872277736663818
-0.0103389741852879,1.3466627597808838,-0.1090534180402755,-0.3819517493247986,-0.0011541453422978,-0.029981181025505,0.0,0.0,-0.642419159412384,0.4101276397705078
-0.0114310262724757,1.3377716541290283,-0.108108066022396,-0.3951563537120819,-0.0022398184519261,-0.0217155329883098,0.0,0.0,-0.8483976721763611,0.5606272220611572
-0.0124660488218069,1.3285870552062988,-0.1016666144132614,-0.4082133173942566,-0.0040441118180751,-0.0360893085598945,0.0,0.0,-0.1521223783493042,0.3849902153015136
-0.0134884836152195,1.3191052675247192,-0.1007932424545288,-0.421417623758316,-0.0054790615104138,-0.0287017673254013,0.0,0.0,0.0643057823181152,0.6471490859985352
-0.0143947601318359,1.3098347187042236,-0.0882867947220802,-0.4120373427867889,-0.0077861058525741,-0.0461454056203365,0.0,0.0,-0.8229188323020935,-0.2970972657203674
-0.0152897834777832,1.300266981124878,-0.0874928534030914,-0.4252460896968841,-0.0097712222486734,-0.0397061258554458,0.0,0.0,-0.9476438760757446,-0.1259064674377441
-0.01617431640625,1.2904021739959717,-0.0867432281374931,-0.4384492933750152,-0.0114602353423833,-0.0337834954261779,0.0,0.0,-0.6400732398033142,0.387502908706665
-0.0170491226017475,1.2802402973175049,-0.0860395282506942,-0.4516536593437195,-0.0128789246082305,-0.0283766277134418,0.0,0.0,-0.8698579668998718,0.295742392539978
-0.017914867028594,1.2697811126708984,-0.085383340716362,-0.4648580551147461,-0.014054081402719,-0.023505326360464,0.0,0.0,-0.6304261684417725,-0.1736778616905212
-0.0187723152339458,1.2590248584747314,-0.0847763046622276,-0.4780624210834503,-0.015013163909316,-0.0191833544522523,0.0,0.0,0.0150589942932128,-0.1858857870101928
-0.0195313449949026,1.2483148574829102,-0.0755372643470764,-0.4760050177574157,-0.0153739620000123,-0.0072165629826486,0.0,0.0,-0.8648635149002075,0.5877472162246704
-0.0202297214418649,1.237311840057373,-0.0682666301727294,-0.4890348613262176,-0.0169304460287094,-0.0311325900256633,0.0,0.0,-0.6008270978927612,0.4497561454772949
-0.0209223739802837,1.2260119915008545,-0.0678120106458664,-0.502238392829895,-0.0183554776012897,-0.028503268957138,0.0,0.0,-0.8505046367645264,-0.9191517233848572
-0.0216670036315917,1.2144231796264648,-0.0745859518647193,-0.515056848526001,-0.0182395335286855,0.0023190488573163,0.0,0.0,-0.9040599465370178,0.1946886777877807
-0.0224076267331838,1.2025372982025146,-0.0742452144622802,-0.5282614827156067,-0.0180521383881568,0.0037482280749827,0.0,0.0,-0.8053582310676575,-0.2394420504570007
-0.0231448169797658,1.190354347229004,-0.0739596933126449,-0.5414661169052124,-0.0178216956555843,0.0046091275289654,0.0,0.0,-0.8553030490875244,-0.4102150201797485
-0.0238796230405569,1.1778740882873535,-0.0737303122878074,-0.5546707510948181,-0.0175777003169059,0.0048804832622408,0.0,0.0,-0.2005385756492614,0.3842823505401611
-0.0246129035949707,1.1650969982147217,-0.0735570639371872,-0.5678756237030029,-0.0173490885645151,0.0045724967494606,0.0,0.0,-0.7207622528076172,-0.6714963912963867
-0.0254116058349609,1.1520063877105713,-0.0817397013306617,-0.5817800164222717,-0.0155056472867727,0.0368687473237514,0.0,0.0,-0.1503375172615051,0.4221616983413696
-0.0262104980647563,1.1386189460754397,-0.0816778093576431,-0.5949828624725342,-0.0137343760579824,0.0354252941906452,0.0,0.0,-0.6866876482963562,0.0477643013000488
-0.0270102508366107,1.1249343156814575,-0.08167165517807,-0.6081857681274414,-0.0120629221200943,0.0334290005266666,0.0,0.0,-0.4550948739051819,0.6916424036026001
-0.0277688987553119,1.1109578609466553,-0.0763368159532547,-0.6211779117584229,-0.0115954782813787,0.0093489624559879,0.0,0.0,-0.771955132484436,-0.8229233622550964
-0.0285974498838186,1.09668231010437,-0.0848981291055679,-0.6344530582427979,-0.0095878262072801,0.0401531569659709,0.0,0.0,-0.9232683777809144,0.814110517501831
-0.029362965375185,1.082117795944214,-0.0767145603895187,-0.6473012566566467,-0.0094278240576386,0.0031999808270484,0.0,0.0,-0.6287165284156799,-0.5672277212142944
-0.0301834102720022,1.0672539472579956,-0.0832856148481369,-0.6606109738349915,-0.0081976605579257,0.0246034078299999,0.0,0.0,-0.4708701372146606,0.4989334344863891
-0.0310086254030466,1.0520930290222168,-0.083546333014965,-0.6738137006759644,-0.0071946862153708,0.0200596190989017,0.0,0.0,-0.4526762962341308,0.3104051351547241
-0.0318395607173442,1.036635160446167,-0.0838568434119224,-0.6870164275169373,-0.0064417938701808,0.0150579679757356,0.0,0.0,-0.6757689714431763,-0.116800844669342
-0.0326768867671489,1.0208802223205566,-0.0842156335711479,-0.7002190947532654,-0.0059609049931168,0.0096175093203783,0.0,0.0,-0.0078751444816589,-0.1081877946853637
-0.0335211753845214,1.0048279762268066,-0.0846210867166519,-0.7134217619895935,-0.0057730274274945,0.0037575378082692,0.0,0.0,-0.3808937072753906,-0.0157816410064697
-0.0343731865286827,0.9884791374206544,-0.0850714966654777,-0.7266243696212769,-0.0058981496840715,-0.0025024525821208,0.0,0.0,0.0727863311767578,-0.4775584936141968
-0.0352057442069053,0.9725742936134338,-0.082916110754013,-0.7068853974342346,-0.006241041701287,-0.0068576247431337,0.0,0.0,-0.0004562139511108,-0.7066746950149536
-0.0361068733036518,0.9563807845115662,-0.090922862291336,-0.7197081446647644,-0.0054368218407034,0.0160844456404447,0.0,0.0,-0.1972941756248474,-0.2660971283912658
-0.0370173454284668,0.9398902654647828,-0.0914975106716156,-0.7329108715057373,-0.0049997917376458,0.0087405648082494,0.0,0.0,0.0529041290283203,0.4141271114349365
-0.0380034446716308,0.923847496509552,-0.0983460620045661,-0.7130112051963806,-0.0052609774284064,-0.0052236728370189,0.0,0.0,-0.6027925610542297,-0.0293801426887512
-0.0390000343322753,0.9075077772140504,-0.0989944115281105,-0.7262138724327087,-0.0059207887388765,-0.0131960660219192,0.0,0.0,-0.3920170068740845,-0.609646201133728
-0.0400481224060058,0.8908646106719971,-0.1047561541199684,-0.7396961450576782,-0.005977036897093,-0.0011247338261455,0.0,0.0,-0.4304967522621155,-0.0929287672042846
-0.0411076545715332,0.8739243745803833,-0.1054710149765014,-0.7528988122940063,-0.0064597879536449,-0.009654882363975,0.0,0.0,-0.2244963645935058,0.0821353197097778
-0.0421792045235633,0.8566872477531433,-0.1062164679169654,-0.766101598739624,-0.0073817232623696,-0.0184387564659118,0.0,0.0,0.4887905120849609,-0.6007797122001648
-0.0432633385062217,0.8395986557006836,-0.1083348169922828,-0.7594951391220093,-0.0074599245563149,-0.0015641035279259,0.0,0.0,-0.1475505232810974,0.1416518688201904
-0.0443602576851844,0.8222129344940186,-0.1091364026069641,-0.7726980447769165,-0.0080003542825579,-0.0108088469132781,0.0,0.0,0.7196959257125854,0.369938850402832
-0.0455801971256732,0.8058335781097412,-0.120417021214962,-0.7279849648475647,-0.009554742835462,-0.0310876164585351,0.0,0.0,-0.8505991101264954,-0.0884148478507995
-0.0468134880065918,0.7891570925712585,-0.1212683543562889,-0.7411880493164062,-0.0115914968773722,-0.0407351776957511,0.0,0.0,-0.3365522623062134,-0.6038398742675781
-0.048110008239746,0.7721829414367676,-0.1283495724201202,-0.754420816898346,-0.0128768291324377,-0.0257064439356327,0.0,0.0,-0.5805454850196838,-0.7924662828445435
-0.0494683273136615,0.7549123764038086,-0.1352386027574539,-0.7675821185112,-0.0134615609422326,-0.0116948941722512,0.0,0.0,0.6239020824432373,0.3462265729904175
-0.0508877746760845,0.7384321689605713,-0.1405702531337738,-0.7324673533439636,-0.0148159358650445,-0.0270874444395303,0.0,0.0,0.095936894416809,0.4763058423995971
-0.0522448532283306,0.7220957279205322,-0.1341546326875686,-0.7260807752609253,-0.0163499303162097,-0.0306796915829181,0.0,0.0,-0.4709557294845581,-0.1331961750984192
-0.053616713732481,0.7054624557495117,-0.1351053863763809,-0.7392841577529907,-0.018405694514513,-0.0411153398454189,0.0,0.0,-0.4455851316452026,0.238755464553833
-0.0550036430358886,0.6885322332382202,-0.1360722184181213,-0.7524877786636353,-0.0209894925355911,-0.0516759678721427,0.0,0.0,0.2918547391891479,0.0389279127120971
-0.0564726814627647,0.6718600392341614,-0.1433993875980377,-0.7410345673561096,-0.0244527664035558,-0.069265566766262,0.0,0.0,-0.5148237347602844,0.2276742458343505
-0.0579571723937988,0.654891312122345,-0.1443950831890106,-0.7542391419410706,-0.0284551568329334,-0.0800478309392929,0.0,0.0,0.7184736728668213,0.3224923610687256
-0.0592938438057899,0.6386715769767761,-0.1297288089990615,-0.7209545373916626,-0.0323375910520553,-0.077648751437664,0.0,0.0,0.1187964677810669,0.2475775480270385
-0.0605774894356727,0.6229888796806335,-0.1241244822740554,-0.6971132755279541,-0.0365345142781734,-0.0839384421706199,0.0,0.0,-0.7872856259346008,0.5476841926574707
-0.0618392005562782,0.6070123314857483,-0.1203968152403831,-0.7102223038673401,-0.0422350987792015,-0.1140118092298507,0.0,0.0,-0.3103184700012207,-0.0260349512100219
-0.063116930425167,0.5907394289970398,-0.1214384213089943,-0.7234293818473816,-0.0484919734299182,-0.1251374185085296,0.0,0.0,0.0717003345489502,-0.2092413306236267
-0.0644536986947059,0.5748569965362549,-0.1264748275279998,-0.7061393857002258,-0.0556094348430633,-0.1423492729663849,0.0,0.0,-0.0527319312095642,0.0002092123031616
-0.0658067688345909,0.5586785674095154,-0.1275343000888824,-0.719348669052124,-0.0632895678281784,-0.153602734208107,0.0,0.0,0.3995527029037475,-0.6186593174934387
-0.0671701431274414,0.5429850220680237,-0.1293036639690399,-0.6978031396865845,-0.0702593252062797,-0.1393952071666717,0.0,0.0,-0.2979433536529541,0.0389882326126098
-0.0685501098632812,0.5269957184791565,-0.130377858877182,-0.7110130190849304,-0.0777968764305114,-0.1507511436939239,0.0,0.0,0.7291589975357056,-0.5914208889007568
-0.070083811879158,0.51165771484375,-0.1460175216197967,-0.6820888519287109,-0.0850836336612701,-0.1457351148128509,0.0,0.0,-0.0295682549476623,0.4499907493591308
-0.0716341957449913,0.4960240721702575,-0.1471037119626999,-0.6952998042106628,-0.0929421260952949,-0.157169759273529,0.0,0.0,0.6499125957489014,0.5778084993362427
-0.0730411559343338,0.4805057346820831,-0.1312545835971832,-0.6903181076049805,-0.1023056432604789,-0.1872701942920684,0.0,0.0,0.7306859493255615,0.1402473449707031
-0.0743452087044715,0.4660223722457886,-0.1205299347639083,-0.6444104313850403,-0.1121128499507904,-0.1961439549922943,0.0,0.0,-0.608899712562561,-0.5265630483627319
-0.0757140144705772,0.4512498378753662,-0.1276549398899078,-0.6572769284248352,-0.1212818399071693,-0.1833799183368683,0.0,0.0,-0.1408485770225525,-0.6709009408950806
-0.0771599784493446,0.4361960887908935,-0.1363572478294372,-0.6697493195533752,-0.1294825226068496,-0.1640140116214752,0.0,0.0,0.0254484415054321,-0.1481974124908447
-0.078554056584835,0.4214179515838623,-0.1306691318750381,-0.6575837731361389,-0.138171836733818,-0.1737865805625915,0.0,0.0,0.2104287147521972,-0.6163601875305176
-0.0800309181213378,0.4073026776313782,-0.1394591629505157,-0.6281310319900513,-0.146376371383667,-0.1640906631946563,0.0,0.0,-0.5339314937591553,-0.456006646156311
-0.0815246552228927,0.3928924202919006,-0.1405684649944305,-0.6413461565971375,-0.1551581472158432,-0.1756359487771988,0.0,0.0,0.4422414302825928,-0.6979629993438721
-0.0830696076154708,0.3787081241607666,-0.1464610397815704,-0.6312719583511353,-0.1631813794374466,-0.1604645848274231,0.0,0.0,0.2044703960418701,-0.6883754134178162
-0.0845922455191612,0.3645720183849334,-0.1451207250356674,-0.6290729641914368,-0.1703334748744964,-0.1430423557758331,0.0,0.0,0.0592591762542724,-0.6500126719474792
-0.0861687660217285,0.3504749536514282,-0.1512135565280914,-0.627287745475769,-0.1767886281013488,-0.1291026771068573,0.0,0.0,0.3547885417938232,-0.7205210328102112
-0.0877104774117469,0.3370665609836578,-0.1485922038555145,-0.596603512763977,-0.1823821663856506,-0.1118707284331321,0.0,0.0,0.0703179836273193,-0.4864987134933471
-0.0891220122575759,0.3241283893585205,-0.1352535635232925,-0.5757668018341064,-0.1883100420236587,-0.1185571998357772,0.0,0.0,-0.22821706533432,0.1587272882461547
-0.0905502289533615,0.3108951449394226,-0.1363610029220581,-0.5889812707901001,-0.1948106586933136,-0.1300126165151596,0.0,0.0,-0.2321764826774597,-0.7862620949745178
-0.0920701995491981,0.2973806858062744,-0.1468780636787414,-0.6013261079788208,-0.199969857931137,-0.1031837239861488,0.0,0.0,0.9311113357543944,0.0497051477432251
-0.0933771133422851,0.2849153280258178,-0.1252191066741943,-0.5547647476196289,-0.2054804563522339,-0.1102119460701942,0.0,0.0,0.6882896423339844,-0.972049355506897
-0.0947696715593338,0.2730774283409118,-0.1350220143795013,-0.5267245769500732,-0.2097545713186264,-0.0854821950197219,0.0,0.0,0.4174470901489258,-0.8070836663246155
-0.0961711853742599,0.2618370354175567,-0.1368993818759918,-0.5000357627868652,-0.2130379229784011,-0.0656669065356254,0.0,0.0,-0.2941440343856811,-0.1203658580780029
-0.0975891128182411,0.2503014802932739,-0.1379913687705993,-0.5132490992546082,-0.2168839126825332,-0.0769193917512893,0.0,0.0,0.3163442611694336,0.2460978031158447
-0.0988558754324913,0.2391271740198135,-0.122635468840599,-0.4972335696220398,-0.2209684252738952,-0.0816903784871101,0.0,0.0,0.7691200971603394,-0.8761131763458252
-0.1000998467206955,0.2281991392374038,-0.1216045394539833,-0.4861125349998474,-0.2238042950630188,-0.0567174963653087,0.0,0.0,0.5966761112213135,-0.1005337834358215
-0.1011863723397255,0.2175150662660598,-0.1057118028402328,-0.4752955734729767,-0.2267791032791137,-0.0594962053000927,0.0,0.0,0.834716796875,-0.7015762329101562
-0.102027989923954,0.2074213773012161,-0.0824818611145019,-0.4488682150840759,-0.2284801006317138,-0.0340201444923877,0.0,0.0,0.8615512847900391,-0.9352189302444458
-0.1026883125305175,0.1976404786109924,-0.0659583061933517,-0.434719443321228,-0.2285580486059188,-0.001558925025165,0.0,0.0,0.6453869342803955,-0.9313278794288636
-0.1032717674970626,0.1886909157037735,-0.0595777556300163,-0.3975647389888763,-0.2273043096065521,0.0250746868550777,0.0,0.0,-0.1708475351333618,-0.94207364320755
-0.1039385795593261,0.1794767677783966,-0.0691684707999229,-0.4091344773769378,-0.2247819155454635,0.0504478402435779,0.0,0.0,-0.2560086250305176,-0.9821759462356568
-0.1046803444623947,0.1699914783239364,-0.0776985436677932,-0.4210379421710968,-0.2212204784154892,0.0712291821837425,0.0,0.0,-0.3460896015167236,-0.6708661317825317
-0.1054817214608192,0.1602184325456619,-0.0842460393905639,-0.4337458610534668,-0.217068150639534,0.0830466076731681,0.0,0.0,0.8568471670150757,0.7402591705322266
-0.1061811447143554,0.1509881317615509,-0.0719146281480789,-0.4099463820457458,-0.2150740176439285,0.0398827530443668,0.0,0.0,0.7640612125396729,-0.7185159921646118
-0.1066572219133377,0.1428074687719345,-0.0507192611694335,-0.3631381690502167,-0.2119304537773132,0.0628709197044372,0.0,0.0,-0.3596623539924621,-0.6998316049575806
-0.1072045341134071,0.1343491375446319,-0.0587839558720588,-0.3753487765789032,-0.207836627960205,0.081876665353775,0.0,0.0,0.2447717189788818,-0.5769304037094116
-0.1077878028154373,0.1265262514352798,-0.0628437846899032,-0.3470544815063476,-0.2032787203788757,0.0911584943532943,0.0,0.0,-0.0691020488739013,-0.6866216063499451
-0.1084306687116622,0.1184253990650177,-0.0694914609193801,-0.3593312203884125,-0.1980371922254562,0.1048308461904525,0.0,0.0,0.5900702476501465,0.4012678861618042
-0.1089964881539344,0.1111063361167907,-0.0610657446086406,-0.324702113866806,-0.193526804447174,0.0902077779173851,0.0,0.0,0.6814330816268921,-0.3025986552238464
-0.1095127090811729,0.1046375632286071,-0.0552376136183738,-0.2870289981365204,-0.1898916512727737,0.0727029293775558,0.0,0.0,-0.2557512521743774,-0.2946470975875854
-0.1100430488586425,0.0978732407093048,-0.0561792254447937,-0.300240159034729,-0.1867348104715347,0.0631367713212966,0.0,0.0,0.4092268943786621,-0.3449263572692871
-0.1105899810791015,0.0915968716144561,-0.0569014362990856,-0.2786729037761688,-0.1845089495182037,0.0445169210433959,0.0,0.0,0.4272274971008301,0.4205909967422485
-0.111195370554924,0.0857274830341339,-0.0616917982697486,-0.2607161104679107,-0.1833471208810806,0.0232365243136882,0.0,0.0,-0.0681621432304382,0.5311169624328613
-0.1117651909589767,0.0795517563819885,-0.0564523227512836,-0.2745422720909118,-0.1838904619216919,-0.0108665861189365,0.0,0.0,0.7053253650665283,0.5318228006362915
-0.1121715530753135,0.0736071914434433,-0.0387690216302871,-0.2644378244876861,-0.1857652366161346,-0.037495482712984,0.0,0.0,0.8564262390136719,0.5341918468475342
-0.1122203841805458,0.0685748681426048,-0.0020089468453079,-0.2240224927663803,-0.1886502206325531,-0.0576996728777885,0.0,0.0,0.3281522989273071,-0.624538242816925
-0.1122326850891113,0.0641904175281524,0.0008624913170933,-0.1951298713684082,-0.1907432973384857,-0.0418619588017463,0.0,0.0,0.6443353891372681,0.1116976737976074
-0.1119565963745117,0.060722216963768,0.029448976740241,-0.1543809622526168,-0.1925974637269973,-0.0370834656059742,0.0,0.0,0.2220364809036255,-0.6754804849624634
-0.1116009727120399,0.0575863942503929,0.0363736376166343,-0.1394736170768737,-0.1934142410755157,-0.0163356624543666,0.0,0.0,-0.2421258687973022,-0.3249974250793457
-0.1112572699785232,0.054154597222805,0.0355798080563545,-0.1526825726032257,-0.1946288645267486,-0.0242922194302082,0.0,0.0,0.2015837430953979,-0.908472776412964
-0.1108332648873329,0.0512834899127483,0.0421530939638614,-0.1275738030672073,-0.1943808048963546,0.0049613104201853,0.0,0.0,-0.2866783142089844,-0.2194264531135559
-0.1104205101728439,0.0481162630021572,0.0413982830941677,-0.1407823860645294,-0.1945093721151352,-0.0025712908245623,0.0,0.0,0.2149533033370971,0.0590530633926391
-0.1100191101431846,0.0453481525182724,0.0410420522093772,-0.1231449544429779,-0.1954196989536285,-0.0182064529508352,0.0,0.0,-0.3122962713241577,-0.3983358144760132
-0.1096283942461013,0.0422839969396591,0.0403282344341278,-0.1363532692193985,-0.1966844350099563,-0.0252943448722362,0.0,0.0,0.1762831211090088,-0.3727147579193115
-0.1091846451163292,0.0395186059176921,0.0460468903183937,-0.1231298521161079,-0.1983630508184433,-0.0335722938179969,0.0,0.0,-0.1191977858543396,-0.7388042211532593
-0.1088057532906532,0.0364721156656742,0.0384744442999362,-0.1354750841856002,-0.1989536732435226,-0.0118123134598135,0.0,0.0,0.0250382423400878,-0.5128690004348755
-0.1083447486162185,0.0334383584558963,0.0458345785737037,-0.1347987800836563,-0.1986852139234542,0.0053689652122557,0.0,0.0,0.261676549911499,-0.8238211870193481
-0.1077699661254882,0.030873879790306,0.0557964518666267,-0.1137510910630226,-0.1969901174306869,0.0339020080864429,0.0,0.0,-0.4055796861648559,-0.802304208278656
-0.1072625145316124,0.0280386060476303,0.0478033199906349,-0.1256264448165893,-0.1940403282642364,0.0589961633086204,0.0,0.0,-0.110020637512207,-0.2181366682052612
