x_pos,y_pos,x_vel,y_vel,angle,ang_vel,leg_1,leg_2,main_booster,lat_booster
-0.0015458107227459,1.4031078815460205,-0.1561236828565597,-0.3472072780132293,0.0013835430145263,0.0272633433341979,0.0,0.0,-0.1230382919311523,0.8658555746078491
-0.0030401230324059,1.3947982788085938,-0.1485031247138977,-0.3693151772022247,0.0004662563442252,-0.0183469858020544,0.0,0.0,-0.2191191911697387,0.45679771900177
-0.004556655883789,1.3859716653823853,-0.1503065973520279,-0.3922951519489288,-0.0008595071267336,-0.0265179686248302,0.0,0.0,0.4290937185287475,0.6198511123657227
-0.0061588287353515,1.3772748708724976,-0.1569645702838897,-0.386530339717865,-0.0040760119445621,-0.0643362998962402,0.0,0.0,-0.1150936484336853,0.6385195255279541
-0.0077219964005053,1.36806321144104,-0.1511010825634002,-0.4094252586364746,-0.0092392032966017,-0.103273406624794,0.0,0.0,0.2433551549911499,-0.2350778579711914
-0.009200096130371,1.3589472770690918,-0.1426630914211273,-0.4051944017410278,-0.0143250524997711,-0.101726233959198,0.0,0.0,0.4261834621429443,-0.0848796367645263
-0.010712337680161,1.3500632047653198,-0.1455656439065933,-0.3949100375175476,-0.0199236590415239,-0.1119825989007949,0.0,0.0,-0.380675196647644,-0.4994372129440307
-0.012246417813003,1.3406630754470823,-0.1473171561956405,-0.4178733229637146,-0.0259430631995201,-0.1203990206122398,0.0,0.0,0.3107891082763672,-0.0598170757293701
-0.0137944221496582,1.331743240356445,-0.1482459008693695,-0.3965678811073303,-0.0324310883879661,-0.1297723948955536,0.0,0.0,-0.0667288899421691,0.1961969137191772
-0.0153640750795602,1.3223074674606323,-0.1499748528003692,-0.4195371270179748,-0.0393436662852764,-0.1382644027471542,0.0,0.0,-0.1348412036895752,0.3488330841064453
-0.0169551856815814,1.3123559951782229,-0.1516906917095184,-0.4424957036972046,-0.0466824658215045,-0.1467895060777664,0.0,0.0,-0.3763469457626343,0.6990542411804199
-0.0185060501098632,1.3018834590911863,-0.145683079957962,-0.4657626748085022,-0.0559979379177093,-0.1863267421722412,0.0,0.0,-0.5627826452255249,-0.0937349796295166
-0.0200780872255563,1.290895938873291,-0.1473658829927444,-0.4887284934520721,-0.0657413601875305,-0.194885641336441,0.0,0.0,-0.0879486203193664,0.3398771286010742
-0.0216710083186626,1.2793936729431152,-0.1490330249071121,-0.5116955041885376,-0.0759147703647613,-0.2034864872694015,0.0,0.0,-0.3649193048477173,0.2693730592727661
-0.023284625262022,1.2673766613006592,-0.1506830602884292,-0.5346633195877075,-0.0865189284086227,-0.2121023684740066,0.0,0.0,-0.5942093133926392,-0.015968382358551
-0.0249189380556345,1.2548452615737915,-0.1523144394159317,-0.557632565498352,-0.0975547656416893,-0.2207365930080413,0.0,0.0,0.036910057067871,-0.262879729270935
-0.0264351852238178,1.2425882816314695,-0.1404956877231598,-0.5455162525177002,-0.1086170375347137,-0.2212654054164886,0.0,0.0,-0.2899225950241089,-0.4309991598129272
-0.0279715545475482,1.2298169136047363,-0.1420874893665313,-0.5684950947761536,-0.1201129928231239,-0.22993965446949,0.0,0.0,0.1395981311798095,-0.6261541843414307
-0.0294355396181345,1.217357158660889,-0.1358010321855545,-0.5546516180038452,-0.1306799054145813,-0.2113577425479889,0.0,0.0,-0.3696578741073608,-0.92878520488739
-0.0310018546879291,1.204398512840271,-0.1477011144161224,-0.5767441987991333,-0.139581948518753,-0.1780571043491363,0.0,0.0,0.6580276489257812,-0.2659103870391845
-0.032355785369873,1.1920193433761597,-0.1266413778066635,-0.5510278344154358,-0.1483230292797088,-0.1748374253511428,0.0,0.0,-0.3736766576766968,-0.6191819906234741
-0.0337767601013183,1.1791322231292725,-0.1341270059347152,-0.5735683441162109,-0.1562892347574234,-0.1593382954597473,0.0,0.0,-0.2633677721023559,-0.7343355417251587
-0.0352616310119628,1.1657400131225586,-0.141246497631073,-0.5959872007369995,-0.1635411977767944,-0.1450522243976593,0.0,0.0,0.4661667346954345,-0.8573395013809204
-0.0367189422249794,1.152232646942139,-0.1398606747388839,-0.6009777784347534,-0.1694317609071731,-0.1178217753767967,0.0,0.0,0.8680946826934814,-0.7302424907684326
-0.0383002273738384,1.1393468379974363,-0.1528831571340561,-0.5733128786087036,-0.1746968179941177,-0.1053104847669601,0.0,0.0,0.7846999168395996,-0.4596292376518249
-0.0399249084293842,1.127089262008667,-0.1560464650392532,-0.5455501675605774,-0.1811292469501495,-0.1286486983299255,0.0,0.0,-0.5797480940818787,-0.7938907742500305
-0.041627787053585,1.1143382787704468,-0.1650216728448867,-0.5673577785491943,-0.1864167749881744,-0.1057508587837219,0.0,0.0,0.5067968368530273,-0.1957802176475525
-0.0433254241943359,1.102215051651001,-0.1635128855705261,-0.5396087169647217,-0.1926965564489364,-0.12559574842453,0.0,0.0,0.5223829746246338,-0.0181899070739746
-0.0450210571289062,1.0906625986099243,-0.162320852279663,-0.514407753944397,-0.1999740302562713,-0.1455493569374084,0.0,0.0,0.7432804107666016,-0.4185891151428222
-0.0466520301997661,1.0793582201004028,-0.1553452759981155,-0.5034800171852112,-0.2077959924936294,-0.1564391553401947,0.0,0.0,-0.107171893119812,-0.3560384511947632
-0.0482985489070415,1.0675396919250488,-0.1564622670412063,-0.5264477729797363,-0.2160604149103164,-0.1652884185314178,0.0,0.0,-0.4003374576568603,-0.5079175233840942
-0.0500044822692871,1.05521821975708,-0.16312275826931,-0.5487309098243713,-0.223615676164627,-0.1511052548885345,0.0,0.0,0.2990884780883789,-0.5220800638198853
-0.0516929626464843,1.0433461666107178,-0.1618417352437973,-0.5287247896194458,-0.2307149767875671,-0.1419859528541565,0.0,0.0,0.4086648225784302,-0.5642848014831543
-0.0534261688590049,1.0314393043518066,-0.1668790727853775,-0.530221700668335,-0.237255647778511,-0.1308134794235229,0.0,0.0,0.5415909290313721,-0.5075611472129822
-0.0550575256347656,1.019880294799805,-0.157306969165802,-0.5146776437759399,-0.243173137307167,-0.1183497756719589,0.0,0.0,-0.2351446747779846,-0.8728322386741638
-0.0567644126713275,1.0078370571136477,-0.1661235392093658,-0.5360126495361328,-0.2478207200765609,-0.0929515808820724,0.0,0.0,-0.1686758995056152,-0.403650164604187
-0.0584823600947856,0.9952792525291444,-0.1667999923229217,-0.5589786171913147,-0.2529133856296539,-0.1018524914979934,0.0,0.0,0.4937589168548584,-0.8607689142227173
-0.06006545946002,0.9832234382629396,-0.1546351015567779,-0.5364490151405334,-0.2566564381122589,-0.0748609751462936,0.0,0.0,-0.3369667530059814,-0.7122762203216553
-0.061714269220829,0.9706832766532898,-0.1622913181781768,-0.5577988028526306,-0.2593035697937011,-0.0529424250125885,0.0,0.0,0.1737709045410156,-0.9669833183288574
-0.063311293721199,0.9582757353782654,-0.1585994660854339,-0.551645040512085,-0.2604382932186126,-0.0226936135441064,0.0,0.0,0.1715340614318847,-0.4648494720458984
-0.0648467987775802,0.9461827874183656,-0.1516619473695755,-0.5378043055534363,-0.2623693943023681,-0.0386226251721382,0.0,0.0,-0.4164233803749084,-0.9356932044029236
-0.0664458274841308,0.933595597743988,-0.1590452939271927,-0.5595825910568237,-0.2632432878017425,-0.0174776315689086,0.0,0.0,0.0705047845840454,-0.5918332934379578
-0.0679756179451942,0.9207721948623656,-0.1529468595981598,-0.5699336528778076,-0.2632738053798675,-0.0006102575571276,0.0,0.0,-0.1414410471916198,-0.5366930961608887
-0.0695441216230392,0.907446563243866,-0.1572736799716949,-0.5921732187271118,-0.2628447413444519,0.008581131696701,0.0,0.0,-0.2366014719009399,-0.8871532082557678
-0.0711900740861892,0.8936249613761902,-0.1664468199014663,-0.6139602065086365,-0.2609550952911377,0.0377930589020252,0.0,0.0,-0.9728643298149108,-0.3890612721443176
-0.0728385001420974,0.8792884945869446,-0.1662531793117523,-0.6369251608848572,-0.2595120370388031,0.0288611389696598,0.0,0.0,-0.694773256778717,-0.6416172385215759
-0.0745328888297081,0.8644512295722961,-0.171554833650589,-0.6590610146522522,-0.2573519945144653,0.0432005487382411,0.0,0.0,-0.7494330406188965,-0.4085384011268616
-0.0762277618050575,0.8490990996360779,-0.1711616963148117,-0.6820259094238281,-0.2556381523609161,0.0342764630913734,0.0,0.0,-0.6855142116546631,-0.6464409828186035
-0.0779811888933181,0.8332610726356506,-0.178157165646553,-0.703424334526062,-0.2527699768543243,0.0573635399341583,0.0,0.0,-0.3417578935623169,-0.7640150785446167
-0.0797939300537109,0.8169295191764832,-0.1852151304483413,-0.7251745462417603,-0.2487504929304123,0.0803897306323051,0.0,0.0,-0.58292156457901,-0.6684487462043762
-0.0816431045532226,0.8000978231430054,-0.1894441545009613,-0.7473176121711731,-0.2441471815109253,0.0920666307210922,0.0,0.0,0.2243436574935913,-0.1675263047218322
-0.0833984389901161,0.7835614085197449,-0.1794270128011703,-0.7343114018440247,-0.2401852756738662,0.0792380422353744,0.0,0.0,0.1483304500579834,-0.0733914971351623
-0.0850022286176681,0.7669331431388855,-0.1641909778118133,-0.7384164333343506,-0.2363150715827942,0.0774040669202804,0.0,0.0,-0.3452984690666199,-0.1444193124771118
-0.0866010636091232,0.7497898936271667,-0.1632600128650665,-0.7613814473152161,-0.2328869998455047,0.0685613676905632,0.0,0.0,-0.019976258277893,0.1091395616531372
-0.0881940871477127,0.7321317791938782,-0.1622520238161087,-0.7843459844589233,-0.2298998534679412,0.0597433447837829,0.0,0.0,0.7075518369674683,-0.1120252013206482
-0.0897658318281173,0.7147034406661987,-0.1592370569705963,-0.7742677927017212,-0.2278089672327041,0.0418180935084819,0.0,0.0,0.7062408924102783,-0.443880558013916
-0.0910498648881912,0.6979299783706665,-0.1304803043603897,-0.7451702952384949,-0.2257067412137985,0.0420445315539836,0.0,0.0,-0.5278754830360413,-0.6287176609039307
-0.0923629775643348,0.6806566715240479,-0.1339200735092163,-0.7673050761222839,-0.2230619937181472,0.0528946109116077,0.0,0.0,0.7768785953521729,-0.7353916764259338
-0.0934417694807052,0.6641611456871033,-0.111713096499443,-0.7325560450553894,-0.2191759794950485,0.0777201503515243,0.0,0.0,0.0536847114562988,0.2092359066009521
-0.0944499000906944,0.6479002833366394,-0.1040044873952865,-0.7222383618354797,-0.2159460932016372,0.064597450196743,0.0,0.0,-0.2450100183486938,-0.2263745069503784
-0.0954483970999717,0.6311241984367371,-0.1026226729154586,-0.7452019453048706,-0.2131450027227401,0.0560217909514904,0.0,0.0,0.6388665437698364,-0.6647676825523376
-0.0964461341500282,0.6149073839187622,-0.1032175868749618,-0.7202557325363159,-0.2096669971942901,0.069560170173645,0.0,0.0,0.082020878791809,-0.2173223495483398
-0.0972835570573806,0.5986470580101013,-0.0871512070298194,-0.7222030758857727,-0.2062373012304306,0.068594142794609,0.0,0.0,0.4965627193450928,-0.8235720992088318
-0.0980363860726356,0.5827005505561829,-0.0799489170312881,-0.7080872058868408,-0.2015357315540313,0.0940314754843711,0.0,0.0,0.5401208400726318,0.1252835988998413
-0.0986958518624305,0.5667860507965088,-0.0702338963747024,-0.7067366242408752,-0.1972151398658752,0.0864116698503494,0.0,0.0,0.5258481502532959,-0.6528695225715637
-0.0994094833731651,0.5512114763259888,-0.0762960836291313,-0.6915552020072937,-0.1922524124383926,0.0992546826601028,0.0,0.0,0.7157275676727295,-0.6203603148460388
-0.0999646186828613,0.5364446043968201,-0.0613473244011402,-0.6555593013763428,-0.1863858550786972,0.1173310279846191,0.0,0.0,-0.5049778819084167,0.3416785001754761
-0.1005071625113487,0.5211626887321472,-0.0596993640065193,-0.6785233616828918,-0.180919200181961,0.1093332022428512,0.0,0.0,0.7360905408859253,-0.004506230354309
-0.1008474379777908,0.506681501865387,-0.0392175912857055,-0.6429837942123413,-0.1757150590419769,0.1040828675031662,0.0,0.0,-0.0129233002662658,-0.1489246487617492
-0.1011745482683181,0.4916850328445434,-0.0375189073383808,-0.6659468412399292,-0.1708983480930328,0.0963345319032669,0.0,0.0,0.5874596834182739,-0.5809434056282043
-0.1015162467956543,0.4771734476089477,-0.0395435839891433,-0.6443535089492798,-0.1655270457267761,0.1074263453483581,0.0,0.0,0.8592342138290405,0.1276730298995971
-0.1016947776079177,0.4631741642951965,-0.023006210103631,-0.6216259598731995,-0.1603680998086929,0.1031788736581802,0.0,0.0,0.7117633819580078,-0.2710992097854614
-0.1018511801958084,0.4499870538711548,-0.0198309570550918,-0.5856484174728394,-0.1561906784772873,0.0835487842559814,0.0,0.0,-0.1039955019950866,0.1893757581710815
-0.1019934639334678,0.4362844228744507,-0.0180560760200023,-0.6086095571517944,-0.1523681879043579,0.0764499455690383,0.0,0.0,0.7163052558898926,-0.8440329432487488
-0.102164551615715,0.4226861000061035,-0.0222134944051504,-0.6038550734519958,-0.1472731679677963,0.1019003018736839,0.0,0.0,0.8347783088684082,0.0466444492340087
-0.1021932587027549,0.4090913832187652,-0.0079922312870621,-0.6037144064903259,-0.1421631276607513,0.1022009029984474,0.0,0.0,0.891904354095459,-0.067287266254425
-0.102187730371952,0.3955658972263336,-0.0040837451815605,-0.6006985902786255,-0.1375432312488556,0.0923982635140419,0.0,0.0,0.8229334354400635,0.420085072517395
-0.1020562201738357,0.3828270435333252,0.0088721085339784,-0.5657836198806763,-0.1332763284444809,0.0853377804160118,0.0,0.0,0.5449188947677612,-0.3884895443916321
-0.1017336845397949,0.3706915974617004,0.0279162321239709,-0.5389712452888489,-0.1289602816104889,0.0863208025693893,0.0,0.0,0.5074100494384766,-0.0917111635208129
-0.1014011353254318,0.3591693937778473,0.0296736657619476,-0.5117915868759155,-0.1254007220268249,0.0711915865540504,0.0,0.0,-0.4261307120323181,-0.7212267518043518
-0.101122185587883,0.3471370935440063,0.0228293985128402,-0.5343531966209412,-0.1203627809882164,0.1007589697837829,0.0,0.0,0.2309743165969848,0.0374021530151367
-0.1007267013192176,0.3354606032371521,0.0346036925911903,-0.5185608267784119,-0.1154375970363617,0.0985035598278045,0.0,0.0,-0.0164445042610168,-0.2486276030540466
-0.1003147140145301,0.3232683539390564,0.0364652872085571,-0.5415201783180237,-0.1107473522424697,0.0938048809766769,0.0,0.0,0.8883401155471802,-0.2250893115997314
-0.099863052368164,0.3117255568504333,0.0409610532224178,-0.5127073526382446,-0.1065640896558761,0.0836654081940651,0.0,0.0,0.5098620653152466,-0.0727485418319702
-0.0993373841047287,0.3006215691566467,0.0485946200788021,-0.4932301938533783,-0.1026299744844436,0.0786822736263275,0.0,0.0,0.0774004459381103,0.1013038158416748
-0.0986993759870529,0.2895590662956238,0.0597480610013008,-0.4913975894451141,-0.0986120477318763,0.0803587585687637,0.0,0.0,0.0535844564437866,-0.1225860714912414
-0.0980076789855957,0.2783040106296539,0.0652079135179519,-0.4999679625034332,-0.0946833342313766,0.0785743743181228,0.0,0.0,0.4918621778488159,-0.4677222371101379
-0.0971807464957237,0.2670639157295227,0.0784733891487121,-0.4992983639240265,-0.0905055552721023,0.0835558325052261,0.0,0.0,0.1483091115951538,0.1856502294540405
-0.0961984619498252,0.2558867633342743,0.0936489254236221,,-0.0859718695282936,0.0906736701726913,0.0,0.0,0.4709755182266235,-0.526668131351471
-0.0950767546892166,0.2447025179862976,0.1063054800033569,-0.496751606464386,-0.0801543071866035,0.1163512468338012,0.0,0.0,0.5953779220581055,-0.4259275197982788
-0.0938841849565506,0.2340876162052154,0.1134780198335647,-0.4714737832546234,-0.0744353905320167,0.1143782511353492,0.0,0.0,0.2578004598617553,-0.6673445701599121
-0.0926565155386924,0.2238287031650543,0.1156519427895546,-0.4556140601634979,-0.0673965439200401,0.1407770216464996,0.0,0.0,-0.3950239419937134,-0.4952514171600342
-0.0914103537797927,0.2130540162324905,0.1175335869193077,-0.4785734713077545,-0.0603863112628459,0.1402044147253036,0.0,0.0,0.5355252027511597,-0.0020733475685119
-0.090033434331417,0.2022092491388321,0.1301649659872055,-0.4817026555538177,-0.0529487244784832,0.1487519443035125,0.0,0.0,0.6461658477783203,-0.7787284255027771
-0.0887299552559852,0.1916163116693496,0.1213462203741073,-0.47050940990448,-0.0440528206527233,0.177917867898941,0.0,0.0,0.4074432849884033,-0.2850770950317383
-0.0873027816414833,0.1816045194864273,0.1333307474851608,-0.4447204172611236,-0.0347853153944015,0.185350090265274,0.0,0.0,-0.0595610737800598,-0.5142042636871338
-0.0858984962105751,0.1710794568061828,0.1299086511135101,-0.4675676226615906,-0.0243957173079252,0.207792118191719,0.0,0.0,0.7820990085601807,-0.4866151809692383
-0.0845878571271896,0.1613308787345886,0.1210918053984642,-0.4331349730491638,-0.0145460730418562,0.196992889046669,0.0,0.0,0.4035649299621582,0.314253568649292
-0.0831748023629188,0.1519546657800674,0.1308791637420654,-0.4166469871997833,-0.0042528244666755,0.2058652639389038,0.0,0.0,0.4246963262557983,0.7126059532165527
-0.0817337036132812,0.1430390030145645,0.1350789070129394,-0.3962554037570953,0.0046574096195399,0.1782045662403106,0.0,0.0,-0.1585031747817993,-0.239327847957611
-0.0802725777029991,0.1336078494787216,0.1369513720273971,-0.4192171692848205,0.0137085597962141,0.181022822856903,0.0,0.0,0.6723477840423584,0.1447715759277343
-0.0788230895996093,0.1244169548153877,0.1357330530881881,-0.4086000323295593,0.0228027012199163,0.1818831264972686,0.0,0.0,0.6895155906677246,0.3422732353210449
-0.0774864181876182,0.1156287491321563,0.1248330697417259,-0.3907452821731567,0.0315222404897213,0.1743909418582916,0.0,0.0,0.7529431581497192,-0.3011626005172729
-0.0763062462210655,0.1071507558226585,0.109739601612091,-0.3769980370998382,0.0396974496543407,0.1635041385889053,0.0,0.0,0.3879857063293457,0.9876010417938232
-0.0749486908316612,0.0990785211324691,0.1291926056146621,-0.3589541018009186,0.0461833402514457,0.1297177374362945,0.0,0.0,0.6300235986709595,0.8471009731292725
-0.0734525695443153,0.0910377576947212,0.1444190144538879,-0.3575360476970672,0.0513187386095523,0.1027079671621322,0.0,0.0,0.5438153743743896,-0.1007117629051208
-0.0718365684151649,0.083559475839138,0.155525729060173,-0.3325883150100708,0.0573209673166275,0.120044469833374,0.0,0.0,0.7878966331481934,-0.7187228798866272
-0.0703314766287803,0.0768219083547592,0.1427998542785644,-0.2997611463069916,0.0649455264210701,0.1524911224842071,0.0,0.0,0.4125258922576904,0.3451926708221435
-0.0687308311462402,0.0706744268536567,0.1515180617570877,-0.2736170887947082,0.0734003707766532,0.1690969616174698,0.0,0.0,0.2740229368209839,0.9420350790023804
-0.0669992417097091,0.0646959617733955,0.1661963909864425,-0.2660694718360901,0.080291524529457,0.1378228962421417,0.0,0.0,0.1316022872924804,0.4492944478988647
-0.0652960762381553,0.0590374320745468,0.1630916595458984,-0.2518935799598694,0.0874487906694412,0.1431451588869094,0.0,0.0,0.0300315618515014,0.4501333236694336
-0.0635766983032226,0.0536022037267684,0.1642408818006515,-0.2420359402894973,0.0950802937150001,0.1526302397251129,0.0,0.0,0.0240565538406372,-0.1588921546936035
-0.0618130676448345,0.0480831488966941,0.1681241691112518,-0.2458369433879852,0.1032517328858375,0.1634285748004913,0.0,0.0,0.5825027227401733,0.6716680526733398
-0.0601634979248046,0.0429220050573349,0.1580315381288528,-0.2298785746097564,0.1101312637329101,0.1375907957553863,0.0,0.0,0.4887242317199707,-0.2076190114021301
-0.0586582198739051,0.0379179343581199,0.1438108384609222,-0.2229125052690506,0.1168019101023674,0.1334129273891449,0.0,0.0,0.6694363355636597,0.119779348373413
-0.0572192184627056,0.0332433097064495,0.1369442194700241,-0.2083190828561782,0.1237057298421859,0.1380764842033386,0.0,0.0,0.4991081953048706,0.4358329772949219
-0.0557950958609581,0.0287783239036798,0.1350274235010147,-0.1990742087364196,0.1310595273971557,0.1470759958028793,0.0,0.0,0.5971132516860962,-0.2935066223144531
-0.054269503802061,0.0243400186300277,0.1442366689443588,-0.1980131566524505,0.1393448561429977,0.1657064408063888,0.0,0.0,0.7770673036575317,-0.2953368425369262
-0.0527207367122173,0.0205011703073978,0.1457357108592987,-0.171495720744133,0.148468792438507,0.1824783980846405,0.0,0.0,0.2876436710357666,-0.7392540574073792
-0.0512801185250282,0.0170794576406478,0.1330627501010894,-0.1532094329595565,0.1594555228948593,0.2197345793247223,0.0,0.0,-0.1899166107177734,-0.3618592023849487
