x_pos,y_pos,x_vel,y_vel,angle,ang_vel,leg_1,leg_2,main_booster,lat_booster
-0.0015227317344397,1.403383493423462,-0.154044896364212,-0.3349555432796478,0.0015896703116595,0.031344823539257,0.0,0.0,0.8060661041954886,-0.6578253603487215
-0.00303525920026,1.3963825702667236,-0.1541021019220352,-0.3111588656902313,0.0044177826493978,0.0565681047737598,0.0,0.0,0.4483388484944657,0.6681257891470272
-0.0043656351044774,1.3896677494049072,-0.1346466243267059,-0.2984427809715271,0.0060089672915637,0.0318268053233623,0.0,0.0,0.6082297644341677,-0.0051373878144584
-0.0058115958236157,1.383440375328064,-0.1454650312662124,-0.2767736315727234,0.0068587721325457,0.0169975440949201,0.0,0.0,0.5568178619319288,-0.2026360599519217
-0.007136249449104,1.3778949975967407,-0.133725494146347,-0.2464644312858581,0.0081037785857915,0.0249026268720626,0.0,0.0,-0.2033691842576694,0.5471487417183183
-0.008403206244111,1.3721085786819458,-0.1264205873012542,-0.257173478603363,0.0078308209776878,-0.0054595209658145,0.0,0.0,-0.1990923153883899,0.9230999592912932
-0.0095945354551076,1.3660820722579956,-0.1168798953294754,-0.2678289413452148,0.0056103072129189,-0.0444142371416091,0.0,0.0,0.8056566496385329,0.079246705751689
-0.0106197353452444,1.3608770370483398,-0.1008680611848831,-0.2313375473022461,0.0039782226085662,-0.0326449647545814,0.0,0.0,0.5404194973842418,-0.1711889382670313
-0.0116518018767237,1.356600999832153,-0.101298950612545,-0.1900386959314346,0.0021001494023948,-0.0375646874308586,0.0,0.0,-0.3000693581109919,0.3930671131795007
-0.012675380334258,1.3520841598510742,-0.1002562195062637,-0.2007493525743484,3.002412086061668e-05,-0.0414066985249519,0.0,0.0,-0.560938796266991,-0.6420637658453531
-0.0137328151613473,1.3473269939422607,-0.104559801518917,-0.2114299684762954,-0.0011431879829615,-0.0234663113951683,0.0,0.0,-0.4442300288166756,0.3701498440154799
-0.014780044555664,1.3423289060592651,-0.1033320426940918,-0.2221352159976959,-0.0025115006137639,-0.0273687951266765,0.0,0.0,-0.3797136663305003,-0.924046312255142
-0.0158730503171682,1.3370949029922483,-0.1091720908880233,-0.2326189577579498,-0.0026389556005597,-0.0025497290771454,0.0,0.0,0.894309567599439,0.0138205910062221
-0.0168736465275287,1.332230567932129,-0.1001062542200088,-0.2161906361579895,-0.0025901566259562,0.0009759340318851,0.0,0.0,0.977710140890889,0.8638670081169282
-0.0176054947078228,1.3286137580871582,-0.0716990083456039,-0.160759836435318,-0.0040577389299869,-0.0293542593717575,0.0,0.0,-0.5104235269733093,0.5734930190948014
-0.0182696338742971,1.3247485160827637,-0.063375137746334,-0.1717924028635025,-0.0070680151693522,-0.0602110438048839,0.0,0.0,0.5340916900447019,0.426282767793819
-0.0187850948423147,1.3218328952789309,-0.048904787749052,-0.1295962184667587,-0.0096760280430316,-0.0521647147834301,0.0,0.0,0.2267421882344069,-0.1203484717128698
-0.0191760063171386,1.319092035293579,-0.0367450900375843,-0.1218301728367805,-0.0119888316839933,-0.0462603643536567,0.0,0.0,0.8946358374106294,-0.4979045141374099
-0.0194272994995117,1.3174893856048584,-0.0231160391122102,-0.0712529271841049,-0.0139812715351581,-0.0398527048528194,0.0,0.0,-0.6366147186048867,-0.3919363163657198
-0.0196605678647756,1.315645694732666,-0.0211080852895975,-0.081968255341053,-0.01617550291121,-0.0438885204493999,0.0,0.0,0.8433307535210199,-0.9960419075999511
-0.0197809226810932,1.3148247003555298,-0.0118565093725919,-0.0364888049662113,-0.0163476653397083,-0.0034438024740666,0.0,0.0,-0.2260182734018974,0.9607725916136592
-0.0198039058595895,1.3137553930282593,4.540410009212792e-05,-0.0475519746541976,-0.0186708755791187,-0.04646797478199,0.0,0.0,0.7531853516694413,-0.2672831670879937
-0.0196575168520212,1.3133081197738647,0.0165489614009857,-0.0199051555246114,-0.0205557588487863,-0.0377014800906181,0.0,0.0,0.509778515803782,-0.4988123684104852
-0.0194196701049804,1.3130457401275637,0.0256087835878133,-0.0116877444088459,-0.0223495848476886,-0.035879548639059,0.0,0.0,-0.0275357062544707,-0.5956268369758178
-0.0192172043025493,1.3125462532043457,0.0207888465374708,-0.0222120992839336,-0.0228845290839672,-0.0106997154653072,0.0,0.0,0.0030506723650056,0.9780882382514268
-0.0190113075077533,1.312431573867798,0.0232411362230777,-0.0051327645778656,-0.0255088582634925,-0.0524865873157978,0.0,0.0,0.3984551269521854,-0.1575304133947463
-0.0187620166689157,1.3129984140396118,0.0277773439884185,0.0251379944384098,-0.0283244214951992,-0.0563113093376159,0.0,0.0,-0.7112138783272219,0.9165598349543151
-0.0184305198490619,1.3133318424224854,0.0376643165946006,0.0147216785699129,-0.0327729769051075,-0.088971197605133,0.0,0.0,0.5062481631173761,-0.4257188515805696
-0.0181683544069528,1.314489245414734,0.0314779505133628,0.0513181760907173,-0.0379786640405654,-0.1041138172149658,0.0,0.0,-0.5333256360497685,-0.8568323519928014
-0.0179494861513376,1.3154070377349854,0.0255865044891834,0.0406912378966808,-0.041627824306488,-0.0729830712080001,0.0,0.0,0.0441225547724901,-0.3304825887853249
-0.0176685340702533,1.3168853521347046,0.0319373831152915,0.0655943006277084,-0.0454293303191661,-0.0760302543640136,0.0,0.0,-0.576188862323761,-0.9353540539741516
-0.0174427032470703,1.318123459815979,0.0245202537626028,0.0549639724195003,-0.0473374649882316,-0.0381625182926654,0.0,0.0,0.0692815780639648,-0.8412417769432068
-0.0172914508730173,1.3199151754379272,0.0155793372541666,0.0796195939183235,-0.0477952770888805,-0.0091562438756227,0.0,0.0,-0.3989448547363281,-0.3620011806488037
-0.0171101577579975,1.3214662075042725,0.0188070423901081,0.0689152777194976,-0.0484600812196731,-0.0132958367466926,0.0,0.0,-0.3715901374816894,-0.5833986401557922
-0.0169426910579204,1.3227810859680176,0.0164813715964555,0.0584469065070152,-0.0482020564377307,0.0051605035550892,0.0,0.0,-0.6315390467643738,-0.3036601543426513
-0.0167436599731445,1.3238552808761597,0.0198513604700565,0.0477425977587699,-0.0481506288051605,0.0010286886245012,0.0,0.0,-0.3743720054626465,0.1089203357696533
-0.0165122989565134,1.3246887922286987,0.0232888050377368,0.037038292735815,-0.0483054816722869,-0.003096945118159,0.0,0.0,-0.1763790845870971,-0.4342540502548218
-0.0162481311708688,1.3252815008163452,0.0267912056297063,0.0263339895755052,-0.0486662127077579,-0.0072147874161601,0.0,0.0,-0.125930905342102,-0.8258945345878601
-0.0160195343196392,1.3256478309631348,0.0216596517711877,0.0163202695548534,-0.0474801212549209,0.0237220488488674,0.0,0.0,-0.1125844717025756,-0.2759522795677185
-0.0157567970454692,1.3257735967636108,0.0252844635397195,0.0056158686056733,-0.0464988686144351,0.0196249075233936,0.0,0.0,-0.1123034954071044,0.0419312715530395
-0.0154592515900731,0.0,0.0289667341858148,-0.0050884773954749,-0.0457218252122402,0.0155407832935452,0.0,0.0,-0.4074362516403198,-0.2575738430023193
-0.0151264192536473,1.3253028392791748,0.032703973352909,-0.0157927777618169,-0.0451482273638248,0.0114715807139873,0.0,0.0,-0.5357273817062378,-0.8324206471443176
-0.0148132322356104,1.324700951576233,0.0295413546264171,-0.0266971681267023,-0.0433898270130157,0.0351682975888252,0.0,0.0,-0.4818442463874817,-0.4645779132843017
-0.0144637105986475,1.323858380317688,0.0333811566233634,-0.0374016277492046,-0.0418330840766429,0.0311349146068096,0.0,0.0,-0.5992026925086975,-0.8333715200424194
-0.0141478534787893,1.3227696418762207,0.0284155700355768,-0.0482986085116863,-0.0387086272239685,0.0624890848994255,0.0,0.0,-0.4839546680450439,0.3723578453063965
-0.0137947080656886,1.321440577507019,0.032348271459341,-0.0590035431087017,-0.0357836298644542,0.0584999620914459,0.0,0.0,-0.7796031832695007,-0.1702362298965454
-0.0134038925170898,1.3198707103729248,0.0363239385187625,-0.0697083324193954,-0.0330568179488182,0.054536372423172,0.0,0.0,-0.9329196214675904,-0.4417831897735595
-0.0129748340696096,1.3180601596832275,0.0403402596712112,-0.0804129764437675,-0.0305267684161663,0.0506007298827171,0.0,0.0,-0.727795422077179,0.4193955659866333
-0.0125072477385401,1.3160089254379272,0.0443949960172176,-0.0911174789071083,-0.02819200232625,0.0466954484581947,0.0,0.0,-0.8470733761787415,-0.5441952347755432
-0.0120452884584665,1.3137173652648926,0.042891900986433,-0.1017865315079689,-0.0249306336045265,0.0652275010943412,0.0,0.0,-0.6380594968795776,0.7536940574645996
-0.0114702228456735,1.3111822605133057,0.0562803447246551,-0.11265429854393,-0.0237171873450279,0.0242686085402965,0.0,0.0,-0.8499813079833984,-0.8690710663795471
-0.010930729098618,1.3084146976470947,0.0509948618710041,-0.1229512393474578,-0.0207995567470788,0.0583526082336902,0.0,0.0,-0.8882452845573425,0.9808043241500854
-0.0102596282958984,1.3053983449935913,0.0666786879301071,-0.1340579837560653,-0.0203749351203441,0.00849249958992,0.0,0.0,-0.9002800583839417,-0.9091719388961792
-0.0096197128295898,1.302151799201965,0.0619271993637084,-0.1442670673131942,-0.0183369163423776,0.0407604053616523,0.0,0.0,-0.8360718488693237,0.9094803333282472
-0.008849429897964,1.2986584901809692,0.0774270072579383,-0.1552610844373703,-0.0187386944890022,-0.0080353897064924,0.0,0.0,-0.4684485197067261,-0.7833868861198425
-0.0081103323027491,1.2949230670928955,0.0726759806275367,-0.1660073399543762,-0.0175164137035608,0.0244457628577947,0.0,0.0,-0.9401531219482422,0.1900472640991211
-0.0073301317170262,1.2909467220306396,0.0769623667001724,-0.1767111867666244,-0.0164722576737403,0.0208832453936338,0.0,0.0,-0.7542173862457275,-0.4358545541763305
-0.0065085412934422,1.2867298126220703,0.0812689214944839,-0.1874149739742279,-0.0156033979728817,0.0173771902918815,0.0,0.0,-0.6080681681632996,-0.4887427091598511
-0.0056455610319972,1.2822719812393188,0.0855937898159027,-0.1981187164783477,-0.0149068553000688,0.0139308692887425,0.0,0.0,-0.9396355152130128,-0.0609681606292724
-0.0047409059479832,1.2775733470916748,0.0899351835250854,-0.2088224291801452,-0.0143794687464833,0.0105475774034857,0.0,0.0,-0.9263286590576172,-0.5371284484863281
-0.0038332939147949,1.2726300954818726,0.0894074961543083,-0.2196865826845169,-0.0130408471450209,0.026772279292345,0.0,0.0,-0.8600402474403381,-0.7148448824882507
-0.0029496192000806,1.2674510478973389,0.0855008885264396,-0.2301534563302993,-0.0102062094956636,0.0566925108432769,0.0,0.0,-0.5831379294395447,0.8606265783309937
-0.0019416809082031,1.2620279788970947,0.1001778244972229,-0.2410244345664978,-0.0095928562805056,0.0122669246047735,0.0,0.0,-0.9165003299713136,-0.8330379724502563
-0.0009547233348712,1.2563661336898804,0.0966213643550872,-0.2516222596168518,-0.0075426842086017,0.0410032272338867,0.0,0.0,-0.7938181757926941,0.1177266836166381
7.476806786144152e-05,1.250463604927063,0.1010192781686782,-0.2623261511325836,-0.0056434534490108,0.0379847660660743,0.0,0.0,-0.6682191491127014,0.1374120712280273
0.0011466980213299,1.2443203926086426,0.1054233685135841,-0.273030012845993,-0.0038909884169697,0.0350491404533386,0.0,0.0,-0.5140296220779419,-0.4703285694122314
0.0022613524924963,1.23793625831604,0.1098319739103317,-0.2837338149547577,-0.0022810059599578,0.0321994982659816,0.0,0.0,-0.4514085650444031,-0.8429982662200928
0.0033610344398766,1.2313015460968018,0.1070124953985214,-0.2948740720748901,0.0006386528839357,0.0583932809531688,0.0,0.0,-0.5466334819793701,-0.7926951050758362
0.004443550016731,1.224435329437256,0.1039073020219802,-0.3051737248897552,0.0049303364939987,0.0858334451913833,0.0,0.0,-0.4940941333770752,0.6033177375793457
0.0056091309525072,1.217326045036316,0.1133746728301048,-0.3159790337085724,0.0080811064690351,0.0630151629447937,0.0,0.0,-0.6863049864768982,0.329866886138916
0.0068177222274243,1.209976077079773,0.1177843362092971,-0.3266832530498504,0.0111080417409539,0.0605388581752777,0.0,0.0,-0.8352609276771545,-0.0950425267219543
0.0080691333860158,1.2023855447769165,0.1221899166703224,-0.3373874127864837,0.0140161560848355,0.0581625513732433,0.0,0.0,-0.1160833835601806,-0.16579270362854
0.0093633653596043,1.1945542097091677,0.1265896111726761,-0.3480914533138275,0.0168105885386466,0.0558886006474494,0.0,0.0,-0.8328812718391418,0.0978007316589355
0.0107003208249807,1.1864819526672363,0.1309816241264343,-0.3587954342365265,0.0194965526461601,0.05371905118227,0.0,0.0,-0.8628425002098083,-0.9385961890220642
0.0120018003508448,1.1781593561172483,0.1255340129137039,-0.3699530661106109,0.0240509361028671,0.0910876393318176,0.0,0.0,-0.8485914468765259,-0.7097155451774597
0.0132962223142385,1.1695871353149414,0.1236675530672073,-0.3810918629169464,0.0297602787613868,0.1141868978738784,0.0,0.0,-0.886826753616333,-0.2595053315162658
0.0146332737058401,1.1607744693756104,0.1280250996351242,-0.3917978405952453,0.0353773236274719,0.1123405843973159,0.0,0.0,-0.8195353150367737,-0.3841900825500488
0.0160129554569721,1.151721477508545,0.1323671191930771,-0.40250363945961,0.0409075580537319,0.1106047257781028,0.0,0.0,-0.9054350852966307,-0.4141536355018616
0.017435073852539,1.142427921295166,0.1366914808750152,-0.4132094085216522,0.0463565774261951,0.108980193734169,0.0,0.0,-0.5785097479820251,-0.7124733924865723
0.0188323017209768,1.1328964233398438,0.1325904577970504,-0.4238564670085907,0.0534104146063327,0.141076847910881,0.0,0.0,-0.9601628184318542,-0.0028967261314392
0.0202716831117868,1.1231247186660769,0.1368728876113891,-0.4345638155937195,0.0603942275047302,0.1396762132644653,0.0,0.0,-0.8076086640357971,-0.2145791053771972
0.0217529293149709,1.1131129264831543,0.1411307156085968,-0.4452710151672363,0.0673136115074157,0.1383878886699676,0.0,0.0,-0.8519584536552429,-0.1187528371810913
0.0232758522033691,1.1028608083724976,0.1453613936901092,-0.455978125333786,0.0741742104291915,0.1372117102146148,0.0,0.0,-0.8058632612228394,-0.5841909646987915
0.024789810180664,1.0923655033111572,0.1432388424873352,-0.4668890535831451,0.0822501331567764,0.1615184843540191,0.0,0.0,-0.7059533596038818,0.8258373737335205
0.0264084823429584,1.0816419124603271,0.1553951203823089,-0.4769707322120666,0.088664598762989,0.1282892078161239,0.0,0.0,-0.9037066102027892,-0.5664917230606079
0.0280298236757516,1.0706732273101809,0.1547354906797409,-0.4879567325115204,0.0960021838545799,0.14675173163414,0.0,0.0,-0.7028397917747498,-0.1005508303642273
0.0296916961669921,1.0594642162322998,0.1588295698165893,-0.4986644089221954,0.1033030301332473,0.1460170298814773,0.0,0.0,-0.7941098809242249,0.6151306629180908
0.0314499847590923,1.048019289970398,0.1699243038892746,-0.509086549282074,0.1091585680842399,0.1171106696128845,0.0,0.0,-0.9694570899009703,-0.0525070428848266
0.033247947692871,1.0363339185714722,0.1739307343959808,-0.5197927355766296,0.1149880364537239,0.116589680314064,0.0,0.0,-0.8307825326919556,-0.3065170645713806
0.0350852981209754,1.0244081020355225,0.1778879910707473,-0.5304988026618958,0.12079668790102,0.116172932088375,0.0,0.0,-0.9457216262817384,-0.189347505569458
0.0369614586234092,1.0122419595718384,0.1817922294139862,-0.5412049889564514,0.1265896260738372,0.1158586516976356,0.0,0.0,-0.9260916113853456,-0.57211834192276
0.038832951337099,0.9998315572738647,0.1802569031715393,-0.5521733164787292,0.1334535926580429,0.1372795403003692,0.0,0.0,-0.7755202651023865,-0.0889540314674377
0.0407421104609966,0.9871811270713806,0.1840427964925766,-0.5628805756568909,0.1403117328882217,0.1371628195047378,0.0,0.0,-0.7713010311126709,-0.65791255235672
0.0426463112235069,0.9742744565010072,0.1824409812688827,-0.5743997097015381,0.1482671499252319,0.159108430147171,0.0,0.0,-0.4790898561477661,0.0967481136322021
0.0445868484675884,0.961127758026123,0.1860903352499008,-0.5851085186004639,0.1562262773513794,0.1591826379299163,0.0,0.0,-0.896416187286377,0.0153061151504516
0.0465632453560829,0.9477412104606628,0.1896637976169586,-0.5958173274993896,0.1641937047243118,0.1593486070632934,0.0,0.0,-0.4264740347862243,0.6748484373092651
0.0486251823604106,0.9341268539428712,0.1995147466659546,-0.6058345437049866,0.1708748638629913,0.1336235404014587,0.0,0.0,-0.9164220094680786,-0.1889896392822265
0.0507211685180664,0.9202722311019896,0.2029197514057159,-0.616541862487793,0.1775731742382049,0.133966252207756,0.0,0.0,-0.8532313704490662,-0.4552098512649536
0.0528504364192485,0.9061775207519532,0.2062319815158844,-0.6272494196891785,0.1842928528785705,0.1343934834003448,0.0,0.0,-0.9441962838172911,-0.3458300828933716
0.0550120361149311,0.8918425440788269,0.2094453275203704,-0.637956976890564,0.1910379976034164,0.1349029839038849,0.0,0.0,-0.4786274433135986,0.5108661651611328
0.0572386756539344,0.8772808909416199,0.2168046683073043,-0.6479504704475403,0.1969254165887832,0.1177485138177871,0.0,0.0,-0.5130080580711365,0.0761951208114624
0.0594955459237098,0.8624789714813232,0.2198005616664886,-0.6586573123931885,0.2028461843729019,0.1184156164526939,0.0,0.0,-0.7889873385429382,0.569119930267334
0.0618167892098426,0.8474481701850891,0.2271343916654586,-0.6687273383140564,0.207881361246109,0.1007037609815597,0.0,0.0,-0.4541052579879761,-0.1943521499633789
0.0641658753156662,0.8321768641471863,0.2298854142427444,-0.6794336438179016,0.2129573374986648,0.1015192717313766,0.0,0.0,0.1363033056259155,0.3202908039093017
0.0665083900094032,0.8174131512641907,0.2288460731506347,-0.6569557189941406,0.2184146046638488,0.1091452091932296,0.0,0.0,-0.7571253180503845,0.160501480102539
0.0688759833574295,0.8024092316627502,0.231323629617691,-0.6676625609397888,0.2239196151494979,0.1101001277565956,0.0,0.0,-0.6554051041603088,0.4446139335632324
0.0712673217058181,0.7871648669242859,0.2336532324552536,-0.6783694624900818,0.2294756919145584,0.1111215353012085,0.0,0.0,-0.6447526812553406,-0.3623729944229126
0.0736808776855468,0.7716804146766663,0.2358274757862091,-0.6890764832496643,0.2350860834121704,0.1122074946761131,0.0,0.0,-0.553284227848053,-0.4520041942596435
0.0761151313781738,0.7559555172920227,0.237838789820671,-0.6997836232185364,0.2407538741827011,0.1133558377623558,0.0,0.0,-0.4298912286758423,0.7025871276855469
0.0786288231611251,0.7400127649307251,0.2473154067993164,-0.7092383503913879,0.244884192943573,0.0826067179441452,0.0,0.0,-0.1748839616775512,-0.3138986229896545
0.0811597853899002,0.7238296866416931,0.2489784508943557,-0.7199445366859436,0.2490778714418411,0.0838740020990371,0.0,0.0,-0.118207573890686,0.038742184638977
0.083706185221672,0.7074061036109924,0.2504569292068481,-0.730650782585144,0.2533377707004547,0.0851976796984672,0.0,0.0,-0.663657009601593,0.0374548435211181
0.0862660408020019,0.6907423734664917,0.2517442107200622,-0.741357147693634,0.2576665580272674,0.086575761437416,0.0,0.0,-0.6823769807815552,0.6301109790802002
0.0888754874467849,0.6738541722297668,0.257639467716217,-0.7511699795722961,0.2610502541065216,0.0676730945706367,0.0,0.0,-0.3147553205490112,-0.3569611310958862
0.0914945602416992,0.6567255258560181,0.2585257887840271,-0.7618759274482727,0.2645079493522644,0.0691541880369186,0.0,0.0,-0.3316273689270019,-0.4016793966293335
0.0941210761666297,0.6393565535545349,0.2592037618160248,-0.7725820541381836,0.2680421769618988,0.0706836655735969,0.0,0.0,-0.3445104956626892,-0.449364423751831
0.0967530235648155,0.6217470765113831,0.2596688568592071,-0.783288300037384,0.2716551423072815,0.0722595229744911,0.0,0.0,-0.4844200611114502,0.0569771528244018
0.0993882194161415,0.6038973927497864,0.259917289018631,-0.793994665145874,0.2753491103649139,0.0738795921206474,0.0,0.0,0.2486125230789184,-0.5082672238349915
0.1019220352172851,0.5865718722343445,0.2485410720109939,-0.7709448933601379,0.2803284525871277,0.0995868891477584,0.0,0.0,0.6811753511428833,0.4047887325286865
0.104252241551876,0.5701999068260193,0.2279773205518722,-0.7286185622215271,0.2855108678340912,0.1036474257707595,0.0,0.0,0.1629776954650879,0.9215246438980104
0.1066392883658409,0.553946852684021,0.2353812903165817,-0.723013162612915,0.288928747177124,0.0683582872152328,0.0,0.0,0.8147408962249756,0.6770498752593994
