x_pos,y_pos,x_vel,y_vel,angle,ang_vel,leg_1,leg_2,main_booster,lat_booster
-0.0014510154724121,1.4033451080322266,-0.1466175019741058,-0.3366644978523254,0.0013561653904616,0.0267214979976415,0.0,0.0,-0.4367797374725342,0.0460262298583984
-0.0028301239944994,1.395513892173767,-0.1388866007328033,-0.3480509519577026,0.0023124045692384,0.0191273055970668,0.0,0.0,0.0068804025650024,0.7866719961166382
-0.0039821625687181,1.3877670764923096,-0.1142711192369461,-0.3443014919757843,0.0013970681466162,-0.0183084644377231,0.0,0.0,0.1644794940948486,0.2532824277877807
-0.0051487921737134,1.380268931388855,-0.1149683967232704,-0.3332520127296448,-0.0002803065581247,-0.0335503444075584,0.0,0.0,-0.1013522148132324,0.5822679996490479
-0.0061911582015454,1.372493028640747,-0.1007735133171081,-0.3455894291400909,-0.0037129390984773,-0.0686593875288963,0.0,0.0,-0.2183494567871093,-0.2563430070877075
-0.0071661947295069,1.3644384145736694,-0.0936734676361084,-0.3580021560192108,-0.0074994219467043,-0.0757363364100456,0.0,0.0,-0.4791382551193237,0.2327706813812255
-0.0080750463530421,1.3561047315597534,-0.086705207824707,-0.3704164624214172,-0.0116374269127845,-0.0827677994966507,0.0,0.0,-0.7040838003158569,0.1011996269226074
-0.0089191440492868,1.347491979598999,-0.079873189330101,-0.3828317523002624,-0.0161233860999345,-0.0897273272275924,0.0,0.0,-0.5036609768867493,-0.6525828242301941
-0.0097520826384425,1.3386085033416748,-0.0797493606805801,-0.3948618769645691,-0.0196349006146192,-0.0702366232872009,0.0,0.0,-0.669355034828186,-0.44775390625
-0.0105230333283543,1.3294460773468018,-0.0732078701257705,-0.4072774946689605,-0.0234876479953527,-0.0770619511604309,0.0,0.0,-0.3022788763046264,-0.1700150370597839
-0.011233520694077,1.3200045824050903,-0.0668161585927009,-0.4196933209896087,-0.0276765655726194,-0.0837857574224472,0.0,0.0,-0.845544695854187,-0.9139501452445984
-0.0119485855102539,1.3102848529815674,-0.0685570389032363,-0.4320462942123413,-0.0305981300771236,-0.0584364905953407,0.0,0.0,-0.1145181059837341,-0.7473224401473999
-0.0126523021608591,1.300291895866394,-0.0682679563760757,-0.4441741108894348,-0.0326853543519973,-0.0417481362819671,0.0,0.0,-0.5964735746383667,-0.5255136489868164
-0.0133371353149414,1.290016770362854,-0.0669723823666572,-0.4567067921161651,-0.0341723151504993,-0.0297423508018255,0.0,0.0,-0.8956248760223389,-0.1444546580314636
-0.0139677999541163,1.2794623374938965,-0.0612335987389087,-0.4691221415996551,-0.0359758846461772,-0.0360750444233417,0.0,0.0,-0.9111055731773376,-0.2937066555023193
-0.0145458225160837,1.2686290740966797,-0.055664800107479,-0.4815376400947571,-0.0380895733833313,-0.0422779098153114,0.0,0.0,-0.9526077508926392,-0.8871280550956726
-0.0151266101747751,1.257529854774475,-0.0570152625441551,-0.493322491645813,-0.0391470864415168,-0.0211520064622163,0.0,0.0,-0.8213305473327637,-0.429207444190979
-0.0156583786010742,1.246151566505432,-0.0518005564808845,-0.5057379603385925,-0.0405020751059055,-0.0271022915840148,0.0,0.0,-0.8755698800086975,-0.7746334671974182
-0.0161937717348337,1.234504461288452,-0.0531783774495124,-0.5176549553871155,-0.0408545173704624,-0.0070494906976819,0.0,0.0,-0.7492491006851196,-0.70320725440979
-0.0167464260011911,1.2225818634033203,-0.0562254786491394,-0.5298702716827393,-0.039905097335577,0.0189897753298282,0.0,0.0,-0.9699825048446656,-0.2540842294692993
-0.0172552112489938,1.2103800773620603,-0.0515639558434486,-0.542285680770874,-0.0392294600605964,0.0135140446946024,0.0,0.0,-0.6118763089179993,-0.1997950077056884
-0.0177220348268747,1.1978991031646729,-0.0470879860222339,-0.5547009706497192,-0.0388178266584873,0.0082332324236631,0.0,0.0,-0.7408009767532349,-0.546678364276886
-0.0181822776794433,1.1851401329040527,-0.047052763402462,-0.5670396685600281,-0.037808533757925,0.0201876554638147,0.0,0.0,-0.927178919315338,-0.7280179858207703
-0.0186552051454782,1.1720967292785645,-0.0493573658168315,-0.5796535611152649,-0.035765916109085,0.0408560968935489,0.0,0.0,-0.9234150648117064,-0.3525186777114868
-0.0190914161503314,1.1587742567062378,-0.0454526916146278,-0.5920687913894653,-0.03395826369524,0.0361564122140407,0.0,0.0,-0.8351646661758423,-0.4507511854171753
-0.0194931980222463,1.1451510190963743,-0.0417853631079196,-0.6054373383522034,-0.0323737375438213,0.0316905416548252,0.0,0.0,-0.8206211924552917,-0.7178950905799866
-0.0199182517826557,1.131256103515625,-0.0453247465193271,-0.6174985766410828,-0.0295813884586095,0.0558467879891395,0.0,0.0,-0.8460181355476379,-0.2584691643714905
-0.0203118324279785,1.117081880569458,-0.0419845432043075,-0.6299121379852295,-0.026988361030817,0.0518605895340442,0.0,0.0,-0.5567203164100647,0.3519474267959595
-0.0206757541745901,1.1026287078857422,-0.0388334020972251,-0.6423254013061523,-0.0245819725096225,0.0481279306113719,0.0,0.0,-0.8917025327682495,0.1083585023880004
-0.0210118293762207,1.0878962278366089,-0.0358700230717659,-0.6547386050224304,-0.0223490912467241,0.0446574315428733,0.0,0.0,-0.6964954137802124,-0.5814357399940491
-0.0213662143796682,1.0728927850723269,-0.0386753305792808,-0.6667768955230713,-0.0191553626209497,0.0638748556375503,0.0,0.0,-0.7993091940879822,0.1998968124389648
-0.0216960906982421,1.0576101541519165,-0.0360820107161998,-0.6791903972625732,-0.0161078087985515,0.0609512329101562,0.0,0.0,-0.2165777683258056,0.3775935173034668
-0.0220032688230276,1.042048454284668,-0.0336701944470405,-0.6916036605834961,-0.0131922578439116,0.0583111159503459,0.0,0.0,-0.7759903073310852,0.4308053255081177
-0.0222892761230468,1.0262075662612915,-0.0314370356500148,-0.7040168046951294,-0.0103942761197686,0.0559597834944725,0.0,0.0,-0.5306297540664673,0.6484959125518799
-0.022503089159727,1.0100882053375244,-0.0227653793990612,-0.7164156436920166,-0.0090235900133848,0.0274138450622558,0.0,0.0,-0.7264835834503174,0.2515347003936767
-0.0226987842470407,0.9936893582344056,-0.0208795499056577,-0.7288282513618469,-0.0077409255318343,0.0256531499326229,0.0,0.0,-0.3782665729522705,0.2502882480621338
-0.0228781700134277,0.9770113229751588,-0.0191617123782634,-0.7412407398223877,-0.006531327497214,0.0241919253021478,0.0,0.0,-0.6266764998435974,0.3959286212921142
-0.0230424888432025,0.9600540399551392,-0.0176076460629701,-0.7536531686782837,-0.0053797648288309,0.0230314154177904,0.0,0.0,-0.4442590475082397,0.3176221847534179
-0.0231934543699026,0.9428175091743468,-0.0162128321826457,-0.7660655975341797,-0.0042711705900728,0.0221719089895486,0.0,0.0,0.129033088684082,0.5869934558868408
-0.0232624057680368,0.9259250164031982,-0.0068505508825182,-0.7507738471031189,-0.0043232641182839,-0.0010419435566291,0.0,0.0,-0.3720855712890625,-0.0190454125404357
-0.0233206748962402,0.9087533354759216,-0.0057595511898398,-0.7631862759590149,-0.0043884422630071,-0.0013035150477662,0.0,0.0,-0.3763890266418457,0.2929080724716186
-0.0233695022761821,0.8913023471832275,-0.004812594037503,-0.7755985856056213,-0.0044519468210637,-0.001270301407203,0.0,0.0,-2.026557922363281e-05,0.0752735137939453
-0.0234100334346294,0.8735721707344055,-0.0040041231550276,-0.7880109548568726,-0.0044992798939347,-0.0009464941103942,0.0,0.0,0.2745282649993896,0.2092785835266113
-0.0233650207519531,0.8561738729476929,0.0041568903252482,-0.773258626461029,-0.0041618221439421,0.0067490651272237,0.0,0.0,-0.4330216646194458,0.3283952474594116
-0.0233141891658306,0.8384961485862732,0.0047058863565325,-0.7856709957122803,-0.0037799258716404,0.0076377699151635,0.0,0.0,0.13349449634552,0.8755397796630859
-0.0231513977050781,0.8208736777305603,0.0175806116312742,-0.7832275629043579,-0.0050681638531386,-0.025765087455511,0.0,0.0,-0.1318985223770141,-0.3821442723274231
-0.0229848865419626,0.8029720187187195,0.0178946554660797,-0.7956399917602539,-0.0062851090915501,-0.0243388898670673,0.0,0.0,0.0221295356750488,0.1118127107620239
-0.0228816028684377,0.7855653762817383,0.0117990961298346,-0.7736362218856812,-0.0077395602129399,-0.0290891621261835,0.0,0.0,-0.0171407461166381,-0.6412588953971863
-0.0228382106870412,0.7678858637809753,0.0041371467523276,-0.7857570052146912,-0.0075412453152239,0.0039662704803049,0.0,0.0,-0.0857254862785339,0.2999176979064941
-0.0227935798466205,0.7499269247055054,0.0041472627781331,-0.7981692552566528,-0.0072344453074038,0.0061361473053693,0.0,0.0,0.1548794507980346,0.3234734535217285
-0.0226454734802246,0.7322865724563599,0.0139165325090289,-0.7840166091918945,-0.0063437819480896,0.0178129393607378,0.0,0.0,0.2741385698318481,0.7728978395462036
-0.0224829670041799,0.7152239680290222,0.0168305430561304,-0.7583356499671936,-0.0069175367243587,-0.0114749055355787,0.0,0.0,-0.541725754737854,0.1964455842971801
-0.0223214142024517,0.697882354259491,0.0165973808616399,-0.7707479596138,-0.0073498394340276,-0.0086461352184414,0.0,0.0,-0.2897195219993591,0.6331645250320435
-0.0221108440309762,0.6802665591239929,0.0226202346384525,-0.7829315066337585,-0.0088963834568858,-0.0309308860450983,0.0,0.0,-0.6576773524284363,-0.350468635559082
-0.0219022743403911,0.6623714566230774,0.022259447723627,-0.795343816280365,-0.0102820051833987,-0.0277123898267745,0.0,0.0,-0.4161032438278198,-0.0308106541633605
-0.0216960906982421,0.6441972255706787,0.0218453295528888,-0.8077561855316162,-0.0114977033808827,-0.0243139341473579,0.0,0.0,-0.2730693221092224,0.4942141771316528
-0.021492863073945,0.6257436275482178,0.0213848873972892,-0.8201684355735779,-0.0125349666923284,-0.0207453332841396,0.0,0.0,-0.4243316650390625,-0.2822527289390564
-0.0212925914674997,0.6070106625556946,0.02088513225317,-0.8325806260108948,-0.0133857801556587,-0.0170162171125412,0.0,0.0,0.5633411407470703,0.387904405593872
-0.0210145954042673,0.5891655087471008,0.0281369742006063,-0.7931187748908997,-0.0137154757976531,-0.0065940069034695,0.0,0.0,0.0308637619018554,0.0229750871658325
-0.0207808502018451,0.5717774629592896,0.0237245615571737,-0.77280592918396,-0.0140638928860425,-0.0069683068431913,0.0,0.0,0.105410099029541,-0.2726541757583618
-0.0205130577087402,0.5544809699058533,0.0267624855041503,-0.7687323689460754,-0.0140461158007383,0.0003556399024091,0.0,0.0,0.2606916427612304,-0.3205447196960449
-0.0203179363161325,0.5377095937728882,0.0196363851428031,-0.7453972101211548,-0.0141683230176568,-0.002444171346724,0.0,0.0,0.4655234813690185,-0.2462084889411926
-0.0200104713439941,0.5213446021080017,0.030137738212943,-0.7273271083831787,-0.0135639645159244,0.012087233364582,0.0,0.0,-0.4639511704444885,-0.2753758430480957
-0.0197066310793161,0.5047003626823425,0.0295482520014047,-0.739739179611206,-0.0127344690263271,0.0165898688137531,0.0,0.0,0.3354916572570801,-0.3664703369140625
-0.0193957332521677,0.4882626235485077,0.0299840774387121,-0.7305564880371094,-0.0116456076502799,0.0217773467302322,0.0,0.0,-0.2209541797637939,-0.5732629299163818
-0.0191428177058696,0.4715469479560852,0.0225579850375652,-0.7429009079933167,-0.0089476723223924,0.0539584085345268,0.0,0.0,0.3692498207092285,-0.0822118520736694
-0.0188688281923532,0.4556156992912292,0.0243484266102314,-0.7080410122871399,-0.0059284185990691,0.0603849999606609,0.0,0.0,0.398262619972229,0.0502567291259765
-0.0185264591127634,0.4397759437561035,0.0306041575968265,-0.703980028629303,-0.0023448839783668,0.0716707855463028,0.0,0.0,-0.0019624829292297,-0.3124186992645263
-0.0181863792240619,0.4236570596694946,0.0301262028515338,-0.7163933515548706,0.0014851709129288,0.0766008496284484,0.0,0.0,0.4253792762756347,0.2050708532333374
-0.0179299358278512,0.4078714549541473,0.0218919403851032,-0.7015887498855591,0.0051894201897084,0.0740849152207374,0.0,0.0,0.4186229705810547,0.7819914817810059
-0.0177041999995708,0.3926819264888763,0.0202685110270977,-0.675099790096283,0.0074636354111135,0.0454843826591968,0.0,0.0,0.4554624557495117,0.2669917345046997
-0.0174562446773052,0.3780359029769897,0.022110117599368,-0.6509498357772827,0.0101186661049723,0.0531004853546619,0.0,0.0,0.5384373664855957,0.3215701580047607
-0.0173362735658884,0.3642884790897369,0.009610173292458,-0.6110152006149292,0.0124766174703836,0.0471591092646122,0.0,0.0,-0.3789798021316528,0.3540878295898437
-0.0172157287597656,0.3502618968486786,0.009402310475707,-0.623428225517273,0.0150945102795958,0.0523579493165016,0.0,0.0,0.8667387962341309,0.6874810457229614
-0.0170872695744037,0.3366138041019439,0.011418854817748,-0.6065956354141235,0.016507651656866,0.0282628741115331,0.0,0.0,0.6701357364654541,0.63123619556427
-0.0168375968933105,0.3231758773326874,0.0243520978838205,-0.5972521305084229,0.0171055402606725,0.0119580207392573,0.0,0.0,0.8219047784805298,0.652137041091919
-0.0165773387998342,0.3100138902664184,0.0265582595020532,-0.5849716663360596,0.0165786575525999,-0.0105378050357103,0.0,0.0,0.8891746997833252,-0.0489047169685363
-0.016337776556611,0.2979327142238617,0.0242576226592063,-0.536936342716217,0.0162735804915428,-0.006101413629949,0.0,0.0,0.7925248146057129,0.4313164949417114
-0.0160211566835641,0.2869018912315368,0.031301237642765,-0.4902608692646026,0.016637260094285,0.0072734705172479,0.0,0.0,-0.5160326957702637,0.0108612775802612
-0.0156987197697162,0.2755919098854065,0.0316039063036441,-0.5026735663414001,0.0172686949372291,0.0126288086175918,0.0,0.0,0.3662561178207397,-0.1673080325126648
-0.0154811860993504,0.2644107341766357,0.0213399622589349,-0.496945708990097,0.017673498019576,0.0080963354557752,0.0,0.0,0.0273710489273071,0.9022732973098756
-0.0151633266359567,0.2536983489990234,0.0329243279993534,-0.4760937094688415,0.016547916457057,-0.022511662915349,0.0,0.0,0.4568723440170288,-0.8321444988250732
-0.0150112155824899,0.2434636950492859,0.0145425451919436,-0.4548819661140442,0.0172111745923757,0.0132650630548596,0.0,0.0,0.4816911220550537,0.1987572908401489
-0.0149085046723485,0.2338602393865585,0.0095511320978403,-0.4268284440040588,0.017915915697813,0.0140950586646795,0.0,0.0,0.2033226490020752,0.4187879562377929
-0.0148123744875192,0.2247411608695984,0.0086669120937585,-0.4053026735782623,0.0188491344451904,0.0186644569039344,0.0,0.0,0.0255146026611328,0.3890302181243896
-0.0146564487367868,0.2158860713243484,0.014124421402812,-0.3935792148113251,0.0203011613339185,0.0290406979620456,0.0,0.0,-0.4230631589889526,-0.4784974455833435
-0.0144866947084665,0.2067518383264541,0.0152286235243082,-0.405992180109024,0.0220211390405893,0.0343997590243816,0.0,0.0,-0.4121703505516052,0.573954701423645
-0.0142495157197117,0.1973359137773513,0.0230426825582981,-0.4184955060482025,0.0226914528757333,0.013406160287559,0.0,0.0,0.1477394104003906,-0.7227908968925476
-0.0139459613710641,0.188237577676773,0.0278250332921743,-0.4044114053249359,0.0251873433589935,0.049917958676815,0.0,0.0,0.5143153667449951,-0.0830196142196655
-0.0135061265900731,0.1794070303440094,0.0405869632959365,-0.3925285041332245,0.0285399071872234,0.0670515373349189,0.0,0.0,0.5286765098571777,-0.5737956762313843
-0.0131182670593261,0.1713418066501617,0.0339809879660606,-0.358552873134613,0.0332842804491519,0.0948874801397323,0.0,0.0,-0.1770716905593872,0.2760192155838012
-0.0127099994570016,0.1629977822303772,0.0357493944466114,-0.370967835187912,0.0382919535040855,0.1001537069678306,0.0,0.0,0.3735743761062622,0.1099613904953002
-0.0121978763490915,0.1552122235298156,0.0453965999186039,-0.3461851775646209,0.0440406128764152,0.1149730458855629,0.0,0.0,-0.1287901401519775,0.4807586669921875
-0.0116626741364598,0.147147998213768,0.0474427640438079,-0.3586012423038482,0.0500497408211231,0.1201826333999633,0.0,0.0,0.2765538692474365,0.2496145963668823
-0.0111632347106933,0.139391615986824,0.0437969639897346,-0.3449480831623077,0.0561299473047256,0.1216038092970848,0.0,0.0,0.007972240447998,0.5970041751861572
-0.0105623248964548,0.1321608871221542,0.054811168462038,-0.3215737640857696,0.0613494999706745,0.1043911427259445,0.0,0.0,0.113572359085083,0.4971075057983398
-0.0099733350798487,0.1252243369817733,0.053433321416378,-0.3085250556468963,0.0667516365647316,0.1080426722764968,0.0,0.0,-0.1087119579315185,0.1315008401870727
-0.0093558309599757,0.1180091202259063,0.0560420528054237,-0.3209412693977356,0.0724070593714714,0.1131083741784095,0.0,0.0,0.0952481031417846,0.1636050939559936
-0.0086841583251953,0.1112137660384178,0.0609313175082206,-0.3023317158222198,0.0785805881023407,0.1234704703092575,0.0,0.0,-0.1706427335739135,0.3911894559860229
-0.0079811094328761,0.1041399538516998,0.0638201311230659,-0.3147488832473755,0.0850030481815338,0.1284491717815399,0.0,0.0,-0.0457082986831665,-0.5781570076942444
-0.0072974204085767,0.096785269677639,0.0603183507919311,-0.327352225780487,0.0929808840155601,0.1595566719770431,0.0,0.0,0.4286791086196899,-0.704412579536438
-0.0066987038590013,0.0897823423147201,0.0502077117562294,-0.3118692338466644,0.1025659888982772,0.1917020082473755,0.0,0.0,0.1268379688262939,0.2916879653930664
-0.0061857225373387,0.0831014961004257,0.0417662560939788,-0.2976068556308746,0.1120244786143302,0.1891699433326721,0.0,0.0,0.3316788673400879,0.6129763126373291
-0.0057675363495945,0.0767564624547958,0.0335430353879928,-0.2826432287693023,0.1202438622713089,0.164387509226799,0.0,0.0,0.1053755283355712,0.3859328031539917
-0.005298709962517,0.0708621814846992,0.0380503833293914,-0.2627016305923462,0.1290270537137985,0.1756641119718551,0.0,0.0,-0.0067062377929687,0.5672732591629028
-0.0047412873245775,0.0646946728229522,0.047945000231266,-0.2748088538646698,0.1367971450090408,0.1554019302129745,0.0,0.0,0.3300067186355591,0.3189842700958252
-0.0041112899780273,0.0591856352984905,0.0544208884239196,-0.2456546872854232,0.1453374028205871,0.170804888010025,0.0,0.0,-0.1968982815742492,0.1538823843002319
-0.0034397125709801,0.0533987134695053,0.0583686642348766,-0.25807586312294,0.154104396700859,0.1753404885530471,0.0,0.0,0.4845031499862671,0.7594457864761353
-0.0026441575028002,0.0485273227095603,0.0718596428632736,-0.2173245549201965,0.1618034392595291,0.1539809554815292,0.0,0.0,-0.0624844431877136,-0.2823894619941711
-0.0018045424949377,0.0433779805898666,0.0760463029146194,-0.2297447770833969,0.1697225421667099,0.1583824604749679,0.0,0.0,0.4147167205810547,0.413805603981018
-0.0010440826881676,0.0389826633036136,0.0679606348276138,-0.1962914764881134,0.1778296828269958,0.1621427685022354,0.0,0.0,-0.2781980633735657,0.0744690895080566
-0.0002374649047851,0.0343094691634178,0.0723729282617569,-0.2087123841047287,0.1861497014760971,0.1664002835750579,0.0,0.0,0.0143172740936279,0.3553546667098999
0.0006129264947958,0.0297871213406324,0.0763174369931221,-0.2021105140447616,0.1949076503515243,0.1751588284969329,0.0,0.0,0.4773416519165039,0.2052229642868042
0.0012969970703125,0.0257688853889703,0.0600064881145954,-0.1797167509794235,0.2033648788928985,0.1691446006298065,0.0,0.0,0.1659684181213379,0.2704836130142212
0.0018679618369787,0.0219789594411849,0.0489359162747859,-0.1695809066295623,0.2116042524576187,0.164787620306015,0.0,1.0,0.9376659393310548,0.9921786785125732
0.0022747993934899,0.0197557304054498,0.0523083694279193,-0.09747926145792,0.199186086654663,-0.2493462264537811,0.0,1.0,0.5774426460266113,0.0455375909805297
0.0025087357498705,0.0186042413115501,0.0501757077872753,-0.0478169582784175,0.1722345501184463,-0.5391043424606323,0.0,1.0,0.2146106958389282,-0.2345839142799377
0.002753734588623,0.0178635213524103,0.0573894008994102,-0.0294465404003858,0.1393148452043533,-0.6584535241127014,0.0,1.0,0.192961573600769,-0.4172669053077698
0.0030312538146972,0.0175657607614994,0.0587635710835456,-0.010625266470015,0.1084494888782501,-0.617307722568512,0.0,1.0,-0.0684988498687744,-0.4493803977966308
0.003307819366455,0.0170013532042503,0.0587797053158283,-0.0231182817369699,0.0775861293077468,-0.6172680854797363,0.0,0.0,-0.9354187250137328,-0.7603039145469666
0.0035805702209472,0.0161550622433424,0.056915558874607,-0.0363378748297691,0.0482776947319507,-0.5861693024635315,0.0,0.0,-0.8697905540466309,-0.9157968759536744
