x_pos,y_pos,x_vel,y_vel,angle,ang_vel,leg_1,leg_2,main_booster,lat_booster
-0.0015041350852698,1.4033169746398926,-0.1527636349201202,-0.3379173874855041,0.0020987715106457,0.0414253920316696,0.0,0.0,-0.4278567433357239,0.9224542379379272
-0.0029107094742357,1.3954253196716309,-0.1410728991031646,-0.3507426977157593,0.0025105576496571,0.0082369241863489,0.0,0.0,-0.196278691291809,0.5833020210266113
-0.0042427061125636,1.3872215747833252,-0.1325445026159286,-0.3646096587181091,0.0018668342381715,-0.0128754274919629,0.0,0.0,0.2992075681686401,0.7084641456604004
-0.005606269929558,1.3792972564697266,-0.1344818770885467,-0.3521930873394012,8.809421160549391e-06,-0.0371640063822269,0.0,0.0,-0.1510496139526367,0.5212688446044922
-0.0069025992415845,1.3710670471191406,-0.1268641501665115,-0.3657927215099334,-0.0027339051011949,-0.0548595190048217,0.0,0.0,0.0527566671371459,0.6230332851409912
-0.0080336574465036,1.3630470037460327,-0.1095940470695495,-0.3564551174640655,-0.0061992355622351,-0.0693129301071167,0.0,0.0,-0.1671866178512573,0.2707072496414184
-0.0091484067961573,1.3547194004058838,-0.108364425599575,-0.3701267838478088,-0.0092862360179424,-0.0617455169558525,0.0,0.0,0.2172855138778686,0.4098615646362304
-0.0101334573701024,1.346798062324524,-0.0962941572070121,-0.3520795404911041,-0.0114654004573822,-0.043587140738964,0.0,0.0,-0.5775148868560791,0.444819688796997
-0.0111039159819483,1.338568925857544,-0.0952349677681922,-0.3657523989677429,-0.0132567379623651,-0.0358299650251865,0.0,0.0,-0.7813090085983276,0.7203185558319092
-0.012003993615508,1.33003568649292,-0.0871529281139373,-0.379279613494873,-0.0160800721496343,-0.0564722307026386,0.0,0.0,-0.5739287734031677,-0.2796542644500732
-0.0128912925720214,1.321195125579834,-0.0862730145454406,-0.3929468095302582,-0.0185056123882532,-0.0485149398446083,0.0,0.0,-0.9016146063804626,0.1198798418045044
-0.0137666705995798,1.312046766281128,-0.0854911059141159,-0.4066137969493866,-0.0205302871763706,-0.0404971726238727,0.0,0.0,-0.917593479156494,0.2818474769592285
-0.014631176367402,1.30259108543396,-0.0848107784986496,-0.4202806353569031,-0.0221500899642705,-0.0323993042111396,0.0,0.0,-0.8410654664039612,0.0128134489059448
-0.0154857635498046,1.2928277254104614,-0.0842354744672775,-0.4339473843574524,-0.0233616530895233,-0.0242333076894283,0.0,0.0,0.0330699682235717,-0.0187214016914367
-0.0162313468754291,1.2835266590118408,-0.0741641893982887,-0.4133882224559784,-0.0237461868673563,-0.0076914778910577,0.0,0.0,-0.8135144710540771,0.3112636804580688
-0.0169692039489746,1.2739177942276,-0.0738113448023796,-0.4270606935024261,-0.02371665276587,0.0005904746940359,0.0,0.0,-0.3664382696151733,-0.5058638453483582
-0.0177310947328805,1.264008402824402,-0.0774273201823234,-0.4404011368751526,-0.0224948171526193,0.0244389548897743,0.0,0.0,-0.9594478607177734,0.4732040166854858
-0.0184876434504985,1.2537912130355835,-0.077310599386692,-0.454067587852478,-0.0208536796271801,0.0328255668282508,0.0,0.0,-0.7203583121299744,0.1627572774887085
-0.0192399024963378,1.2432665824890137,-0.0773151963949203,-0.4677343666553497,-0.01879040338099,0.0412695258855819,0.0,0.0,-0.5315889120101929,-0.2070668935775756
-0.0199892036616802,1.2324343919754028,-0.0774440914392471,-0.4814012944698334,-0.0163029097020626,0.0497545227408409,0.0,0.0,-0.9483475685119628,0.4412505626678467
-0.0207366943359375,1.221294641494751,-0.0776996910572052,-0.4950684309005737,-0.0133891990408301,0.0582798793911933,0.0,0.0,-0.8266773819923401,-0.1175534129142761
-0.0214838031679391,1.2098474502563477,-0.078084222972393,-0.5087358951568604,-0.0100473668426275,0.0668424218893051,0.0,0.0,-0.7259091138839722,0.6279085874557495
-0.0221713073551654,1.1980911493301392,-0.071028858423233,-0.5224931836128235,-0.0077926157973706,0.0450989939272403,0.0,0.0,-0.545798122882843,0.5204243659973145
-0.0228148456662893,1.186020851135254,-0.0659116804599762,-0.5364479422569275,-0.0062604346312582,0.0306467171758413,0.0,0.0,-0.7129399180412292,0.3754316568374634
-0.0234618186950683,1.1736431121826172,-0.0666857063770294,-0.5501154065132141,-0.0042950031347572,0.0393119491636753,0.0,0.0,-0.9283145070075988,0.5380474328994751
-0.0240812301635742,1.1609389781951904,-0.0635500326752662,-0.5646215081214905,-0.0027062343433499,0.0317753814160823,0.0,0.0,-0.9343359470367432,0.5144357681274414
-0.024665642529726,1.1479305028915403,-0.0594461262226104,-0.5781533718109131,-0.0017111989436671,0.0199008323252201,0.0,0.0,-0.9191827178001404,0.1724920272827148
-0.0252573005855083,1.1346145868301392,-0.0606175772845745,-0.591818630695343,-0.0002794761676341,0.0286345481872558,0.0,0.0,-0.903769850730896,-0.4953474998474121
-0.0258575435727834,1.1209912300109863,-0.061923187226057,-0.6054839491844177,0.0015896986005827,0.0373836085200309,0.0,0.0,-0.8524201512336731,-0.3544861078262329
-0.0264678001403808,1.1070605516433716,-0.0633625909686088,-0.619149386882782,0.0038969556335359,0.046144925057888,0.0,0.0,-0.5585492849349976,0.4332780838012695
-0.0270893089473247,1.0928223133087158,-0.0649350732564926,-0.6328151822090149,0.0066426857374608,0.0549146421253681,0.0,0.0,-0.4024065732955932,0.3442537784576416
-0.0277235023677349,1.0782768726348877,-0.0666396096348762,-0.6464812755584717,0.009827165864408,0.0636893659830093,0.0,0.0,-0.7417073249816895,0.7425241470336914
-0.0283208843320608,1.063431978225708,-0.0621173493564128,-0.6597959399223328,0.0121760126203298,0.0469769984483718,0.0,0.0,-0.699228823184967,0.6721606254577637
-0.0288857463747262,1.0482743978500366,-0.0581091940402984,-0.6736850142478943,0.0137686468660831,0.0318527072668075,0.0,0.0,-0.4398372173309326,0.152035117149353
-0.0294672008603811,1.0328093767166138,-0.0602003410458564,-0.6873509287834167,0.0157996993511915,0.040621094405651,0.0,0.0,-0.5954034924507141,0.3061321973800659
-0.0300663001835346,1.0170371532440186,-0.0624161474406719,-0.7010170817375183,0.0182686857879161,0.049379963427782,0.0,0.0,0.2290555238723755,0.4085407257080078
-0.0307101253420114,1.001465082168579,-0.0672321692109108,-0.6921292543411255,0.0210846457630395,0.0563189573585987,0.0,0.0,-0.6442490816116333,0.6939287185668945
-0.031315803527832,0.985592782497406,-0.0623722858726978,-0.7054555416107178,0.0228692479431629,0.0356920808553695,0.0,0.0,-0.563196063041687,0.0257632732391357
-0.0319427475333213,0.9694134593009948,-0.0649458020925521,-0.7191217541694641,0.025089206174016,0.0443991273641586,0.0,0.0,-0.0238181352615356,0.0531164407730102
-0.032592199742794,0.9529268145561218,-0.0676323845982551,-0.7327881455421448,0.0277432482689619,0.0530808754265308,0.0,0.0,-0.4796044826507568,0.7318966388702393
-0.033217716962099,0.9361408948898317,-0.064463123679161,-0.7460704445838928,0.0296316388994455,0.0377677492797374,0.0,0.0,-0.3762140274047851,0.8401033878326416
-0.033787727355957,0.9190495610237122,-0.0573144927620887,-0.7596228122711182,0.0299377050250768,0.0061213178560137,0.0,0.0,0.5861146450042725,-0.2461469769477844
-0.0342992767691612,0.9021065831184388,-0.0523332469165325,-0.7530485987663269,0.0311042591929435,0.0233310721814632,0.0,0.0,0.7801302671432495,0.813758134841919
-0.0346733108162879,0.8857170939445496,-0.0376031883060932,-0.7284289002418518,0.0313072428107261,0.0040596290491521,0.0,0.0,0.2380082607269287,-0.2978449463844299
-0.0351122841238975,0.8693495988845825,-0.0443934611976146,-0.7274513840675354,0.0317938923835754,0.0097329225391149,0.0,0.0,-0.1613646149635315,0.513357400894165
-0.0355360992252826,0.8526718020439148,-0.0421886928379535,-0.7412339448928833,0.0316041335463523,-0.0037951841950416,0.0,0.0,0.754426121711731,0.5426590442657471
-0.0358922965824604,0.8364004492759705,-0.0349547937512397,-0.723155677318573,0.0309447925537824,-0.0131868366152048,0.0,0.0,0.40419602394104,0.1324933767318725
-0.0363963134586811,0.8208798766136169,-0.0497064106166362,-0.6897888779640198,0.0302596502006053,-0.013702830299735,0.0,0.0,-0.3965694904327392,-0.1176367998123169
-0.0369315147399902,0.8050519824028015,-0.053246647119522,-0.7034551501274109,0.0299873799085617,-0.0054452489130198,0.0,0.0,-0.2719199061393738,0.6696901321411133
-0.0374476425349712,0.7889172434806824,-0.0504455789923667,-0.7170789837837219,0.028839448466897,-0.02295882999897,0.0,0.0,-0.0854954719543457,0.4117827415466308
-0.037996482104063,0.7724751830101013,-0.0541338250041008,-0.730745255947113,0.028097067028284,-0.0148473531007766,0.0,0.0,-0.4868056774139404,0.1227850914001464
-0.0385787971317768,0.7557258009910583,-0.0578905530273914,-0.7444114089012146,0.0277562402188777,-0.0068164402619004,0.0,0.0,-0.6266980767250061,0.2505298852920532
-0.0391953475773334,0.7386690974235535,-0.0617122054100036,-0.7580775022506714,0.0278126802295446,0.0011289063841104,0.0,0.0,0.441561222076416,0.3256332874298095
-0.0398632995784282,0.7223486304283142,-0.0672628432512283,-0.725355327129364,0.0282746721059083,0.0092397276312112,0.0,0.0,-0.3263933658599853,0.83793044090271
-0.0404839515686035,0.7057215571403503,-0.0608230903744697,-0.7389660477638245,0.027045901864767,-0.0245754811912775,0.0,0.0,-0.3176168203353882,-0.2225147485733032
-0.0411407463252544,0.6887868642807007,-0.0648190528154373,-0.7526322603225708,0.026200009509921,-0.0169180817902088,0.0,0.0,-0.3415234088897705,0.8069136142730713
-0.041760541498661,0.6715553402900696,-0.0596192255616188,-0.7658066153526306,0.0238754730671644,-0.0464908741414547,0.0,0.0,0.5691335201263428,-0.245500385761261
-0.0423017516732215,0.6549818515777588,-0.0527529641985893,-0.7365823984146118,0.0225291885435581,-0.0269259847700595,0.0,0.0,0.0156114101409912,0.0792843103408813
-0.042846105992794,0.6388614177703857,-0.0536564700305461,-0.7164496183395386,0.0217614397406578,-0.0153546910732984,0.0,0.0,-0.2686127424240112,0.5257570743560791
-0.0433923713862896,0.622439444065094,-0.0532884709537029,-0.729845404624939,0.0204399656504392,-0.0264297518879175,0.0,0.0,0.1612716913223266,0.3895323276519775
-0.0439466461539268,0.6061015725135803,-0.0546155758202075,-0.7261155843734741,0.0196385942399501,-0.0160274486988782,0.0,0.0,0.3820728063583374,0.955265998840332
-0.0445724502205848,0.590340793132782,-0.0601240582764148,-0.7004515528678894,0.01721235178411,-0.0485248565673828,0.0,0.0,-0.6953270435333252,0.9010181427001952
-0.0451518073678016,0.574272632598877,-0.0536390021443367,-0.7140951752662659,0.0129670714959502,-0.0849053412675857,0.0,0.0,-0.409972071647644,0.2924537658691406
-0.0457711219787597,0.5578973293304443,-0.0579695925116539,-0.7277622818946838,0.0090549327433109,-0.0782426446676254,0.0,0.0,-0.2137607336044311,0.6207578182220459
-0.0463809967041015,0.541210949420929,-0.0560842975974082,-0.7415955066680908,0.0042182765901088,-0.0967332422733306,0.0,0.0,0.7439279556274414,0.298046350479126
-0.0471648201346397,0.5251524448394775,-0.0731897577643394,-0.7137076258659363,-0.0009046623017638,-0.1024588122963905,0.0,0.0,0.6900651454925537,0.1692628860473632
-0.0479668602347373,0.5100998878479004,-0.075430616736412,-0.6690127849578857,-0.0056156213395297,-0.0942190811038017,0.0,0.0,-0.7698814868927002,-0.0860275030136108
-0.0488101951777935,0.4947401285171509,-0.0798712596297264,-0.6826797127723694,-0.0100241098552942,-0.0881696939468383,0.0,0.0,-0.5333245992660522,0.7754764556884766
-0.0496310219168663,0.479081243276596,-0.0762829855084419,-0.6960011124610901,-0.0157493762671947,-0.1145054548978805,0.0,0.0,0.9260983467102052,0.8414692878723145
-0.0505386367440223,0.4639406204223633,-0.0833072289824485,-0.6730105876922607,-0.0231084786355495,-0.147181823849678,0.0,0.0,0.8888809680938721,-0.2686246633529663
-0.0515754707157611,0.4496577680110931,-0.0960235148668289,-0.6349294781684875,-0.0306759364902973,-0.1513493061065673,0.0,0.0,-0.9179722666740416,0.7096047401428223
-0.0525957122445106,0.4350669085979461,-0.0931394547224044,-0.648690938949585,-0.0394581593573093,-0.1756445914506912,0.0,0.0,-0.889178454875946,0.8272303342819214
-0.0536070838570594,0.420175701379776,-0.0912006869912147,-0.6621204614639282,-0.0492729544639587,-0.1962958723306656,0.0,0.0,-0.4555363655090332,0.2952398061752319
-0.0546613708138465,0.4049781560897827,-0.095753327012062,-0.6757926344871521,-0.0588369183242321,-0.1912790983915329,0.0,0.0,-0.3441572189331054,0.6913096904754639
-0.0557074546813964,0.3894643485546112,-0.0938713103532791,-0.6899577975273132,-0.0694592371582984,-0.212446242570877,0.0,0.0,0.5798803567886353,-0.2585107088088989
-0.0567104332149028,0.3741026520729065,-0.09010811150074,-0.6832446455955505,-0.0795482173562049,-0.2017796337604522,0.0,0.0,0.4786416292190552,-0.5832298994064331
-0.057809829711914,0.3588920831680298,-0.1010759472846984,-0.6765207052230835,-0.0883237943053245,-0.1755118668079376,0.0,0.0,0.6718027591705322,-0.7013649344444275
-0.0589462295174598,0.3445887565612793,-0.1063923090696334,-0.6361472010612488,-0.0955057814717292,-0.143639475107193,0.0,0.0,-0.2763627767562866,0.1848435401916504
-0.0601265914738178,0.3299783766269684,-0.110999085009098,-0.649815022945404,-0.1024832129478454,-0.1395486444234848,0.0,0.0,0.9442915916442872,-0.1818238496780395
-0.0613840110599994,0.3165164887905121,-0.1182910203933715,-0.5988362431526184,-0.1098764911293983,-0.1478656828403473,0.0,0.0,0.2435200214385986,-0.4457470178604126
-0.0627551078796386,0.3031352758407593,-0.1294030845165252,-0.5953056812286377,-0.1175344884395599,-0.1531600654125213,0.0,0.0,0.1929295063018798,-0.7480025887489319
-0.0641289725899696,0.2903084456920624,-0.1314066648483276,-0.5705652236938477,-0.1234857514500618,-0.1190252676606178,0.0,0.0,0.0512123107910156,-0.6088449358940125
-0.0656222328543663,0.2777416110038757,-0.1446326076984405,-0.5589231252670288,-0.1281481385231018,-0.0932478606700897,0.0,0.0,0.572413444519043,-0.1168440580368042
-0.0671294182538986,0.2658369541168213,-0.145950362086296,-0.5295102596282959,-0.1328940093517303,-0.0949175134301185,0.0,0.0,-0.6513507962226868,0.5446465015411377
-0.0686392784118652,0.2536194026470184,-0.1453054100275039,-0.5435216426849365,-0.1385562866926193,-0.1132454052567482,0.0,0.0,-0.2275114059448242,-0.7226508259773254
-0.0702424049377441,0.2411045581102371,-0.1560178697109222,-0.5566170811653137,-0.1428436189889907,-0.0857470631599426,0.0,0.0,0.7210352420806885,0.661400318145752
-0.071762278676033,0.2287885099649429,-0.1465503573417663,-0.5479106307029724,-0.148263618350029,-0.1084000319242477,0.0,0.0,0.3241351842880249,0.0620507001876831
-0.0732059478759765,0.2166273742914199,-0.1394078731536865,-0.5409970879554749,-0.1532176285982132,-0.0990802571177482,0.0,0.0,0.8416287899017334,0.241046667098999
-0.0744356140494346,0.205064907670021,-0.1188747137784957,-0.5143144130706787,-0.1572995632886886,-0.0816388204693794,0.0,0.0,0.8854351043701172,-0.3994151353836059
-0.0754828453063964,0.1938243061304092,-0.1014758720993995,-0.499928206205368,-0.1605405807495117,-0.0648203641176223,0.0,0.0,0.9062798023223876,-0.6264975070953369
-0.0764920264482498,0.183577761054039,-0.0990084037184715,-0.4556118845939636,-0.1624465137720108,-0.0381190069019794,0.0,0.0,0.5711615085601807,-0.7292992472648621
-0.0774539932608604,0.1741029173135757,-0.0959121882915496,-0.4211370050907135,-0.1627392619848251,-0.0058549907989799,0.0,0.0,-0.6221329569816589,-0.1013731956481933
-0.0784614533185958,0.1643203645944595,-0.100526250898838,-0.4348011910915375,-0.1629509925842285,-0.0042346683330833,0.0,0.0,-0.1664793491363525,-0.1206657290458679
-0.0795141234993934,0.1542302519083023,-0.1051331311464309,-0.4484654366970062,-0.1630892604589462,-0.0027654310688376,0.0,0.0,0.7770451307296753,0.7832200527191162
-0.0805234909057617,0.144641026854515,-0.0991704016923904,-0.4263821840286255,-0.1648556888103485,-0.0353284403681755,0.0,0.0,0.0844025611877441,-0.3639945983886719
-0.081430435180664,0.1355685144662857,-0.0892408713698387,-0.4033848643302917,-0.1663060784339904,-0.0290078017860651,0.0,0.0,0.0554521083831787,-0.7812299132347107
-0.0824004188179969,0.1267456114292144,-0.0971498936414718,-0.3921109735965729,-0.1661479622125625,0.0031623486429452,0.0,0.0,0.7336728572845459,-0.0830163955688476
-0.0834061652421951,0.1188824474811554,-0.1001822501420974,-0.3495188057422638,-0.1665481925010681,-0.0080047249794006,0.0,0.0,-0.2615832090377807,-0.4216358661651611
-0.0844571143388748,0.1107117235660553,-0.1047348827123642,-0.3631834983825683,-0.1669088751077652,-0.007213691715151,0.0,0.0,0.6709367036819458,0.7272894382476807
-0.0854281410574913,0.1033614724874496,-0.095205083489418,-0.3268906772136688,-0.1688106805086136,-0.0380363427102565,0.0,0.0,0.5275180339813232,0.091951847076416
-0.0864032730460167,0.0967467874288559,-0.0952794328331947,-0.2942412495613098,-0.1710384041070938,-0.0445546954870224,0.0,0.0,0.5962960720062256,0.0227900743484497
-0.0873648673295974,0.0905420184135437,-0.0938488841056823,-0.2760387361049652,-0.1733548045158386,-0.0463279858231544,0.0,0.0,0.578978419303894,-0.1448546648025512
-0.0883818641304969,0.0849078744649887,-0.0988840535283088,-0.2507384717464447,-0.1761695146560669,-0.0562942214310169,0.0,0.0,0.3554220199584961,0.8168352842330933
-0.0894419699907302,0.0796188414096832,-0.1014280319213867,-0.2356183677911758,-0.1807721257209777,-0.0920520350337028,0.0,0.0,0.1950085163116455,0.7629420757293701
-0.0903072357177734,0.074754387140274,-0.0805162265896797,-0.2169438153505325,-0.1868084818124771,-0.120727315545082,0.0,0.0,0.6651532649993896,-0.8339142203330994
-0.0911457985639572,0.0701229646801948,-0.0796279311180114,-0.2063782811164856,-0.1910566538572311,-0.0849633812904357,0.0,0.0,0.5433329343795776,0.5205104351043701
-0.0917091369628906,0.0661847665905952,-0.0514457933604717,-0.1756684631109237,-0.1959717273712158,-0.0983016043901443,0.0,0.0,0.2780628204345703,-0.5983721017837524
-0.0922637954354286,0.0628470256924629,-0.0517476312816143,-0.1488440334796905,-0.1997211277484893,-0.0749879032373428,0.0,0.0,-0.0488895177841186,0.3557987213134765
-0.0928617492318153,0.0592019408941268,-0.0560659542679786,-0.1625105291604995,-0.2034770101308822,-0.0751176550984382,0.0,0.0,0.5204811096191406,0.8236443996429443
-0.0932542830705642,0.0559899434447288,-0.0339842550456523,-0.1434893906116485,-0.2087828367948532,-0.1061164587736129,0.0,0.0,0.3344442844390869,-0.1963422298431396
-0.0935582146048545,0.0534404143691062,-0.0250985212624073,-0.1140705421566963,-0.2141276746988296,-0.106896661221981,0.0,0.0,0.0515581369400024,-0.4468340873718261
-0.0937599167227745,0.0513062328100204,-0.0150477495044469,-0.0956047549843788,-0.2193082869052887,-0.1036122441291809,0.0,0.0,0.0008553266525268,-0.5537139177322388
-0.0939326286315918,0.0492652505636215,-0.0133049190044403,-0.0913033932447433,-0.2233159095048904,-0.0801528841257095,0.0,0.0,-0.0809292793273925,0.1662019491195678
-0.0941464453935623,0.0469170659780502,-0.0174058564007282,-0.1049702540040016,-0.2273416370153427,-0.0805142298340797,0.0,0.0,-0.1315789222717285,-0.7512174844741821
-0.0944711714982986,0.0442839972674846,-0.0303002949804067,-0.1173625960946083,-0.2295518368482589,-0.0442042797803878,0.0,0.0,0.1655915975570678,-0.6067082285881042
-0.0948086753487587,0.0419463254511356,-0.0327286943793296,-0.1040588766336441,-0.2305865734815597,-0.0206946972757577,0.0,0.0,-0.0341609120368957,0.2685675621032715
-0.0951856598258018,0.0393011681735515,-0.0366497188806533,-0.1177245900034904,-0.2316427230834961,-0.02112328261137,0.0,0.0,0.4224072694778442,-0.2877358794212341
-0.0954207405447959,0.0367618650197982,-0.0229616090655326,-0.1129423230886459,-0.2322007864713668,-0.0111611997708678,0.0,0.0,0.2614964246749878,-0.0455620288848876
-0.0955013260245323,0.0346517190337181,-0.0078177526593208,-0.0938239470124244,-0.232436865568161,-0.0047216955572366,0.0,0.0,0.0787140130996704,-0.7429484128952026
-0.0955351814627647,0.0330235101282596,-0.0046337647363543,-0.072167582809925,-0.2311780601739883,0.0251760873943567,0.0,0.0,-0.3502196073532104,-0.2698262929916382
