x_pos,y_pos,x_vel,y_vel,angle,ang_vel,leg_1,leg_2,main_booster,lat_booster
-0.0015320777893066,1.4035019874572754,-0.1554808914661407,-0.3296888768672943,0.0020351540297269,0.0401656217873096,0.0,0.0,0.1335254114917046,0.8682767366069593
-0.0029568672180175,1.3964555263519287,-0.1430496573448181,-0.3131715059280395,0.0025952293071895,0.0112033961340785,0.0,0.0,-0.0398572334731566,-0.8253001980459169
-0.0044270516373217,1.389280080795288,-0.1491507738828659,-0.3189148902893066,0.0047068041749298,0.0422349423170089,0.0,0.0,0.1354622428700864,0.9268282727782708
-0.0059102056547999,1.3824942111968994,-0.1488597393035888,-0.3015988767147064,0.0052441675215959,0.0107484608888626,0.0,0.0,0.1653307406908812,-0.6199610892327307
-0.00732421875,1.3762781620025637,-0.1436727643013,-0.2762782275676727,0.0074851107783615,0.0448230318725109,0.0,0.0,0.066683208125029,0.7338492976954175
-0.008555794134736,1.3704664707183838,-0.12437105178833,-0.2583050429821014,0.0086780525743961,0.0238613039255142,0.0,0.0,0.2369088334005391,-0.7167938186694334
-0.0098343845456838,1.3651800155639648,-0.130794882774353,-0.234975203871727,0.0115851573646068,0.0581473894417285,0.0,0.0,-0.3824561415930776,-0.8731593599950797
-0.0111259464174509,1.3597729206085205,-0.1337453424930572,-0.2403549402952194,0.0161233246326446,0.0907716155052185,0.0,0.0,0.3165507120098962,-0.9922265184066942
-0.0124726295471191,1.355252981185913,-0.1415791660547256,-0.2009802162647247,0.0229587126523256,0.1367205530405044,0.0,0.0,-0.5428629805281819,-0.7481345443442963
-0.0138271329924464,1.3506139516830444,-0.1442181468009948,-0.2063367813825607,0.0316246971487998,0.1733354479074478,0.0,0.0,-0.0226123427382163,-0.7347998540771425
-0.0151742938905954,1.3458521366119385,-0.1450875848531723,-0.21188585460186,0.0418933928012847,0.2053926885128021,0.0,0.0,0.4284848564456582,0.7374068744825267
-0.0163516998291015,1.3416602611541748,-0.1271199434995651,-0.186588242650032,0.0511796101927757,0.1857412159442901,0.0,0.0,-0.0169592467259873,0.7293336791191082
-0.0173909179866313,1.337356448173523,-0.1119051128625869,-0.1915757656097412,0.0590751133859157,0.157924473285675,0.0,0.0,0.64679693603954,0.6872036254965465
-0.018248176202178,1.333466410636902,-0.0928715765476226,-0.1731873899698257,0.0661524981260299,0.1415606141090393,0.0,0.0,0.1333444030007118,0.9815567763622932
-0.0188726428896188,1.330330491065979,-0.0680101215839386,-0.1396324634552002,0.071659617125988,0.1101524010300636,0.0,0.0,-0.1833313264891634,0.8270773099059263
-0.0193363185971975,1.3270713090896606,-0.0503563098609447,-0.1450494974851608,0.075615182518959,0.079118400812149,0.0,0.0,-0.7395705745412366,-0.9267090086557224
-0.0197688098996877,1.323694944381714,-0.0490711741149425,-0.1503668874502182,0.0813817977905273,0.1153427511453628,0.0,0.0,0.1661427419908518,0.9044728974131312
-0.0199421886354684,1.3206075429916382,-0.0217865258455276,-0.1374597996473312,0.0857949256896972,0.0882705599069595,0.0,0.0,-0.1959278993800148,0.8918611869841262
-0.019938563928008,1.3174175024032593,-0.0024132374674081,-0.1419474631547927,0.0885482355952262,0.055071048438549,0.0,0.0,-0.7190111345686465,0.7056533628877695
-0.019787024706602,1.314111590385437,0.0131847141310572,-0.1470465362071991,0.0904924198985099,0.0388873144984245,0.0,0.0,-0.9930178463151784,0.9123214484961844
-0.0194458961486816,1.3107024431228638,0.0339601002633571,-0.1515333354473114,0.0906442999839782,0.0030379756353795,0.0,0.0,-0.1200597617121199,-0.7772556722247683
-0.0190581325441598,1.3071587085723877,0.0366743505001068,-0.1576261967420578,0.0927301049232482,0.0417201891541481,0.0,0.0,-0.1711692256473733,0.8793607230987139
-0.0184769630432128,1.3035037517547607,0.0577384233474731,-0.1624681800603866,0.0931035876274108,0.0074705644510686,0.0,0.0,-0.8122630602398548,0.853664001981243
-0.0177082065492868,1.2997279167175293,0.0779812335968017,-0.1677444130182266,0.0920039713382721,-0.0219941232353448,0.0,0.0,0.4248788801437841,0.8374251219514863
-0.0169477462768554,1.2966519594192505,0.0785889104008674,-0.1365620344877243,0.0894843861460685,-0.0503959842026233,0.0,0.0,0.9303168928280674,0.6378652450037381
-0.0162744522094726,1.2946473360061646,0.0712152495980262,-0.0888652876019477,0.0856386870145797,-0.0769143253564834,0.0,0.0,-0.7292317220270703,-0.6964572777086231
-0.0155370710417628,1.2925184965133667,0.0757975727319717,-0.0945056825876236,0.083599604666233,-0.0407817140221595,0.0,0.0,0.0835059256520562,-0.7021659463881358
-0.0148772243410348,1.2910646200180054,0.0662893503904342,-0.0645929798483848,0.083296425640583,-0.0060636093840003,0.0,0.0,-0.4205825503844986,0.8950749682450188
-0.0140398982912302,1.2895033359527588,0.0850090980529785,-0.0693190619349479,0.0820293575525283,-0.0253413505852222,0.0,0.0,-0.034595676269407,0.717833488774071
-0.0130235673859715,1.2878243923187256,0.1038644760847091,-0.0745028778910636,0.0798207968473434,-0.0441709049046039,0.0,0.0,0.9417158645453478,0.8338210468701022
-0.0118715288117527,1.2875316143035889,0.1186161860823631,-0.0128367962315678,0.0764390006661415,-0.0676361173391342,0.0,0.0,-0.7087135565617542,-0.7390155086949699
-0.0106579782441258,1.2871050834655762,0.1226447820663452,-0.0188903044909238,0.0751630589365959,-0.0255187805742025,0.0,0.0,-0.1936634176757394,-0.8349987508925896
-0.0093913078308105,1.2865561246871948,0.1255976259708404,-0.0244544111192226,0.0762207731604576,0.0211544670164585,0.0,0.0,-0.9501720902321666,-0.6105000685343984
-0.0080480575561523,1.2858737707138062,0.1314482688903808,-0.0304802432656288,0.0790716335177421,0.0570170097053051,0.0,0.0,-0.9331182669870466,-0.9688806106692688
-0.00664863595739,1.2850627899169922,0.1347174644470214,-0.0363241359591484,0.0842485576868057,0.1035385280847549,0.0,0.0,-0.7911797395143949,0.7701846187546515
-0.0050554275512695,1.284144163131714,0.1552430838346481,-0.0410685651004314,0.0882937982678413,0.0809045955538749,0.0,0.0,0.7653332447511325,-0.7394172818838256
-0.0034610747825354,1.2838152647018433,0.1534757912158966,-0.0149781191721558,0.0942005887627601,0.1181356087327003,0.0,0.0,-0.6006775175731489,0.8002440878641185
-0.0016668320167809,1.2833805084228516,0.1747223138809204,-0.0196188576519489,0.0988635048270225,0.0932581275701522,0.0,0.0,0.7218302670336489,0.7747046194045727
0.0001903533993754,1.2841463088989258,0.1822127252817154,0.0337928421795368,0.1023455113172531,0.0696400851011276,0.0,0.0,-0.900617923030308,-0.9398280697823352
0.0021117210853844,1.284780740737915,0.186368703842163,0.0277982428669929,0.1080700606107711,0.1144909858703613,0.0,0.0,0.5319560561918686,0.8897544509876023
0.0040491102263331,1.2863714694976809,0.1894479393959045,0.0703818723559379,0.1123317033052444,0.0852326825261116,0.0,0.0,0.1078548431396484,0.9983654022216796
0.0062600136734545,1.2883915901184082,0.2183682918548584,0.0895769596099853,0.1150361970067024,0.0540900155901908,0.0,0.0,0.1132045984268188,1.0
0.0087402341887354,1.2906211614608765,0.246860384941101,0.0990014746785163,0.116190955042839,0.0230952035635709,0.0,0.0,0.0265607833862304,0.9055907726287842
0.0114636421203613,1.2932418584823608,0.2725373208522796,0.1164923906326294,0.1159878373146057,-0.0040625184774398,0.0,0.0,0.0949316024780273,0.9995098114013672
0.014349078759551,1.2960281372070312,0.2902790904045105,0.1239679977297782,0.1142669916152954,-0.0344168022274971,0.0,0.0,0.1231746673583984,0.7098368406295776
0.0174380298703908,1.2990398406982422,0.3115428984165191,0.1340557783842086,0.111631728708744,-0.052705205976963,0.0,0.0,0.1114174127578735,0.9942655563354492
0.0207587238401174,1.3023942708969116,0.3362666666507721,0.1493891924619674,0.1074670106172561,-0.0832944065332412,0.0,0.0,-0.0481189489364624,0.9313135147094728
0.0242766384035348,1.305646896362305,0.3570446968078613,0.1449268013238906,0.1022510379552841,-0.1043194308876991,0.0,0.0,-0.0599010586738586,0.5233521461486816
0.027964973822236,1.3087875843048096,0.3744430840015411,0.1399638801813125,0.0966835841536521,-0.1113491430878639,0.0,0.0,-0.1655953526496887,0.6942660808563232
0.0318449959158897,1.3118127584457395,0.3945011794567108,0.1348603367805481,0.0902456119656562,-0.1287597119808197,0.0,0.0,-0.2917286157608032,-0.9447811841964722
0.0358074195683002,1.3147087097167969,0.4008328020572662,0.1289759427309036,0.0857062339782714,-0.0907877758145332,0.0,0.0,-0.151354432106018,-0.6023989915847778
0.0398571006953716,1.317480206489563,0.4077488481998443,0.1233381181955337,0.0829448327422142,-0.0552278086543083,0.0,0.0,-0.018753170967102,0.9494452476501464
0.044134996831417,1.3201359510421753,0.432366132736206,0.1182786598801612,0.0784144848585128,-0.090607076883316,0.0,0.0,-0.1182843446731567,-0.8350459337234497
0.0484867095947265,1.3226699829101562,0.4376076161861419,0.1127478256821632,0.0760004371404647,-0.0482814386487007,0.0,0.0,0.0744736194610595,-0.5250661969184875
0.0530197136104106,1.3255620002746582,0.4540267884731293,0.1285675019025802,0.0752859935164451,-0.0142886862158775,0.0,0.0,-0.1142923831939697,0.0464885234832763
0.0576927177608013,1.3283320665359497,0.4675579667091369,0.1231278181076049,0.0750351846218109,-0.0050164884887635,0.0,0.0,-0.0339033007621765,-0.6416236162185669
0.0624629035592079,1.3309813737869265,0.4757100045681,0.1176810413599014,0.0763242095708847,0.0257805399596691,0.0,0.0,-0.1834281086921692,-0.824537992477417
0.0673228278756141,1.333506464958191,0.4829526543617248,0.1120688468217849,0.0793407708406448,0.060331292450428,0.0,0.0,-0.3653410673141479,-0.8689519166946411
0.0722625702619552,1.335911750793457,0.4889320731163025,0.1066255345940589,0.0843328535556793,0.0998416095972061,0.0,0.0,-0.2415499687194824,-0.5109320878982544
0.0772969275712966,1.3381943702697754,0.4967795312404632,0.1010600328445434,0.090931586921215,0.1319745033979416,0.0,0.0,0.1332179307937622,-0.2534242868423462
0.0824835747480392,1.3407399654388428,0.5113792419433594,0.1126822978258133,0.0981533080339431,0.144434243440628,0.0,0.0,-0.1673527359962463,-0.2476186752319336
0.0878106132149696,1.3431646823883057,0.5249554514884949,0.1072374507784843,0.1058346703648567,0.1536273509263992,0.0,0.0,-0.0620476007461547,-0.3270803689956665
0.0932778343558311,1.345468521118164,0.5385340452194214,0.1017917543649673,0.1139746531844139,0.1627994626760482,0.0,0.0,-0.4300500154495239,-0.3050903081893921
0.0988855361938476,1.3476518392562866,0.5521137714385986,0.0963451564311981,0.122572049498558,0.1719478964805603,0.0,0.0,0.0225043296813964,0.0674436092376709
0.1046078652143478,1.350084662437439,0.5631187558174133,0.1073503196239471,0.131647914648056,0.1815173923969268,0.0,0.0,0.1957969665527343,-0.2946766018867492
0.1103256195783615,1.3530155420303345,0.5626165866851807,0.1294260770082473,0.1407639235258102,0.1823201179504394,0.0,0.0,-0.1079229116439819,-0.9135764241218568
0.1161133795976638,1.3558223247528076,0.5674303770065308,0.1236277148127555,0.1520885378122329,0.226492166519165,0.0,0.0,-0.0476996302604675,-0.2464534640312194
0.1220411285758018,1.3585093021392822,0.5810015797615051,0.118174634873867,0.1638643592596054,0.2355163544416427,0.0,0.0,0.0029157400131225,-0.0850493311882019
0.1280405074357986,1.3618476390838623,0.5876580476760864,0.1469758003950119,0.176165297627449,0.2460184097290039,0.0,0.0,0.1091171503067016,0.7099716663360596
0.1341088265180587,1.3655288219451904,0.5956133008003235,0.162233293056488,0.1874221116304397,0.2251363545656204,0.0,0.0,0.2336159944534301,-0.4076681137084961
0.1401552259922027,1.3698161840438845,0.5933228135108948,0.1890834867954254,0.1988065391778946,0.2276881486177444,0.0,0.0,0.4040204286575317,0.8118573427200317
0.1463281661272049,1.3747910261154177,0.6071492433547974,0.2197043746709823,0.2090385258197784,0.2046398818492889,0.0,0.0,0.5575954914093018,0.9143785238265992
0.1524107009172439,1.3808040618896484,0.5996747612953186,0.2660079598426819,0.2176948338747024,0.1731262952089309,0.0,0.0,0.7073938846588135,-0.3371278643608093
0.1585777252912521,1.3875956535339355,0.6073654890060425,0.3004464209079742,0.2271386235952377,0.1888760477304458,0.0,0.0,0.7651727199554443,0.9194961786270142
0.1648223847150802,1.3948819637298584,0.6166152358055115,0.3226033747196197,0.2351050376892089,0.1593284457921981,0.0,0.0,0.7593557834625244,0.9146863222122192
0.1712754219770431,1.4025970697402954,0.6387249231338501,0.3418198227882385,0.24179008603096,0.1337008625268936,0.0,0.0,0.8359894752502441,0.9202685356140136
0.1778111457824707,1.4107439517974854,0.6484561562538147,0.3612385392189026,0.2469850778579712,0.1038997620344162,0.0,0.0,0.8381567001342773,0.2035983800888061
0.1842603683471679,1.4200506210327148,0.6394559741020203,0.412695050239563,0.2525573670864105,0.1114457026124,0.0,0.0,0.853135347366333,0.993833303451538
0.190790370106697,1.4306418895721436,0.6489540338516235,0.4700299203395843,0.2566756010055542,0.082364484667778,0.0,0.0,0.8615162372589111,0.9032098054885864
0.1971564292907714,1.4424313306808472,0.6342100501060486,0.523553192615509,0.2591244876384735,0.0489774569869041,0.0,0.0,0.8820041418075562,0.9686120748519896
0.203480526804924,1.454603910446167,0.6317850351333618,0.5408830642700195,0.2597660720348358,0.0128315743058919,0.0,0.0,0.9112071990966796,0.9747991561889648
0.2098296135663986,1.46803879737854,0.6357513070106506,0.5972616076469421,0.2589087784290313,-0.0171460025012493,0.0,0.0,0.8540456295013428,0.9299361705780028
0.2160989791154861,1.482269048690796,0.629447340965271,0.6328961253166199,0.2563512325286865,-0.0511510148644447,0.0,0.0,0.8186602592468262,0.8498129844665527
0.2223152220249176,1.497464895248413,0.625566840171814,0.6760467886924744,0.2523318827152252,-0.0803868174552917,0.0,0.0,0.7460922002792358,0.8652799129486084
0.228534311056137,1.513637661933899,0.6272281408309937,0.7197021245956421,0.246910274028778,-0.1084325537085533,0.0,0.0,0.6782889366149902,0.6248296499252319
0.2348844558000564,1.5306028127670288,0.6410025954246521,0.7550001740455627,0.2408186793327331,-0.121831975877285,0.0,0.0,0.5197372436523438,0.9087648391723632
0.2413887977600097,1.5479319095611572,0.657853364944458,0.7713747620582581,0.233284443616867,-0.1506847739219665,0.0,0.0,0.5290570259094238,0.9466894865036012
0.2481091469526291,1.56573748588562,0.6808947920799255,0.7927310466766357,0.2242946326732635,-0.1797963380813598,0.0,0.0,0.4292483329772949,0.8353390693664551
0.2550563812255859,1.5842148065567017,0.704769492149353,0.8227107524871826,0.2141331732273101,-0.2032295018434524,0.0,0.0,0.45149827003479,0.1637060642242431
0.2621814608573913,1.603118896484375,0.7217068076133728,0.8414859771728516,0.2048594057559967,-0.1854756772518158,0.0,0.0,0.3195888996124267,-0.042563259601593
0.269311249256134,1.6227823495864868,0.7218924760818481,0.8751453757286072,0.1958725899457931,-0.1797362715005874,0.0,0.0,-0.0059335827827453,-0.601453959941864
0.2765261530876159,1.6423165798187256,0.7290019392967224,0.8691609501838684,0.1883222907781601,-0.1510058343410492,0.0,0.0,-0.0175365209579467,0.9187872409820556
0.2839556634426117,1.6617581844329834,0.7524082660675049,0.8652403354644775,0.1788229793310165,-0.1899864077568054,0.0,0.0,0.1402428150177002,-0.4283354878425598
0.2915413975715637,1.6814302206039429,0.7674583196640015,0.875359296798706,0.1699081510305404,-0.1782963275909423,0.0,0.0,0.0720206499099731,0.8534262180328369
0.2992249429225921,1.7014747858047483,0.7787353992462158,0.8920229077339172,0.1595216989517212,-0.2077291458845138,0.0,0.0,0.0085867643356323,-0.5909807682037354
0.3069605827331543,1.7221885919570925,0.7824687361717224,0.9215399622917176,0.1506140977144241,-0.1781521737575531,0.0,0.0,-0.0673640966415405,-0.5564654469490051
0.3147744238376617,1.742770791053772,0.7889490127563477,0.9155112504959106,0.143070712685585,-0.1508677303791046,0.0,0.0,0.0766588449478149,-0.5768104195594788
0.322501003742218,1.7639774084091189,0.7790218591690063,0.9431156516075134,0.1367284953594207,-0.1268444657325744,0.0,0.0,-0.5052949786186218,-0.2390445470809936
0.3303476274013519,1.785062551498413,0.7908627390861511,0.9376736283302308,0.1305525600910186,-0.1235185861587524,0.0,0.0,-0.2699843645095825,-0.7825458645820618
0.3382450044155121,1.8060184717178345,0.794087290763855,0.9317474961280824,0.1262199729681015,-0.086651787161827,0.0,0.0,-0.2685279846191406,-0.7098608016967773
0.3461943566799164,1.826845407485962,0.7975599765777588,0.925859808921814,0.1236180365085601,-0.0520387887954711,0.0,0.0,-0.2998741865158081,0.163286805152893
0.3542574048042297,1.847550392150879,0.8088172078132629,0.9204214811325072,0.1211127936840057,-0.0501047447323799,0.0,0.0,-0.0763638615608215,-0.4456944465637207
0.3624314367771148,1.8681328296661377,0.8198440670967102,0.9149834513664246,0.1186794117093086,-0.0486678034067153,0.0,0.0,0.0916464328765869,0.3841170072555542
0.3705739080905914,1.88909125328064,0.8171140551567078,0.931706726551056,0.1158323511481285,-0.0569410435855388,0.0,0.0,-0.0935443043708801,0.7087266445159912
0.3788867890834808,1.9099429845809937,0.8358078002929688,0.927091896533966,0.1113405749201774,-0.0898358523845672,0.0,0.0,-0.0104475617408752,-0.2421783208847046
0.3873016238212585,1.9306727647781368,0.8460184931755066,0.9216535687446594,0.1068423762917518,-0.0899640768766403,0.0,0.0,-0.0716564059257507,-0.9506524205207824
0.3957577645778656,1.9512784481048584,0.8487335443496704,0.9160324931144714,0.1037473827600479,-0.0618999786674976,0.0,0.0,0.1622415781021118,0.1633328199386596
0.4042363166809082,1.972574234008789,0.8511048555374146,0.94668847322464,0.1005176082253456,-0.0645954012870788,0.0,0.0,-0.3455347418785095,-0.7776639461517334
0.4127583503723144,1.9937491416931152,0.8543617129325867,0.941256582736969,0.0983804687857627,-0.0427427403628826,0.0,0.0,-0.2078307867050171,0.739051342010498
0.4214325845241546,2.014811754226685,0.8713726997375488,0.9363648891448976,0.0944693014025688,-0.078223317861557,0.0,0.0,-0.1589179039001464,-0.7518116235733032
0.430128663778305,2.0357506275177,0.8721631169319153,0.9307860136032104,0.0919317305088043,-0.0507516749203205,0.0,0.0,-0.2000350356101989,-0.9745062589645386
0.4388324618339538,2.056565999984741,0.8713518977165222,0.9251970648765564,0.0909716263413429,-0.0192019827663898,0.0,0.0,-0.2900007963180542,-0.9695655107498168
0.4475428462028503,2.0772452354431152,0.8705011606216431,0.9190425872802734,0.091495506465435,0.0104776760563254,0.0,0.0,-0.2740235328674316,0.9013314247131348
0.4563766419887543,2.097811460494995,0.88451087474823,0.91411030292511,0.0903717949986457,-0.0224738959223032,0.0,0.0,-0.2235814929008484,0.2198935747146606
0.4652718603610992,2.1182546615600586,0.8908907771110535,0.9086753129959106,0.0890091657638549,-0.0272525213658809,0.0,0.0,-0.3199000954627991,0.9029629230499268
0.4742911458015442,2.13858413696289,0.9053229093551636,0.9037297368049622,0.0856504142284393,-0.0671748667955398,0.0,0.0,-0.4506377577781677,0.7670774459838867
0.4834230542182922,2.1587975025177,0.918476700782776,0.8986846804618835,0.0804154202342033,-0.1047000512480735,0.0,0.0,-0.6425613760948181,-0.2237343192100525
0.4925980567932129,2.178889513015747,0.9230945706367492,0.8932477831840515,0.0748779997229576,-0.1107483282685279,0.0,0.0,-0.5141929984092712,-0.8312346339225769
0.5017544627189636,2.1988558769226074,0.9201631546020508,0.8876295685768127,0.0704058483242988,-0.0894432365894317,0.0,0.0,-0.5654945969581604,-0.5552012324333191
0.5108985900878906,2.2187013626098637,0.9182025194168092,0.8821817636489868,0.0666531324386596,-0.0750541239976883,0.0,0.0,-0.7009137272834778,-0.7626597285270691
0.520012378692627,2.238410234451294,0.914150893688202,0.8760688304901123,0.0639054924249649,-0.0549527034163475,0.0,0.0,-0.926396369934082,-0.9673807621002196
0.5290781855583191,2.2579917907714844,0.908109962940216,0.8703628182411194,0.0623997077345848,-0.0301157645881176,0.0,0.0,-0.8085769414901733,0.0169752836227417
0.5381532907485962,2.277451038360596,0.9094131588935852,0.8649279475212097,0.0605105869472026,-0.0377824530005455,0.0,0.0,-0.8734844326972961,0.8389484882354736
