x_pos,y_pos,x_vel,y_vel,angle,ang_vel,leg_1,leg_2,main_booster,lat_booster
-0.0015259742503985,1.403038501739502,-0.1546031385660171,-0.3502925336360931,0.0018021608702838,0.0355521291494369,0.0,0.0,-0.8214048795047639,-0.6631064092934016
-0.0031030655372887,1.3945908546447754,-0.160726860165596,-0.3754580318927765,0.0047849859111011,0.0596629381179809,0.0,0.0,-0.1846125985092168,-0.984984078383793
-0.0047450065612792,1.3855493068695068,-0.168771356344223,-0.4018665254116058,0.0093111796304583,0.0905322134494781,0.0,0.0,-0.3233479213279342,-0.9528269968156962
-0.006482315249741,1.3759180307388306,-0.1806134134531021,-0.4281215667724609,0.0161202885210514,0.1361945122480392,0.0,0.0,-0.8390891772746718,0.9562632985465784
-0.0081351278349757,1.365706205368042,-0.169868916273117,-0.4539109170436859,0.020658079534769,0.0907641649246215,0.0,0.0,0.6756390996440631,0.6405901111631749
-0.0096058845520019,1.3557400703430176,-0.1507952809333801,-0.4429919123649597,0.0243325382471084,0.0734958201646804,0.0,0.0,0.478711691411152,0.8169726268395249
-0.011056232266128,1.3459646701812744,-0.147101029753685,-0.4344997704029083,0.0263787731528282,0.0409283563494682,0.0,0.0,-0.4513057258175488,0.9644034273566148
-0.0124214170500636,1.335609793663025,-0.1362030357122421,-0.4602117836475372,0.0260682068765163,-0.0062118857167661,0.0,0.0,0.5067367368364246,0.721321882451636
-0.013772296719253,1.3258229494094849,-0.1333283931016922,-0.434937983751297,0.0243302322924137,-0.0347625240683555,0.0,0.0,-0.4713491835729251,0.7681581286431024
-0.0150738712400197,1.3154569864273071,-0.1268949210643768,-0.4606540501117706,0.0210972856730222,-0.0646651238203048,0.0,0.0,0.0677340628167963,0.6166605562989219
-0.0162842757999897,1.3050857782363892,-0.1166514381766319,-0.4608931541442871,0.0167571622878313,-0.0868102982640266,0.0,0.0,0.0980195853414853,-0.9024271332059358
-0.017529010772705,1.294652819633484,-0.1219269484281539,-0.4636601209640503,0.014243571087718,-0.0502762906253337,0.0,0.0,0.3738060609383833,-0.623356346065455
-0.0187256820499897,1.2845110893249512,-0.1186419576406478,-0.4507390558719635,0.0132338507100939,-0.0201963707804679,0.0,0.0,0.9555870489193876,0.922744480978548
-0.0197792053222656,1.2744083404541016,-0.1026739031076431,-0.44898721575737,0.0105938855558633,-0.0528043322265148,0.0,0.0,0.3902841762961981,0.8303562746080847
-0.0206551551818847,1.2647721767425537,-0.0834699571132659,-0.428251713514328,0.0065046339295804,-0.0817923992872238,0.0,0.0,-0.3287270763521379,0.8496826820898767
-0.0214673038572073,1.2545411586761477,-0.075086124241352,-0.4547017216682434,0.0004465198726393,-0.1211730614304542,0.0,0.0,0.69053419263022,0.8294938300338192
-0.0220742225646972,1.2450475692749023,-0.0532135665416717,-0.4219508767127991,-0.0069484449923038,-0.1479128748178482,0.0,0.0,-0.9587283044123388,0.7033828344872184
-0.0226290710270404,1.2349618673324585,-0.0462682507932186,-0.4483135938644409,-0.0160471573472023,-0.1819909363985061,0.0,0.0,0.0028206806158834,-0.8109558022879189
-0.0231875423341989,1.2250298261642456,-0.048312522470951,-0.4415259957313537,-0.0234959404915571,-0.1489890366792678,0.0,0.0,0.7466407744440278,0.7963107020133625
-0.0237801559269428,1.2154103517532349,-0.0499594993889331,-0.4276966452598572,-0.0326927118003368,-0.1839521825313568,0.0,0.0,-0.94411701199187,-0.8600925952241794
-0.0244440082460641,1.2052147388458252,-0.0584685429930686,-0.4533248543739319,-0.0405188761651515,-0.1565373539924621,0.0,0.0,0.1781685056565973,-0.919226814344556
-0.0251762382686138,1.1949056386947632,-0.0671904385089874,-0.4583622515201568,-0.0464955419301986,-0.1195442080497741,0.0,0.0,-0.7389722244803272,-0.7435515078688759
-0.0259733200073242,1.1840128898620603,-0.0748679637908935,-0.4842785596847534,-0.0512929335236549,-0.0959561616182327,0.0,0.0,-0.2670706540199568,0.873181455079352
-0.0267129894345998,1.1725192070007324,-0.0671745091676712,-0.5110833644866943,-0.0580111593008041,-0.1343766748905182,0.0,0.0,-0.6965119093461001,0.9812496596776504
-0.0274126045405864,1.1604374647140503,-0.0616898834705352,-0.5372974872589111,-0.0662007331848144,-0.1638063043355941,0.0,0.0,0.7365293874067274,-0.8288936041016489
-0.0283178333193063,1.148884654045105,-0.0836193412542343,-0.5137799978256226,-0.0730301886796951,-0.1365887969732284,0.0,0.0,0.9548190188913052,-0.7101559158702189
-0.0292313583195209,1.1380422115325928,-0.0859119370579719,-0.4821579754352569,-0.0784151554107666,-0.1076993346214294,0.0,0.0,-0.9428527840059364,-0.8656670826898601
-0.0302477832883596,1.1266329288482666,-0.0983458757400512,-0.507256269454956,-0.0816825702786445,-0.065348319709301,0.0,0.0,0.5835826568533047,0.8259775888210799
-0.031297493726015,1.115763783454895,-0.0997984558343887,-0.4833645224571228,-0.0867993012070655,-0.102334976196289,0.0,0.0,0.0168425377909335,-0.9461296384394228
-0.0324320793151855,1.10476553440094,-0.1102170720696449,-0.4890012443065643,-0.0900105014443397,-0.0642238482832908,0.0,0.0,0.8209765981664117,-0.8691972881256418
-0.0335487350821495,1.094591498374939,-0.1102393493056297,-0.4522668421268463,-0.0914298370480537,-0.0283866673707962,0.0,0.0,-0.685638553359811,0.7094520990804385
-0.0346380248665809,1.0838207006454468,-0.1062662228941917,-0.4788641333580017,-0.0940671861171722,-0.0527470409870147,0.0,0.0,0.2243341426741909,0.9093893422836355
-0.0356910713016986,1.0733598470687866,-0.1007987707853317,-0.4652216732501983,-0.0985347330570221,-0.0893512219190597,0.0,0.0,0.3650052353522195,-0.9189619213705778
-0.0368688590824604,1.0627691745758057,-0.1150832399725914,-0.4708724915981293,-0.1012093052268028,-0.0534912645816803,0.0,0.0,0.5800952125977787,0.6371775428454383
-0.0379400253295898,1.052479267120361,-0.1031983941793441,-0.4576055407524109,-0.1051030755043029,-0.0778754502534866,0.0,0.0,0.99525024803244,-0.8995780537692115
-0.03898286819458,1.042980074882507,-0.1022268161177635,-0.4223313331604004,-0.1071401610970497,-0.0407417155802249,0.0,0.0,-0.0637563501616647,-0.7664996996114626
-0.040109921246767,1.0329012870788574,-0.1122768521308898,-0.4479793608188629,-0.1075709983706474,-0.0086167976260185,0.0,0.0,0.6313929267931917,-0.9405556492270096
-0.0412087440490722,1.0233699083328247,-0.1114094853401184,-0.4235104322433471,-0.1060558632016182,0.0303028486669063,0.0,0.0,-0.1020428418600469,0.6008598913204609
-0.0422839149832725,1.013252019882202,-0.1079293712973594,-0.4496496319770813,-0.1056466624140739,0.0081840194761753,0.0,0.0,0.0991127540590484,-0.8107801185305888
-0.0433793067932128,1.0031591653823853,-0.1116073951125145,-0.4484216272830963,-0.1035977452993393,0.0409781895577907,0.0,0.0,0.0550587174423509,0.9148557122750742
-0.0444520935416221,0.993231475353241,-0.1075315251946449,-0.4412178099155426,-0.1033513396978378,0.0049281041137874,0.0,0.0,-0.9872626066207886,0.773465633392334
-0.0454724319279193,0.98270446062088,-0.1004136428236961,-0.4679721295833587,-0.1049533858895301,-0.0320408269762992,0.0,0.0,-0.9995762705802916,0.2138890027999878
-0.0465131774544715,0.9715918302536012,-0.102472648024559,-0.4940128326416015,-0.1065449193120002,-0.0318306498229503,0.0,0.0,-0.993248164653778,0.3769751787185669
-0.047574233263731,0.9598932266235352,-0.1045125499367713,-0.520053505897522,-0.1081261485815048,-0.0316246561706066,0.0,0.0,-0.99831360578537,0.1778568029403686
-0.0486554130911827,0.9476087093353271,-0.1065311208367347,-0.5460941791534424,-0.1096972525119781,-0.0314222685992717,0.0,0.0,-0.9937248826026917,0.5752367973327637
-0.0497080795466899,0.934724509716034,-0.102457508444786,-0.5728427171707153,-0.1124957725405693,-0.0559703521430492,0.0,0.0,-0.7297160625457764,-0.4459773302078247
-0.0507803931832313,0.921254575252533,-0.1044269576668739,-0.5988836884498596,-0.1152844354510307,-0.0557732693850994,0.0,0.0,-0.9683396220207214,-0.5859401226043701
-0.0519262328743934,0.907214343547821,-0.1131791844964027,-0.6241174340248108,-0.1166733130812645,-0.0277776811271905,0.0,0.0,-0.9891308546066284,-0.3359804153442383
-0.0530909523367881,0.8925882577896118,-0.1150909811258316,-0.6501579284667969,-0.118052490055561,-0.0275833867490291,0.0,0.0,-0.8557541370391846,-0.7510156631469727
-0.0543356910347938,0.8773849010467529,-0.1246538534760475,-0.6756879687309265,-0.1178713515400886,0.0036227640230208,0.0,0.0,-0.4452760219573974,-0.2789541482925415
-0.0555987358093261,0.861595630645752,-0.1264999657869339,-0.7017284631729126,-0.1176805049180984,0.0038171026390045,0.0,0.0,-0.7145382165908813,-0.2412837147712707
-0.0568798072636127,0.8452205657958984,-0.128310352563858,-0.7277688980102539,-0.1174798756837844,0.004012512974441,0.0,0.0,-0.8406361937522888,-0.3123402595520019
-0.0581785216927528,0.8282594084739685,-0.1300831735134124,-0.7538092732429504,-0.1172694116830825,0.0042096460238099,0.0,0.0,0.0441843271255493,-0.7739123702049255
-0.0594932548701763,0.8114808201789856,-0.1332613229751587,-0.7455738186836243,-0.1155003979802131,0.0353805534541606,0.0,0.0,-0.4309752583503723,-0.4821107983589172
-0.0608248710632324,0.7941165566444397,-0.1349536478519439,-0.7716144919395447,-0.1137212291359901,0.0355833619832992,0.0,0.0,-0.4504752159118652,0.0763152837753295
-0.0621729865670204,0.7761662006378174,-0.1366032063961029,-0.7976552248001099,-0.1119317188858985,0.0357901491224765,0.0,0.0,0.5017871856689453,0.0751498937606811
-0.0633710846304893,0.758695662021637,-0.1220191270112991,-0.7763074040412903,-0.1097363755106926,0.0439068004488945,0.0,0.0,0.0188168287277221,0.3040459156036377
-0.0644544586539268,0.7412452697753906,-0.1109593287110328,-0.7753802537918091,-0.1071365475654602,0.0519963987171649,0.0,0.0,0.0859935283660888,0.0810272693634033
-0.0654460936784744,0.724008321762085,-0.1020277142524719,-0.7658820748329163,-0.1042984127998352,0.0567627549171447,0.0,0.0,-0.5396713018417358,0.3880530595779419
-0.0664523094892501,0.7061855792999268,-0.1034908294677734,-0.7919231653213501,-0.1014487892389297,0.0569922812283039,0.0,0.0,0.7090620994567871,0.5221920013427734
-0.0673368424177169,0.6883293986320496,-0.0904344171285629,-0.7934786081314087,-0.0994737744331359,0.0395003259181976,0.0,0.0,0.2990546226501465,0.1410932540893554
-0.0682583823800087,0.6707221865653992,-0.0937951654195785,-0.7824353575706482,-0.0978512614965438,0.0324501693248748,0.0,0.0,0.7078356742858887,0.1652175188064575
-0.0690136924386024,0.6533084511756897,-0.07776889950037,-0.7737985253334045,-0.0956254824995994,0.0445157811045646,0.0,0.0,0.6083470582962036,-0.0014849305152893
-0.069701574742794,0.6361966729164124,-0.0711491331458091,-0.7603803873062134,-0.0932804197072982,0.0469009838998317,0.0,0.0,0.0537753105163574,0.1787323951721191
-0.0703724846243858,0.6188799142837524,-0.0694953128695488,-0.7694799900054932,-0.0908986181020736,0.047635979950428,0.0,0.0,0.8318448066711426,0.2307292222976684
-0.0711318999528884,0.6019750237464905,-0.0777202844619751,-0.7512223720550537,-0.0891375616192817,0.0352210663259029,0.0,0.0,0.6452059745788574,-0.3448959589004516
-0.071804903447628,0.5857546329498291,-0.0691928043961525,-0.7207953333854675,-0.087262824177742,0.0374949313700199,0.0,0.0,0.2847200632095337,0.2002418041229248
-0.0724046677350997,0.5692797899246216,-0.0621843263506889,-0.7320865988731384,-0.0850774049758911,0.0437085703015327,0.0,0.0,0.8083369731903076,0.1156972646713256
-0.0729051604866981,0.5536118149757385,-0.0524098053574562,-0.696219801902771,-0.0827390849590301,0.0467661097645759,0.0,0.0,0.1519352197647094,0.0185738801956176
-0.073452852666378,0.5378596186637878,-0.0568352229893207,-0.699988603591919,-0.0806875601410865,0.0410302430391311,0.0,0.0,0.2623649835586548,0.195304274559021
-0.0740371719002723,0.5223034024238586,-0.0601934604346752,-0.6912907361984253,-0.0789431929588317,0.0348873138427734,0.0,0.0,0.7824405431747437,0.3670110702514648
-0.0745432823896408,0.5071614384651184,-0.0525495484471321,-0.6728747487068176,-0.077027142047882,0.0383210405707359,0.0,0.0,0.2151234149932861,0.6429462432861328
-0.0750631317496299,0.4923760592937469,-0.0524806082248687,-0.6571042537689209,-0.0765350908041,0.0098410742357373,0.0,0.0,0.1025137901306152,-0.0167047977447509
-0.0755113586783409,0.477575421333313,-0.0455655269324779,-0.6577672362327576,-0.0757964923977851,0.0147719606757164,0.0,0.0,0.6956119537353516,0.8873965740203857
-0.0759039893746376,0.462778776884079,-0.0381896160542964,-0.6576862335205078,-0.076867751777172,-0.021424863487482,0.0,0.0,0.6768839359283447,0.2104461193084716
-0.0762082114815712,0.4478816390037536,-0.0296753402799367,-0.6621328592300415,-0.077598363161087,-0.0146121829748153,0.0,0.0,0.970218062400818,-0.085648775100708
-0.0765234977006912,0.4330082535743713,-0.0306411087512969,-0.6610836386680603,-0.0784811079502105,-0.0176547635346651,0.0,0.0,0.7340400218963623,0.0579087734222412
-0.0767868012189865,0.4187949895858764,-0.0254148840904235,-0.6317503452301025,-0.0793814063072204,-0.0180059559643268,0.0,0.0,0.6053237915039062,-0.5842962861061096
-0.0769531279802322,0.4051823019981384,-0.0171360149979591,-0.604981005191803,-0.078887291252613,0.0098826540634036,0.0,0.0,0.5940226316452026,0.0165572166442871
-0.07716865837574,0.3921757340431213,-0.0215680841356515,-0.5780705213546753,-0.0788691267371177,0.0003633326268754,0.0,0.0,0.672451376914978,0.0328806638717651
-0.0774911865592002,0.3790999948978424,-0.0316797904670238,-0.5811713337898254,-0.0794310495257377,-0.0112383868545293,0.0,0.0,0.458946943283081,-0.119083821773529
-0.0777250304818153,0.3664779663085937,-0.0230119228363037,-0.5610007047653198,-0.079801470041275,-0.0074084415100514,0.0,0.0,0.7549476623535156,-0.3106873035430908
-0.0780192390084266,0.3541968762874603,-0.0285714082419872,-0.545870840549469,-0.0806421339511871,-0.0168132875114679,0.0,0.0,-0.1272259950637817,-0.6348545551300049
-0.0783692374825477,0.3413391411304474,-0.0355725362896919,-0.5714236497879028,-0.0800737291574478,0.0113678909838199,0.0,0.0,0.871963620185852,-0.4577405452728271
-0.0786701217293739,0.3290817439556122,-0.0306331515312194,-0.5447437167167664,-0.0795384868979454,0.01070505566895,0.0,0.0,0.4999076128005981,0.8200159072875977
-0.0787765532732009,0.3170100748538971,-0.0096875596791505,-0.536569356918335,-0.080476313829422,-0.0187568496912717,0.0,0.0,0.7502496242523193,-0.3135137557983398
-0.0788285285234451,0.3048916459083557,-0.0044098710641264,-0.5386409163475037,-0.0812665224075317,-0.015804098919034,0.0,0.0,0.8004043102264404,-0.6267924308776855
-0.0787857994437217,0.2928314208984375,0.0035022899974137,-0.5359658002853394,-0.0805017873644828,0.0152948964387178,0.0,0.0,0.8904082775115967,0.0265566110610961
-0.078521728515625,0.281141996383667,0.024810055270791,-0.5194472670555115,-0.0789248645305633,0.0315382592380046,0.0,0.0,0.7628778219223022,0.1470886468887329
-0.0780749320983886,0.2694783210754394,0.0423582270741462,-0.5182652473449707,-0.0766254961490631,0.0459874048829078,0.0,0.0,0.7062394618988037,-0.6875547170639038
-0.0776273757219314,0.2584011554718017,0.0410291776061058,-0.4921314418315887,-0.0729343444108963,0.073823258280754,0.0,0.0,0.3816330432891845,-0.113146960735321
-0.0771057158708572,0.2476844191551208,0.0482783690094947,-0.4761150479316711,-0.0690872073173523,0.0769425481557846,0.0,0.0,0.0366109609603881,0.1614108085632324
-0.0764748603105545,0.2370002120733261,0.0587956011295318,-0.4746630787849426,-0.0648413896560669,0.0849165171384811,0.0,0.0,0.1284232139587402,-0.1409781575202942
-0.0757581740617752,0.2260573655366897,0.0670184642076492,-0.4861558675765991,-0.0602387338876724,0.0920531600713729,0.0,0.0,0.1290671825408935,0.0058079957962036
-0.0750534981489181,0.2150531560182571,0.0659506618976593,-0.4889019429683685,-0.0557630732655525,0.0895129889249801,0.0,0.0,0.6808024644851685,0.0611436367034912
-0.0742105469107627,0.2047706395387649,0.0793170258402824,-0.4568230509757995,-0.0508491583168506,0.0982785671949386,0.0,0.0,-0.1027247905731201,-0.4078383445739746
-0.0733643546700477,0.1939025521278381,0.0796160548925399,-0.4828654825687408,-0.0458942763507366,0.0990973785519599,0.0,0.0,0.6178511381149292,-0.5035088658332825
-0.0726482421159744,0.1836324781179428,0.0658964738249778,-0.4562855064868927,-0.0402517691254615,0.1128502339124679,0.0,0.0,-0.0343196392059326,0.284008264541626
-0.0719283074140548,0.1727768331766128,0.0662320032715797,-0.4823285937309265,-0.0345665588974952,0.113704539835453,0.0,0.0,0.8573541641235352,0.7588474750518799
-0.0711806267499923,0.1626058220863342,0.0706405192613601,-0.4519562423229217,-0.0304908398538827,0.0815143212676048,0.0,0.0,0.8049800395965576,-0.1284986734390258
-0.0704942718148231,0.1530797630548477,0.0648880302906036,-0.4233104884624481,-0.0267888028174638,0.0740407258272171,0.0,0.0,0.2779496908187866,0.3835560083389282
-0.0698126778006553,0.1435461789369583,0.0644585639238357,-0.4236493110656738,-0.0231304988265037,0.0731662213802337,0.0,0.0,0.4739177227020263,-0.2168536782264709
-0.0692184418439865,0.1342351287603378,0.0561606660485267,-0.4137789607048034,-0.0199075303971767,0.0644594877958297,0.0,0.0,0.5121878385543823,-0.7522268891334534
-0.0688223838806152,0.1250618994235992,0.0350359752774238,-0.4076448082923889,-0.0154051445424556,0.0900477096438407,0.0,0.0,0.735650897026062,0.8742430210113525
-0.0682178512215614,0.1164359152317047,0.0574001185595989,-0.3833475410938263,-0.0123844407498836,0.0604142025113105,0.0,0.0,0.6014454364776611,-0.2366744875907898
-0.0675450339913368,0.1077595055103302,0.0638907849788665,-0.3855938017368316,-0.0090401442721486,0.0668858438730239,0.0,0.0,0.8709917068481445,0.2440831661224365
-0.0666958838701248,0.0997910574078559,0.0807052701711654,-0.3541330099105835,-0.0048867254517972,0.0830686092376709,0.0,0.0,0.3913625478744507,0.0125737190246582
-0.0658586472272872,0.092217355966568,0.0795565694570541,-0.3366004228591919,-0.0007723846356384,0.0822868347167968,0.0,0.0,0.1565104722976684,-0.2974305152893066
-0.0649169906973838,0.0849551558494567,0.0894805118441581,-0.3227699697017669,0.0038547725416719,0.0925433188676834,0.0,0.0,0.0111244916915893,0.3859556913375854
-0.06392602622509,0.0776397287845611,0.0941371470689773,-0.3251525163650512,0.0087494617328047,0.0978937596082687,0.0,0.0,0.4550275802612304,-0.1341665983200073
-0.0629438385367393,0.070817120373249,0.0932303518056869,-0.3032627701759338,0.0136670041829347,0.0983509570360183,0.0,0.0,0.1323124170303344,0.4357953071594238
-0.0619239807128906,0.0642194598913192,0.0967627018690109,-0.2932878136634826,0.0188298467546701,0.1032567471265792,0.0,0.0,0.1928887367248535,0.8691403865814209
-0.060770608484745,0.0575321055948734,0.1117565482854843,-0.2972655296325683,0.0223559737205505,0.0705227255821228,0.0,0.0,0.845537543296814,-0.3836915493011474
-0.0597661957144737,0.0512900687754154,0.097452625632286,-0.2774668633937835,0.025304427370429,0.0589694567024707,0.0,0.0,0.5267786979675293,0.624335765838623
-0.0588506683707237,0.0451710559427738,0.0900560766458511,-0.2719860672950744,0.0267823133617639,0.0295576509088277,0.0,0.0,0.4515186548233032,0.0624160766601562
-0.05796480178833,0.0392079688608646,0.0871265530586242,-0.2650527358055115,0.0282283872365951,0.0289214216172695,0.0,0.0,0.5694670677185059,0.8292059898376465
-0.0569978728890419,0.033421192318201,0.096800222992897,-0.2571853995323181,0.0281246807426214,-0.002074047923088,0.0,0.0,0.8254379034042358,0.28648841381073
-0.0558959953486919,0.0276504382491111,0.1095587462186813,-0.2564908862113952,0.0287454891949892,0.0124162165448069,0.0,0.0,0.9548711776733398,0.028727650642395
-0.0547005645930767,0.0225118976086378,0.1183103546500206,-0.2284052371978759,0.0299574136734008,0.0242384672164917,0.0,0.0,0.7226815223693848,-0.4270342588424682
-0.0535032264888286,0.0180497020483016,0.1183268651366233,-0.1983494311571121,0.0313485153019428,0.0278219617903232,0.0,0.0,0.552393913269043,-0.9238234162330629
-0.0523199066519737,0.0134305814281106,0.1149284392595291,-0.2053664028644561,0.0347196906805038,0.0674232468008995,0.0,0.0,0.8600468635559082,-0.9165158867836
