x_pos,y_pos,x_vel,y_vel,angle,ang_vel,leg_1,leg_2,main_booster,lat_booster
-0.0015065192710608,1.4035320281982422,-0.1521152406930923,-0.3283646702766418,0.0013108119601383,0.0258233956992626,0.0,0.0,-0.6804596781730652,0.4511752128601074
-0.0029976845253258,1.396074295043945,-0.14998759329319,-0.3314506709575653,0.0021632714197039,0.0170516818761825,0.0,0.0,-0.2302507162094116,0.7152650356292725
-0.0044067380949854,1.3885186910629272,-0.1396180093288421,-0.3358069956302643,0.0008901496184989,-0.0254646930843591,0.0,0.0,-0.068057894706726,-0.2085105180740356
-0.0058041573502123,1.380870342254639,-0.1380770802497863,-0.339924544095993,-0.0007522540399804,-0.0328510478138923,0.0,0.0,0.0677119493484497,0.010475754737854
-0.0071082115173339,1.373761534690857,-0.1288009881973266,-0.3159472346305847,-0.0023370659910142,-0.0316993594169616,0.0,0.0,0.0226410627365112,0.3433666229248047
-0.0083189960569143,1.3670639991760254,-0.1195631176233291,-0.2976680099964142,-0.0038268829230219,-0.0297989305108785,0.0,0.0,-0.4796797037124634,0.0920594930648803
-0.0095241544768214,1.3602739572525024,-0.1187343969941139,-0.301783949136734,-0.0055959224700927,-0.0353842042386531,0.0,0.0,-0.3589979410171509,0.445542573928833
-0.0107261659577488,1.3533916473388672,-0.1181561723351478,-0.3058963716030121,-0.0076108332723379,-0.0403020903468132,0.0,0.0,0.0416433811187744,0.622800350189209
-0.0118824960663914,1.3472143411636353,-0.112124465405941,-0.2745646834373474,-0.0110824350267648,-0.0694386735558509,0.0,0.0,-0.7219347357749939,-0.3998273611068725
-0.0130400657653808,1.340944528579712,-0.1120628118515014,-0.2786861956119537,-0.0147298462688922,-0.0729548186063766,0.0,0.0,-0.6443920731544495,0.477878212928772
-0.0142009733244776,1.3345826864242554,-0.1122700423002243,-0.2827991545200348,-0.0185178183019161,-0.0757661312818527,0.0,0.0,-0.7892351746559143,-0.1132605075836181
-0.0153677938506007,1.328128218650818,-0.1127503290772438,-0.2869144380092621,-0.0224092435091733,-0.0778356045484542,0.0,0.0,-0.8442730903625488,-0.2795569896697998
-0.016542911529541,1.3215816020965576,-0.1135080605745315,-0.2910301387310028,-0.0263668373227119,-0.0791587382555008,0.0,0.0,-0.8332304358482361,-0.028497576713562
-0.0177286155521869,1.3149425983428955,-0.1145467981696128,-0.2951458692550659,-0.0303529575467109,-0.0797293931245803,0.0,0.0,-0.953014314174652,0.1516088247299194
-0.0189274791628122,1.308211088180542,-0.1158692985773086,-0.299261599779129,-0.0343298725783824,-0.0795454904437065,0.0,0.0,-0.887242317199707,0.490646481513977
-0.0201418884098529,1.3013871908187866,-0.1174775511026382,-0.3033773005008697,-0.0382599718868732,-0.0786089748144149,0.0,0.0,-0.9321948289871216,-0.0608209371566772
-0.021374512463808,1.2944711446762085,-0.1193727701902389,-0.3074929416179657,-0.0421059131622314,-0.0769258216023445,0.0,0.0,-0.778883159160614,0.4456768035888672
-0.0226276405155658,1.28746235370636,-0.1215553507208824,-0.3116084635257721,-0.0458308793604373,-0.0745058953762054,0.0,0.0,-0.8987821936607361,0.2168148756027221
-0.0239038467407226,1.2803611755371094,-0.1240248903632164,-0.3157238364219665,-0.0493986718356609,-0.071362517774105,0.0,0.0,-0.7797827124595642,0.1554292440414428
-0.0252057071775198,1.2731674909591677,-0.1267801374197006,-0.3198389708995819,-0.0527739934623241,-0.0675123929977417,0.0,0.0,-0.8770626187324524,0.137536883354187
-0.0265357010066509,1.265881061553955,-0.1298191547393798,-0.3239538073539734,-0.0559224635362625,-0.0629750937223434,0.0,0.0,-0.7979469299316406,0.8286159038543701
-0.0278297420591115,1.25849187374115,-0.1247917860746383,-0.3285883665084839,-0.0604915656149387,-0.0913901031017303,0.0,0.0,-0.93190598487854,0.5807912349700928
-0.0291009899228811,1.251004338264465,-0.1213964819908142,-0.3330216109752655,-0.0661720782518386,-0.1136202216148376,0.0,0.0,-0.2295962572097778,0.2328184843063354
-0.0304076187312603,0.0,-0.1252584904432296,-0.3371378183364868,-0.0715290158987045,-0.1071483045816421,0.0,0.0,-0.8853254318237305,0.8802659511566162
-0.0316988006234169,1.2357486486434937,-0.1227173209190368,-0.3414637446403503,-0.0778721645474433,-0.1268745213747024,0.0,0.0,-0.8366076946258545,-0.0454166531562805
-0.0330311767756938,1.227958917617798,-0.1272177696228027,-0.3465310037136078,-0.0838346555829048,-0.1192496046423912,0.0,0.0,-0.8763447999954224,0.2897478342056274
-0.0344060882925987,1.2200767993927002,-0.1318800896406173,-0.3506435751914978,-0.0893907696008682,-0.1111222952604293,0.0,0.0,-0.8307721614837646,0.8301956653594971
-0.0357739441096782,1.2121037244796753,-0.1303101480007171,-0.3547579050064087,-0.0958082973957061,-0.1283503472805023,0.0,0.0,-0.9545335173606871,0.6088898181915283
-0.0371507629752159,1.2040377855300903,-0.1307153403759002,-0.3589496612548828,-0.10272017121315,-0.138237178325653,0.0,0.0,-0.9458794593811036,-0.0097985863685607
-0.0385765060782432,1.1958791017532349,-0.1361006200313568,-0.3630620241165161,-0.1091553196310997,-0.1287029683589935,0.0,0.0,-0.9163389205932616,0.4506902694702148
-0.0400534644722938,1.187627911567688,-0.1417115032672882,-0.3671734035015106,-0.1150931045413017,-0.1187560558319091,0.0,0.0,-0.8792242407798767,0.5962584018707275
-0.0415428169071674,1.1792731285095217,-0.1424441933631897,-0.3718321621417999,-0.1215518489480018,-0.1291747093200683,0.0,0.0,-0.8677639961242676,0.2746156454086303
-0.0430871956050396,1.170825719833374,-0.148482009768486,-0.3759426474571228,-0.1274759620428085,-0.1184818595647811,0.0,0.0,-0.8456025719642639,0.5382864475250244
-0.0446510314941406,1.1622729301452637,-0.1500208973884582,-0.380672812461853,-0.1338120549917221,-0.1267223060131073,0.0,0.0,-0.450259804725647,0.3640844821929931
-0.0462734214961528,1.1536273956298828,-0.1564521491527557,-0.3847822546958923,-0.1395811736583709,-0.1153820753097534,0.0,0.0,-0.779441237449646,0.679914116859436
-0.0479008667171001,1.144882082939148,-0.156131774187088,-0.3893115222454071,-0.1461662799119949,-0.1317023485898971,0.0,0.0,-0.907969892024994,0.7636523246765137
-0.0495333671569824,1.1360275745391846,-0.155784323811531,-0.3942965269088745,-0.1536190807819366,-0.1490559875965118,0.0,0.0,-0.84615159034729,0.7398180961608887
-0.0511672012507915,1.1270711421966553,-0.1549651324748993,-0.3989524841308594,-0.1620353162288665,-0.168324589729309,0.0,0.0,-0.9006879329681396,0.6634337902069092
-0.0528166778385639,1.1180171966552734,-0.1559263318777084,-0.4034014344215393,-0.1710700392723083,-0.1806948333978653,0.0,0.0,-0.7706519365310669,-0.0504789352416992
-0.0545325279235839,1.108870506286621,-0.1631952822208404,-0.4075116217136383,-0.179475337266922,-0.1681059151887893,0.0,0.0,-0.7657808065414429,0.6969447135925293
-0.0562707893550396,1.0996243953704834,-0.1649343073368072,-0.4120410680770874,-0.1883874982595443,-0.1782434284687042,0.0,0.0,-0.8738952875137329,0.5669347047805786
-0.0580248832702636,1.090268850326538,-0.1658327430486679,-0.4170529246330261,-0.1980233043432235,-0.192716583609581,0.0,0.0,-0.5157073140144348,0.4349056482315063
-0.0598492622375488,1.0808202028274536,-0.17350834608078,-0.4211621880531311,-0.2070025652647018,-0.1795852482318878,0.0,0.0,-0.8021387457847595,0.3293403387069702
-0.0617445930838584,1.071278095245361,-0.181304395198822,-0.4252697825431824,-0.2153176218271255,-0.1663012653589248,0.0,0.0,-0.1958867907524109,0.9018903970718384
-0.0636490806937217,1.0616109371185305,-0.1812046021223068,-0.4310302436351776,-0.2246621549129486,-0.1868909001350402,0.0,0.0,-0.6148545742034912,0.2678953409194946
-0.0656269043684005,1.051850199699402,-0.1892216950654983,-0.4351372122764587,-0.2333289980888366,-0.1733368933200836,0.0,0.0,-0.5473287105560303,-0.3288941383361816
-0.0676789283752441,1.041995882987976,-0.197339117527008,-0.4392425417900085,-0.2413122057914734,-0.159664511680603,0.0,0.0,-0.855748176574707,0.1830090284347534
-0.069806195795536,1.0320475101470947,-0.2055507600307464,-0.4433464407920837,-0.2486063539981842,-0.1458833366632461,0.0,0.0,-0.0334632992744445,0.2358992099761963
-0.0720094665884971,1.0220047235488892,-0.213850736618042,-0.4474488794803619,-0.2552064657211303,-0.1320022791624069,0.0,0.0,-0.2757755517959595,0.4397612810134887
-0.0742896050214767,1.0118677616119385,-0.2222335040569305,-0.4515500664710998,-0.2611079514026642,-0.1180296316742897,0.0,0.0,-0.2706228494644165,-0.6414149403572083
-0.0766846686601638,1.0016510486602783,-0.2353859841823578,-0.4548222422599792,-0.2653180062770843,-0.0842010229825973,0.0,0.0,-0.9737736582756042,-0.5565485954284668
-0.0792037993669509,0.9913617968559264,-0.2496991902589798,-0.457702487707138,-0.2675834000110626,-0.0453081354498863,0.0,0.0,-0.257177472114563,0.253401517868042
-0.081801988184452,0.9809775352478028,-0.2582992017269134,-0.4617996215820312,-0.2691385447978973,-0.0311030335724353,0.0,0.0,-0.0844308137893676,0.6414706707000732
-0.0844298377633094,0.9704837203025818,-0.2606823146343231,-0.4667782783508301,-0.2712810635566711,-0.0428508147597312,0.0,0.0,-0.976468026638031,0.8018015623092651
-0.0870623588562011,0.9598603248596193,-0.2598854601383209,-0.4727794826030731,-0.2747367024421692,-0.0691127032041549,0.0,0.0,-0.6835684776306152,0.9411203861236572
-0.089716337621212,0.949112594127655,-0.2611672878265381,-0.4784786105155945,-0.2790823876857757,-0.086913414299488,0.0,0.0,-0.5578027367591858,0.9210219383239746
-0.0923692733049392,0.938243567943573,-0.2596721649169922,-0.4841566085815429,-0.284858375787735,-0.115520104765892,0.0,0.0,-0.6687914133071899,0.1819033622741699
-0.0951038375496864,0.9272795915603638,-0.2685490548610687,-0.4882546961307525,-0.2899106740951538,-0.1010461449623107,0.0,0.0,-0.9105719327926636,0.4496111869812011
-0.0979205146431922,0.9162206053733826,-0.2774695754051208,-0.4923518002033233,-0.2942374050617218,-0.0865337699651718,0.0,0.0,-0.8867691159248352,0.3725717067718506
-0.1008196845650672,0.9050664305686952,-0.2864305078983307,-0.4964480400085449,-0.2978367507457733,-0.071986973285675,0.0,0.0,-0.9946587085723876,0.7984503507614136
-0.1037379279732704,0.8937804102897644,-0.2873351573944092,-0.5025221705436707,-0.3024762868881225,-0.0927904695272445,0.0,0.0,-0.9272163510322572,0.93731689453125
-0.1066795364022255,0.8823766708374023,-0.2888622283935547,-0.5079529285430908,-0.307970643043518,-0.1098874062299728,0.0,0.0,-0.608611524105072,0.8867745399475098
-0.1096250563859939,0.8708374500274658,-0.2878538966178894,-0.514289915561676,-0.314912736415863,-0.1388427317142486,0.0,0.0,-0.7702942490577698,0.9564802646636964
-0.1125796288251876,0.8591683506965637,-0.2875294387340545,-0.5203663110733032,-0.323147714138031,-0.1646997630596161,0.0,0.0,-0.8701966404914856,0.8731632232666016
-0.1155536621809005,0.8473654985427856,-0.2884534001350403,-0.526597797870636,-0.3324625194072723,-0.1862966120243072,0.0,0.0,-0.925354778766632,0.9312419891357422
-0.1185565963387489,0.8354398608207703,-0.2906396090984344,-0.5322744250297546,-0.3425557911396026,-0.2018658816814422,0.0,0.0,-0.6140232086181641,0.9009236097335817
-0.1215722113847732,0.8233928084373474,-0.2908411920070648,-0.53801029920578,-0.3538139164447784,-0.225162073969841,0.0,0.0,-0.2959129810333252,0.8829195499420166
-0.1246007904410362,0.8112008571624756,-0.2909199595451355,-0.5448543429374695,-0.3664086461067199,-0.2518945336341858,0.0,0.0,-0.4085516929626465,0.3875694274902344
-0.1277139633893966,0.7989147901535034,-0.3001277148723602,-0.548957109451294,-0.3782690763473511,-0.237208753824234,0.0,0.0,0.3875551223754883,0.8407299518585205
-0.1307877600193023,0.7870981693267822,-0.2952054142951965,-0.5284610390663147,-0.3912270367145538,-0.259159117937088,0.0,0.0,0.6038751602172852,0.2942433357238769
-0.1337780952453613,0.7761499285697937,-0.2872286438941955,-0.4898920059204101,-0.4038634598255157,-0.2527283728122711,0.0,0.0,0.3731034994125366,0.1731441020965576
-0.1366266310214996,0.7658054232597351,-0.2739070653915405,-0.4629228711128235,-0.4156481921672821,-0.2356942594051361,0.0,0.0,0.2298905849456787,0.3420064449310303
-0.1393942832946777,0.7562867999076843,-0.2661371827125549,-0.4262171983718872,-0.4271436631679535,-0.2299089133739471,0.0,0.0,0.1240664720535278,0.368125319480896
-0.1420390158891677,0.7471784949302673,-0.2547847628593445,-0.4077909886837005,-0.4376757144927978,-0.2106411457061767,0.0,0.0,0.4847803115844726,0.539362907409668
-0.1446128785610199,0.7384424805641174,-0.2473030537366867,-0.3914472460746765,-0.4486831724643707,-0.2201491296291351,0.0,0.0,0.7051751613616943,0.6539905071258545
-0.1470141410827636,0.7299758791923523,-0.2296708077192306,-0.3796943426132202,-0.4601649045944214,-0.2296351641416549,0.0,0.0,0.9018841981887816,-0.7356986403465271
-0.1494166404008865,0.7219969034194946,-0.2318104058504104,-0.3574372231960296,-0.4694763720035553,-0.1862288266420364,0.0,0.0,0.9803268909454346,-0.0888594388961792
-0.151483729481697,0.7152005434036255,-0.1989164799451828,-0.3047150671482086,-0.4781063795089721,-0.1726000308990478,0.0,0.0,0.9898788928985596,-0.3011844158172607
-0.1530988663434982,0.7095500230789185,-0.1548167169094085,-0.2534667551517486,-0.4855640530586242,-0.1491542160511016,0.0,0.0,0.9587583541870116,-0.6880218386650085
-0.1545194685459137,0.7052324414253235,-0.1370313167572021,-0.1936785280704498,-0.4911854565143585,-0.1124277859926223,0.0,0.0,0.9875805377960204,-0.5622308850288391
-0.1560242623090744,0.70148766040802,-0.1467441320419311,-0.1677673459053039,-0.4953742921352386,-0.0837764367461204,0.0,0.0,0.978683590888977,-0.033058226108551
-0.1571225225925445,0.6988610625267029,-0.1069331914186477,-0.1177837699651718,-0.4986182153224945,-0.0648787543177604,0.0,0.0,0.9435348510742188,-0.6212868094444275
-0.1581374108791351,0.6971553564071655,-0.1001122146844863,-0.0763086527585983,-0.5001635551452637,-0.0309063829481601,0.0,0.0,0.7895762920379639,-0.2674999833106994
-0.1589381247758865,0.6963615417480469,-0.0790922492742538,-0.0356325283646583,-0.5012661814689636,-0.0220523178577423,0.0,0.0,0.2878204584121704,-0.696310818195343
-0.1596182882785797,0.6962376832962036,-0.0689695999026298,-0.0051634470000863,-0.5001929998397827,0.0214631557464599,0.0,0.0,-0.3791810870170593,-0.6131353974342346
-0.1604199409484863,0.6960461139678955,-0.0827383249998092,-0.007575815077871,-0.4973008632659912,0.057842593640089,0.0,0.0,-0.2536561489105224,-0.6256963014602661
-0.1613502502441406,0.6957860589027405,-0.0973658710718154,-0.0100007364526391,-0.492440789937973,0.0972016453742981,0.0,0.0,0.1258507966995239,-0.6148725748062134
-0.1622176170349121,0.6957720518112183,-0.0929422527551651,0.0015860419953241,-0.4854922294616699,0.1389712840318679,0.0,0.0,-0.0366401076316833,-0.6911652088165283
-0.1632059067487716,0.6956903338432312,-0.1066798344254493,-0.0008940853876993,-0.4767411351203918,0.1750225871801376,0.0,0.0,0.5807305574417114,-0.613320529460907
-0.1640210151672363,0.6959452629089355,-0.0914893597364425,0.0147242499515414,-0.4656892120838165,0.221037745475769,0.0,0.0,0.4038648605346679,-0.261880874633789
-0.1646376550197601,0.6969637870788574,-0.0723210722208023,0.0487918742001056,-0.4539617300033569,0.2345495522022247,0.0,0.0,0.0155955553054809,-0.6572315692901611
-0.1651586592197418,0.6985403895378113,-0.0647255629301071,0.0741134509444236,-0.4401421546936035,0.27639240026474,0.0,0.0,-0.2662572264671325,-0.2479599714279174
-0.1657628118991851,0.7000231146812439,-0.0737515240907669,0.0700112506747245,-0.4256322979927063,0.2901973128318786,0.0,0.0,-0.2479769587516784,0.5779151916503906
-0.1664032042026519,0.7013735175132751,-0.0767975375056266,0.0638139247894287,-0.4118469357490539,0.2757073044776916,0.0,0.0,-0.3111687302589416,0.3499711751937866
-0.1671260893344879,0.702630341053009,-0.0857423990964889,0.0597098208963871,-0.3973801434040069,0.289336085319519,0.0,0.0,-0.1354376077651977,0.6419792175292969
-0.1678756773471832,0.7037672996520996,-0.0877338200807571,0.0540403164923191,-0.3837407231330871,0.2727880775928497,0.0,0.0,-0.1377254128456115,0.6311347484588623
-0.1686625480651855,0.70478355884552,-0.0909948199987411,0.0484203621745109,-0.3706817328929901,0.2611803412437439,0.0,0.0,-0.2910715341567993,0.4007580280303955
-0.1695304811000824,0.7057062387466431,-0.0997852832078933,0.0443148538470268,-0.3569573760032654,0.2744871973991394,0.0,0.0,-0.2402346134185791,0.8767423629760742
-0.1704038679599762,0.7064983248710632,-0.0990693643689155,0.0380682237446308,-0.3446286618709564,0.2465744763612747,0.0,0.0,0.0354586839675903,0.7166390419006348
-0.1711803376674652,0.707856297492981,-0.0886304229497909,0.0629431307315826,-0.3331343531608581,0.2298855483531952,0.0,0.0,0.3103421926498413,0.7667828798294067
-0.1718534529209137,0.7099741697311401,-0.0773762762546539,0.0964149534702301,-0.3226447999477386,0.2097914963960647,0.0,0.0,-0.3011954426765442,0.4564372301101684
-0.1726052314043045,0.7119983434677124,-0.0858850106596946,0.0923107340931892,-0.3115177452564239,0.2225410938262939,0.0,0.0,-0.227852463722229,0.7936184406280518
-0.1733867675065994,0.713906466960907,-0.0882401913404464,0.0869391337037086,-0.3010647892951965,0.2090595513582229,0.0,0.0,-0.0310774445533752,0.6966776847839355
-0.1742061674594879,0.7157013416290283,-0.091641254723072,0.0817402973771095,-0.2910564839839935,0.2001659423112869,0.0,0.0,0.0334857702255249,0.6613755226135254
-0.1748497933149337,0.7179971933364868,-0.073440745472908,0.1038224250078201,-0.2817071080207824,0.1869867444038391,0.0,0.0,-0.3022323250770569,0.5741699934005737
-0.1755215674638748,0.720173716545105,-0.0756114348769187,0.0983377993106842,-0.2730455696582794,0.173230692744255,0.0,0.0,-0.6454338431358337,0.712385892868042
-0.1761992424726486,0.7222334742546082,-0.0750513300299644,0.0928909033536911,-0.2655803561210632,0.1493044197559356,0.0,0.0,0.0253773927688598,0.6600866317749023
-0.1767876595258712,0.7248877882957458,-0.0653963014483451,0.1191379278898239,-0.2588827311992645,0.1339524537324905,0.0,0.0,-0.2775319814682007,0.4097030162811279
-0.1774476021528244,0.7274481654167175,-0.0731196254491806,0.1150340288877487,-0.2516182959079742,0.145288810133934,0.0,0.0,-0.3901300430297851,0.1826413869857788
-0.1781777441501617,0.7299149036407471,-0.0806904807686805,0.1109288930892944,-0.2437997609376907,0.156370609998703,0.0,0.0,-0.5351293087005615,0.2472918033599853
-0.1789765357971191,0.7322883009910583,-0.0880963802337646,0.1068224385380745,-0.2354405522346496,0.1671838462352752,0.0,0.0,-0.2044583559036255,0.249366283416748
-0.1798421889543533,0.7345685362815857,-0.0953240543603897,0.1027146279811859,-0.2265548408031463,0.1777142435312271,0.0,0.0,-0.4408769607543945,0.5570368766784668
-0.1807248145341873,0.7367361783981323,-0.0962875410914421,0.0975456163287162,-0.2184323668479919,0.1624491512775421,0.0,0.0,-0.4707098007202148,0.4441646337509155
-0.1816706657409668,0.7388105392456055,-0.1031149476766586,0.0934368073940277,-0.2098138630390167,0.1723700165748596,0.0,0.0,-0.2926471829414367,0.1141608953475952
-0.1826776564121246,0.7407922148704529,-0.1097192987799644,0.0893266648054122,-0.2007156461477279,0.1819636225700378,0.0,0.0,-0.6428869962692261,0.3676930665969848
-0.1837434768676757,0.7426813840866089,-0.1160841137170791,0.0852151960134506,-0.1911548972129821,0.1912151724100113,0.0,0.0,-0.4030048847198486,0.0322505235671997
-0.1848657578229904,0.7444779276847839,-0.122192159295082,0.0811023339629173,-0.1811493933200836,0.2001098096370697,0.0,0.0,-0.4558010101318359,0.3145475387573242
-0.186041921377182,0.746182382106781,-0.128025621175766,0.0769881010055542,-0.1707177609205246,0.2086329758167266,0.0,0.0,-0.5866109728813171,-0.5318693518638611
-0.1873037368059158,0.747806191444397,-0.1379022747278213,0.0734776705503463,-0.1589846163988113,0.2346629798412323,0.0,0.0,-0.5041690468788147,0.1023359298706054
-0.1886136084794998,0.7493385672569275,-0.1431315243244171,0.0693589970469474,-0.1468646228313446,0.2424002587795257,0.0,0.0,-0.7098398208618164,-0.1204810738563537
