x_pos,y_pos,x_vel,y_vel,angle,ang_vel,leg_1,leg_2,main_booster,lat_booster
-0.0015115737915039,1.4034836292266846,-0.1538784205913543,-0.3305091857910156,0.0024406753946095,0.0481950975954532,0.0,0.0,-0.3012094497680664,0.9113202095031738
-0.002932071685791,1.3959254026412964,-0.1431649327278137,-0.3359221220016479,0.003536791075021,0.0219250656664371,0.0,0.0,-0.3867207765579223,0.7708461284637451
-0.0042639733292162,1.3882206678390503,-0.1330954432487487,-0.3424315154552459,0.003441397100687,-0.0019079819321632,0.0,0.0,-0.2915890216827392,0.5328389406204224
-0.0055463789030909,1.3803735971450806,-0.12796051800251,-0.3487614393234253,0.0031683726701885,-0.0054611605592072,0.0,0.0,-0.0464469194412231,0.6424756050109863
-0.0067502977326512,1.3723881244659424,-0.1192233338952064,-0.3549148142337799,0.0020185129251331,-0.0229992903769016,0.0,0.0,-0.2112607359886169,0.7013427019119263
-0.0078679081052541,1.3642609119415283,-0.1095478534698486,-0.3612072169780731,-0.0001705007016425,-0.0437844321131706,0.0,0.0,-0.7304961681365967,0.0877919197082519
-0.0089656831696629,1.3559930324554443,-0.1082290410995483,-0.3674663603305816,-0.0016975173493847,-0.0305431839078664,0.0,0.0,-0.518480122089386,-0.4552684426307678
-0.0100422855466604,1.3475841283798218,-0.1067731156945228,-0.3737252354621887,-0.0025660241954028,-0.0173717886209487,0.0,0.0,-0.6227167248725891,0.4367632865905761
-0.0110961915925145,1.3390345573425293,-0.1051772609353065,-0.379983901977539,-0.0027785289566963,-0.0042506279423832,0.0,0.0,-0.3596733212471008,0.8451517820358276
-0.0120596885681152,1.3303492069244385,-0.0950964242219924,-0.3860236704349518,-0.0040102112106978,-0.0246360525488853,0.0,0.0,-0.4944904446601867,0.3721412420272827
-0.0129977222532033,1.321522831916809,-0.0932073965668678,-0.3922826945781708,-0.004591389093548,-0.0116247273981571,0.0,0.0,-0.7080540657043457,0.3444180488586426
-0.0139087680727243,1.3125556707382202,-0.0911715403199195,-0.3985413908958435,-0.0045267306268215,0.0012932039098814,0.0,0.0,-0.9137923121452332,-0.1571230292320251
-0.0147914886474609,1.3034474849700928,-0.0889868065714836,-0.4048000574111938,-0.0038197035901248,0.0141416024416685,0.0,0.0,-0.7033635377883911,0.7394073009490967
-0.0155793186277151,1.2941914796829224,-0.0785000175237655,-0.411385715007782,-0.0041086822748184,-0.0057798800989985,0.0,0.0,-0.838046669960022,0.4281623363494873
-0.0163359642028808,1.2847943305969238,-0.0760083049535751,-0.4176444113254547,-0.0037629262078553,0.0069158775731921,0.0,0.0,-0.9341757893562316,0.4781057834625244
-0.0170597080141305,1.2752565145492554,-0.0733646675944328,-0.4239033460617065,-0.0027882242575287,0.0194956827908754,0.0,0.0,-0.8750696778297424,0.7161575555801392
-0.0176797863095998,1.2655857801437378,-0.0618534199893474,-0.4298078119754791,-0.0029353275895118,-0.0029423744417726,0.0,0.0,-0.9490442276000975,-0.3258677721023559
-0.0182640068233013,1.2557743787765503,-0.0588986948132514,-0.436066597700119,-0.0024627514649182,0.0094523541629314,0.0,0.0,-0.9269312620162964,-0.013730764389038
-0.0188108440488576,1.2458219528198242,-0.0557917281985282,-0.4423255920410156,-0.0013774901162832,0.0217071790248155,0.0,0.0,-0.7019744515419006,0.1651815176010131
-0.0193190574645996,1.2357288599014282,-0.052532635629177,-0.4485846757888794,0.0003144882794003,0.0338427647948265,0.0,0.0,-0.959149956703186,-0.2053271532058715
-0.019787024706602,1.2254948616027832,-0.0491220653057098,-0.454844057559967,0.0026064114645123,0.0458424687385559,0.0,0.0,-0.9728553891181946,-0.4312099814414978
-0.020213508978486,1.2151201963424685,-0.0455611757934093,-0.4611037969589233,0.0054908948950469,0.0576950311660766,0.0,0.0,-0.9156946539878844,-0.1250728368759155
-0.0205968860536813,1.204604983329773,-0.041851345449686,-0.4673639237880707,0.0089600710198283,0.0693898797035217,0.0,0.0,-0.659387469291687,-0.1476794481277465
-0.0209359172731637,1.1939491033554075,-0.0379942134022712,-0.4736245572566986,0.0130054652690887,0.0809149593114852,0.0,0.0,-0.957072138786316,0.5628811120986938
-0.0211952216923236,1.183154821395874,-0.0297235753387212,-0.4797794222831726,0.0167625695466995,0.0751487389206886,0.0,0.0,-0.9856519103050232,0.1430119276046753
-0.0214070323854684,1.1721985340118408,-0.0255504250526428,-0.4869943857192993,0.0210776142776012,0.0863009467720985,0.0,0.0,-0.976031482219696,0.1435931921005249
-0.0215703006833791,1.161102056503296,-0.0212484039366245,-0.4932540655136108,0.0259405057877302,0.0972576662898063,0.0,0.0,-0.9856550693511964,0.6710457801818848
-0.0216422080993652,1.1498738527297974,-0.0116020878776907,-0.4991144239902496,0.030294606462121,0.0870820805430412,0.0,0.0,-0.9589481949806212,0.2934178113937378
-0.0216629989445209,1.1385053396224976,-0.0070219621993601,-0.5053744316101074,0.0351739153265953,0.0975861549377441,0.0,0.0,-0.8723915219306946,0.8914985656738281
-0.0215634349733591,1.1269968748092651,0.0062389844097197,-0.5115838646888733,0.0388546474277973,0.0736146718263626,0.0,0.0,-0.9235690832138062,0.8179891109466553
-0.0213438030332326,1.1153610944747925,0.0194300506263971,-0.5172170400619507,0.0413551516830921,0.050010047852993,0.0,0.0,-0.9179263710975648,0.1130262613296508
-0.0210695266723632,1.10358464717865,0.024404214695096,-0.5234763622283936,0.0443399250507354,0.0596953816711902,0.0,0.0,-0.8732020258903503,0.3674800395965576
-0.0207395553588867,1.0916681289672852,0.0295030418783426,-0.5297358632087708,0.0477931946516037,0.0690654590725898,0.0,0.0,-0.8869655132293701,0.9171507358551024
-0.0202877037227153,1.0796074867248535,0.0428831838071346,-0.536106288433075,0.0500678047537803,0.0454923063516616,0.0,0.0,-0.9109419584274292,0.4759671688079834
-0.0197780616581439,1.0674062967300415,0.0482206121087074,-0.5423656105995178,0.0527758933603763,0.0541618280112743,0.0,0.0,-0.8025160431861877,0.8316092491149902
-0.0191423408687114,1.0550763607025146,0.0621455311775207,-0.54804927110672,0.0541920326650142,0.0283227209001779,0.0,0.0,-0.7812393307685852,0.375194787979126
-0.018446922302246,1.0426058769226074,0.0677068531513214,-0.5543082356452942,0.0560017004609108,0.0361936576664447,0.0,0.0,-0.9236596822738647,0.4185669422149658
-0.0176911354064941,1.0299948453903198,0.0733744949102401,-0.5605674982070923,0.0581830069422721,0.0436259917914867,0.0,0.0,-0.7973334789276123,0.537926197052002
-0.0168346408754587,1.017253041267395,0.0841058939695358,-0.5663679242134094,0.0597107037901878,0.0305536147207021,0.0,0.0,-0.8271646499633789,-0.1758284568786621
-0.0159160606563091,1.0043706893920898,0.089974820613861,-0.5726267695426941,0.0615621544420719,0.0370294712483882,0.0,0.0,-0.8929886817932129,0.0866991281509399
-0.01493501663208,0.9913477301597596,0.0959387272596359,-0.5788856744766235,0.0637115463614463,0.0429877489805221,0.0,0.0,-0.8134006261825562,0.2909183502197265
-0.0138905523344874,0.978184461593628,0.1019937992095947,-0.585144579410553,0.0661316961050033,0.048402938991785,0.0,0.0,-0.8795408010482788,-0.2943630218505859
-0.0127822877839207,0.9648805856704712,0.1081362962722778,-0.5914034247398376,0.0687942281365394,0.053250640630722,0.0,0.0,-0.7885653376579285,-0.1786822080612182
-0.0116095542907714,0.9514362215995787,0.1143624633550643,-0.5976623296737671,0.0716696083545684,0.0575078055262565,0.0,0.0,-0.7974084615707397,0.2050762176513672
-0.0103719709441065,0.9378513693809508,0.1206686496734619,-0.6039211750030518,0.0747272819280624,0.0611532926559448,0.0,0.0,-0.9559701085090636,0.002761960029602
-0.0090690609067678,0.9241260290145874,0.1270511150360107,-0.6101800203323364,0.0779357030987739,0.0641681104898452,0.0,0.0,-0.933159112930298,0.0471091270446777
-0.0077004432678222,0.9102602005004884,0.1335062533617019,-0.6164386868476868,0.0812624916434288,0.0665358901023864,0.0,0.0,-0.8793911337852478,0.1027220487594604
-0.0062657357193529,0.896253764629364,0.1400304585695266,-0.6226972341537476,0.0846746563911438,0.0682432353496551,0.0,0.0,-0.9375237226486206,-0.3528055548667907
-0.0047645568847656,0.8821069002151489,0.1466201543807983,-0.6289557218551636,0.0881386622786521,0.0692798271775245,0.0,0.0,-0.942277729511261,-0.0844455957412719
-0.0031967163085937,0.8678192496299744,0.1532718390226364,-0.6352139711380005,0.0916205942630767,0.0696388557553291,0.0,0.0,-0.9067903161048888,-0.7447883486747742
-0.0016066550742834,0.853384792804718,0.1543730199337005,-0.6418244242668152,0.0962172076106071,0.0919322371482849,0.0,0.0,-0.9405139088630676,-0.5393813252449036
3.814697265625e-06,0.8388065695762634,0.1552746593952179,-0.6482994556427002,0.1019403934478759,0.1144637688994407,0.0,0.0,-0.8666892647743225,0.0248510837554931
0.0016816139686852,0.8240880370140076,0.1620918661355972,-0.6545584797859192,0.1075796112418174,0.112784706056118,0.0,0.0,-0.8044118881225586,-0.0086013674736022
0.0034267425071448,0.809228777885437,0.1689573675394058,-0.6608171463012695,0.1131014451384544,0.1104366034269332,0.0,0.0,-0.8165342211723328,-0.668570339679718
0.0052001951262354,0.794219970703125,0.1709223836660385,-0.6675624847412109,0.1194778382778167,0.1275278031826019,0.0,0.0,-0.7418913245201111,0.7922906875610352
0.0070939064025878,0.7790762782096863,0.1844749748706817,-0.673450767993927,0.1243426725268364,0.0972968190908432,0.0,0.0,-0.7782743573188782,-0.502798318862915
0.0090215681120753,0.7637903094291687,0.1872467994689941,-0.6798520684242249,0.1298386752605438,0.1099197268486023,0.0,0.0,-0.7628238201141357,0.4793411493301391
0.0110170366242527,0.7483633756637573,0.1942726969718933,-0.6861089468002319,0.1350903213024139,0.1050329655408859,0.0,0.0,-0.6673847436904907,-0.0991430282592773
0.0130803110077977,0.7327954173088074,0.201330617070198,-0.692365288734436,0.1400682628154754,0.0995589643716812,0.0,0.0,-0.9027806520462036,0.4355595111846924
0.0152112962678074,0.7170864939689636,0.2084173858165741,-0.6986209154129028,0.1447443068027496,0.093520738184452,0.0,0.0,-0.7673197388648987,-0.39432293176651
0.0174101833254098,0.7012364268302917,0.2155298739671707,-0.7048758268356323,0.1490914225578308,0.0869426429271698,0.0,0.0,-0.5063855051994324,-0.3244314789772033
0.0196767803281545,0.6852452158927917,0.2226649522781372,-0.7111300230026245,0.1530839204788208,0.0798498466610908,0.0,0.0,-0.8184878826141357,-0.645565927028656
0.0219712257385253,0.6691017150878906,0.224799633026123,-0.7179732918739319,0.1577249020338058,0.0928195342421531,0.0,0.0,-0.9495994448661804,-0.6236029863357544
0.0242865569889545,0.6528067588806152,0.2260845899581909,-0.7248092889785767,0.1631623953580856,0.1087501645088195,0.0,0.0,-0.8040366768836975,-0.7209028601646423
0.0266143791377544,0.6363515853881836,0.2263542711734771,-0.7320623397827148,0.1696037650108337,0.1288270503282547,0.0,0.0,-0.7409790754318237,0.2557690143585205
0.0290097240358591,0.6197550892829895,0.2335495501756668,-0.738316535949707,0.1756005883216858,0.1199365705251693,0.0,0.0,-0.7944303154945374,0.2559528350830078
0.0314723961055278,0.6030171513557434,0.2407518923282623,-0.7445697784423828,0.1811336725950241,0.1106616631150245,0.0,0.0,-0.6787750720977783,-0.2569623589515686
0.0340023040771484,0.5861377120018005,0.2479582130908966,-0.750822126865387,0.1861850321292877,0.1010270938277244,0.0,0.0,-0.6992772221565247,-0.3713308572769165
0.0365992560982704,0.569116473197937,0.2551653683185577,-0.7570735812187195,0.1907378882169723,0.0910569578409195,0.0,0.0,-0.3264906406402588,-0.848617434501648
0.0391875281929969,0.5519279837608337,0.252848207950592,-0.7647175192832947,0.1967487931251526,0.1202185377478599,0.0,0.0,-0.2753943204879761,0.1979765892028808
0.0418424606323242,0.5345976948738098,0.260047972202301,-0.7709689736366272,0.202231079339981,0.1096453219652175,0.0,0.0,0.5646016597747803,-0.5586191415786743
0.0444328300654888,0.5179888606071472,0.2529516816139221,-0.7390154004096985,0.2083704620599746,0.1227877885103225,0.0,0.0,-0.4684805870056152,0.1989376544952392
0.0470894798636436,0.501238226890564,0.2601307034492492,-0.7452659606933594,0.2139552682638168,0.1116961985826492,0.0,0.0,0.3688913583755493,-0.5205391645431519
0.0497346892952919,0.4850547611713409,0.2583712935447693,-0.7201659083366394,0.2201751470565796,0.1243976950645446,0.0,0.0,0.2704099416732788,-0.5223594307899475
0.0523127540946006,0.4691429734230041,0.2512498497962951,-0.7081853747367859,0.2268122136592865,0.132741093635559,0.0,0.0,0.4778692722320556,-0.2101498246192932
0.0549500472843647,0.4535346627235412,0.2574835121631622,-0.6946769952774048,0.2331441193819046,0.1266380846500396,0.0,0.0,-0.1746482849121093,-0.7247864603996277
0.0575949661433696,0.4377564787864685,0.257317841053009,-0.7024056315422058,0.2404247224330902,0.1456121355295181,0.0,0.0,0.8497433662414551,-0.9267503023147584
0.0600105300545692,0.4231084585189819,0.2331762611865997,-0.6524145603179932,0.2489475309848785,0.1704562157392501,0.0,0.0,-0.162101149559021,0.7130018472671509
0.062550738453865,0.408348798751831,0.2478690594434738,-0.6570400595664978,0.2552207410335541,0.1254647076129913,0.0,0.0,0.6136775016784668,0.5338526964187622
0.0648794174194336,0.3945820033550262,0.2286873161792755,-0.6125914454460144,0.2594854831695556,0.0852955132722854,0.0,0.0,-0.0655734539031982,-0.4481704831123352
0.0672714263200759,0.3806724846363067,0.2356365025043487,-0.6188365817070007,0.2631257772445678,0.0728056281805038,0.0,0.0,0.470677375793457,-0.6958613395690918
0.0695273429155349,0.3676394522190094,0.2212085425853729,-0.5800416469573975,0.2676102221012115,0.0896889120340347,0.0,0.0,0.7319467067718506,0.6999363899230957
0.0716278105974197,0.355312317609787,0.2079215794801712,-0.5482645034790039,0.2697886526584625,0.0435683242976665,0.0,0.0,0.4223039150238037,0.7100543975830078
0.0736374855041503,0.3436900377273559,0.2009549140930175,-0.5165446996688843,0.2697979807853699,0.0001862872450146,0.0,0.0,0.4023638963699341,-0.7921731472015381
0.0754779800772667,0.332757294178009,0.1831267923116684,-0.4860730767250061,0.270748496055603,0.0190105009824037,0.0,0.0,-0.1980873346328735,0.2859947681427002
0.0773788467049598,0.321681410074234,0.1897886097431183,-0.4923156797885895,0.2710504531860351,0.0060390918515622,0.0,0.0,0.4223296642303467,0.1863549947738647
0.0792799964547157,0.3108965754508972,0.1903614550828933,-0.4792819619178772,0.2707946598529815,-0.0051156380213797,0.0,0.0,0.3537518978118896,-0.2561414837837219
0.0812248215079307,0.3004759550094604,0.1950264871120453,-0.4630385637283325,0.2702352106571197,-0.0111889131367206,0.0,0.0,0.6980314254760742,-0.5942208170890808
0.0831824317574501,0.2908068299293518,0.1953762620687484,-0.4298088848590851,0.2706270515918731,0.0078369621187448,0.0,0.0,0.3781529664993286,-0.6727573275566101
0.0851826667785644,0.2814954221248626,0.198733702301979,-0.4140779376029968,0.2719486653804779,0.0264322906732559,0.0,0.0,0.2984921932220459,-0.907473087310791
0.087005041539669,0.2728695869445801,0.1798124015331268,-0.3838253915309906,0.2744370698928833,0.049767829477787,0.0,0.0,0.6171722412109375,-0.1363608837127685
0.0887101143598556,0.2651849389076233,0.1685924381017685,-0.3418983817100525,0.2764010727405548,0.0392802767455577,0.0,0.0,0.6150777339935303,-0.1377673149108886
0.090407945215702,0.2583481073379516,0.1679677665233612,-0.3042052686214447,0.2782622873783111,0.0372244715690612,0.0,0.0,0.884695291519165,-0.6948251724243164
0.0921239852905273,0.2519267499446869,0.1687727272510528,-0.2859328985214233,0.2811687886714935,0.0581303015351295,0.0,0.0,0.9413790702819824,-0.8412603735923767
0.093596838414669,0.2461667209863662,0.1435791552066803,-0.2567209005355835,0.28497976064682,0.076219230890274,0.0,0.0,0.9889414310455322,-0.634633481502533
0.0948822945356369,0.2417909204959869,0.1239667683839798,-0.1953823864459991,0.2896930277347564,0.0942651778459549,0.0,0.0,0.9715993404388428,-0.7917433381080627
0.0959330573678016,0.2382084876298904,0.0996564403176307,-0.1603052914142608,0.2952792346477508,0.1117242723703384,0.0,0.0,0.9934260845184326,-0.6675154566764832
0.0965454131364822,0.2357732653617859,0.0555565766990184,-0.1093973889946937,0.3011327683925628,0.1170710548758506,0.0,0.0,0.785370945930481,-0.4241741895675659
0.0970684066414833,0.2343170791864395,0.0468752607703208,-0.0658546090126037,0.3067521154880523,0.1123870611190795,0.0,0.0,0.9401211738586426,0.1628617048263549
0.0973084419965744,0.233949139714241,0.0195001382380723,-0.0173080340027809,0.311411589384079,0.0931897610425949,0.0,0.0,0.4173998832702636,0.4009939432144165
0.0973249450325965,0.234322652220726,-0.0018759148661047,0.015836052596569,0.3150742948055267,0.0732538551092147,0.0,0.0,-0.3493393659591675,0.30264413356781
0.0973803550004959,0.2345526814460754,0.0026636919938027,0.0095952693372964,0.3180693387985229,0.0599006339907646,0.0,0.0,-0.2122418284416198,0.4200862646102905
0.0974726676940918,0.2346392273902893,0.0069864117540419,0.0033549761865288,0.3203976452350616,0.0465662404894828,0.0,0.0,-0.1343293190002441,0.4247615337371826
0.0975995063781738,0.2345822900533676,0.0110804606229066,-0.0028849409427493,0.3220603466033935,0.0332548730075359,0.0,0.0,0.3757780790328979,0.3763376474380493
0.0976526290178299,0.2352751642465591,0.0039699887856841,0.0304928049445152,0.3234668672084808,0.028129655867815,0.0,0.0,-0.6807541847229004,-0.0036452412605285
0.0977355018258094,0.2358244061470031,0.0075709344819188,0.0242532454431056,0.3242107033729553,0.0148769645020365,0.0,0.0,-0.5404106378555298,0.5890192985534668
0.0978988632559776,0.2362619191408157,0.0176949817687273,0.0197491832077503,0.3227962255477905,-0.0282901264727115,0.0,0.0,-0.8741719722747803,0.5435426235198975
0.0981245040893554,0.2365797907114029,0.0255876369774341,0.0147990528494119,0.3196503818035126,-0.0629167705774307,0.0,0.0,-0.8480145335197449,0.2339714765548706
0.0983715057373046,0.2367543131113052,0.0283604860305786,0.0085585080087184,0.3158478438854217,-0.0760507583618164,0.0,0.0,-0.7659502029418945,0.6049926280975342
0.0986878424882888,0.2368107438087463,0.0372712947428226,0.0037222013343125,0.3100008368492126,-0.1169402748346328,0.0,0.0,-0.9875777959823608,0.6827863454818726
0.0990685448050499,0.2367550283670425,0.045681856572628,-0.0008680551545694,0.3021203279495239,-0.1576101779937744,0.0,0.0,-0.9783492088317872,0.4387874603271484
0.0994613617658615,0.2365568280220031,0.0475285798311233,-0.0071138869971036,0.2935909330844879,-0.1705881208181381,0.0,0.0,-0.9784202575683594,0.4315558671951294
0.0998627692461013,0.2362164407968521,0.0490467846393585,-0.0133610991761088,0.2844156622886657,-0.1835057288408279,0.0,0.0,-0.9155369400978088,0.5921387672424316
0.1003049835562706,0.2357507348060608,0.0547089986503124,-0.0186895616352558,0.2736387848854065,-0.2155368328094482,0.0,0.0,-0.9700105786323548,0.1369990110397339
0.1007489189505577,0.235143557190895,0.055546797811985,-0.0249414928257465,0.2622227370738983,-0.2283207476139068,0.0,0.0,-0.9936365485191344,0.3358265161514282
0.1011912375688552,0.2343951761722564,0.0560341998934745,-0.0311952624469995,0.2501711249351501,-0.2410316467285156,0.0,0.0,-0.987576425075531,0.1713443994522094
0.1016281098127365,0.233505979180336,0.0561662726104259,-0.0374509766697883,0.2374878674745559,-0.253665417432785,0.0,0.0,-0.9881333708763124,0.4957352876663208
0.1020563095808029,0.232476145029068,0.0559394061565399,-0.0437087267637252,0.2241769582033157,-0.266217976808548,0.0,0.0,-0.9937179684638976,0.6334186792373657
0.102528192102909,0.2313284426927566,0.0624370984733104,-0.0487628802657127,0.2087578624486923,-0.308381974697113,0.0,0.0,-0.9863918423652648,0.7694664001464844
0.1030447036027908,0.2300688177347183,0.0691751763224601,-0.0536073110997676,0.191102534532547,-0.3531064391136169,0.0,0.0,-0.9988713264465332,0.8530778884887695
0.1036157608032226,0.2286834269762039,0.077184185385704,-0.0591080449521541,0.1709459275007248,-0.4031325280666351,0.0,0.0,-0.9657936692237854,0.751422643661499
0.1042311638593673,0.2271806746721267,0.0840566605329513,-0.0643505603075027,0.1484284400939941,-0.4503496289253235,0.0,0.0,-0.9325700998306274,0.5966324806213379
