x_pos,y_pos,x_vel,y_vel,angle,ang_vel,leg_1,leg_2,main_booster,lat_booster
-0.0015557289589196,1.4032924175262451,-0.1570649296045303,-0.3390101790428161,0.0013303000014275,0.026209607720375,0.0,0.0,-0.3301340116191165,-0.8445912923209207
-0.0032041550148278,1.395351529121399,-0.1672237068414688,-0.3529315590858459,0.0036904830485582,0.047208547592163,0.0,0.0,-0.1823041547483357,-0.6831480010346962
-0.0049256323836743,1.387073040008545,-0.1751216351985931,-0.3679481148719787,0.0066402899101376,0.0590011999011039,0.0,0.0,0.5336377967715271,0.7720306421368917
-0.0067424774169921,1.3791548013687134,-0.1824292987585067,-0.3519235849380493,0.0073720999062061,0.0146376173943281,0.0,0.0,0.883463060703007,-0.6319091192196815
-0.0084866527467966,1.3720226287841797,-0.1764049530029297,-0.3169967830181122,0.0093312729150056,0.0391873344779014,0.0,0.0,0.283980840580039,0.6188893638855153
-0.0100975036621093,1.3651927709579468,-0.1616043448448181,-0.3035546839237213,0.0098345940932631,0.010067319497466,0.0,0.0,-0.5784609410302328,0.8572816197110424
-0.011672019958496,1.3580316305160522,-0.1558370739221573,-0.3182612955570221,0.0082444110885262,-0.0318065881729126,0.0,0.0,-0.1043054663968896,0.5168762332264274
-0.0132234571501612,1.3505407571792605,-0.1517726778984069,-0.332916110754013,0.0049179471097886,-0.066535547375679,0.0,0.0,-0.4317545358704189,0.6084842107454633
-0.0147546771913766,1.3427250385284424,-0.1481091678142547,-0.3473629653453827,-4.8936373787000775e-05,-0.0993467047810554,0.0,0.0,0.7177823778470254,-0.5206970402853355
-0.0163538940250873,1.335713505744934,-0.1554814130067825,-0.3116292655467987,-0.0044454643502831,-0.0879384726285934,0.0,0.0,0.6616455721218124,-0.5737678659291578
-0.0179279334843158,1.3292667865753174,-0.1538932919502258,-0.2865322828292846,-0.0079155024141073,-0.069406971335411,0.0,0.0,0.0608128433134396,0.6351535603778395
-0.0194225311279296,1.3229944705963137,-0.1442835628986358,-0.2788023650646209,-0.0130357798188924,-0.1024146676063537,0.0,0.0,-0.4687682702276949,0.5341355254997324
-0.020889664068818,1.316392421722412,-0.1397729068994522,-0.2934996485710144,-0.019900195300579,-0.1373006254434585,0.0,0.0,0.7639339043814342,-0.8803121748433509
-0.0223600380122661,1.3100190162658691,-0.1415506303310394,-0.2833432853221893,-0.0253274645656347,-0.1085557341575622,0.0,0.0,0.971669399315808,-0.7423198763234307
-0.0237040519714355,1.3047921657562256,-0.1303967535495758,-0.2323771566152572,-0.0292900074273347,-0.0792578607797622,0.0,0.0,0.8228720004942425,0.9586789228561602
-0.0248498916625976,1.2997047901153564,-0.1084094196557998,-0.2262369245290756,-0.0353891626000404,-0.1219942197203636,0.0,0.0,-0.3538067399949216,-0.9208788813740438
-0.026071835309267,1.2942997217178345,-0.117005705833435,-0.240356907248497,-0.0405299887061119,-0.1028257608413696,0.0,0.0,-0.7016268173345293,0.8196850376520548
-0.027233887463808,1.288551688194275,-0.1085071191191673,-0.2556991875171661,-0.048138353973627,-0.1521811187267303,0.0,0.0,-0.5327822571245988,-0.5711712210725564
-0.028452206403017,1.2824805974960327,-0.1146547049283981,-0.270074188709259,-0.0552446842193603,-0.1421395987272262,0.0,0.0,0.8436911313428519,-0.9983200532469564
-0.0298327449709177,1.2770384550094604,-0.1322757303714752,-0.2420908808708191,-0.0609735809266567,-0.1145883053541183,0.0,0.0,0.4458217476923851,0.6754349252548355
-0.0310141555964946,1.2722389698028564,-0.1107908487319946,-0.2136218845844268,-0.0682577043771743,-0.1456953883171081,0.0,0.0,0.3592287504870077,-0.7024354113237641
-0.0322319976985454,1.2676539421081543,-0.1154019981622695,-0.2040892243385315,-0.0745749771595001,-0.1263567060232162,0.0,0.0,0.6443812386002294,-0.5621135950481444
-0.0333307273685932,1.2635366916656494,-0.1045506000518798,-0.1832576394081115,-0.0798608437180519,-0.1057268381118774,0.0,0.0,-0.9085150148076824,0.7078598939022127
-0.034382440149784,1.25907301902771,-0.0977996438741684,-0.1987935453653335,-0.0871668979525566,-0.1461339890956878,0.0,0.0,0.0598273253953016,-0.501120540691496
-0.0355514511466026,1.2549149990081787,-0.1099070906639099,-0.1852177083492279,-0.0941019281744957,-0.1387129127979278,0.0,0.0,0.7030110980709241,-0.70987215176577
-0.0368853583931922,1.25152325630188,-0.1270275563001632,-0.1511559337377548,-0.1004140004515647,-0.1262414157390594,0.0,0.0,-0.63438007710325,0.7374844259353577
-0.0381728187203407,1.2477965354919434,-0.1204633116722107,-0.1662097126245498,-0.1086423471570015,-0.1645668298006057,0.0,0.0,-0.7300733571093385,0.5802043228170706
-0.0394357666373252,1.2437396049499512,-0.1166584715247154,-0.1810370832681656,-0.1182098761200904,-0.1913509964942932,0.0,0.0,-0.0764533453771465,-0.5405108828392206
-0.0407608039677143,1.239366054534912,-0.1237574219703674,-0.1950963288545608,-0.1268951743841171,-0.1737063527107238,0.0,0.0,-0.9462640468397938,-0.9162784928103772
-0.0421703346073627,1.2346729040145874,-0.1337025016546249,-0.2092227935791015,-0.1341171860694885,-0.1444406360387802,0.0,0.0,-0.1407418161354137,0.6424606357957736
-0.0435365661978721,1.2296457290649414,-0.1276226341724395,-0.2242569923400879,-0.1430840641260147,-0.1793379783630371,0.0,0.0,-0.9887614846229552,-0.7142752408981323
-0.0449747070670127,1.2242980003356934,-0.1360243409872055,-0.2384485304355621,-0.1508611291646957,-0.1555412709712982,0.0,0.0,-0.937012016773224,-0.5851227045059204
-0.0464720726013183,1.218636989593506,-0.1428686529397964,-0.2523131370544433,-0.1577200293540954,-0.1371780335903167,0.0,0.0,-0.9921337962150574,-0.3065383434295654
-0.0479763969779014,1.212645411491394,-0.1431696116924286,-0.2670802474021911,-0.1649893820285797,-0.1453869789838791,0.0,0.0,-0.985823392868042,-0.4896718263626098
-0.0494871139526367,1.2063233852386477,-0.1434073597192764,-0.2818480134010315,-0.1726633459329605,-0.1534794270992279,0.0,0.0,-0.9737388491630554,-0.4343403577804565
-0.0510034561157226,1.1996711492538452,-0.1435842514038086,-0.2966164648532867,-0.1807355433702469,-0.1614435911178589,0.0,0.0,-0.973910629749298,-0.822952389717102
-0.0525919906795024,1.1927025318145752,-0.1521431803703308,-0.3105477392673492,-0.1874792426824569,-0.1348741054534912,0.0,0.0,-0.9444705247879028,-0.8338518738746643
-0.0542448051273822,1.185426950454712,-0.1597477495670318,-0.3240709900856018,-0.1930345892906189,-0.1111072301864624,0.0,0.0,-0.6239131689071655,0.1798412799835205
-0.0559013374149799,1.1778204441070557,-0.1597558110952377,-0.3388374149799347,-0.1989649385213852,-0.1186071783304214,0.0,0.0,-0.8198691010475159,0.0739412307739257
-0.057560920715332,1.1698837280273438,-0.1597131043672561,-0.3536042273044586,-0.2052610516548156,-0.1259222328662872,0.0,0.0,-0.7706374526023865,0.2494468688964843
-0.0592230781912803,1.1616162061691284,-0.1596222817897796,-0.3683714270591736,-0.2119128406047821,-0.1330357789993286,0.0,0.0,-0.767906665802002,-0.2337304353713989
-0.0608871467411518,1.1530182361602783,-0.159486174583435,-0.3831389844417572,-0.218909353017807,-0.1399301886558532,0.0,0.0,-0.7542109489440918,-0.0014321208000183
-0.0625526458024978,1.1440900564193726,-0.1593075543642044,-0.3979068696498871,-0.2262386828660965,-0.1465869843959808,0.0,0.0,-0.9343034029006958,0.1675596237182617
-0.06421909481287,1.1348313093185425,-0.1590892821550369,-0.4126751720905304,-0.2338880002498626,-0.1529867351055145,0.0,0.0,-0.8879621624946594,-0.2323669195175171
-0.0658857375383377,1.1252423524856567,-0.1588342636823654,-0.4274437129497528,-0.2418434619903564,-0.159109279513359,0.0,0.0,-0.6986263394355774,-0.3204908967018127
-0.0675522834062576,1.1153230667114258,-0.1585453897714615,-0.4422125816345215,-0.2500901520252228,-0.1649338454008102,0.0,0.0,-0.7798397541046143,-0.088043212890625
-0.0692181587219238,1.1050735712051392,-0.1582255810499191,-0.4569816887378692,-0.2586121261119842,-0.1704392284154892,0.0,0.0,-0.9303112030029296,-0.7481021285057068
-0.0709490776062011,1.0945281982421875,-0.1662666350603103,-0.4699021875858307,-0.2655893862247467,-0.139545053243637,0.0,0.0,-0.8363066911697388,-0.8493837118148804
-0.0727559104561805,1.0836915969848633,-0.1756978929042816,-0.4825458526611328,-0.2707012593746185,-0.1022377163171768,0.0,0.0,0.2035338878631591,-0.3845152854919433
-0.0744767189025878,1.0730657577514648,-0.166807621717453,-0.4732468724250793,-0.2761054337024688,-0.1080834865570068,0.0,0.0,0.5092047452926636,-0.50968337059021
-0.0759563446044921,1.0628204345703125,-0.1438662707805633,-0.4561274647712707,-0.2803171575069427,-0.0842339172959327,0.0,0.0,-0.6928132176399231,-0.3593368530273437
-0.0774333924055099,1.052243947982788,-0.1434331536293029,-0.4708909094333648,-0.2847084701061249,-0.0878262668848037,0.0,0.0,-0.2019553184509277,-0.5586118102073669
-0.0789425820112228,1.0413484573364258,-0.1474035680294037,-0.4849363267421722,-0.2883322238922119,-0.0724750086665153,0.0,0.0,-0.9407808184623718,-0.8345013856887817
-0.0805097594857215,1.0301566123962402,-0.1547066867351532,-0.4978069961071014,-0.290397047996521,-0.0412967726588249,0.0,0.0,-0.5004185438156128,-0.5086157321929932
-0.0821024924516677,1.0186444520950315,-0.1579205095767974,-0.511923611164093,-0.291797012090683,-0.0279994271695613,0.0,0.0,0.3045494556427002,-0.5954506397247314
-0.083709143102169,1.007388472557068,-0.1602473556995391,-0.500347375869751,-0.2922331988811493,-0.0087236510589718,0.0,0.0,0.1886368989944458,-0.2569918632507324
-0.0850817710161209,0.9965953230857848,-0.1370789706707,-0.4797395169734955,-0.2924181222915649,-0.0036985273472964,0.0,0.0,0.0415074825286865,-0.8575143814086914
-0.0862933173775672,0.9860689043998718,-0.1226292699575424,-0.467540442943573,-0.2908903062343597,0.0305565241724252,0.0,0.0,-0.014034628868103,-0.8891711235046387
-0.0875570327043533,0.9752457737922668,-0.1293974816799163,-0.4804291427135467,-0.2877820134162903,0.0621663406491279,0.0,0.0,0.6915185451507568,-0.743535578250885
-0.0887244194746017,0.9653154611587524,-0.1210797652602195,-0.4405014216899872,-0.283312439918518,0.0893907099962234,0.0,0.0,0.1683440208435058,-0.5073237419128418
-0.0898147597908973,0.9554261565208436,-0.1144993901252746,-0.4384694993495941,-0.2776976823806762,0.1122954487800598,0.0,0.0,-0.0855613946914672,0.0998381376266479
-0.0908999443054199,0.9452051520347596,-0.114055298268795,-0.4532283842563629,-0.2720178067684173,0.1135976314544677,0.0,0.0,-0.0391820669174194,-0.5748869776725769
-0.0920147895812988,0.934665322303772,-0.1180231198668479,-0.4672359526157379,-0.2653233110904693,0.1338896453380584,0.0,0.0,-0.658261775970459,-0.0933898091316223
-0.0931242927908897,0.9237937331199646,-0.1176086440682411,-0.4819949269294739,-0.2585146129131317,0.1361739486455917,0.0,0.0,-0.6049929857254028,-0.314250111579895
-0.0942283645272255,0.912589967250824,-0.1172124296426773,-0.4967536032199859,-0.2515680491924286,0.1389314830303192,0.0,0.0,-0.7538229823112488,0.0360127687454223
-0.0953269004821777,0.9010544419288636,-0.1168367639183998,-0.511512041091919,-0.2444606870412826,0.1421472132205963,0.0,0.0,-0.7328324913978577,0.2149444818496704
-0.0964200049638748,0.8891869187355042,-0.1164839416742324,-0.5262702703475952,-0.2371704578399658,0.1458045244216919,0.0,0.0,-0.9172284603118896,0.3488640785217285
-0.0975076705217361,0.8769875168800354,-0.1161561757326126,-0.5410285592079163,-0.2296761572360992,0.1498856246471405,0.0,0.0,-0.9371142387390136,0.3048005104064941
-0.0985899940133094,0.8644561171531677,-0.1158556193113327,-0.5557867884635925,-0.2219576239585876,0.1543710082769394,0.0,0.0,-0.9277766942977904,-0.0392610430717468
-0.0996670722961425,0.8515926599502563,-0.1155843883752822,-0.5705450177192688,-0.2139956802129745,0.1592389196157455,0.0,0.0,-0.9594790935516356,0.3574937582015991
-0.1007390990853309,0.8383973240852356,-0.1153444647789001,-0.5853033661842346,-0.2057721763849258,0.1644697040319442,0.0,0.0,-0.6299142241477966,0.4463949203491211
-0.1018061637878418,0.8248699903488159,-0.115137793123722,-0.6000620126724243,-0.1972700357437133,0.170042484998703,0.0,0.0,-0.8894573450088501,0.5108675956726074
-0.1028365120291709,0.811007022857666,-0.1109806299209594,-0.6150929927825928,-0.1892759650945663,0.1598813980817794,0.0,0.0,-0.9860597252845764,0.7783993482589722
-0.1037945747375488,0.7967924475669861,-0.1023261323571205,-0.6309393048286438,-0.1827252060174942,0.1310150176286697,0.0,0.0,-0.8323976993560791,0.0827939510345459
-0.1047483459115028,0.7822457551956177,-0.1022293120622634,-0.6456957459449768,-0.1758506596088409,0.1374908983707428,0.0,0.0,-0.8753412365913391,0.5386210680007935
-0.1056522354483604,0.7673485279083252,-0.0963771268725395,-0.661396324634552,-0.1698444932699203,0.120123341679573,0.0,0.0,-0.7246074080467224,0.2645025253295898
-0.106552317738533,0.7521190047264099,-0.0963621959090232,-0.676152229309082,-0.1634893268346786,0.1271035373210907,0.0,0.0,-0.5437694191932678,0.2805514335632324
-0.1074490547180175,0.7365571856498718,-0.0963906794786453,-0.6909085512161255,-0.1567738801240921,0.1343088448047638,0.0,0.0,-0.4209717512130737,0.6196953058242798
-0.1082872375845909,0.7206563353538513,-0.0895129665732383,-0.7061194181442261,-0.1510894447565078,0.1136889830231666,0.0,0.0,-0.3748615384101867,0.5034589767456055
-0.1090903282165527,0.7044206261634827,-0.0855595469474792,-0.7210609912872314,-0.1458414494991302,0.1049595847725868,0.0,0.0,-0.3122566938400268,0.0857192277908325
-0.1098910346627235,0.6878525614738464,-0.0857257768511772,-0.7358163595199585,-0.1402042657136917,0.1127437800168991,0.0,0.0,0.7794592380523682,0.4759728908538818
-0.1105278953909874,0.672207772731781,-0.0699386969208717,-0.6947540640830994,-0.1339686810970306,0.1247118338942527,0.0,0.0,-0.6164863109588623,0.3715547323226928
-0.1111631393432617,0.6562306880950928,-0.0702029317617416,-0.7095106840133667,-0.1273281574249267,0.1328108757734298,0.0,0.0,-0.4755491018295288,0.5824081897735596
-0.1117556542158126,0.6399157047271729,-0.0652821511030197,-0.7246049642562866,-0.1213318407535553,0.1199263483285904,0.0,0.0,0.4562644958496094,0.5992897748947144
-0.1122370734810829,0.6241826415061951,-0.0533682517707347,-0.6988273859024048,-0.116137221455574,0.1038923114538192,0.0,0.0,0.2326178550720214,0.4692540168762207
-0.1126034706830978,0.608752965927124,-0.0425952933728694,-0.6853194832801819,-0.1102174371480941,0.1183958426117897,0.0,0.0,0.1935217380523681,0.614215612411499
-0.1128761321306228,0.5933422446250916,-0.032465286552906,-0.684542715549469,-0.1050647795200347,0.1030534654855728,0.0,0.0,-0.3248835206031799,0.5845910310745239
-0.113096997141838,0.5775865912437439,-0.0263552218675613,-0.6999567151069641,-0.1008245795965194,0.0848038122057914,0.0,0.0,0.5522165298461914,-0.014935553073883
-0.1131276115775108,0.5622785091400146,-0.0084209255874156,-0.6800107955932617,-0.0955057367682457,0.1063769087195396,0.0,0.0,-0.0744885206222534,0.6558594703674316
-0.1130967140197753,0.5466238260269165,-0.0010984090622514,-0.6954999566078186,-0.0913551822304725,0.0830110386013984,0.0,0.0,0.9068758487701416,0.1131874322891235
-0.1129955276846885,0.5319330096244812,0.0055105639621615,-0.6526523232460022,-0.086787536740303,0.0913532078266143,0.0,0.0,-0.4436599612236023,0.8253705501556396
-0.112828254699707,0.5169070959091187,0.0133944135159254,-0.6676292419433594,-0.0834961235523223,0.0658284574747085,0.0,0.0,0.4802976846694946,0.0437510013580322
-0.1125033348798751,0.5024282336235046,0.0281891729682683,-0.6432692408561707,-0.0792342945933342,0.0852366834878921,0.0,0.0,0.1403614282608032,0.5257127285003662
-0.1120469123125076,0.4879344701766968,0.0417900420725345,-0.6439681649208069,-0.0754172801971435,0.076340228319168,0.0,0.0,0.6279149055480957,-0.5631970167160034
-0.1116569489240646,0.473868727684021,0.0336830206215381,-0.6248859763145447,-0.0701606795191764,0.105131946504116,0.0,0.0,-0.0876638889312744,0.3931810855865478
-0.111271858215332,0.4594709277153015,0.0327328778803348,-0.6396434307098389,-0.0644414350390434,0.1143847480416297,0.0,0.0,0.5815771818161011,0.6220757961273193
-0.110831931233406,0.4455539882183075,0.0390426591038703,-0.6183282136917114,-0.0595509484410285,0.0978099405765533,0.0,0.0,0.5129779577255249,0.847949743270874
-0.1104147881269455,0.432408720254898,0.0381836220622062,-0.5840955376625061,-0.0560577474534511,0.0698640272021293,0.0,0.0,0.0420788526535034,0.664076566696167
-0.1098642349243164,0.4195841252803802,0.0523193962872028,-0.5698826313018799,-0.0533533915877342,0.0540874376893043,0.0,0.0,0.1743007898330688,0.7446761131286621
-0.1092761978507042,0.4072300791740417,0.0571356900036335,-0.5490092039108276,-0.0517030917108058,0.033005803823471,0.0,0.0,-0.5055559873580933,-0.0031751990318298
-0.1086954101920127,0.3945437371730804,0.0559323020279407,-0.563765287399292,-0.0495799705386161,0.0424626842141151,0.0,0.0,0.525653600692749,0.0362857580184936
-0.1081223487854003,0.3822157382965088,0.0547748431563377,-0.5478302836418152,-0.0470886602997779,0.049826480448246,0.0,0.0,0.0915576219558715,0.5630004405975342
-0.1075799018144607,0.3701542317867279,0.0525141060352325,-0.5360124111175537,-0.0453810952603817,0.0341512039303779,0.0,0.0,-0.1871724724769592,0.7691243886947632
-0.1070005446672439,0.3577555418014526,0.0568883009254932,-0.5510188937187195,-0.044344525784254,0.0207313410937786,0.0,0.0,0.4918471574783325,0.4114792346954345
-0.106305792927742,0.3459906578063965,0.0674867630004882,-0.5228273272514343,-0.042387057095766,0.0391494892537593,0.0,0.0,0.0777225494384765,0.3746452331542969
-0.105570413172245,0.3342516720294952,0.070887453854084,-0.5216599702835083,-0.0397648923099041,0.0524432659149169,0.0,0.0,0.2254732847213745,0.6996438503265381
-0.104646012187004,0.3230235874652862,0.0905421301722526,-0.4989790320396423,-0.0378908105194568,0.0374817550182342,0.0,0.0,-0.0220035314559936,0.0698692798614502
-0.1037319153547287,0.3114632666110992,0.0890298932790756,-0.5137356519699097,-0.0355351939797401,0.0471120476722717,0.0,0.0,0.0588377714157104,0.6493620872497559
-0.1026537865400314,0.3003908395767212,0.1061262711882591,-0.4920665621757507,-0.0338710881769657,0.0332820415496826,0.0,0.0,-0.3460142612457275,-0.0343037247657775
-0.1015866249799728,0.2889862060546875,0.1045390963554382,-0.5068233609199524,-0.0317238867282867,0.0429441779851913,0.0,0.0,0.2419754266738891,0.156441330909729
-0.1005167961120605,0.2781699001789093,0.1043494492769241,-0.4806715846061706,-0.0291179344058036,0.0521190948784351,0.0,0.0,-0.1882948279380798,0.0482956171035766
-0.09945859760046,0.267021507024765,0.1026941910386085,-0.4954288899898529,-0.0260275974869728,0.0618065483868122,0.0,0.0,0.2377537488937378,0.523916482925415
-0.0982960686087608,0.2560491859912872,0.1135464087128639,-0.4876132905483246,-0.0233548674732446,0.0534546449780464,0.0,0.0,0.1174684762954711,0.5742719173431396
-0.0971824675798416,0.2453745007514953,0.1094696968793869,-0.4744020402431488,-0.0214895978569984,0.0373056754469871,0.0,0.0,0.0525012016296386,0.6329662799835205
-0.0961166396737098,0.2348591685295105,0.105581484735012,-0.4673353135585785,-0.0205075535923242,0.0196410547941923,0.0,0.0,0.3835564851760864,0.5680131912231445
-0.0950286835432052,0.2247185558080673,0.1085005849599838,-0.4506921768188476,-0.0202121995389461,0.0059069539420306,0.0,0.0,-0.2654927968978882,-0.6910589933395386
-0.0940059646964073,0.2142459899187088,0.1001420989632606,-0.4654174745082855,-0.0181157011538743,0.0419303253293037,0.0,0.0,0.4262882471084595,-0.5621660947799683
-0.0929131507873535,0.2038998156785965,0.1052592620253562,-0.4597874581813812,-0.0141360992565751,0.0795918554067611,0.0,0.0,0.0928608179092407,0.0076403617858886
-0.0917627364397049,0.1938987523317337,0.1102117300033569,-0.4444532692432403,-0.0093718282878398,0.0952855423092842,0.0,0.0,0.0081650018692016,0.4748799800872803
-0.0906059294939041,0.1843040287494659,0.1102820411324501,-0.4264082312583923,-0.0040503307245671,0.1064298152923584,0.0,0.0,-0.1486954689025879,0.3460860252380371
