x_pos,y_pos,x_vel,y_vel,angle,ang_vel,leg_1,leg_2,main_booster,lat_booster
-0.0015820503467693,1.4029306173324585,-0.160162478685379,-0.35509192943573,0.0017500495305284,0.0345202833414077,0.0,0.0,-0.0144795775413513,0.9135267734527588
-0.0031439780723303,1.3942660093307495,-0.1558731496334076,-0.3850921094417572,0.0014330475823953,-0.0063398862257599,0.0,0.0,-0.5382269620895386,0.9012601375579834
-0.0046757697127759,1.3849005699157717,-0.1505971848964691,-0.4162375330924988,-0.001121501205489,-0.0510955266654491,0.0,0.0,0.4241259098052978,0.8107399940490723
-0.0063137053512036,1.375484824180603,-0.1593465805053711,-0.4184857308864593,-0.005516902077943,-0.0879168361425399,0.0,0.0,0.656951904296875,0.373471736907959
-0.0078722955659031,1.3663551807403564,-0.1519814282655716,-0.4057790338993072,-0.009354081004858,-0.0767504051327705,0.0,0.0,-0.0026751160621643,0.4368950128555298
-0.0094832424074411,1.356531858444214,-0.1571513712406158,-0.4366269409656524,-0.0132541889324784,-0.0780092924833297,0.0,0.0,0.5460171699523926,0.8122571706771851
-0.0110975261777639,1.3468246459960938,-0.155750036239624,-0.4314932823181152,-0.0188651904463768,-0.1122306436300277,0.0,0.0,0.1983931064605713,0.289161205291748
-0.012643814086914,1.3371243476867676,-0.1494148075580597,-0.431192934513092,-0.0240215230733156,-0.1031359806656837,0.0,0.0,0.0112874507904052,0.2614283561706543
-0.0142329214140772,1.3274990320205688,-0.1535966992378235,-0.4278888404369354,-0.0292768627405166,-0.1051165461540222,0.0,0.0,-0.3236507177352905,0.8885343074798584
-0.0157980918884277,1.3171827793121338,-0.1493639051914215,-0.4586609005928039,-0.0363532043993473,-0.1415396183729171,0.0,0.0,-0.0209140181541442,0.7733612060546875
-0.0173379890620708,1.3061699867248535,-0.144997090101242,-0.4896913766860962,-0.0452444329857826,-0.1778409481048584,0.0,0.0,0.5188097953796387,0.0664455890655517
-0.0188333503901958,1.2951878309249878,-0.1407979726791381,-0.4883840382099151,-0.0538914650678634,-0.1729567348957061,0.0,0.0,0.3129767179489136,0.152387261390686
-0.0202360153198242,1.284336805343628,-0.1319558471441269,-0.4825861155986786,-0.0621142573654651,-0.1644709855318069,0.0,0.0,0.382869005203247,-0.3480295538902282
-0.0216012950986623,1.2732322216033936,-0.1284266412258148,-0.493885725736618,-0.070129781961441,-0.1603254377841949,0.0,0.0,0.0298174619674682,0.0196760892868042
-0.0228795055299997,1.2621941566467283,-0.1200852841138839,-0.4909515380859375,-0.0777969807386398,-0.1533578336238861,0.0,0.0,0.1010639667510986,-0.5007948279380798
-0.024136733263731,1.250748872756958,-0.1190974712371826,-0.5090469717979431,-0.0843747779726982,-0.131568044424057,0.0,0.0,0.2819747924804687,-0.6387956738471985
-0.0253026969730854,1.2396008968353271,-0.1113858669996261,-0.4957664906978607,-0.0895364433526992,-0.1032426208257675,0.0,0.0,0.0032979249954223,-0.7884745597839355
-0.0264405254274606,1.228087067604065,-0.1101310476660728,-0.5119422078132629,-0.0931658521294593,-0.0725947171449661,0.0,0.0,-0.480535626411438,-0.8176296949386597
-0.0276604648679494,1.2158949375152588,-0.1196461543440818,-0.5420220494270325,-0.0954976081848144,-0.046639509499073,0.0,0.0,0.3031092882156372,-0.8815604448318481
-0.029006291180849,1.20369553565979,-0.1338690817356109,-0.542242705821991,-0.0962074920535087,-0.0141987306997179,0.0,0.0,0.3539868593215942,-0.8683264851570129
-0.0302666667848825,1.1917212009429932,-0.1271126568317413,-0.532123327255249,-0.0951359570026397,0.0214325953274965,0.0,0.0,-0.4034383893013,0.1581289768218994
-0.0315491668879985,1.1790528297424316,-0.1292618364095688,-0.5629700422286987,-0.0941373333334922,0.0199742428958416,0.0,0.0,-0.7203042507171631,0.3257899284362793
-0.0328516960144043,1.1656908988952637,-0.1311844140291214,-0.5938100814819336,-0.0932111740112304,0.0185247622430324,0.0,0.0,0.0818151235580444,0.2040315866470337
-0.0341073982417583,1.1519337892532349,-0.1266378164291381,-0.6113547086715698,-0.0921463370323181,0.0212986152619123,0.0,0.0,-0.2913259267807007,0.0985538959503173
-0.0353784561157226,1.1374831199645996,-0.1281102001667022,-0.6421994566917419,-0.0911561697721481,0.0198054201900959,0.0,0.0,-0.5286290049552917,-0.4399130344390869
-0.036664105951786,1.1223169565200806,-0.1294856816530227,-0.6739903092384338,-0.0902409926056861,0.0183035675436258,0.0,0.0,0.0208781957626342,0.104551076889038
-0.0379179008305072,1.10712730884552,-0.1262331306934356,-0.6750402450561523,-0.08939079195261,0.0170036815106868,0.0,0.0,-0.147415280342102,-0.4142259359359741
-0.0391803756356239,1.091244101524353,-0.1270278841257095,-0.7058804631233215,-0.0886172577738761,0.0154706109315156,0.0,0.0,0.4672466516494751,-0.6816842555999756
-0.0405689254403114,1.075724482536316,-0.1406843066215515,-0.6896531581878662,-0.0868027582764625,0.0362898670136928,0.0,0.0,-0.9329586029052734,0.4374542236328125
-0.0419618599116802,1.0595110654830933,-0.1410391181707382,-0.7204936146736145,-0.0850663036108017,0.0347295589745044,0.0,0.0,0.2767064571380615,-0.0017350316047668
-0.0432868972420692,1.0435798168182373,-0.1342445015907287,-0.7079535126686096,-0.0833415761590004,0.034494262188673,0.0,0.0,-0.7786741852760315,0.2489006519317627
-0.0446120277047157,1.026955008506775,-0.1341719329357147,-0.7387940287590027,-0.081695944070816,0.032912477850914,0.0,0.0,0.6708853244781494,0.0635222196578979
-0.0459521301090717,1.0108586549758911,-0.135205864906311,-0.7153337597846985,-0.0805161818861961,0.0235955603420734,0.0,0.0,-0.039523959159851,0.4585918188095093
-0.0472882278263568,0.994068443775177,-0.1347224116325378,-0.7461740970611572,-0.0794162675738334,0.0219980962574481,0.0,0.0,-0.294659674167633,0.2718598842620849
-0.0486183166503906,0.9765843152999878,-0.1340407282114029,-0.777014434337616,-0.0783965066075325,0.0203952006995677,0.0,0.0,0.8845856189727783,-0.2947627305984497
-0.0498522743582725,0.9596940875053406,-0.1244355291128158,-0.7506174445152283,-0.0773611366748809,0.0207074508070945,0.0,0.0,-0.0560405850410461,-0.3011749982833862
-0.0510764122009277,0.942110240459442,-0.1233735308051109,-0.7814578413963318,-0.0764061734080314,0.0190990455448627,0.0,0.0,0.8999531269073486,-0.6559545993804932
-0.0522265434265136,0.9251472353935242,-0.1173432022333145,-0.7537879943847656,-0.0741040781140327,0.0460420921444892,0.0,0.0,0.6873334646224976,0.1498585939407348
-0.0533396713435649,0.9087823629379272,-0.1133703589439392,-0.727226972579956,-0.0720682740211486,0.0407158881425857,0.0,0.0,-0.4180023074150085,-0.1400454640388488
-0.0544377341866493,0.8917238116264343,-0.1117821186780929,-0.7580674290657043,-0.0701126456260681,0.0391125977039337,0.0,0.0,0.4516072273254394,0.0302824974060058
-0.0555646903812885,0.8750048279762268,-0.1141561642289161,-0.7429946064949036,-0.0686708986759185,0.028834942728281,0.0,0.0,0.1037642955780029,-0.1883134841918945
-0.0565670952200889,0.8581070303916931,-0.1020068973302841,-0.7509334087371826,-0.0669272616505622,0.0348727591335773,0.0,0.0,0.6145521402359009,0.2100772857666015
-0.0574345588684082,0.840964674949646,-0.0888691991567611,-0.7617910504341125,-0.0648234859108924,0.042075403034687,0.0,0.0,0.0980004072189331,0.2037720680236816
-0.0581921562552452,0.8236479163169861,-0.0781152695417404,-0.7695310711860657,-0.0624930076301097,0.0466095693409442,0.0,0.0,0.5977957248687744,0.1961300373077392
-0.0589486137032508,0.8060676455497742,-0.0777373537421226,-0.7812654972076416,-0.0604222640395164,0.0414151363074779,0.0,0.0,0.8081458806991577,-0.3635749816894531
-0.0596088394522666,0.788336455821991,-0.0682763680815696,-0.7879629731178284,-0.0581960938870906,0.0445234104990959,0.0,0.0,0.5306940078735352,-0.0019255876541137
-0.0601634010672569,0.7705265879631042,-0.057897251099348,-0.791456401348114,-0.0557848252356052,0.048225350677967,0.0,0.0,0.4279286861419678,0.3172242641448974
-0.0607484802603721,0.7531103491783142,-0.0604127719998359,-0.7739856839179993,-0.0538983605802059,0.0377288274466991,0.0,0.0,0.2515627145767212,-0.2325155138969421
-0.0613742843270301,0.7359026074409485,-0.0639403983950614,-0.7647362947463989,-0.0525513105094432,0.0269411709159612,0.0,0.0,0.0798770189285278,0.5934202671051025
-0.0619226470589637,0.7184950113296509,-0.0549135878682136,-0.7736721634864807,-0.0524813719093799,0.0013985185651108,0.0,0.0,0.3536329269409179,-0.2639141082763672
-0.0622997283935546,0.701085090637207,-0.0382484346628189,-0.7737552523612976,-0.0519400238990783,0.0108268987387418,0.0,0.0,-0.2291696071624755,-0.3653337955474853
-0.0626462921500206,0.6829812526702881,-0.0351335033774375,-0.8045952320098877,-0.051469687372446,0.0094066029414534,0.0,0.0,0.6426446437835693,-0.6435354351997375
-0.0628720298409462,0.6648370623588562,-0.0245456546545028,-0.8063415288925171,-0.0495188795030117,0.0390159152448177,0.0,0.0,0.7112812995910645,0.3246667385101318
-0.0630214661359787,0.6472366452217102,-0.0168563015758991,-0.7821768522262573,-0.0476211830973625,0.0379540063440799,0.0,0.0,0.4042015075683594,0.556401252746582
-0.0629368796944618,0.6295483708381653,0.0074089406989514,-0.7861165404319763,-0.0465860292315483,0.0207030232995748,0.0,0.0,0.3168206214904785,0.2063719034194946
-0.0628772750496864,0.6117342114448547,0.0053334175609052,-0.7917206883430481,-0.0459686890244483,0.0123466243967413,0.0,0.0,-0.0516433715820312,-0.4849553108215332
-0.0627835243940353,0.5932261943817139,0.0088224690407514,-0.8225606083869934,-0.0454153306782245,0.0110670570284128,0.0,0.0,0.8588366508483887,-0.9014711380004884
-0.0625201240181922,0.5751582980155945,0.023720284923911,-0.802941083908081,-0.0428230613470077,0.0518453121185302,0.0,0.0,0.7722287178039551,0.4140214920043945
-0.0621033683419227,0.557715117931366,0.0387368984520435,-0.7751749157905579,-0.0399208813905715,0.0580437891185283,0.0,0.0,0.5096275806427002,-0.035308837890625
-0.0616915710270404,0.5406584143638611,0.0386250838637352,-0.7580098509788513,-0.0373998135328292,0.05042115598917,0.0,0.0,0.4989713430404663,-0.4255379438400268
-0.0611845031380653,0.5234089493751526,0.0479974076151847,-0.7665774822235107,-0.0347214080393314,0.0535683222115039,0.0,0.0,0.4216234683990478,-0.1081326007843017
-0.0607059486210346,0.5063750147819519,0.0456043109297752,-0.757014274597168,-0.0324979461729526,0.0444694086909294,0.0,0.0,0.8178887367248535,-0.260805606842041
-0.0600359924137592,0.4894937872886657,0.0641638934612274,-0.7502177953720093,-0.0296999104321002,0.0559608228504657,0.0,0.0,0.6542596817016602,-0.3977210521697998
-0.0592866912484169,0.4728379845619201,0.0720270276069641,-0.7402051687240601,-0.0268450658768415,0.0570968799293041,0.0,0.0,0.7157448530197144,0.0718357563018798
-0.0584806427359581,0.4561122953891754,0.0777340978384018,-0.7433170676231384,-0.0240031965076923,0.056837011128664,0.0,0.0,0.8438425064086914,-0.2809349298477173
-0.057758904993534,0.4396868050098419,0.0699885711073875,-0.7299860119819641,-0.0218492858111858,0.0430782623589038,0.0,0.0,0.8808538913726807,-0.5570034384727478
-0.0569958686828613,0.4240357875823974,0.0729753598570823,-0.6955572962760925,-0.0185606628656387,0.0657724663615226,0.0,0.0,0.6722432374954224,-0.479012131690979
-0.0561059936881065,0.4081326723098755,0.085302859544754,-0.7067657709121704,-0.0149330031126737,0.0725532621145248,0.0,0.0,0.5898356437683105,-0.5359869003295898
-0.0551801696419715,0.3927745521068573,0.0878007933497428,-0.6825451254844666,-0.0102102449163794,0.0944552570581436,0.0,0.0,0.7447335720062256,-0.5774627327919006
-0.0543631538748741,0.3774724304676056,0.0760775506496429,-0.6800650954246521,-0.0046613439917564,0.1109779328107833,0.0,0.0,0.7789410352706909,0.4738436937332153
-0.053603459149599,0.3625710904598236,0.0708618536591529,-0.6622724533081055,0.0003900980518665,0.1010288223624229,0.0,0.0,0.8473308086395264,0.2274236679077148
-0.0527712814509868,0.3480201363563537,0.0779758989810943,-0.6467212438583374,0.0055623073130846,0.1034440025687217,0.0,0.0,0.932886838912964,0.563457727432251
-0.0520220771431922,0.3342628479003906,0.0713111534714698,-0.6114510297775269,0.0091197406873106,0.0711487829685211,0.0,0.0,0.8625360727310181,0.2776699066162109
-0.0511579513549804,0.320789486169815,0.0824514478445053,-0.598844587802887,0.0130253918468952,0.078113242983818,0.0,0.0,0.8864078521728516,0.6371270418167114
-0.0502527244389057,0.3072873950004577,0.0879973918199539,-0.6001193523406982,0.0155238108709454,0.0499682426452636,0.0,0.0,0.8171586990356445,0.2809584140777588
-0.0492404922842979,0.2936294376850128,0.0983694344758987,-0.6070528626441956,0.0183365158736705,0.0562540888786315,0.0,0.0,0.7441174983978271,0.6577343940734863
-0.0481814369559288,0.279808908700943,0.1045024618506431,-0.6142634749412537,0.0197258256375789,0.0277861598879098,0.0,0.0,0.7734423875808716,-0.3637605905532837
-0.0471109375357627,0.2665711045265198,0.105713739991188,-0.5883633494377136,0.0210450142621994,0.0263840649276971,0.0,0.0,0.8495153188705444,-0.4888933897018432
-0.045933149755001,0.254011869430542,0.1160449385643005,-0.5582146048545837,0.0227516312152147,0.0341324172914028,0.0,0.0,0.5994322299957275,-0.1342242956161499
-0.0448454841971397,0.2419416308403015,0.1075707897543907,-0.5364744663238525,0.0239301621913909,0.0235705804079771,0.0,0.0,0.6521470546722412,-0.7129947543144226
-0.0439273826777935,0.2296597510576248,0.0894996970891952,-0.5458994507789612,0.0262094270437955,0.0455854199826717,0.0,0.0,0.905187487602234,-0.1568498611450195
-0.0429510101675987,0.2180528044700622,0.0951393693685531,-0.5159111618995667,0.0286811776459217,0.0494348779320716,0.0,0.0,0.9075733423233032,-0.7683027386665344
-0.0421463027596473,0.2067402452230453,0.0767275542020797,-0.5028567314147949,0.0323755890130996,0.0738880410790443,0.0,0.0,0.9215657711029052,0.4055873155593872
-0.041396141052246,0.195912703871727,0.0716013610363006,-0.4812990128993988,0.0357550531625747,0.0675892457365989,0.0,0.0,0.7155488729476929,-0.2262657284736633
-0.0406499877572059,0.1854792684316635,0.0712691247463226,-0.4637914597988128,0.0390582866966724,0.0660645142197609,0.0,0.0,0.8572261333465576,0.1295119524002075
-0.0397976860404014,0.1753381639719009,0.0814413055777549,-0.4508202970027923,0.0427974015474319,0.0747825354337692,0.0,0.0,0.9131467342376708,0.1043810844421386
-0.0389019027352333,0.1650991290807724,0.0856891423463821,-0.4551851451396942,0.0466471686959266,0.0769951790571212,0.0,0.0,0.9367308616638184,-0.4913767576217651
-0.0378868095576763,0.1548811942338943,0.0971099957823753,-0.4542710483074188,0.0509847588837146,0.0867519825696945,0.0,0.0,0.919569492340088,-0.7947799563407898
-0.0367505066096782,0.1449729800224304,0.1072492152452468,-0.4405960142612457,0.0572941415011882,0.1261874884366989,0.0,0.0,0.7060091495513916,-0.7757961750030518
-0.0355094894766807,0.1349837929010391,0.1158617734909057,-0.4442996680736542,0.0654441118240356,0.1629993766546249,0.0,0.0,0.8612725734710693,-0.5856493711471558
-0.034346580505371,0.1255675852298736,0.1069089025259018,-0.4189345240592956,0.07472825050354,0.1856824904680252,0.0,0.0,0.7011821269989014,-0.6456446647644043
-0.0332290641963481,0.1166301816701889,0.1010088101029396,-0.3977897465229034,0.0853668823838234,0.2127729207277298,0.0,0.0,0.5578076839447021,0.4458997249603271
-0.0320192351937294,0.1079554855823516,0.1097132712602615,-0.3862229585647583,0.0965384170413017,0.2234305441379547,0.0,0.0,0.6563358306884766,-0.0100234746932983
-0.0307121276855468,0.0990917533636093,0.1189872995018959,-0.3947374224662781,0.1081681922078132,0.2325954735279083,0.0,0.0,0.8282833099365234,-0.1619828343391418
-0.0294963829219341,0.0903669223189354,0.1101498007774353,-0.3886378109455108,0.1195203065872192,0.2270422279834747,0.0,0.0,0.9161968231201172,0.113260269165039
-0.0282759666442871,0.0824578404426574,0.1101825386285781,-0.3525079190731048,0.131318598985672,0.2359654456377029,0.0,0.0,0.8881509304046631,0.6428143978118896
-0.0270930286496877,0.0748278498649597,0.1078220158815383,-0.3400655686855316,0.1417520940303802,0.208669975399971,0.0,0.0,0.912100076675415,0.4574929475784302
-0.026158045977354,0.0678419470787048,0.0837276577949523,-0.3114437162876129,0.1515128314495086,0.1952148973941803,0.0,0.0,0.8107986450195312,0.9047836065292358
-0.0251396186649799,0.0613421313464641,0.0937059372663497,-0.2897337079048157,0.1596346795558929,0.162437230348587,0.0,0.0,0.56065833568573,0.4456968307495117
-0.0242608077824115,0.05518664047122,0.0800030380487442,-0.274441510438919,0.1675172001123428,0.1576506793498993,0.0,0.0,0.784186601638794,0.776334285736084
-0.023531150072813,0.0495303235948085,0.0668506175279617,-0.2520939409732818,0.1736366599798202,0.1223891526460647,0.0,0.0,0.4729280471801758,0.5853400230407715
-0.0228349678218364,0.0438402518630027,0.0647462755441665,-0.2534712553024292,0.1785255372524261,0.0977778956294059,0.0,0.0,0.9116480350494384,0.9743318557739258
-0.0223138816654682,0.0384651757776737,0.0494363829493522,-0.2392154037952423,0.1812100261449813,0.0536898076534271,0.0,0.0,0.9640090465545654,0.7998360395431519
-0.0220146179199218,0.0332775674760341,0.029274147003889,-0.2306382805109024,0.181861013174057,0.0130199613049626,0.0,0.0,0.9754300117492676,0.9653241634368896
-0.0216402057558298,0.0287280417978763,0.0384785309433937,-0.2020753175020218,0.180813729763031,-0.020945269614458,0.0,0.0,0.9424865245819092,0.8434077501296997
-0.0211822502315044,0.0241567716002464,0.0483618602156639,-0.202856495976448,0.1782376170158386,-0.0515221878886222,0.0,0.0,0.9634954929351808,0.8357064723968506
-0.0206190105527639,0.0203042607754468,0.0601775646209716,-0.1707635968923568,0.1743722259998321,-0.077308252453804,0.0,0.0,0.7144582271575928,0.2442191839218139
-0.0202867500483989,0.0177580211311578,0.055957444012165,-0.1106563061475753,0.1516214162111282,-0.4550158977508545,0.0,1.0,0.7216575145721436,0.0149670839309692
-0.0199430473148822,0.0158789008855819,0.0565180256962776,-0.0814129933714866,0.1295450180768966,-0.441528171300888,0.0,1.0,0.4685451984405517,-0.1534137725830078
-0.01959915086627,0.014091620221734,0.0562823936343193,-0.0776771754026413,0.1077830940485,-0.4352388381958008,0.0,0.0,-0.7993648052215576,0.1127939224243164
-0.0192410461604595,0.0116167636588215,0.0577542558312416,-0.1085562333464622,0.0860185846686363,-0.4352900385856628,0.0,0.0,-0.5248686671257019,-0.454400897026062
-0.0188695900142192,0.0084542604163289,0.0591291710734367,-0.1394353657960891,0.0642514899373054,-0.4353422522544861,0.0,0.0,0.4870848655700683,-0.6661365628242493
-0.0184852592647075,0.00522076850757,0.0589543879032135,-0.1429561078548431,0.0439665466547012,-0.405699074268341,0.0,0.0,0.5254309177398682,-0.7116500735282898
-0.0182950012385845,0.0021433448418974,0.0383789800107479,-0.1363181471824646,0.0248593743890523,-0.3821433186531067,0.0,0.0,0.1878591775894165,-0.6602397561073303
-0.0182896610349416,-0.0008591914083808,0.0245825666934251,-0.1332188248634338,0.0011061860714107,-0.4750641882419586,0.0,1.0,0.7384021282196045,-0.026519238948822
-0.0182734485715627,-0.0026520872488617,0.015745984390378,-0.0797342881560325,-0.0128265479579567,-0.2786543071269989,1.0,1.0,0.805443525314331,-0.4341202974319458
-0.0181580539792776,-0.0032615566160529,0.0162750296294689,-0.0271362271159887,-0.0175145603716373,-0.0937599912285804,1.0,1.0,0.294133186340332,-0.4658721089363098
-0.0179776195436716,-0.0031299137044698,0.0170198697596788,0.0058607594110071,-0.0165058989077806,0.0201734490692615,1.0,1.0,-0.5107057094573975,-0.2275784015655517
-0.0178232192993164,-0.0026675367262214,0.0117846932262182,0.020597580820322,-0.012918964959681,0.071713350713253,1.0,1.0,-0.3525481820106506,0.3107162714004516
-0.0176485069096088,-0.0019690536428242,0.0121489930897951,0.0310804340988397,-0.0076681403443217,0.1050145775079727,1.0,1.0,-0.5877465605735779,0.5064525604248047
-0.017409324645996,-0.0011912488844245,0.0179900657385587,0.0345850139856338,-0.0018174198921769,0.1170119494199752,1.0,1.0,-0.4144753217697143,0.4518369436264038
