x_pos,y_pos,x_vel,y_vel,angle,ang_vel,leg_1,leg_2,main_booster,lat_booster
-0.0014921188121661,1.4034309387207031,-0.1514380276203155,-0.3328558504581451,0.0019953001756221,0.0393762551248073,0.0,0.0,0.0509092807769775,0.6789147853851318
-0.0028634071350097,1.3962082862854004,-0.1380289047956466,-0.3210059404373169,0.0028777092229574,0.0176505558192729,0.0,0.0,-0.0091374516487121,-0.1671991944313049
-0.0042055128142237,1.3887914419174194,-0.1353398114442825,-0.3296385407447815,0.0039879395626485,0.0222067255526781,0.0,0.0,-0.165263831615448,0.6464889049530029
-0.0054791448637843,1.3811790943145752,-0.1276685297489166,-0.3383259177207947,0.0042917728424072,0.0060771577991545,0.0,0.0,-0.529852569103241,0.8453265428543091
-0.0066458703950047,1.3733762502670288,-0.1151387244462966,-0.3467846214771271,0.00277895713225,-0.0302590075880289,0.0,0.0,-0.083651065826416,-0.194090723991394
-0.0077878953889012,1.365380048751831,-0.1128801852464675,-0.3553901612758636,0.0014719833852723,-0.0261421091854572,0.0,0.0,-0.6825187802314758,0.3666164875030517
-0.0089070321992039,1.3571900129318235,-0.1107879653573036,-0.3639957010746002,0.0003617668699007,-0.0222067777067422,0.0,0.0,-0.5279847383499146,0.7591562271118164
-0.0099304197356104,1.348808765411377,-0.0995163768529892,-0.3725010752677917,-0.0024346157442778,-0.0559327378869056,0.0,0.0,-0.3722063302993774,0.2804980278015136
-0.0109346387907862,1.3402340412139893,-0.0977761894464492,-0.3811072111129761,-0.0050488798879086,-0.0522900931537151,0.0,0.0,-0.6216983199119568,-0.5960730314254761
-0.011968707665801,1.3314698934555054,-0.102125346660614,-0.3895280659198761,-0.0063079744577407,-0.0251841600984334,0.0,0.0,-0.575203537940979,0.1608977317810058
-0.0129876136779785,1.3225120306015017,-0.1007817015051841,-0.3981335759162903,-0.0074027958326041,-0.0218986459076404,0.0,0.0,-0.8030568361282349,0.6008291244506836
-0.0139407161623239,1.3133587837219238,-0.0930081307888031,-0.4068270623683929,-0.0096712969243526,-0.0453744791448116,0.0,0.0,-0.8846984505653381,0.3576275110244751
-0.0148829463869333,1.3040118217468262,-0.0920810773968696,-0.4154330193996429,-0.0117906425148248,-0.0423909202218055,0.0,0.0,-0.5902698040008545,0.7866504192352295
-0.0157475471496582,1.2944626808166504,-0.0827052742242813,-0.4244329333305359,-0.0155087541788816,-0.0743689686059951,0.0,0.0,-0.842552900314331,-0.372097373008728
-0.0166059490293264,1.2847203016281128,-0.0822151899337768,-0.4330394566059112,-0.0190935768187046,-0.0717029422521591,0.0,0.0,-0.7946133017539978,-0.383289098739624
-0.0174604412168264,1.2747844457626345,-0.0819517225027084,-0.4416461288928985,-0.0225543100386858,-0.0692205876111984,0.0,0.0,-0.97141295671463,0.3125585317611694
-0.0183133129030466,1.2646548748016355,-0.0819156467914581,-0.4502528309822082,-0.0258985832333564,-0.066891148686409,0.0,0.0,-0.8037121295928955,0.235467791557312
-0.0191670414060354,1.2543319463729858,-0.0821072831749916,-0.4588594734668731,-0.0291343200951814,-0.0647206380963325,0.0,0.0,-0.907942831516266,0.0681242942810058
-0.0200239177793264,1.2438154220581057,-0.0825255066156387,-0.4674661457538605,-0.0322694219648838,-0.0627073943614959,0.0,0.0,-0.3922832012176513,-0.7511568665504456
-0.0209537502378225,1.2331081628799438,-0.0916056111454963,-0.4759073853492737,-0.0336198732256889,-0.0270115491002798,0.0,0.0,0.1515164375305175,0.6117160320281982
-0.0217260364443063,1.2229899168014526,-0.0748867243528366,-0.4497521817684173,-0.0359435304999351,-0.0464771650731563,0.0,0.0,-0.945636749267578,-0.0368424654006958
-0.0225085262209177,1.2126779556274414,-0.0759660080075264,-0.4583645761013031,-0.0381889268755912,-0.0449124351143837,0.0,0.0,-0.9819642305374146,-0.5304962992668152
-0.0233360286802053,1.2021737098693848,-0.0813819020986557,-0.4668956696987152,-0.0395369678735733,-0.0269632823765277,0.0,0.0,-0.9626122117042542,-0.1763761639595031
-0.0241777412593364,1.1914756298065186,-0.0828751102089881,-0.4755018651485443,-0.0408224947750568,-0.0257127471268177,0.0,0.0,-0.9215268492698668,-0.7675607800483704
-0.0251108165830373,1.1805906295776367,-0.0939645767211914,-0.4837574362754822,-0.0401649251580238,0.0131525080651044,0.0,0.0,-0.864725649356842,-0.3645698428153991
-0.0260626785457134,1.1694905757904053,-0.0959001034498214,-0.4933162629604339,-0.0394590608775615,0.014117257669568,0.0,0.0,-0.8401732444763184,0.5629587173461914
-0.026989746838808,1.1581978797912598,-0.0923229232430458,-0.5019118785858154,-0.0398379527032375,-0.0075778504833579,0.0,0.0,-0.5877978205680847,-0.2256208062171936
-0.0279386527836322,1.1467114686965942,-0.0945436581969261,-0.5105156302452087,-0.0401817485690116,-0.0068759932182729,0.0,0.0,-0.9272217750549316,-0.8811574578285217
-0.0289956089109182,1.1350438594818115,-0.1075397133827209,-0.518511176109314,-0.0383632034063339,0.0363711304962635,0.0,0.0,-0.9182003140449524,0.7947666645050049
-0.0300170890986919,1.1231762170791626,-0.1024638786911964,-0.5274428725242615,-0.038048755377531,0.0062890192493796,0.0,0.0,-0.9054811000823976,0.1091649532318115
-0.0310650821775198,1.1111148595809937,-0.1051307767629623,-0.5360466837882996,-0.0377181693911552,0.0066116438247263,0.0,0.0,-0.902743637561798,0.0538334846496582
-0.0321409218013286,1.0988601446151731,-0.1079277843236923,-0.5446504354476929,-0.0373773425817489,0.0068167215213179,0.0,0.0,-0.9935215711593628,0.7419466972351074
-0.0331950187683105,1.0864157676696775,-0.1044757217168808,-0.5531031489372253,-0.0383045636117458,-0.0185442678630352,0.0,0.0,-0.6014889478683472,0.2554910182952881
-0.0342795364558696,1.0737777948379517,-0.1075063347816467,-0.5617069005966187,-0.0392324924468994,-0.0185587368905544,0.0,0.0,-0.9919893741607666,0.0746744871139526
-0.0353954322636127,1.0609464645385742,-0.1106411218643188,-0.5703108310699463,-0.0401662215590477,-0.0186746995896101,0.0,0.0,-0.9903806447982788,-0.357455849647522
-0.0365436561405658,1.0479214191436768,-0.1138722151517868,-0.5789147019386292,-0.0411105528473854,-0.018886299803853,0.0,0.0,-0.9796793460845948,-0.3859356641769409
-0.0377252586185932,1.034703016281128,-0.1171921268105506,-0.5875186324119568,-0.0420699268579483,-0.0191872213035821,0.0,0.0,-0.9572568535804749,-0.3280730247497558
-0.0389410965144634,1.0212907791137695,-0.1205938309431076,-0.5961225628852844,-0.0430484935641288,-0.0195710081607103,0.0,0.0,-0.9914583563804626,-0.7751708030700684
-0.040256880223751,1.0076979398727417,-0.1322383433580398,-0.6041088700294495,-0.0424057841300964,0.0128540024161338,0.0,0.0,-0.9692102670669556,0.6152844429016113
-0.0415575988590717,0.9939090609550476,-0.1293914467096328,-0.6128587126731873,-0.0430709645152092,-0.0133038414642214,0.0,0.0,-0.8999597430229187,-0.7031289339065552
-0.0429598800837993,0.9799368381500244,-0.1411956846714019,-0.6209636926651001,-0.0421179197728633,0.019061068072915,0.0,0.0,-0.8942843079566956,0.1156811714172363
-0.0443991646170616,0.9657710790634156,-0.1448631435632705,-0.6295677423477173,-0.0411970913410186,0.0184165872633457,0.0,0.0,-0.8666603565216064,0.5644956827163696
-0.0458244308829307,0.9514023065567015,-0.1420967280864715,-0.6386275887489319,-0.0416159518063068,-0.0083772903308272,0.0,0.0,-0.981725573539734,0.290799617767334
-0.0472876541316509,0.9368398189544678,-0.1458660811185836,-0.6472314596176147,-0.0420712828636169,-0.0091064646840095,0.0,0.0,-0.9395599365234376,-0.3950945138931274
-0.0487894043326377,0.9220837950706482,-0.1496800482273101,-0.6558355093002319,-0.0425645969808101,-0.0098659889772534,0.0,0.0,-0.9619311690330504,0.256974458694458
-0.0503301620483398,0.9071342349052428,-0.1535347551107406,-0.6644394993782043,-0.0430969521403312,-0.0106473974883556,0.0,0.0,-0.788524866104126,0.1097012758255004
-0.051910113543272,0.891991138458252,-0.1574267596006393,-0.6730434894561768,-0.0436690747737884,-0.0114422049373388,0.0,0.0,-0.971591293811798,-0.5395086407661438
-0.0535802841186523,0.8766636252403259,-0.1676867306232452,-0.6812052130699158,-0.0430066064000129,0.0132494671270251,0.0,0.0,-0.2604598999023437,0.4600280523300171
-0.0552904121577739,0.8611424565315247,-0.1716440320014953,-0.6898092031478882,-0.0423838905990123,0.0124540226534008,0.0,0.0,-0.7603407502174377,-0.6075239181518555
-0.0570905692875385,0.8454293012619019,-0.1818734556436538,-0.6983146071434021,-0.0405494943261146,0.0366879031062126,0.0,0.0,-0.6306367516517639,-0.139047086238861
-0.05893125385046,0.829522430896759,-0.185885414481163,-0.7069188952445984,-0.0387531332671642,0.0359274037182331,0.0,0.0,-0.4747890830039978,0.0088241100311279
-0.0608126632869243,0.8134221434593201,-0.1899212449789047,-0.7155231237411499,-0.0369932316243648,0.0351980961859226,0.0,0.0,-0.8699432015419006,0.4594144821166992
-0.0627349838614463,0.7971284985542297,-0.1939789205789566,-0.7241273522377014,-0.035267774015665,0.0345091968774795,0.0,0.0,-0.6182981729507446,0.4587130546569824
-0.0646984130144119,0.7806411385536194,-0.1980565786361694,-0.7327314615249634,-0.033574279397726,0.0338700041174888,0.0,0.0,-0.4640663266181946,0.8388700485229492
-0.0666203498840332,0.7639527916908264,-0.1917746067047119,-0.7417084574699402,-0.0339917093515396,-0.0083482945337891,0.0,0.0,-0.7626389265060425,0.4655550718307495
-0.0685836821794509,0.7470710277557373,-0.1958872973918914,-0.7503124475479126,-0.0344346985220909,-0.0088598746806383,0.0,0.0,-0.4354588985443115,0.8573858737945557
-0.0705100074410438,0.7299994826316833,-0.1901602447032928,-0.7587919235229492,-0.0368701964616775,-0.0487100407481193,0.0,0.0,-0.1611406803131103,0.7484692335128784
-0.072404958307743,0.7127336263656616,-0.1851657330989837,-0.7674856781959534,-0.0411527603864669,-0.0856511145830154,0.0,0.0,-0.7405490875244141,-0.1543283462524414
-0.0743416771292686,0.6952742338180542,-0.189320757985115,-0.7760909795761108,-0.0454477779567241,-0.0859004110097885,0.0,0.0,0.104434847831726,0.5814518928527832
-0.0763068199157714,0.6784147620201111,-0.1908933818340301,-0.7494935393333435,-0.0509952753782272,-0.1109500974416732,0.0,0.0,-0.5917206406593323,-0.177594244480133
-0.0783136337995529,0.6613619327545166,-0.1950710415840149,-0.7580999732017517,-0.0565441288053989,-0.1109772697091102,0.0,0.0,-0.8908678889274597,0.4564050436019897
-0.080362319946289,0.6441161036491394,-0.1992585361003875,-0.7667062878608704,-0.0620881021022796,-0.1108793169260025,0.0,0.0,0.3500823974609375,0.9564507007598876
-0.0822348594665527,0.6272897124290466,-0.1798163503408432,-0.7481707334518433,-0.0694485232234001,-0.1472084820270538,0.0,0.0,-0.5285544991493225,0.9138796329498292
-0.0840742141008377,0.6102640628814697,-0.1746076941490173,-0.7571548819541931,-0.0786806270480156,-0.1846423894166946,0.0,0.0,0.1077837944030761,-0.2415156364440918
-0.0859290137887001,0.5934472680091858,-0.1762085855007171,-0.7479287385940552,-0.0878620147705078,-0.1836277544498443,0.0,0.0,-0.373611569404602,-0.6382710337638855
-0.0878862366080284,0.5764461159706116,-0.1880372464656829,-0.7560762763023376,-0.0954755395650863,-0.1522701531648636,0.0,0.0,0.1032942533493042,0.7240891456604004
-0.0897567719221115,0.5601034760475159,-0.1779860407114029,-0.7269442677497864,-0.1044716760516166,-0.1799225062131881,0.0,0.0,0.3767781257629394,-0.6761649250984192
-0.0916220694780349,0.54392009973526,-0.1790139824151992,-0.7198032140731812,-0.1119377613067627,-0.1493217647075653,0.0,0.0,0.4080977439880371,-0.2979874014854431
-0.0934248939156532,0.5286244750022888,-0.1729379594326019,-0.6803728342056274,-0.119235910475254,-0.1459631770849228,0.0,0.0,-0.8229533433914185,-0.6049869656562805
-0.0953245162963867,0.513143002986908,-0.1840961873531341,-0.6885460615158081,-0.1250677704811096,-0.1166372448205947,0.0,0.0,-0.7357357144355774,0.3321517705917358
-0.0972657203674316,0.4974682331085205,-0.1883400380611419,-0.6971518993377686,-0.1308182179927826,-0.1150090917944908,0.0,0.0,-0.3259159326553345,-0.372025728225708
-0.0992484092712402,0.4816001653671264,-0.1925871819257736,-0.7057574391365051,-0.1364766806364059,-0.1131691932678222,0.0,0.0,-0.0341285467147827,0.0775337219238281
-0.1012724861502647,0.465538740158081,-0.1968371570110321,-0.7143627405166626,-0.1420321613550186,-0.1111100688576698,0.0,0.0,0.0023673772811889,0.5633158683776855
-0.1031947135925293,0.4497841596603393,-0.1857087314128875,-0.700839102268219,-0.1485307514667511,-0.1299717426300048,0.0,0.0,-0.6284594535827637,0.1666319370269775
-0.1051581352949142,0.4338362216949463,-0.1899630725383758,-0.7094448208808899,-0.1549034267663955,-0.127453476190567,0.0,0.0,0.4940474033355713,0.751062273979187
-0.1069921478629112,0.4180934429168701,-0.1757705509662628,-0.7004930973052979,-0.1625308245420456,-0.1525478661060333,0.0,0.0,-0.2262854576110839,-0.2267357110977172
-0.1088671684265136,0.4021575450897217,-0.1800274848937988,-0.7090996503829956,-0.1700080931186676,-0.1495454162359237,0.0,0.0,0.5267667770385742,-0.3734501004219055
-0.1106665581464767,0.387114018201828,-0.1726070642471313,-0.6694604754447937,-0.1773585826158523,-0.1470097601413726,0.0,0.0,-0.6498493552207947,0.3980182409286499
-0.1125067695975303,0.3718771934509277,-0.1768641918897628,-0.6780661344528198,-0.1845337003469467,-0.1435022205114364,0.0,0.0,-0.1152861714363098,-0.5058723092079163
-0.1144334822893142,0.3564648032188415,-0.1869178712368011,-0.6857200860977173,-0.1903131604194641,-0.1155892387032508,0.0,0.0,0.5886927843093872,-0.2790310978889465
-0.1164625138044357,0.3413633108139038,-0.1967914402484893,-0.6719774603843689,-0.1964666694402694,-0.1230702847242355,0.0,0.0,0.7749581336975098,0.2480868101119995
-0.1183237060904502,0.3273047506809234,-0.1804123967885971,-0.625590443611145,-0.2022048830986023,-0.1147645115852356,0.0,0.0,0.788642406463623,0.5673773288726807
-0.1201707869768142,0.313989907503128,-0.1778001636266708,-0.5927320122718811,-0.209170788526535,-0.13931804895401,0.0,0.0,0.0002058744430541,0.1966444253921508
-0.1220050826668739,0.3010939359664917,-0.1766206324100494,-0.5741373300552368,-0.216048315167427,-0.1375507414340973,0.0,0.0,0.394980788230896,-0.2605510950088501
-0.1237625107169151,0.2888724207878113,-0.1691467314958572,-0.5441563725471497,-0.2227170616388321,-0.1333748251199722,0.0,0.0,-0.6938495635986328,0.0394846200942993
-0.1255595237016677,0.2764570713043213,-0.1733873337507248,-0.5527588725090027,-0.2291165441274643,-0.1279895454645156,0.0,0.0,0.5816268920898438,-0.1092981696128845
-0.1272995918989181,0.2643188238143921,-0.1680731028318405,-0.5404128432273865,-0.2351280897855758,-0.1202307119965553,0.0,0.0,0.8506693840026855,-0.2671343088150024
-0.1288726776838302,0.2526080906391144,-0.1521618813276291,-0.5213110446929932,-0.2403622567653656,-0.1046834588050842,0.0,0.0,0.8699789047241211,0.1161128282546997
-0.1301693022251129,0.2415852099657058,-0.1255802661180496,-0.4905795454978943,-0.2445157468318939,-0.0830698683857917,0.0,0.0,0.4412064552307129,-0.4832960367202759
-0.1313035935163498,0.2308244109153747,-0.1102199181914329,-0.4787953197956085,-0.2477827370166778,-0.0653398185968399,0.0,0.0,0.9530364274978638,-0.6960106492042542
-0.1323181092739105,0.2211882025003433,-0.0999454632401466,-0.4285318255424499,-0.2493196278810501,-0.0307376887649297,0.0,0.0,0.6744409799575806,-0.3918206691741943
-0.1331510543823242,0.2124632149934768,-0.0822743400931358,-0.3879526555538177,-0.2503605484962463,-0.0208181645721197,0.0,0.0,0.7640796899795532,-0.6878399848937988
-0.1337582617998123,0.2045475542545318,-0.0617409944534301,-0.3516325056552887,-0.2493173778057098,0.0208633709698915,0.0,0.0,0.078100562095642,-0.6793325543403625
-0.1343315094709396,0.1967320293188095,-0.0601421184837818,-0.3468824625015259,-0.2464559078216552,0.0572296269237995,0.0,0.0,-0.4031975269317627,-0.3102930188179016
-0.1349426209926605,0.1887218058109283,-0.0643054842948913,-0.355478972196579,-0.2432041466236114,0.0650356039404869,0.0,0.0,-0.37530517578125,-0.2475491166114807
-0.1355912238359451,0.1805168241262436,-0.0684549957513809,-0.3640755712985992,-0.2395493537187576,0.0730958133935928,0.0,0.0,-0.3279160857200622,0.3709408044815063
-0.1362771093845367,0.1721171438694,-0.0725892335176467,-0.3726722598075866,-0.2354790717363357,0.0814054757356643,0.0,0.0,-0.5105376243591309,-0.1544221639633178
-0.1369998008012771,0.1635227799415588,-0.076706662774086,-0.381269097328186,-0.230981096625328,0.0899594575166702,0.0,0.0,0.5592484474182129,-0.0432825684547424
-0.1375284194946289,0.1556672602891922,-0.0581038482487201,-0.3483200669288635,-0.2256635427474975,0.1063507050275802,0.0,0.0,-0.1008870601654052,-0.2327178716659546
-0.1380931884050369,0.1476172059774398,-0.0621827319264411,-0.3569177687168121,-0.2198947519063949,0.1153758764266967,0.0,0.0,0.4489809274673462,0.4789592027664184
-0.138621523976326,0.1403578668832779,-0.0586617700755596,-0.3217834830284118,-0.2139990478754043,0.1179142966866493,0.0,0.0,-0.237919270992279,0.522397518157959
-0.1391469985246658,0.1328896582126617,-0.057857621461153,-0.3311616480350494,-0.208638846874237,0.1072036027908325,0.0,0.0,0.3833662271499634,-0.3867115974426269
-0.1396988928318023,0.125996246933937,-0.0605402179062366,-0.3056308925151825,-0.2032463252544403,0.1078503727912902,0.0,0.0,0.5933530330657959,0.529998779296875
-0.1402953118085861,0.1196834668517112,-0.0640155971050262,-0.279969573020935,-0.198830559849739,0.0883153975009918,0.0,0.0,0.0806818008422851,-0.1726741194725036
-0.1407652795314788,0.1138468384742736,-0.0522001981735229,-0.258716881275177,-0.1935898214578628,0.1048148497939109,0.0,0.0,-0.2570973634719848,-0.0022245049476623
-0.1412691175937652,0.1078156530857086,-0.0561107397079467,-0.2673146426677704,-0.1878349781036377,0.1150968894362449,0.0,0.0,0.439544677734375,0.5571956634521484
-0.1415039002895355,0.1025231927633285,-0.0289340764284133,-0.2345414161682129,-0.1823569536209106,0.1095605641603469,0.0,0.0,0.0066863298416137,0.327961802482605
-0.1416997015476226,0.0977375581860542,-0.0254966877400875,-0.2119785100221634,-0.1764112412929535,0.1189139932394027,0.0,0.0,0.1390268802642822,0.5824241638183594
-0.1416707038879394,0.0935932248830795,-0.0025908001698553,-0.1835508346557617,-0.1709099858999252,0.1100250333547592,0.0,0.0,-0.2016277313232422,-0.5841339826583862
-0.1417132318019867,0.0892649292945861,-0.0113231437280774,-0.1915726661682129,-0.1638378351926803,0.1414431631565094,0.0,0.0,-0.1052075028419494,0.8157052993774414
-0.1417233496904373,0.0847348570823669,-0.0070270411670207,-0.2006850838661193,-0.1578184515237808,0.1203874945640564,0.0,0.0,0.0020686388015747,0.6331892013549805
-0.1415976583957672,0.0807018876075744,0.0072064795531332,-0.1786827594041824,-0.1524570435285568,0.1072282344102859,0.0,0.0,-0.0956076979637146,0.4380590915679931
-0.1415018141269683,0.0764745771884918,0.0036338153295218,-0.1872816979885101,-0.1465248763561248,0.1186433061957359,0.0,0.0,0.0622502565383911,0.827930212020874
-0.1414032876491546,0.0726501047611236,0.0050118677318096,-0.1695083677768707,-0.141697883605957,0.0965402200818061,0.0,0.0,0.0146924257278442,0.8423399925231934
-0.141315072774887,0.0691040828824043,0.0050966008566319,-0.1572514176368713,-0.1379781514406204,0.0743947774171829,0.0,0.0,-0.0577015280723571,0.8644795417785645
-0.1411892920732498,0.0653494223952293,0.0099292239174246,-0.1666305810213089,-0.1353352069854736,0.0528588891029357,0.0,0.0,0.0663410425186157,0.8690435886383057
-0.140956312417984,0.0618923753499984,0.0217828806489706,-0.1535086780786514,-0.1338320970535278,0.030062299221754,0.0,0.0,-0.1186124086380004,0.5908610820770264
-0.1406934708356857,0.0582239739596843,0.0256161205470561,-0.1629787534475326,-0.1331681460142135,0.0132790263742208,0.0,0.0,0.0105081796646118,0.1078355312347412
-0.1403409987688064,0.0549709163606166,0.0336987785995006,-0.1444443017244339,-0.131623774766922,0.0308873169124126,0.0,0.0,0.1645886898040771,0.4926092624664306
-0.1399202346801757,0.0523652397096157,0.0398266948759555,-0.1156105175614357,-0.129388689994812,0.0447017513215541,0.0,0.0,-0.1011119484901428,0.7184020280838013
