x_pos,y_pos,x_vel,y_vel,angle,ang_vel,leg_1,leg_2,main_booster,lat_booster
-0.0014983176952227,1.402934193611145,-0.1517530381679535,-0.3549256324768066,0.0017150117782875,0.0338269174098968,0.0,0.0,-0.6246235966682434,0.687919020652771
-0.0029118538368493,1.3942781686782837,-0.1415103673934936,-0.3847139775753021,0.0018672920996323,0.0030468166805803,0.0,0.0,-0.1686922311782837,0.4121773242950439
-0.0042983056046068,1.3849313259124756,-0.1387549191713333,-0.4154122471809387,0.0019761307630687,0.0021770712919533,0.0,0.0,0.3355751037597656,0.9298800230026244
-0.0056953430175781,1.3754971027374268,-0.1378065794706344,-0.4193013608455658,0.0001018996626953,-0.0374879650771617,0.0,0.0,0.6703474521636963,0.7377703189849854
-0.0068629262968897,1.3663638830184937,-0.1136627346277237,-0.4059248566627502,-0.0029627312906086,-0.0612984411418437,0.0,0.0,-0.4168308973312378,-0.2115943431854248
-0.0080012325197458,1.356540560722351,-0.1106904000043869,-0.436606615781784,-0.0060714734718203,-0.0621805377304554,0.0,0.0,-0.2666375637054443,0.6386454105377197
-0.0090612415224313,1.3460267782211304,-0.1015892252326011,-0.4673031568527221,-0.0104405786842107,-0.0873898118734359,0.0,0.0,0.6230572462081909,0.552725076675415
-0.0098830219358205,1.3357748985290527,-0.0770506113767623,-0.455683171749115,-0.0155168725177645,-0.1015349775552749,0.0,0.0,-0.3754851818084717,0.0505256652832031
-0.0106739047914743,1.3248330354690552,-0.0739082768559455,-0.4863682985305786,-0.0206334143877029,-0.102340281009674,0.0,0.0,-0.7155113220214844,-0.3944735527038574
-0.0114331245422363,1.3132014274597168,-0.0707191303372383,-0.5170425772666931,-0.0257879048585891,-0.1030991673469543,0.0,0.0,-0.3226857185363769,-0.9349858164787292
-0.0122236255556344,1.3008829355239868,-0.0754052400588989,-0.5475543737411499,-0.0293893963098526,-0.0720363706350326,0.0,0.0,0.3780856132507324,-0.9421542882919312
-0.012975406832993,1.288533329963684,-0.073452390730381,-0.5489047765731812,-0.031096214428544,-0.0341394022107124,0.0,0.0,-0.8075952529907227,-0.8792004585266113
-0.0137487407773733,1.2755005359649658,-0.0769605040550232,-0.5792445540428162,-0.0314655192196369,-0.0073867938481271,0.0,0.0,-0.5921130776405334,-0.8693599700927734
-0.0145499231293797,1.2617725133895874,-0.0812633410096168,-0.6101186871528625,-0.0303344316780567,0.0226238686591386,0.0,0.0,-0.5676636695861816,-0.6431863903999329
-0.015356445685029,1.247362494468689,-0.0827713012695312,-0.6403999924659729,-0.0282467678189277,0.0417571291327476,0.0,0.0,-0.4940981268882751,-0.8141497373580933
-0.0161822326481342,1.2322553396224976,-0.0860030576586723,-0.671376645565033,-0.0248549729585647,0.0678422302007675,0.0,0.0,-0.2943072319030761,-0.1989166736602783
-0.0169741623103618,1.2164578437805176,-0.0826034024357795,-0.702052652835846,-0.0214750729501247,0.067603699862957,0.0,0.0,0.4192816019058227,-0.4663092494010925
-0.0176026336848735,1.2004493474960327,-0.0668334141373634,-0.7114427089691162,-0.0175271891057491,0.0789646655321121,0.0,0.0,-0.1577420830726623,0.270961046218872
-0.018196677789092,1.1837506294250488,-0.0633909925818443,-0.7421232461929321,-0.0135798016563057,0.0789546221494674,0.0,0.0,0.088015079498291,-0.0330268144607543
-0.0188039783388376,1.1669219732284546,-0.0644821226596832,-0.7479068636894226,-0.0098740579560399,0.0741215720772743,0.0,0.0,-0.418720006942749,-0.0748984813690185
-0.0193763729184865,1.1494033336639404,-0.0610017403960228,-0.7785871028900146,-0.006154918577522,0.0743895396590232,0.0,0.0,0.1127032041549682,0.3834086656570434
-0.0199039466679096,1.1316416263580322,-0.0565694570541381,-0.789398729801178,-0.0023788965772837,0.0755269601941108,0.0,0.0,0.5129674673080444,0.3409273624420166
-0.0202759746462106,1.113937258720398,-0.0416105650365352,-0.7868558168411255,0.0019774984102696,0.0871357694268226,0.0,0.0,-0.0443357229232788,0.501140832901001
-0.0205682758241891,1.0955374240875244,-0.03253885358572,-0.8177777528762817,0.0052570323459804,0.0655964761972427,0.0,0.0,-0.1339731812477111,0.3316402435302734
-0.020824622362852,1.0764477252960205,-0.0290026161819696,-0.8484517335891724,0.0085807219147682,0.0664796829223632,0.0,0.0,0.7628500461578369,0.2725489139556885
-0.0212068557739257,1.05777108669281,-0.0409098602831363,-0.8300843834877014,0.0112367933616042,0.0531213469803333,0.0,0.0,-0.2247413992881775,0.3701422214508056
-0.021552849560976,1.0384045839309692,-0.0373457968235015,-0.8607586622238159,0.0139539148658514,0.0543425157666206,0.0,0.0,0.546635627746582,0.6209044456481934
-0.0219570156186819,1.019511342048645,-0.0416876412928104,-0.8397090435028076,0.0152079919353127,0.0250818338245153,0.0,0.0,0.8555498123168945,0.5294055938720703
-0.0224515907466411,1.001234769821167,-0.0492845252156257,-0.8122974634170532,0.0150385228917002,-0.0033897035755217,0.0,0.0,0.7240653038024902,-0.0940561294555664
-0.0229389183223247,0.9830303192138672,-0.0485529378056526,-0.8090754747390747,0.0148564940318465,-0.0036405466962605,0.0,0.0,0.9122369289398192,0.0958063602447509
-0.023382281884551,0.965606153011322,-0.044353149831295,-0.7744079232215881,0.0148731162771582,0.0003324063145555,0.0,0.0,0.7754485607147217,-0.4667311310768127
-0.0238792411983013,0.9481963515281676,-0.0494275614619255,-0.7737678289413452,0.0146113019436597,-0.005236217752099,0.0,0.0,0.8920434713363647,-0.6742954850196838
-0.024507712572813,0.9314762949943542,-0.0638011619448661,-0.7431269288063049,0.0155546981841325,0.0188678763806819,0.0,0.0,0.3067036867141723,0.4383281469345093
-0.0251537319272756,0.914492666721344,-0.0654520913958549,-0.7548353672027588,0.0163931436836719,0.0167689658701419,0.0,0.0,-0.5152283310890198,-0.5571110248565674
-0.0258051864802837,0.8968191146850586,-0.0672369748353958,-0.785516619682312,0.0184478815644979,0.0410949252545833,0.0,0.0,0.715404748916626,0.7551414966583252
-0.0263533592224121,0.8796409964561462,-0.0555691011250019,-0.7634772658348083,0.0191910360008478,0.0148629788309335,0.0,0.0,0.724435567855835,0.4532375335693359
-0.0269004814326763,0.862484872341156,-0.0554923340678215,-0.7625085115432739,0.0199663303792476,0.0155056323856115,0.0,0.0,0.4197045564651489,0.5921683311462402
-0.0273405071347951,0.8456265330314636,-0.0438383892178535,-0.749256432056427,0.0198095422238111,-0.0031359079293906,0.0,0.0,0.1794248819351196,-0.2251207828521728
-0.027782630175352,0.8289792537689209,-0.0441111512482166,-0.7398726940155029,0.0197020974010229,-0.002148620551452,0.0,0.0,0.2398934364318847,0.122957706451416
-0.0281747821718454,0.8123268485069275,-0.0393964722752571,-0.7401130795478821,0.0198823492974042,0.003604847472161,0.0,0.0,-0.2482399940490722,0.3924785852432251
-0.0285290721803903,0.7949842810630798,-0.0358094051480293,-0.7707871198654175,0.020262336358428,0.0075998296961188,0.0,0.0,0.4090417623519897,0.540287971496582
-0.0286975856870412,0.7776246070861816,-0.0166343804448843,-0.7715337872505188,0.0200444422662258,-0.0043577989563345,0.0,0.0,-0.5096549987792969,0.3484079837799072
-0.0288281440734863,0.7595750093460083,-0.013057230040431,-0.8022078275680542,0.0200464390218257,3.985744115198031e-05,0.0,0.0,0.0197741985321044,0.511559247970581
-0.0288187023252248,0.7413268089294434,0.0016182286199182,-0.8110228180885315,0.0193766523152589,-0.0133956000208854,0.0,0.0,0.1354840993881225,0.3241820335388183
-0.0288030616939067,0.7226912379264832,0.0021286671981215,-0.8282405734062195,0.0188172366470098,-0.0111883888021111,0.0,0.0,0.3070574998855591,0.2745765447616577
-0.0287179946899414,0.7037630081176758,0.0086519327014684,-0.8412504196166992,0.0186751876026392,-0.0028411464300006,0.0,0.0,0.1599578857421875,0.8179256916046143
-0.0284865386784076,0.6846140623092651,0.0246446728706359,-0.8510475158691406,0.0171988476067781,-0.0295271165668964,0.0,0.0,0.637663722038269,0.4357759952545166
-0.0283425338566303,0.6660116910934448,0.0161464940756559,-0.8267532587051392,0.0154751157388091,-0.0344747863709926,0.0,0.0,0.1800134181976318,0.1273474693298339
-0.0282638557255268,0.6475614905357361,0.0097737507894635,-0.8199971318244934,0.0135901486501097,-0.0376993082463741,0.0,0.0,0.1912468671798706,0.5345429182052612
-0.0281266216188669,0.6289701461791992,0.0164605267345905,-0.8262593746185303,0.0108950231224298,-0.0539027228951454,0.0,0.0,0.6222519874572754,-0.07670259475708
-0.0278164856135845,0.6105321645736694,0.0327792130410671,-0.8194572925567627,0.0091461176052689,-0.034978300333023,0.0,0.0,0.5807212591171265,-0.0871027112007141
-0.0275300033390522,0.5924605131149292,0.0303762443363666,-0.8031752705574036,0.007445509545505,-0.0340121500194072,0.0,0.0,0.4482849836349487,-0.1448757648468017
-0.0271126739680767,0.5742844343185425,0.042696762830019,-0.8078237175941467,0.006499518174678,-0.0189198181033134,0.0,0.0,0.4898875951766968,-0.0021963119506835
-0.0266592018306255,0.5564971566200256,0.0459660552442073,-0.7905406951904297,0.0058860871940851,-0.0122686829417943,0.0,0.0,0.5532054901123047,-0.607017993927002
-0.026066780090332,0.5387060046195984,0.0579572916030883,-0.7907238602638245,0.0071559622883796,0.0253974013030529,0.0,0.0,0.6364138126373291,-0.2738511562347412
-0.0255346298217773,0.5209237933158875,0.0520289316773414,-0.7903274297714233,0.0083222882822155,0.0233266912400722,0.0,0.0,0.2670965194702148,-0.302541434764862
-0.0248979572206735,0.503369152545929,0.0618000030517578,-0.7802148461341858,0.0101635307073593,0.0368247851729393,0.0,0.0,0.8092093467712402,-0.5071000456809998
-0.024111270904541,0.4862363636493683,0.0749577134847641,-0.7614911198616028,0.0138292163610458,0.0733136013150215,0.0,0.0,0.6523900032043457,0.3307899236679077
-0.0232239719480276,0.4696502387523651,0.0843061059713363,-0.7372085452079773,0.0181951746344566,0.0873192101716995,0.0,0.0,0.5418260097503662,0.0811562538146972
-0.0223840717226266,0.4534721374511719,0.0795391201972961,-0.7190863490104675,0.0225931163877248,0.0879588276147842,0.0,0.0,0.5519261360168457,0.5747256278991699
-0.0214176177978515,0.4371241927146911,0.0928475558757782,-0.7266375422477722,0.0263403374701738,0.074944369494915,0.0,0.0,0.2555941343307495,-0.2148277759552002
-0.0205047614872455,0.4208827316761017,0.0874700099229812,-0.7219148278236389,0.0301071722060441,0.0753367021679878,0.0,0.0,0.7624993324279785,0.2685546875
-0.0194404609501361,0.4047846794128418,0.1016210690140724,-0.7155737280845642,0.0348608344793319,0.0950734913349151,0.0,0.0,0.6940715312957764,-0.2947158813476562
-0.0183376315981149,0.3889403343200683,0.1049606651067733,-0.7043220400810242,0.040108423680067,0.1049520149827003,0.0,0.0,0.7989963293075562,-0.2837033867835998
-0.0172080993652343,0.3730612397193908,0.1072166934609413,-0.7059020400047302,0.0457821376621723,0.1134741082787513,0.0,0.0,0.9314074516296388,0.1799107789993286
-0.016219139099121,0.3575180172920227,0.0934365838766098,-0.690987229347229,0.0511772632598876,0.1079024896025657,0.0,0.0,0.8098702430725098,0.4640223979949951
-0.0152194024994969,0.3426914811134338,0.0940046682953834,-0.6591694951057434,0.0570758022367954,0.1179708614945411,0.0,0.0,0.7286584377288818,0.5328664779663086
-0.0140685085207223,0.3276389241218567,0.1095431223511695,-0.669224202632904,0.0625659823417663,0.1098038107156753,0.0,0.0,0.883246898651123,0.4878238439559936
-0.0129131320863962,0.3133566975593567,0.1094349473714828,-0.6350336074829102,0.0685999244451522,0.1206785589456558,0.0,0.0,0.894294023513794,0.8454334735870361
-0.0118122100830078,0.2991882562637329,0.1055375710129737,-0.6299248933792114,0.0731193572282791,0.0903889089822769,0.0,0.0,0.8084144592285156,0.2402613162994384
-0.0108318328857421,0.2854281067848205,0.0935225114226341,-0.6117898225784302,0.0775801613926887,0.0892161279916763,0.0,0.0,0.8325445652008057,0.742283821105957
-0.0097764013335108,0.2720233500003814,0.1020374149084091,-0.5959550738334656,0.0810528174042701,0.069453053176403,0.0,0.0,0.7447137832641602,0.484764814376831
-0.0088961599394679,0.2592458724975586,0.0847470685839653,-0.5680703520774841,0.0843061879277229,0.0650671795010566,0.0,0.0,0.7527079582214355,0.6687548160552979
-0.0078984256833791,0.2467118054628372,0.097215935587883,-0.5572156310081482,0.0868364199995994,0.0506047829985618,0.0,0.0,0.7581400871276855,-0.2785217761993408
-0.0069409371353685,0.2341054230928421,0.0929411649703979,,0.0896127671003341,0.0555268749594688,0.0,0.0,0.8567061424255371,0.3536311388015747
-0.0059091569855809,0.2213655859231948,0.0996084958314895,-0.5664354562759399,0.0931551530957222,0.0708479359745979,0.0,0.0,0.9304453134536744,0.1702179908752441
-0.0049205780960619,0.2085233777761459,0.0950344055891037,-0.5710057616233826,0.0969393327832222,0.0756834894418716,0.0,0.0,0.9384862184524536,0.0685794353485107
-0.0040022851899266,0.1963798403739929,0.087650641798973,-0.5399906635284424,0.1010903343558311,0.0830201059579849,0.0,0.0,0.9085087776184082,0.2925429344177246
-0.0030579566955566,0.1849672943353653,0.0893952697515487,-0.5075727701187134,0.106080450117588,0.0998023971915245,0.0,0.0,0.9238184690475464,0.4480373859405517
-0.0023161887656897,0.1742642670869827,0.069348856806755,-0.4760385155677795,0.1108763366937637,0.0959178134799003,0.0,0.0,0.9291198253631592,-0.3504310846328735
-0.001739788101986,0.1634234935045242,0.053097166121006,-0.4821545779705047,0.1153819933533668,0.0901130884885788,0.0,0.0,0.9941537380218506,0.2538396120071411
-0.0011981964344158,0.1533236652612686,0.048986654728651,-0.4492908120155334,0.1205194443464279,0.1027492061257362,0.0,0.0,0.942496657371521,0.0216164588928222
-0.000830459583085,0.143520787358284,0.031761348247528,-0.436097651720047,0.1255098432302475,0.0998079627752304,0.0,0.0,0.9483586549758912,0.8007954359054565
-0.0005451202159747,0.1342202574014663,0.0248860847204923,-0.4136691093444824,0.1291472315788269,0.0727476105093956,0.0,0.0,0.8872382640838623,0.505845308303833
-0.0003133773861918,0.1254260390996933,0.0201827324926853,-0.3911148905754089,0.1321274936199188,0.0596050433814525,0.0,0.0,0.7699068784713745,0.6908764839172363
1.4019012269272936e-05,0.1169001907110214,0.0305085126310586,-0.3791265487670898,0.1343533843755722,0.0445178113877773,0.0,0.0,0.926156759262085,0.8961544036865234
0.0004115104675292,0.1082897260785102,0.0388523675501346,-0.3827672302722931,0.1352394968271255,0.0177223123610019,0.0,0.0,0.9719908237457277,0.8864998817443848
0.0009557724115438,0.0997364819049835,0.0546969398856163,-0.380122035741806,0.1349809020757675,-0.0051719709299504,0.0,0.0,0.9538217782974244,-0.4944719672203064
0.0016019821632653,0.0915325731039047,0.0636896938085556,-0.3646999299526214,0.135905772447586,0.0184974130243062,0.0,0.0,0.9480687379837036,0.1252840757369995
0.0023672103416174,0.0833638533949852,0.0744614154100418,-0.3632461130619049,0.137963593006134,0.0411559902131557,0.0,0.0,0.9837925434112548,0.0828109979629516
0.0030199051834642,0.0758445858955383,0.062865562736988,-0.3344165086746216,0.1403558105230331,0.0478443317115306,0.0,0.0,0.9691145420074464,0.7005695104598999
0.0036568641662597,0.0690038055181503,0.0622446350753307,-0.3041708767414093,0.1418023258447647,0.0289303362369537,0.0,0.0,0.953200101852417,-0.921758234500885
0.0042865751311182,0.0626671388745307,0.059022806584835,-0.2820107340812683,0.1457405537366867,0.0787645205855369,0.0,0.0,0.765268087387085,-0.0281600952148437
0.0049871443770825,0.0561823472380638,0.0652669891715049,-0.2886891961097717,0.1505197584629058,0.0955841615796089,0.0,0.0,0.8842262029647827,-0.4671002626419067
0.0055551528930664,0.0498561970889568,0.0519558489322662,-0.2816592156887054,0.1553551703691482,0.0967085734009742,0.0,0.0,0.8647462129592896,0.5586949586868286
0.0061285020783543,0.0443244092166423,0.0530103668570518,-0.2463142275810241,0.1596773415803909,0.0864434465765953,0.0,0.0,0.839057207107544,-0.6624617576599121
0.0065333368256688,0.039022359997034,0.0345888622105121,-0.2362923324108123,0.1655704230070114,0.1178620234131813,0.0,0.0,0.5992852449417114,0.8998632431030273
0.0067574502900242,0.0341626964509487,0.0182118508964777,-0.2164594829082489,0.1697739511728286,0.0840705186128616,0.0,0.0,0.8896963596343994,0.8679177761077881
0.0070308684371411,0.02984319627285,0.0243851915001869,-0.1923187375068664,0.1727357506752014,0.0592360869050025,0.0,0.0,0.7785353660583496,0.0064438581466674
0.0071166991256177,0.0260129310190677,0.0056207841262221,-0.1705827713012695,0.1757092773914337,0.0594702437520027,0.0,0.0,0.6972324848175049,0.7246057987213135
0.0070393560454249,0.0226250514388084,-0.0093222353607416,-0.1507609486579895,0.1772985607385635,0.0317856594920158,0.0,0.0,0.4952132701873779,0.6541249752044678
0.0069150924682617,0.0192180722951889,-0.0129011292010545,-0.1514796614646911,0.1777792125940323,0.009612800553441,0.0,0.0,0.7338685989379883,0.8086557388305664
0.0065330504439771,0.0168556552380323,-0.0183967538177967,-0.1027744188904762,0.1578719913959503,-0.3982456922531128,0.0,1.0,0.6674370765686035,0.2179920673370361
0.0058351517654955,0.0151152228936553,-0.0354079417884349,-0.0740919932723045,0.1235028728842735,-0.6874951124191284,0.0,1.0,0.4879817962646484,0.2807410955429077
0.0051737786270678,0.0136510226875543,-0.0332213640213012,-0.0626744329929351,0.0908231884241104,-0.6535945534706116,0.0,1.0,0.1135644912719726,0.4884259700775146
0.0045301439240574,0.0118879172950983,-0.0315359346568584,-0.0766886323690414,0.0583357624709606,-0.6497495770454407,0.0,0.0,-0.4946166276931762,-0.9229984879493712
0.0038339614402502,0.0094503620639443,-0.0383738502860069,-0.1074059009552002,0.0274656228721141,-0.6174033880233765,0.0,0.0,0.1106374263763427,-0.8875221610069275
0.0030372620094567,0.0071204877458512,-0.0503931753337383,-0.1032628864049911,-0.0014379894128069,-0.5780728459358215,0.0,0.0,0.6699949502944946,-0.897939920425415
0.0023331642150878,0.0054166056215763,-0.043384488672018,-0.0759694203734397,-0.0281260162591934,-0.5337607860565186,0.0,0.0,0.4821928739547729,-0.8458428978919983
0.0016539574135094,0.0038105344865471,-0.0428882203996181,-0.0720332413911819,-0.0528578050434589,-0.4946358203887939,0.0,0.0,0.5221891403198242,-0.8357628583908081
0.001167106674984,0.003240582998842,-0.0453731454908847,-0.0255148373544216,-0.0559201799333095,-0.0609703361988067,1.0,0.0,-0.7188335657119751,0.4785308837890625
0.000832843768876,0.0025297617539763,-0.0467951595783233,-0.0313319079577922,-0.0421027094125747,0.277126669883728,1.0,0.0,-0.3835674524307251,0.5432031154632568
0.0006189346313476,0.0015386319719254,-0.0456122085452079,-0.0435497239232063,-0.0181463211774826,0.4791591167449951,1.0,0.0,-0.1657159328460693,0.3129948377609253
0.0003875732363667,-0.0001633548672543,-0.0463292300701141,-0.0755222886800766,0.0047400300391018,0.4577268064022064,1.0,0.0,0.5180675983428955,0.8297979831695557
-6.008148375258315e-06,-0.0011271620169281,-0.0414403602480888,-0.0428972207009792,0.0066070216707885,0.0371001735329628,0.0,1.0,-0.5344433784484863,0.0156221389770507
-0.0002821922244038,-0.001608564867638,-0.0307511389255523,-0.0215563811361789,0.0091919358819723,0.0510497577488422,1.0,1.0,-0.8810654878616333,0.924468994140625
-0.0003863334713969,-0.0016400003805756,-0.0106840748339891,-0.0014013762120157,0.0094362637028098,0.0048678503371775,1.0,1.0,-0.925079345703125,0.6721932888031006
-0.000426387792686,-0.0013306164182722,-0.0014953766949474,0.0137765761464834,0.0069783143699169,-0.0491289906203746,1.0,1.0,-0.7119311690330505,-0.1216405034065246
-0.0004888534313067,-0.0007695340900681,-0.0019253075588494,0.0249478034675121,0.0027001327835023,-0.0855737924575805,1.0,1.0,-0.81423020362854,-0.2100682854652404
-0.000498485576827,-0.000762166979257,-0.0009727024589665,0.0003232794988434,0.0027033525984734,5.177930506761186e-05,1.0,1.0,-0.8113648891448975,-0.3296451568603515
-0.0005028724553994,-0.000765886332374,-0.0004566234420053,-0.0001682575239101,0.0027115624397993,0.0001525412517366,1.0,1.0,-0.5735166072845459,-0.1255095601081848
