x_pos,y_pos,x_vel,y_vel,angle,ang_vel,leg_1,leg_2,main_booster,lat_booster
-0.0016142844688147,1.4031206369400024,-0.1634975522756576,-0.3466463088989258,0.0018479588907212,0.0364589840173721,0.0,0.0,0.1248568296432495,0.9283463954925536
-0.0032064437400549,1.3953073024749756,-0.1592107862234115,-0.3472613394260406,0.0018392207566648,-0.0001739914150675,0.0,0.0,0.1167002916336059,0.2748018503189087
-0.0048008919693529,1.3873993158340454,-0.1598919183015823,-0.3514690101146698,0.0022749165073037,0.0087146554142236,0.0,0.0,-0.1788735389709472,0.3797987699508667
-0.0064879418350756,1.378987193107605,-0.1691512018442154,-0.3738696873188019,0.00271847541444,0.0088716270402073,0.0,0.0,0.2933181524276733,0.6178380250930786
-0.0081092836335301,1.3708395957946775,-0.1615761816501617,-0.3621150553226471,0.0021683683153241,-0.0110028814524412,0.0,0.0,0.2403459548950195,0.6642951965332031
-0.0096574779599905,1.3627991676330566,-0.1531319320201873,-0.3573511838912964,0.0005020084790885,-0.0333304107189178,0.0,0.0,0.1432461738586425,0.6834075450897217
-0.0112630845978856,1.3548543453216553,-0.1574897766113281,-0.3531067669391632,-0.0025384943000972,-0.0608157999813556,0.0,0.0,-0.2313106656074524,0.7098643779754639
-0.0128926280885934,1.3464075326919556,-0.1581100672483444,-0.3754284083843231,-0.0073312204331159,-0.095863327383995,0.0,0.0,0.0136133432388305,0.5679190158843994
-0.0145758632570505,1.338233232498169,-0.1623205244541168,-0.3633463680744171,-0.0132618201896548,-0.1186229437589645,0.0,0.0,-0.3115936517715454,0.2675344944000244
-0.0163530353456735,1.3295552730560305,-0.1717210114002227,-0.38575080037117,-0.0191947855055332,-0.118670105934143,0.0,0.0,-0.2783814668655395,0.7144523859024048
-0.018160056322813,1.3203728199005127,-0.1730678826570511,-0.4082267880439758,-0.0267504435032606,-0.1511267870664596,0.0,0.0,-0.3807598352432251,0.744327187538147
-0.019995879381895,1.310683012008667,-0.1742781102657318,-0.4308417737483978,-0.0359598286449909,-0.1842047274112701,0.0,0.0,-0.129858136177063,0.7742360830307007
-0.0218518264591693,1.3004907369613647,-0.1743975579738617,-0.4532916843891144,-0.0470426231622695,-0.2216759920120239,0.0,0.0,-0.1167879700660705,0.6995446681976318
-0.0237410552799701,1.2897857427597046,-0.1761524230241775,-0.4762285351753235,-0.059681337326765,-0.2527975142002105,0.0,0.0,0.1129347085952758,0.8460973501205444
-0.0255141258239746,1.2794036865234375,-0.1628984957933426,-0.4620629549026489,-0.0739526078104972,-0.2854516804218292,0.0,0.0,-0.4748086929321289,0.638437032699585
-0.0273225791752338,1.2685065269470217,-0.164932519197464,-0.4851828813552856,-0.0897354856133461,-0.3156863749027252,0.0,0.0,0.2646145820617676,0.1861071586608886
-0.0290616042912006,1.2580727338790894,-0.1585020124912262,-0.4647194445133209,-0.1050345376133918,-0.3060089647769928,0.0,0.0,-0.3237932920455932,-0.2512078881263733
-0.0308950431644916,1.2471380233764648,-0.1679542362689972,-0.4871438145637512,-0.1203474849462509,-0.3062863349914551,0.0,0.0,-0.6422145962715149,0.107352614402771
-0.0328228957951068,1.2357025146484375,-0.1774052381515503,-0.5095579624176025,-0.1356746405363083,-0.3065709173679352,0.0,0.0,-0.2114831805229187,-0.7896512746810913
-0.0349152572453022,1.223779797554016,-0.1956525444984436,-0.5311924815177917,-0.1492309421300888,-0.2711504697799682,0.0,0.0,-0.140093445777893,0.0916143655776977
-0.0371019355952739,1.2113555669784546,-0.2051046341657638,-0.5536071062088013,-0.1628049910068512,-0.2715055644512176,0.0,0.0,-0.2577669620513916,-0.0919666290283203
-0.0393829345703125,1.198429822921753,-0.2145508825778961,-0.5760213732719421,-0.1763967424631118,-0.2718595266342163,0.0,0.0,-0.0273557305335998,-0.4398770928382873
-0.0417582504451274,1.185002684593201,-0.2239898145198822,-0.5984363555908203,-0.1900074779987335,-0.2722391486167907,0.0,0.0,0.7497493028640747,-0.6970916390419006
-0.0441413894295692,1.1715457439422607,-0.2263536006212234,-0.5996649861335754,-0.2020633369684219,-0.2411393672227859,0.0,0.0,-0.0149038434028625,-0.615735650062561
-0.0466773994266986,1.1576062440872192,-0.2431565970182418,-0.6209961771965027,-0.2126107960939407,-0.2109679281711578,0.0,0.0,0.9174199104309082,0.3717405796051025
-0.0493035316467285,1.1443949937820437,-0.2513853907585144,-0.5888190865516663,-0.2239637672901153,-0.2270592153072357,0.0,0.0,0.0345948934555053,-0.4984004497528076
-0.051920510828495,1.1313462257385254,-0.2504844069480896,-0.5816876292228699,-0.2353308051824569,-0.2273403108119964,0.0,0.0,0.6308557987213135,-0.3288973569869995
-0.0545668601989746,1.1190288066864014,-0.252851665019989,-0.5493680238723755,-0.2473210990428924,-0.2398056983947754,0.0,0.0,0.5454270839691162,-0.9332614541053772
-0.0573336593806743,1.1073483228683472,-0.2665919661521911,-0.520868182182312,-0.2576035857200622,-0.2056495249271392,0.0,0.0,-0.6879839301109314,-0.548368513584137
-0.0602378845214843,1.0951802730560305,-0.2814433574676513,-0.5424028038978577,-0.2667692601680755,-0.1833136677742004,0.0,0.0,-0.3364523649215698,0.0710964202880859
-0.0632355660200119,1.0825096368789673,-0.290783166885376,-0.5648042559623718,-0.2759653627872467,-0.1839224845170974,0.0,0.0,0.0776212215423584,-0.6925081014633179
-0.0663573294878006,1.0697907209396362,-0.304507166147232,-0.5667540431022644,-0.2838462293148041,-0.1576171070337295,0.0,0.0,-0.5276461243629456,-0.3330792188644409
-0.0695720687508583,1.0565688610076904,-0.3137889504432678,-0.5891538262367249,-0.2917598783969879,-0.1582731753587722,0.0,0.0,0.5837644338607788,-0.5105447173118591
-0.0728821754455566,1.043381929397583,-0.324130654335022,-0.587483286857605,-0.2988475263118744,-0.1417526751756668,0.0,0.0,0.2615801095962524,-0.6619096398353577
-0.0761797875165939,1.030396580696106,-0.3241974115371704,-0.5782855153083801,-0.3046012818813324,-0.115075908601284,0.0,0.0,-0.2151708006858825,0.1602340936660766
-0.0795693397521972,1.016907811164856,-0.3333710134029388,-0.6006830930709839,-0.3103910684585571,-0.1157965436577797,0.0,0.0,-0.1483746170997619,0.4746119976043701
-0.0830505341291427,1.002915859222412,-0.3425027430057525,-0.6230806708335876,-0.3162179291248321,-0.1165370121598243,0.0,0.0,0.8806984424591064,0.2347868680953979
-0.0863121971487999,0.9896355867385864,-0.3207150101661682,-0.5914322137832642,-0.3218823671340942,-0.1132887005805969,0.0,0.0,0.7259964942932129,0.2715916633605957
-0.0894249901175499,0.9771241545677184,-0.3056194186210632,-0.5573331713676453,-0.3277759850025177,-0.1178724616765976,0.0,0.0,0.7806963920593262,-0.2683045268058777
-0.0923881530761718,0.9650251865386964,-0.2907612919807434,-0.5390018820762634,-0.3335686326026916,-0.1158535033464431,0.0,0.0,0.1776654720306396,0.1347992420196533
-0.095330998301506,0.9532469511032104,-0.2883705794811249,-0.5248551964759827,-0.3397542238235473,-0.1237120479345321,0.0,0.0,-0.101703941822052,0.1216750144958496
-0.0983628258109092,0.9409654140472412,-0.2972386181354522,-0.5472533702850342,-0.3459815680980682,-0.1245470643043518,0.0,0.0,0.273097276687622,0.8600932359695435
-0.1012589484453201,0.9284351468086244,-0.2820083796977997,-0.5587508082389832,-0.3539630174636841,-0.1596291959285736,0.0,0.0,0.8032135963439941,-0.1333329081535339
-0.1039407700300216,0.916157364845276,-0.2610538601875305,-0.5474585294723511,-0.361486941576004,-0.1504776179790496,0.0,0.0,0.2857924699783325,0.2349809408187866
-0.1066580787301063,0.9037150740623474,-0.264427125453949,-0.5548555850982666,-0.3692017495632171,-0.1542959362268448,0.0,0.0,0.8729538917541504,-0.5072792172431946
-0.1093116775155067,0.8912866115570068,-0.2591727077960968,-0.5539920330047607,-0.3757636547088623,-0.1312380880117416,0.0,0.0,0.8900502920150757,-0.1624045968055725
-0.1117980033159256,0.8790296912193298,-0.2427159249782562,-0.5463138222694397,-0.3820492923259735,-0.125712975859642,0.0,0.0,0.8696019649505615,-0.7492482662200928
-0.1141975373029708,0.8677006363868713,-0.235188752412796,-0.5048049688339233,-0.3871277570724487,-0.1015692204236984,0.0,0.0,0.9313039779663086,-0.227928876876831
-0.1164763420820236,0.8572357296943665,-0.222398042678833,-0.4666067063808441,-0.3929720818996429,-0.1168861985206604,0.0,0.0,0.9042150974273682,-0.1849347949028015
-0.1186353713274002,0.8470939993858337,-0.2102985084056854,-0.4523082077503204,-0.3989786505699157,-0.1201312392950058,0.0,0.0,0.7653341293334961,-0.495842695236206
-0.1204975098371505,0.8372031450271606,-0.181225836277008,-0.4410072863101959,-0.4043266177177429,-0.1069595366716384,0.0,0.0,0.9082844257354736,-0.8712842464447021
-0.1222334876656532,0.8280710577964783,-0.1701260805130005,-0.4068636894226074,-0.4080500900745392,-0.0744697153568267,0.0,0.0,0.6568676233291626,-0.7597172260284424
-0.1238166838884353,0.8190091848373413,-0.1564802676439285,-0.4032804369926452,-0.4100365042686462,-0.0397275015711784,0.0,0.0,0.7971282005310059,-0.9060702323913574
-0.1251910179853439,0.8106853365898132,-0.1373027712106704,-0.3699922561645508,-0.4101816415786743,-0.0029024884570389,0.0,0.0,0.9088456630706788,-0.8283647894859314
-0.1263050138950348,0.8025561571121216,-0.1131406277418136,-0.3607908487319946,-0.4082970917224884,0.0376907885074615,0.0,0.0,0.906846046447754,-0.8676285147666931
-0.1274524629116058,0.7947811484336853,-0.1179077848792076,-0.3446420431137085,-0.4049006104469299,0.0679291263222694,0.0,0.0,0.924769163131714,-0.881087064743042
-0.1282582283020019,0.7877603769302368,-0.0856026858091354,-0.3106136620044708,-0.3995038866996765,0.1079344525933265,0.0,0.0,0.2269990444183349,-0.7942479252815247
-0.12888965010643,0.7808997631072998,-0.0697700828313827,-0.303072065114975,-0.3924199342727661,0.1416792422533035,0.0,0.0,0.5409538745880127,-0.695858359336853
-0.1292753219604492,0.7745946645736694,-0.046638835221529,-0.2780233025550842,-0.3838036358356476,0.172325998544693,0.0,0.0,-0.2676420211791992,-0.7670578360557556
-0.129790112376213,0.7678313255310059,-0.0612195953726768,-0.2980050444602966,-0.373456060886383,0.2069514989852905,0.0,0.0,-0.7131097316741943,0.120737075805664
-0.1303710043430328,0.7605656385421753,-0.0678193345665931,-0.3204092383384704,-0.3631685674190521,0.2057501375675201,0.0,0.0,-0.9158068895339966,-0.0408506393432617
-0.1310162544250488,0.7527977824211121,-0.0742246359586715,-0.3428133130073547,-0.3529421389102936,0.2045283317565918,0.0,0.0,-0.4555326700210571,-0.1766583919525146
-0.1317236870527267,0.7445277571678162,-0.0804271548986435,-0.3652172684669494,-0.3427779078483581,0.2032850235700607,0.0,0.0,-0.1778873205184936,0.7151486873626709
-0.1324361860752105,0.7357266545295715,-0.0794397518038749,-0.3892313539981842,-0.3341977000236511,0.1716041713953018,0.0,0.0,0.1373616456985473,-0.2838401794433594
-0.1331111937761306,0.726811408996582,-0.0756735652685165,-0.3943662047386169,-0.3256570398807525,0.170813113451004,0.0,0.0,-0.5219895839691162,0.0278201103210449
-0.1338419914245605,0.7173935174942017,-0.0812175795435905,-0.4167677164077759,-0.3171820640563965,0.1694997251033783,0.0,0.0,0.2497956752777099,0.3808718919754028
-0.1344088613986969,0.7083878517150879,-0.0648625046014785,-0.3984847962856293,-0.3086989223957062,0.1696622967720031,0.0,0.0,-0.526989221572876,0.2908740043640136
-0.1350268423557281,0.6988795399665833,-0.0699295476078987,-0.4208862483501434,-0.3002840578556061,0.1682975590229034,0.0,0.0,-0.5685431957244873,0.0812741518020629
-0.1356935501098632,0.688868522644043,-0.0747473686933517,-0.4432876706123352,-0.2919387519359588,0.1669062077999115,0.0,0.0,0.504417896270752,0.4043173789978027
-0.1363641768693924,0.6790110468864441,-0.0747246891260147,-0.4366022646427154,-0.2840608060359955,0.1575596034526825,0.0,0.0,-0.4037439227104187,0.2582783699035644
-0.1370783746242523,0.6686506867408752,-0.0790245085954666,-0.4590030014514923,-0.2762551307678222,0.1561134904623031,0.0,0.0,-0.3604404926300049,-0.0674085617065429
-0.1378335058689117,0.6577875018119812,-0.0830568224191665,-0.4814035296440124,-0.2685231566429138,0.1546392887830734,0.0,0.0,-0.4310743808746338,-0.6065511703491211
-0.1386815011501312,0.6464512944221497,-0.0937495902180671,-0.5022193789482117,-0.2593686580657959,0.183090254664421,0.0,0.0,-0.8151616454124451,-0.386327862739563
-0.1395649909973144,0.634612500667572,-0.0972334891557693,-0.5246217846870422,-0.2502906918525696,0.1815592497587204,0.0,0.0,-0.311946153640747,0.082911729812622
-0.1404810845851898,0.6222712397575378,-0.1004369407892227,-0.5470239520072937,-0.241290658712387,0.1800000965595245,0.0,0.0,-0.5628582835197449,0.6153424978256226
-0.1413754522800445,0.6094014644622803,-0.0968543365597724,-0.5707909464836121,-0.233757883310318,0.1506554633378982,0.0,0.0,-0.2899668216705322,-0.3124716877937317
-0.1422967910766601,0.5960288643836975,-0.099488228559494,-0.5931911468505859,-0.2263058274984359,0.1490411758422851,0.0,0.0,-0.4956985712051391,0.3512327671051025
-0.1432423591613769,0.5821533203125,-0.1018352508544921,-0.6155911684036255,-0.2189358323812484,0.1473997682332992,0.0,0.0,0.7447335720062256,0.4818692207336426
-0.1439394950866699,0.5690087676048279,-0.0773168802261352,-0.5830960869789124,-0.2112583070993423,0.1535507589578628,0.0,0.0,-0.4427469968795776,0.6982276439666748
-0.1446102112531662,0.5553539395332336,-0.0734741166234016,-0.6059801578521729,-0.2048031389713287,0.1291030496358871,0.0,0.0,0.7630666494369507,-0.712762713432312
-0.1454278975725174,0.5417710542678833,-0.0891750752925872,-0.602677047252655,-0.197337120771408,0.1493200808763504,0.0,0.0,0.6781665086746216,0.5979670286178589
-0.1460104882717132,0.5288445353507996,-0.0645177960395813,-0.5736922025680542,-0.1910466253757476,0.1258099228143692,0.0,0.0,0.5630550384521484,0.2583570480346679
-0.1465938538312912,0.5162439942359924,-0.064066894352436,-0.5592962503433228,-0.1852876096963882,0.11518045514822,0.0,0.0,-0.1957646012306213,0.176925778388977
-0.1471844613552093,0.5031402111053467,-0.0647065564990043,-0.5816943645477295,-0.179617628455162,0.1133991852402687,0.0,0.0,0.6841028928756714,0.3070249557495117
-0.1476641595363617,0.4905884861946106,-0.0534777641296386,-0.5571986436843872,-0.174094021320343,0.1104722470045089,0.0,0.0,-0.5614113807678223,0.623297929763794
-0.1480901688337326,0.4775188267230987,-0.0465904846787452,-0.5804099440574646,-0.1700912863016128,0.0800546035170555,0.0,0.0,0.8868682384490967,0.0444511175155639
-0.148422434926033,0.4645168483257293,-0.0372566953301429,-0.5774114727973938,-0.1660547405481338,0.0807312279939651,0.0,0.0,0.8087408542633057,0.5744302272796631
-0.148527055978775,0.4516211450099945,-0.0135427471250295,-0.5728017091751099,-0.1629706025123596,0.0616827309131622,0.0,0.0,0.8431096076965332,-0.5064079165458679
-0.1483902037143707,0.4391321241855621,0.0091670826077461,-0.5545774698257446,-0.1584533303976059,0.0903452932834625,0.0,0.0,0.7746806144714355,0.2914910316467285
-0.1480301916599273,0.4267318248748779,0.0308800302445888,-0.5505866408348083,-0.1533359140157699,0.1023484319448471,0.0,0.0,0.5504016876220703,0.1012241840362548
-0.147556871175766,0.4148745834827423,0.042322427034378,-0.5264837741851807,-0.1483356356620788,0.1000056266784668,0.0,0.0,0.3956043720245361,-0.217638611793518
-0.1469497680664062,0.403458684682846,0.0556647665798664,-0.5068778991699219,-0.1433068811893463,0.1005753725767135,0.0,0.0,0.3715156316757202,-0.04373699426651
-0.1461459100246429,0.3923395276069641,0.074960172176361,-0.4936742484569549,-0.1378919631242752,0.1082983985543251,0.0,0.0,-0.8141273856163025,-0.2834248542785644
-0.1453243196010589,0.3807170391082763,0.0768093913793563,-0.5160716772079468,-0.1325685828924179,0.1064678281545639,0.0,0.0,-0.0099685192108154,-0.2653266191482544
-0.1444830894470214,0.3685911893844604,0.0788681954145431,-0.5384690165519714,-0.1273359805345535,0.1046519502997398,0.0,0.0,0.4044874906539917,0.0967838764190673
-0.1434555947780609,0.3570395112037658,0.0972475558519363,-0.512945830821991,-0.121860459446907,0.1095104068517685,0.0,0.0,-0.0511416792869567,-0.4504868984222412
-0.1424044668674469,0.3449845910072326,0.0997009128332138,-0.5353432297706604,-0.1164735928177833,0.1077373772859573,0.0,0.0,0.7771933078765869,-0.4831404685974121
-0.1413612365722656,0.3337244689464569,0.099614217877388,-0.5000905394554138,-0.1117931231856346,0.0936091765761375,0.0,0.0,0.134669542312622,-0.2303213477134704
-0.1401777267456054,0.3226653337478637,0.1134395226836204,-0.4911588728427887,-0.1069217175245285,0.0974281579256057,0.0,0.0,0.2803211212158203,0.0643209218978881
-0.138944536447525,0.3119765520095825,0.1186972483992576,-0.4747342765331268,-0.1023258045315742,0.0919180735945701,0.0,0.0,-0.7010082006454468,-0.4593665599822998
-0.1376806199550628,0.3007842302322387,0.1218397468328476,-0.4971307218074798,-0.0978113114833831,0.0902900472283363,0.0,0.0,0.0464800596237182,-0.500541090965271
-0.1364106237888336,0.2895660698413849,0.1215587630867958,-0.4982386231422424,-0.0924101769924163,0.1080227121710777,0.0,0.0,0.3285268545150757,-0.094454824924469
-0.1351556777954101,0.278579831123352,0.1205565556883812,-0.4879829585552215,-0.0875191986560821,0.0978193432092666,0.0,0.0,0.0511865615844726,0.0338250398635864
-0.1339320242404937,0.2676005065441131,0.1179518476128578,-0.4877166450023651,-0.0831443145871162,0.0874979048967361,0.0,0.0,0.7162009477615356,-0.7004221081733704
-0.1325455605983734,0.2572298049926758,0.1326155960559845,-0.4605992436408996,-0.0771793201565742,0.1192999631166458,0.0,0.0,-0.4372645616531372,0.6361045837402344
-0.1310667097568512,0.2463435977697372,0.1433450281620025,-0.4836007058620453,-0.0726783201098442,0.0900201052427291,0.0,0.0,0.3677830696105957,0.0154433250427246
-0.1293834745883941,0.2358858436346054,0.1632793694734573,-0.4645545184612274,-0.0676845461130142,0.0998754426836967,0.0,0.0,0.4432442188262939,-0.3666445016860962
-0.1276344358921051,0.2259411364793777,0.1699996292591095,-0.4417749047279358,-0.0628419294953346,0.0968524292111396,0.0,0.0,-0.3924901485443115,-0.4884170293807983
-0.1258446723222732,0.2154928296804428,0.1741297394037246,-0.4641711413860321,-0.0580537654459476,0.0957633405923843,0.0,0.0,0.0267912149429321,0.0094850063323974
-0.1239450424909591,0.2050764113664627,0.1849518716335296,-0.4627676010131836,-0.0530963242053985,0.0991489589214325,0.0,0.0,0.6054031848907471,-0.586694598197937
-0.1220144256949424,0.195355087518692,0.1869328618049621,-0.4318535029888153,-0.0470341555774211,0.1212432831525802,0.0,0.0,0.0248627662658691,-0.8807624578475952
-0.1200421303510665,0.1858721524477005,0.1893586069345474,-0.421238511800766,-0.0392615012824535,0.1554531008005142,0.0,0.0,-0.0168884992599487,-0.7440605759620667
-0.1180768013000488,0.1758856177330017,0.1873978376388549,-0.4436350464820862,-0.0302430987358093,0.180367961525917,0.0,0.0,0.4229378700256347,-0.8757372498512268
-0.1162392646074295,0.1662048399448394,0.1730241775512695,-0.4300703108310699,-0.0196471251547336,0.2119196355342865,0.0,0.0,0.3940792083740234,0.5084586143493652
-0.1144244223833084,0.1566740572452545,0.1720865368843078,-0.4234983026981354,-0.0103738345205783,0.1854659020900726,0.0,0.0,0.63602614402771,-0.2909393310546875
-0.1125792488455772,0.1474781632423401,0.1752425581216812,-0.4086722433567047,-0.0012200184864923,0.1830764263868332,0.0,0.0,0.1851707696914672,-0.6041670441627502
-0.1107144355773925,0.1383524239063263,0.1759752333164215,-0.4056081175804138,0.0091538066044449,0.207476407289505,0.0,0.0,0.7376531362533569,0.8640899658203125
-0.1085856407880783,0.1292867064476013,0.2038525640964508,-0.4030050933361053,0.0180615242570638,0.1781542897224426,0.0,0.0,0.6758949756622314,-0.5180038213729858
-0.1063578575849533,0.1207624301314354,0.2124265432357788,-0.3790085613727569,0.0282841324806213,0.2044523656368255,0.0,0.0,0.5792691707611084,-0.6706934571266174
-0.1041315048933029,0.1128973364830017,0.2108780592679977,-0.3498189151287079,0.0398945398628711,0.2322079241275787,0.0,0.0,0.1799979209899902,0.0283343791961669
