x_pos,y_pos,x_vel,y_vel,angle,ang_vel,leg_1,leg_2,main_booster,lat_booster
-0.0015225410461425,1.403278350830078,-0.1542653739452362,-0.3396278619766235,0.0018110608216375,0.0357280448079109,0.0,0.0,-0.1807698607444763,0.8756568431854248
-0.0029685019981116,1.3953099250793457,-0.144532173871994,-0.3541556000709533,0.0017395101021975,-0.0014302749186754,0.0,0.0,-0.2235778570175171,0.115631103515625
-0.0044120787642896,1.3869948387145996,-0.1443326771259308,-0.3695563077926636,0.0017150975763797,-0.0004880262131337,0.0,0.0,-0.0376012325286865,0.6364214420318604
-0.0058123590424656,1.3783318996429443,-0.1390398740768432,-0.385023683309555,0.0007302338490262,-0.0196989551186561,0.0,0.0,0.0891401767730712,0.7608131170272827
-0.0070517538115382,1.369970202445984,-0.121558591723442,-0.3716274797916412,-0.0016200080281123,-0.0470091998577117,0.0,0.0,0.0581073760986328,0.3154394626617431
-0.0081984521821141,1.3617839813232422,-0.1127691268920898,-0.3638305068016052,-0.0034925614017993,-0.0374546721577644,0.0,0.0,-0.4723639488220215,0.0785917043685913
-0.0093403812497854,1.353251814842224,-0.1123518571257591,-0.3792097270488739,-0.0053055919706821,-0.0362642742693424,0.0,0.0,-0.1948498487472534,0.3919825553894043
-0.0104769710451364,1.3443738222122192,-0.11188355833292,-0.3945857882499695,-0.0070556919090449,-0.0350053086876869,0.0,0.0,-0.3448505401611328,0.4213173389434814
-0.0116076469421386,1.335149884223938,-0.1113657802343368,-0.4099624454975128,-0.0087404930964112,-0.0336992889642715,0.0,0.0,-0.7756552696228027,-0.2145522832870483
-0.0127320289611816,1.3255798816680908,-0.1107996106147766,-0.4253399968147278,-0.0103576993569731,-0.0323471389710903,0.0,0.0,-0.7039391398429871,0.6825435161590576
-0.0137880323454737,1.3156635761260986,-0.1024761572480201,-0.4407492280006408,-0.0134509168565273,-0.0618700496852397,0.0,0.0,0.3728266954421997,0.6127370595932007
-0.0147180557250976,1.306056261062622,-0.088859923183918,-0.4270339608192444,-0.0175503119826316,-0.0819954648613929,0.0,0.0,-0.2474077939987182,-0.0169872045516967
-0.0156402587890625,1.2961030006408691,-0.0881517678499221,-0.4424180090427398,-0.0215757917612791,-0.0805165395140647,0.0,0.0,-0.8541232943534851,0.0961880683898925
-0.0165541656315326,1.285804033279419,-0.0874023139476776,-0.4577948153018951,-0.0255259163677692,-0.0790094509720802,0.0,0.0,-0.8609617948532104,0.3923156261444092
-0.01745948754251,1.2751593589782717,-0.0866134315729141,-0.4731728434562683,-0.0293990019708871,-0.0774688273668289,0.0,0.0,-0.9091681241989136,-0.5774106979370117
-0.0183931346982717,1.264163613319397,-0.0904751867055893,-0.488761156797409,-0.0322569794952869,-0.0571643225848674,0.0,0.0,-0.6815099716186523,0.2536717653274536
-0.019317340105772,1.252821922302246,-0.0896161645650863,-0.5041394829750061,-0.0350358709692955,-0.0555829405784606,0.0,0.0,-0.7921655178070068,-0.8321911096572876
-0.0202822685241699,1.241129755973816,-0.0950312539935112,-0.5196848511695862,-0.0364730060100555,-0.0287453532218933,0.0,0.0,-0.8056704998016357,-0.2455726265907287
-0.0212370865046978,1.229091763496399,-0.0941104367375373,-0.5350626707077026,-0.0378292985260486,-0.0271282251924276,0.0,0.0,-0.2398396730422973,-0.1302123069763183
-0.0221815109252929,1.216707468032837,-0.0931594967842102,-0.5504401922225952,-0.0391030348837375,-0.0254767294973135,0.0,0.0,-0.6010083556175232,-0.3788439035415649
-0.0231153480708599,1.203977346420288,-0.092180386185646,-0.5658179521560669,-0.0402936860918998,-0.0238152928650379,0.0,0.0,0.0525797605514526,-0.6039946675300598
-0.0240663532167673,1.1913225650787354,-0.0952059924602508,-0.562431275844574,-0.0401891097426414,0.0020914936903864,0.0,0.0,-0.7864373326301575,-0.5236031413078308
-0.025038719177246,1.1783229112625122,-0.0982536599040031,-0.5777348875999451,-0.0391842275857925,0.0200995579361915,0.0,0.0,-0.7958236336708069,-0.1089397668838501
-0.0259998328983783,1.1649773120880127,-0.0972066149115562,-0.5931107997894287,-0.0380947031080722,0.0217924397438764,0.0,0.0,0.1996548175811767,0.5127835273742676
-0.0270035751163959,1.151991605758667,-0.1002898588776588,-0.5771417617797852,-0.0381771400570869,-0.0016487002139911,0.0,0.0,0.1336381435394287,-0.1496152281761169
-0.028077507391572,1.1393682956695557,-0.1069323197007179,-0.5610480904579163,-0.038635965436697,-0.0091766463592648,0.0,0.0,-0.8847864270210266,-0.3211895227432251
-0.0291395187377929,1.126399040222168,-0.1058216840028762,-0.5764234662055969,-0.0390084348618984,-0.0074492944404482,0.0,0.0,-0.6421602368354797,-0.8305465579032898
-0.0302690509706735,1.1130969524383545,-0.1146998777985572,-0.5911549925804138,-0.0372821651399135,0.0345255471765995,0.0,0.0,-0.8207781314849854,0.8658218383789062
-0.0313323959708213,1.0994532108306885,-0.1068079844117164,-0.6063803434371948,-0.0368168577551841,0.0093061886727809,0.0,0.0,-0.8951994776725769,0.3897479772567749
-0.0323832519352436,1.0854634046554563,-0.1056486144661903,-0.6217557191848755,-0.0362639240920543,0.0110589982941746,0.0,0.0,-0.759009063243866,-0.1256324648857116
-0.033421516418457,1.0711275339126587,-0.1044753342866897,-0.6371311545372009,-0.0356229767203331,0.0128188030794262,0.0,0.0,-0.943436086177826,0.2727352380752563
-0.0344470962882041,1.0564457178115845,-0.1032891869544982,-0.6525066494941711,-0.0348937064409256,0.0145849213004112,0.0,0.0,-0.451636791229248,0.0143684148788452
-0.0354597084224224,1.041417956352234,-0.1020911335945129,-0.6678821444511414,-0.0340758822858333,0.0163567960262298,0.0,0.0,-0.6740092635154724,-0.0023193955421447
-0.0364593490958213,1.026044249534607,-0.1008821129798889,-0.6832576394081116,-0.0331691950559616,0.0181338302791118,0.0,0.0,-0.4067212343215942,-0.3443899750709533
-0.0374458320438861,1.0103245973587036,-0.0996629446744918,-0.6986331343650818,-0.0321734175086021,0.0199156031012535,0.0,0.0,-0.1269025802612304,0.1883920431137085
-0.0384192466735839,0.9942588210105896,-0.0984344109892845,-0.714008629322052,-0.0310883242636919,0.0217016823589801,0.0,0.0,-0.0316836833953857,-0.3393468856811523
-0.0393793098628521,0.977847158908844,-0.0971972495317459,-0.7293841242790222,-0.0299137476831674,0.0234916619956493,0.0,0.0,0.0200217962265014,-0.3906592130661011
-0.0402884483337402,0.9617931246757508,-0.0923059731721878,-0.7134875655174255,-0.0285407807677984,0.0274592489004135,0.0,0.0,-0.1353952288627624,-0.2965543270111084
-0.0411842353641986,0.9453931450843812,-0.0910535603761673,-0.7288630604743958,-0.0270779784768819,0.0292558725923299,0.0,0.0,-0.740511417388916,-0.1619200110435485
-0.0420664772391319,0.928646981716156,-0.0897944197058677,-0.7442387342453003,-0.025525202974677,0.031055400148034,0.0,0.0,0.3419880867004394,0.1472666263580322
-0.0430056564509868,0.9125068187713624,-0.095176838338375,-0.7173238396644592,-0.0242835711687803,0.0248328112065792,0.0,0.0,-0.8292354345321655,-0.2223590016365051
-0.0439312942326068,0.8960205912590027,-0.0939058065414428,-0.7326993346214294,-0.0229517072439193,0.0266371276229619,0.0,0.0,-0.1752046346664428,0.1574053764343261
-0.0448431968688964,0.8791883587837219,-0.0926295518875122,-0.7480749487876892,-0.0215295404195785,0.0284434556961059,0.0,0.0,-0.5143042206764221,0.2055848836898803
-0.0457413680851459,0.8620103597640991,-0.0913484990596771,-0.7634506225585938,-0.020016947761178,0.0302515812218189,0.0,0.0,-0.1390843391418457,0.4754084348678589
-0.0466258041560649,0.8444862961769104,-0.0900630578398704,-0.7788263559341431,-0.018413882702589,0.0320612341165542,0.0,0.0,0.2818409204483032,0.3560149669647217
-0.0474559776484966,0.8270040154457092,-0.0848985314369201,-0.7769628167152405,-0.0165553987026214,0.0371697768568992,0.0,0.0,0.3954794406890869,0.5998302698135376
-0.0481622703373432,0.8097363114356995,-0.0715136677026748,-0.7674501538276672,-0.0156819112598896,0.0174698289483785,0.0,0.0,0.6098663806915283,-0.0551652312278747
-0.0489513389766216,0.7933434844017029,-0.0793779641389846,-0.7285601496696472,-0.0152244139462709,0.0091498093679547,0.0,0.0,-0.35201096534729,-0.3069411516189575
-0.0497265830636024,0.7766048312187195,-0.0780784040689468,-0.7439357042312622,-0.0146762318909168,0.0109636085107922,0.0,0.0,-0.4682137966156006,-0.0287062525749206
-0.0504878982901573,0.7595202326774597,-0.0767760798335075,-0.7593112587928772,-0.0140373110771179,0.0127780241891741,0.0,0.0,-0.0022346377372741,-0.1080788969993591
-0.0512352958321571,0.742089569568634,-0.0754712596535682,-0.7746868133544922,-0.0133076682686805,0.0145928133279085,0.0,0.0,-0.0072178840637207,0.0424976348876953
-0.0519685745239257,0.7243130207061768,-0.0741641670465469,-0.7900624871253967,-0.0124872708693146,0.0164078045636415,0.0,0.0,0.2961224317550659,0.3315858840942383
-0.0525979027152061,0.706712007522583,-0.0642445012927055,-0.7822564244270325,-0.0111793866381049,0.0261573605239391,0.0,0.0,-0.0569021105766296,0.701372504234314
-0.0531571395695209,0.6887705326080322,-0.0559276863932609,-0.7973966002464294,-0.0111827347427606,-6.671156734228134e-05,0.0,0.0,0.2588273286819458,0.3536288738250732
-0.0535847656428813,0.6710386276245117,-0.0433779507875442,-0.7880877256393433,-0.0105701657012104,0.0122512076050043,0.0,0.0,0.4719756841659546,0.1769380569458007
-0.054078958928585,0.6535915732383728,-0.0497328117489814,-0.775420069694519,-0.0102607253938913,0.0061886617913842,0.0,0.0,0.2884855270385742,0.7137300968170166
-0.0544139854609966,0.6367352604866028,-0.0325917191803455,-0.7491721510887146,-0.011162169277668,-0.018028812482953,0.0,0.0,0.0849332809448242,0.6201355457305908
-0.0545789711177349,0.6201974153518677,-0.0145718781277537,-0.7350319027900696,-0.0130695318803191,-0.0381472036242485,0.0,0.0,-0.250511884689331,-0.7532005906105042
-0.0547821037471294,0.6033223271369934,-0.019798194989562,-0.7500059008598328,-0.0135740432888269,-0.0100901843979954,0.0,0.0,0.4735292196273803,-0.1798198819160461
-0.0550294890999794,0.5871538519859314,-0.0240008570253849,-0.7186046242713928,-0.0143022909760475,-0.0145650329068303,0.0,0.0,0.3002890348434448,0.2556838989257812
-0.0552183166146278,0.5710757970809937,-0.0184249840676784,-0.7145888209342957,-0.0147537244483828,-0.009028760716319,0.0,0.0,0.1654281616210937,-0.1617661118507385
-0.0554564483463764,0.5553953051567078,-0.0231161825358867,-0.6969155073165894,-0.0154420295730233,-0.0137660400941967,0.0,0.0,-0.0566246509552001,0.3511741161346435
-0.0556805618107318,0.5393689274787903,-0.0217974931001663,-0.7122911214828491,-0.0160400532186031,-0.0119607839733362,0.0,0.0,-0.0455769300460815,0.6985247135162354
-0.0558330528438091,0.5229962468147278,-0.013270953670144,-0.7276976108551025,-0.0179914124310016,-0.0390271767973899,0.0,0.0,0.7342774868011475,0.7124717235565186
-0.0558985695242881,0.5069016814231873,-0.0032524750567972,-0.7153555154800415,-0.0212504435330629,-0.065180703997612,0.0,0.0,0.573723554611206,-0.4498602747917175
-0.0560559257864952,0.4913094043731689,-0.0119728492572903,-0.6930496692657471,-0.0249650552868843,-0.0742921829223632,0.0,0.0,0.395209789276123,-0.5182116627693176
-0.0562024116516113,0.4764617681503296,-0.0120715731754899,-0.6599379181861877,-0.0275116693228483,-0.0509323701262474,0.0,0.0,0.05302095413208,0.4164707660675049
-0.0562773719429969,0.4615455269813537,-0.005256300792098,-0.662983775138855,-0.0297266989946365,-0.0443003624677658,0.0,0.0,0.5785953998565674,-0.0366039276123046
-0.0562882423400878,0.4475052654743194,0.0009476912091486,-0.6240536570549011,-0.0317328572273254,-0.0401235967874527,0.0,0.0,-0.8928031921386719,-0.3576381802558899
-0.0562850944697856,0.4331191182136535,0.0022629301529377,-0.6394293308258057,-0.0336498320102691,-0.0383394435048103,0.0,0.0,0.5356249809265137,0.8499490022659302
-0.0562748908996582,0.4193354845046997,0.0047227209433913,-0.6126911640167236,-0.0373051613569259,-0.0731067433953285,0.0,0.0,0.1025623083114624,-0.1884223222732544
-0.0562146194279193,0.405827522277832,0.0095411473885178,-0.600446879863739,-0.0407768003642559,-0.0694330185651779,0.0,0.0,0.4161458015441894,-0.7520973682403564
-0.0562931075692176,0.393078088760376,-0.0057453075423836,-0.5666972994804382,-0.0428533405065536,-0.0415304340422153,0.0,0.0,-0.4195748567581177,-0.2740926742553711
-0.0563575737178325,0.3799828290939331,-0.0044361478649079,-0.5820730328559875,-0.0448416769504547,-0.0397667661309242,0.0,0.0,0.3275694847106933,-0.0732520818710327
-0.0564210899174213,0.3670143187046051,-0.0042990697547793,-0.5764418840408325,-0.0468674972653389,-0.0405163243412971,0.0,0.0,0.6208399534225464,0.2463663816452026
-0.0563890449702739,0.3541729152202606,0.0048526469618082,-0.5707789659500122,-0.0484972223639488,-0.0325944386422634,0.0,0.0,0.8057594299316406,0.0745929479598999
-0.0563595779240131,0.3415439128875732,0.0046664169058203,-0.5613444447517395,-0.0501996278762817,-0.0340480059385299,0.0,0.0,-0.1158546209335327,0.7301568984985352
-0.0562591552734375,0.3285714089870453,0.0131283793598413,-0.5766661763191223,-0.0532469078898429,-0.0609457492828369,0.0,0.0,0.7806459665298462,-0.9008151888847352
-0.0560731887817382,0.3165768384933471,0.0196046344935894,-0.5331276655197144,-0.0542529597878456,-0.0201210752129554,0.0,0.0,0.5946615934371948,-0.6897783279418945
-0.0560032837092876,0.3054389655590057,0.0067805335856974,-0.4950126409530639,-0.054044559597969,0.004167906474322,0.0,0.0,0.521255612373352,0.0607855319976806
-0.0560221672058105,0.2944214344024658,-0.0016212792834267,-0.4896762669086456,-0.054302129894495,-0.005151433404535,0.0,0.0,0.2089979648590088,0.6118592023849487
-0.0559144988656044,0.2839231491088867,0.0121071618050336,-0.4666377902030945,-0.0556368641555309,-0.0266945175826549,0.0,0.0,0.1774097681045532,-0.7889841198921204
-0.0559154525399208,0.2737052142620086,-0.0003418045816943,-0.4541212320327759,-0.0553874298930168,0.0049884882755577,0.0,0.0,-0.1397943496704101,0.8652461767196655
-0.0558403953909873,0.2631397247314453,0.0087437713518738,-0.4696232676506042,-0.0566194206476211,-0.0246398821473121,0.0,0.0,0.2401454448699951,-0.3722850680351257
-0.0557311996817588,0.2530150711536407,0.0121300658211112,-0.450029581785202,-0.0578106380999088,-0.023824255913496,0.0,0.0,0.1901980638504028,-0.6084004640579224
-0.0555626861751079,0.243170365691185,0.0166357420384883,-0.4375364482402801,-0.057594321668148,0.0043263197876513,0.0,0.0,-0.06285160779953,-0.5371643304824829
-0.0554216392338275,0.2329778224229812,0.0127557162195444,-0.4529500603675842,-0.0562716461718082,0.0264538340270519,0.0,0.0,0.2758427858352661,-0.2657172083854675
-0.055178452283144,0.2228989452123642,0.0225707814097404,-0.447885125875473,-0.054538182914257,0.0346697010099887,0.0,0.0,0.0632425546646118,-0.4325672388076782
-0.0548073761165142,0.2130168229341507,0.0348263457417488,-0.4391250610351562,-0.0522884614765644,0.0449944175779819,0.0,0.0,-0.0599850416183471,-0.3966414928436279
-0.0544232353568077,0.2027887403964996,0.0360569097101688,-0.4545007944107055,-0.0499617308378219,0.0465345531702041,0.0,0.0,0.1331151723861694,-0.4918832182884216
-0.0540042892098426,0.1929869502782821,0.0394823774695396,-0.4355568885803222,-0.0475773774087429,0.0476871579885482,0.0,0.0,0.1061125993728637,-0.2803239822387695
-0.0535276420414447,0.1835987120866775,0.0450813993811607,-0.4171767830848694,-0.0450230799615383,0.0510858707129955,0.0,0.0,0.0875126123428344,-0.6623345613479614
-0.0529780387878418,0.1745223402976989,0.050859086215496,-0.4032769501209259,-0.0409714616835117,0.0810324400663375,0.0,0.0,0.1451648473739624,-0.8346800208091736
-0.0523920059204101,0.1654297262430191,0.0527110211551189,-0.4039654433727264,-0.0351446308195591,0.1165364757180213,0.0,0.0,-0.151644229888916,-0.6847395896911621
-0.0518523231148719,0.1559928506612777,0.0464892163872718,-0.4192575812339782,-0.0277683641761541,0.1475253850221634,0.0,0.0,0.3372623920440674,-0.0453975796699523
-0.0512125976383686,0.1472551375627517,0.056112416088581,-0.388219803571701,-0.0200084913522005,0.1551974415779113,0.0,0.0,0.0454535484313964,-0.4021686315536499
-0.0505684837698936,0.1387127041816711,0.0565658919513225,-0.3795769512653351,-0.0122523754835128,0.1551221013069152,0.0,0.0,0.0670628547668457,0.7035300731658936
-0.0499422065913677,0.1306027770042419,0.0562036857008934,-0.3604043126106262,-0.0059157279320061,0.1267328262329101,0.0,0.0,-0.2685842514038086,-0.3687900304794311
-0.0493043884634971,0.1221473813056945,0.0573026947677135,-0.3757833242416382,0.0004804061027243,0.1279229819774627,0.0,0.0,0.1961065530776977,0.3533515930175781
-0.0486942306160926,0.1141613349318504,0.054661076515913,-0.3549517095088959,0.0067539485171437,0.125471144914627,0.0,0.0,-0.006581425666809,0.888930082321167
-0.0480122566223144,0.1058367565274238,0.063325323164463,-0.3700127601623535,0.0115562193095684,0.0960451513528823,0.0,0.0,0.4497370719909668,-0.6925472021102905
-0.0474035255610942,0.0978183150291442,0.0546100251376628,-0.3564349412918091,0.0177422855049371,0.1237212419509887,0.0,0.0,0.4909846782684326,0.9649821519851683
-0.0468376167118549,0.0902681425213813,0.0523372367024421,-0.3356210887432098,0.0219411738216877,0.0839778184890747,0.0,0.0,0.4629455804824829,-0.3325649499893188
-0.0464050285518169,0.0830633044242858,0.0395914539694786,-0.3202730715274811,0.0255674496293067,0.0725252926349639,0.0,0.0,0.3263475894927978,0.6920058727264404
-0.0458280555903911,0.0763875320553779,0.0552260391414165,-0.2967440783977508,0.0280082859098911,0.0488166883587837,0.0,0.0,0.1822160482406616,0.7006618976593018
-0.0451440811157226,0.0697600468993187,0.0672427266836166,-0.2945761084556579,0.0291533935815095,0.0229021236300468,0.0,0.0,-0.2957299947738647,-0.7740799188613892
-0.0444977767765522,0.0627906620502471,0.062258593738079,-0.3097981512546539,0.0314986780285835,0.046905655413866,0.0,0.0,0.6610984802246094,-0.0950900912284851
-0.0438904762268066,0.0566441155970096,0.0584306009113788,-0.2732305526733398,0.0337653867900371,0.0453342869877815,0.0,0.0,0.2346861362457275,0.8424491882324219
-0.043108083307743,0.0511283501982688,0.0775284171104431,-0.2451619654893875,0.0344748273491859,0.0141888428479433,0.0,0.0,-0.4091489315032959,-0.7003019452095032
-0.0423665046691894,0.0452641807496547,0.0721856206655502,-0.2606745362281799,0.0364198572933673,0.0389005616307258,0.0,0.0,0.2112859487533569,-0.4201421737670898
-0.0416451469063758,0.0399512611329555,0.0701803714036941,-0.2361818999052047,0.0383549816906452,0.0387024544179439,0.0,0.0,0.0527765750885009,0.105748176574707
-0.0408979430794715,0.0350467525422573,0.0725622102618217,-0.2180311232805252,0.0404788553714752,0.0424774065613746,0.0,0.0,0.039160132408142,0.413913369178772
-0.0401061065495014,0.0302317235618829,0.0767893344163894,-0.2140675336122512,0.0428424701094627,0.0472721830010414,0.0,0.0,-0.2084314227104187,0.739072322845459
-0.0392627716064453,0.0250750165432691,0.0831364840269088,-0.2292205244302749,0.044034756720066,0.0238456614315509,0.0,0.0,0.5956312417984009,-0.3836520910263061
-0.038560677319765,0.020309267565608,0.069590725004673,-0.2118313461542129,0.0446495190262794,0.0122953783720731,0.0,0.0,0.1376169919967651,-0.0298381447792053
-0.0378868095576763,0.0157781932502985,0.0668298453092575,-0.201397031545639,0.0451870486140251,0.0107505554333329,0.0,0.0,0.3164615631103515,0.395007848739624
-0.037208653986454,0.0115395160391926,0.0671978294849395,-0.1884045451879501,0.0458071082830429,0.0124013312160968,0.0,0.0,0.5026299953460693,0.0730015039443969
-0.0364243499934673,0.0074531529098749,0.0772595182061195,-0.1816536635160446,0.0469589903950691,0.0230376590043306,0.0,0.0,0.2438938617706298,0.2932628393173218
-0.0355895049870014,0.003797338111326,0.0820110067725181,-0.1625272631645202,0.0484283678233623,0.0293874740600585,0.0,0.0,0.3393009901046753,-0.7623888254165649
-0.0349199287593364,0.0015004015294834,0.0830673426389694,-0.1016664132475853,0.0324396044015884,-0.3198713362216949,0.0,1.0,0.2558027505874634,-0.1902968883514404
