x_pos,y_pos,x_vel,y_vel,angle,ang_vel,leg_1,leg_2,main_booster,lat_booster
-0.0014978408580645,1.4034632444381714,-0.1522194743156433,-0.3314175605773926,0.0021722693927586,0.0428805500268936,0.0,0.0,0.6133935237775523,0.965883551424036
-0.0028383254539221,1.3965396881103516,-0.1347666233778,-0.3077137768268585,0.0028765245806425,0.0140872374176979,0.0,0.0,-0.6021016804175292,0.8551595082064961
-0.0040719984099268,1.3894485235214231,-0.1224012002348899,-0.3151665329933166,0.0019314067903906,-0.0189044531434774,0.0,0.0,0.7286449605310943,-0.7000744930195797
-0.0054727555252611,1.3829772472381592,-0.1406216919422149,-0.2876102030277252,0.0024628164246678,0.0106292404234409,0.0,0.0,0.6866708007356981,-0.7866839984808197
-0.0067687034606933,1.3773460388183594,-0.1324190646409988,-0.2502817213535309,0.0052639534696936,0.056027740240097,0.0,0.0,-0.4286919589978144,0.6619491122864889
-0.0079777715727686,1.3715531826019287,-0.1225390657782554,-0.257468968629837,0.0068721412681043,0.0321668200194835,0.0,0.0,-0.4751974403857097,0.8098451641377528
-0.0091034891083836,1.3655998706817627,-0.1130543947219848,-0.2645977735519409,0.0073544639162719,0.0096471412107348,0.0,0.0,0.3295097195729464,0.9744965014900412
-0.0099957464262843,1.3602713346481323,-0.0882770791649818,-0.2368164360523224,0.0064191659912467,-0.0187080577015876,0.0,0.0,-0.8568342148715886,-0.534625380815522
-0.010910416021943,1.3547868728637695,-0.0920430049300193,-0.2437551468610763,0.0069808363914489,0.0112345172092318,0.0,0.0,0.1436983623050207,-0.7153273397792269
-0.0118661876767873,1.349899411201477,-0.098001480102539,-0.2172321826219558,0.009374676272273,0.0478812009096145,0.0,0.0,0.7171894429768371,0.7065676782443225
-0.0126562118530273,1.3457801342010498,-0.0806486085057258,-0.1830908209085464,0.011009419336915,0.0326979309320449,0.0,0.0,0.8522183947991377,0.8844468864852242
-0.0132781025022268,1.34238862991333,-0.0626650676131248,-0.1507380455732345,0.0114784911274909,0.0093823559582233,0.0,0.0,0.1397882257759304,-0.7938277581459292
-0.0138483997434377,1.3395644426345823,-0.0596128925681114,-0.1255417019128799,0.0140235880389809,0.0509066209197044,0.0,0.0,-0.5829534297989019,0.9803428682934344
-0.0143176075071096,1.3365716934204102,-0.0477173998951911,-0.1330173015594482,0.014818325638771,0.0158961974084377,0.0,0.0,0.2846528923120774,0.912293790647724
-0.0145839694887399,1.3343932628631592,-0.0261286199092865,-0.0968193486332893,0.0143149998039007,-0.0100673167034983,0.0,0.0,-0.1467063900302745,-0.8596530823424827
-0.0148931499570608,1.3320420980453491,-0.0322479680180549,-0.1045101806521415,0.01562543772161,0.0262111909687519,0.0,0.0,0.519874744704035,-0.5628391687153651
-0.0151111604645848,1.3307188749313354,-0.0250136144459247,-0.0588441900908947,0.0188089367002248,0.0636759102344513,0.0,0.0,0.3375062201418268,0.9035410716426548
-0.0151214599609375,1.329687476158142,-0.0029764135833829,-0.0458687655627727,0.0207327399402856,0.0384796783328056,0.0,0.0,0.544827066471687,0.9779776926357772
-0.0149584766477346,1.3296353816986084,0.0157705061137676,-0.0023215773981064,0.0212442185729742,0.0102306772023439,0.0,0.0,0.4794045219339709,-0.99117734949103
-0.0149604799225926,1.3301763534545898,-0.0030481489375233,0.0240059234201908,0.0240681134164333,0.0564828142523765,0.0,0.0,0.0793636570504841,-0.5723645339258916
-0.0149211883544921,1.331299066543579,-0.0006487452774308,0.0498149506747722,0.028592899441719,0.0905038118362426,0.0,0.0,0.209909782488062,0.6943142611125799
-0.0148226739838719,1.3327454328536987,0.0062347524799406,0.064209870994091,0.032167587429285,0.0715001970529556,0.0,0.0,-0.6907190839687958,-0.5192443446468135
-0.0147540094330906,1.3340286016464231,0.0020206000190228,0.0569202788174152,0.0369694977998733,0.0960465148091316,0.0,0.0,-0.3918379515454366,0.5086474361752907
-0.0146393775939941,1.3351478576660156,0.007336133159697,0.0496384724974632,0.0410586856305599,0.0817907080054283,0.0,0.0,0.2031533889322039,-0.71513005147065
-0.014717673882842,1.336800217628479,-0.0136775122955441,0.0732653439044952,0.0468420684337616,0.115678071975708,0.0,0.0,0.4219630682456705,0.773688428204349
-0.0149046899750828,1.339176893234253,-0.023202572017908,0.1054833382368087,0.0512923374772071,0.0890051946043968,0.0,0.0,-0.2769365035107709,-0.8908257616118145
-0.0151650430634617,1.3413933515548706,-0.0327382162213325,0.0982606559991836,0.0579175800085067,0.1325046718120575,0.0,0.0,0.9020423737304624,-0.7096490354087232
-0.0157036781311035,1.3448607921600342,-0.0620137378573417,0.1537677496671676,0.0659777075052261,0.1612025797367096,0.0,0.0,-0.5527811570790013,0.9376813070840496
-0.0161906238645315,1.3481814861297607,-0.0557731799781322,0.1472585499286651,0.0729860663414001,0.1401675194501876,0.0,0.0,0.4249712269735546,-0.6424504011966274
-0.016785716637969,1.3519612550735474,-0.0682615712285041,0.1675354540348053,0.081646092236042,0.1732004582881927,0.0,0.0,-0.7145880756459728,0.5470011003156847
-0.0173451416194438,1.3555926084518433,-0.0639606863260269,0.1609386652708053,0.0895899385213851,0.1588771492242813,0.0,0.0,-0.6219882369041443,0.966950535774231
-0.0178474429994821,1.3590673208236694,-0.0569608882069587,0.1540137678384781,0.096264824271202,0.1334976106882095,0.0,0.0,-0.411778450012207,0.8907711505889893
-0.0183004382997751,1.3623988628387451,-0.050886183977127,0.1477004885673523,0.1018094196915626,0.1108919605612754,0.0,0.0,-0.4899012446403503,0.9282841682434082
-0.0186991691589355,1.3655714988708496,-0.0442013591527938,0.1407145112752914,0.1061043068766594,0.085897609591484,0.0,0.0,-0.4689606428146362,0.5104551315307617
-0.0190694816410541,1.3685916662216189,-0.0406995750963687,0.1339584439992904,0.1097524315118789,0.0729627087712287,0.0,0.0,-0.458890438079834,0.8167192935943604
-0.0193876270204782,1.3714683055877686,-0.0341959297657012,0.1276687383651733,0.1121155321598053,0.047262068837881,0.0,0.0,-0.4292762279510498,0.6074327230453491
-0.0196743011474609,1.374188780784607,-0.030280727893114,0.1207919865846633,0.1137128695845604,0.0319462493062019,0.0,0.0,-0.4488877058029175,0.2097629308700561
-0.0199763290584087,1.3767486810684204,-0.0321994759142398,0.1136225014925003,0.1156979948282241,0.0397026613354682,0.0,0.0,-0.213677704334259,0.4688282012939453
-0.0202943794429302,1.3791481256484983,-0.0341903790831565,0.1064528673887252,0.1180661991238594,0.0473643615841865,0.0,0.0,-0.3343416452407837,0.1411308050155639
-0.0206293109804391,1.3813869953155518,-0.0362480245530605,0.0992830917239189,0.120812252163887,0.0549210123717784,0.0,0.0,-0.4224750995635986,0.2946553230285644
-0.0209815986454486,0.0,-0.038367249071598,0.0921131074428558,0.1239303275942802,0.0623614564538002,0.0,0.0,-0.4760198593139648,0.0323371887207031
-0.0213520042598247,1.385383129119873,-0.0405431576073169,0.084942914545536,0.1274140179157257,0.0696737617254257,0.0,0.0,-0.3601489067077636,0.2623962163925171
-0.0217411033809185,1.3871405124664309,-0.0427711345255374,0.0777724832296371,0.1312562823295593,0.0768452361226081,0.0,0.0,-0.6231352686882019,0.3888882398605346
-0.0221494678407907,1.388737678527832,-0.045046828687191,0.0706018060445785,0.1354493945837021,0.0838622525334358,0.0,0.0,-0.4615994691848755,0.3602334260940552
-0.0225776676088571,1.390174388885498,-0.0473661907017231,0.0634308755397796,0.139984905719757,0.0907103642821312,0.0,0.0,-0.557259738445282,0.5125535726547241
-0.0229824073612689,1.3914544582366943,-0.0442522689700126,0.05653927475214,0.1437535881996154,0.0753735899925232,0.0,0.0,-0.7661043405532837,0.7324297428131104
-0.0233443267643451,1.392584204673767,-0.038681972771883,0.0499574095010757,0.1462347656488418,0.0496236942708492,0.0,0.0,-0.7211647629737854,0.6663533449172974
-0.0236858371645212,1.3935694694519043,-0.0358548015356063,0.0436251275241375,0.1479406654834747,0.0341182611882686,0.0,0.0,-0.6248928904533386,0.6880748271942139
-0.0240075103938579,0.0,-0.0331034287810325,0.0372462347149848,0.148870974779129,0.0186062641441822,0.0,0.0,-0.6645065546035767,0.4350017309188843
-0.0243512149900198,1.3950891494750977,-0.0355900041759014,0.0300769917666912,0.1500892788171768,0.0243658684194087,0.0,0.0,-0.5869005918502808,0.5665618181228638
-0.0246624946594238,1.3956201076507568,-0.0312112122774124,0.0235956590622663,0.1501787900924682,0.0017901554238051,0.0,0.0,-0.7036342024803162,0.5980103015899658
-0.0249546058475971,1.3960041999816897,-0.0284736342728137,0.0171379372477531,0.1494441777467727,-0.0146925691515207,0.0,0.0,-0.7042652368545532,0.0579748153686523
-0.0252696983516216,1.3962273597717283,-0.0310274362564086,0.0099692521616816,0.1489539444446563,-0.0098045915365219,0.0,0.0,-0.6847847700119019,0.4141089916229248
-0.0256083495914936,1.396289944648743,-0.033599354326725,0.0028008082881569,0.1486916542053222,-0.0052455519326031,0.0,0.0,-0.687562108039856,0.2591780424118042
-0.0259707458317279,1.3961914777755735,-0.0361875183880329,-0.0043674004264175,0.1486399471759796,-0.0010342587484046,0.0,0.0,-0.6284157037734985,0.4633780717849731
-0.0263572689145803,1.3959323167800903,-0.0387902036309242,-0.0115353744477033,0.1487804949283599,0.0028109145350754,0.0,0.0,-0.6816413402557373,0.648676872253418
-0.0267102234065532,1.3955312967300415,-0.0340986996889114,-0.0177047569304704,0.1475909203290939,-0.0237914510071277,0.0,0.0,-0.5669561624526978,0.3382319211959839
-0.0270877834409475,1.3949692249298096,-0.0367258042097091,-0.0248723495751619,0.1465544551610946,-0.0207296479493379,0.0,0.0,-0.5516100525856018,0.8756356239318848
-0.0274145118892192,1.3942724466323853,-0.0297799110412597,-0.0306912530213594,0.143677219748497,-0.0575447790324687,0.0,0.0,-0.6316515207290649,0.0867202281951904
-0.0277665145695209,1.3934147357940674,-0.0324260219931602,-0.0378588624298572,0.1409109830856323,-0.0553249232470989,0.0,0.0,-0.7094946503639221,0.2872040271759033
-0.02814407274127,1.3923959732055664,-0.035080000758171,-0.045026134699583,0.138233795762062,-0.0535434260964393,0.0,0.0,-0.7458904385566711,0.3806644678115845
-0.0285476688295602,1.3912161588668823,-0.0377408266067504,-0.0521930903196334,0.135623350739479,-0.0522088035941123,0.0,0.0,-0.3841463327407837,0.0349012613296508
-0.0289774890989065,1.3898755311965942,-0.0404075793921947,-0.0593597441911697,0.1330569833517074,-0.0513271503150463,0.0,0.0,-0.5131462812423706,0.6185810565948486
-0.0293836593627929,1.3883845806121826,-0.0367604233324527,-0.0659210011363029,0.1292272508144378,-0.076594591140747,0.0,0.0,-0.4396491050720215,0.6529107093811035
-0.029764175415039,1.3867383003234863,-0.0328818783164024,-0.0727364867925643,0.1240771785378456,-0.1030013784766197,0.0,0.0,-0.37834632396698,-0.3833757638931274
-0.0301718711853027,1.384930968284607,-0.0355614125728607,-0.0799040123820304,0.1189028099179267,-0.1034875884652137,0.0,0.0,-0.7945825457572937,-0.0882697105407714
-0.0306068416684865,1.3829625844955444,-0.0382440015673637,-0.0870713517069816,0.1136816218495369,-0.1044236794114112,0.0,0.0,-0.3085030913352966,0.1295686960220337
-0.0310693737119436,0.0,-0.0409290976822376,-0.0942385345697403,0.1083915084600448,-0.1058022230863571,0.0,0.0,-0.6251978278160095,-0.1087582111358642
-0.0315597541630268,1.3785431385040283,-0.0436161905527114,-0.1014056280255317,0.1030108407139778,-0.1076133623719215,0.0,0.0,-0.5628392100334167,-0.7718899846076965
-0.0321480743587017,1.3760775327682495,-0.0550975501537323,-0.1093291863799095,0.0992995500564575,-0.0742257609963417,0.0,0.0,-0.7162302732467651,0.258265733718872
-0.0327646248042583,1.3734506368637085,-0.0577875487506389,-0.1164948195219039,0.0954563170671463,-0.076864369213581,0.0,0.0,-0.7306094169616699,0.6495115756988525
-0.0333560928702354,1.3706717491149902,-0.0537374801933765,-0.1231755837798118,0.0901003405451774,-0.1071197763085365,0.0,0.0,-0.764042854309082,0.05600106716156
-0.033976174890995,1.3677315711975098,-0.0564285330474376,-0.1303422600030899,0.0845741406083107,-0.1105238571763038,0.0,0.0,-0.5619489550590515,0.1830567121505737
-0.0346250534057617,1.3646306991577148,-0.0591197237372398,-0.1375090628862381,0.0788599103689193,-0.1142844185233116,0.0,0.0,-0.4511783123016357,-0.4034849405288696
-0.0353028289973735,1.3613685369491575,-0.0618107616901397,-0.144675999879837,0.0729407593607902,-0.1183830723166465,0.0,0.0,-0.6860415935516357,-0.0475155711174011
-0.0360098853707313,1.357945680618286,-0.0645013973116874,-0.1518431603908538,0.0668007135391235,-0.1228009015321731,0.0,0.0,-0.6724234223365784,-0.1778836846351623
-0.0367463119328022,1.3543617725372314,-0.0671913772821426,-0.1590105891227722,0.0604247748851776,-0.1275189220905304,0.0,0.0,-0.8184787631034851,0.4203524589538574
-0.0375121124088764,1.3506168127059937,-0.0698804482817649,-0.166178286075592,0.0537988469004631,-0.1325182765722274,0.0,0.0,-0.8458236455917358,0.2124072313308715
-0.0383074767887592,1.3467113971710205,-0.0725683942437172,-0.1733463555574417,0.0469098202884197,-0.1377803683280944,0.0,0.0,-0.8634844422340393,-0.0718831419944763
-0.0391324982047081,1.3426450490951538,-0.0752549618482589,-0.1805148124694824,0.0397454611957073,-0.1432871967554092,0.0,0.0,-0.9746997356414796,0.1273293495178222
-0.0399873740971088,1.3384180068969729,-0.0779399424791336,-0.1876837313175201,0.0322944186627864,-0.1490212678909301,0.0,0.0,-0.9100190997123718,-0.2725550532341003
-0.0408720970153808,1.3340305089950562,-0.0806230828166008,-0.194853127002716,0.0245461259037256,-0.1549658477306366,0.0,0.0,-0.9718800783157348,0.2937097549438476
-0.0417866706848144,1.3294824361801147,-0.0833041667938232,-0.2020230889320373,0.0164908803999423,-0.1611051112413406,0.0,0.0,-0.9565221667289734,0.350710391998291
-0.0427312850952148,1.3247740268707275,-0.08598293364048,-0.2091936618089676,0.0081196846440434,-0.1674239188432693,0.0,0.0,-0.9442335963249208,0.5523574352264404
-0.0436632148921489,1.319908857345581,-0.0832849293947219,-0.2162104696035385,-0.0016524259699508,-0.1954422295093536,0.0,0.0,-0.9482367038726808,-0.316814661026001
-0.0446250922977924,1.314883828163147,-0.0859583020210266,-0.2233840823173523,-0.0117563437670469,-0.2020781934261322,0.0,0.0,-0.9856315851211548,0.0433741807937622
-0.0456171035766601,1.3096989393234253,-0.0886285975575447,-0.2305585294961929,-0.0221990346908569,-0.2088538408279419,0.0,0.0,-0.9969329833984376,0.0331935882568359
-0.0466393455862998,1.304354548454285,-0.0912955105304718,-0.2377338707447052,-0.0329869240522384,-0.2157577723264694,0.0,0.0,-0.9840471744537354,0.1200795173645019
-0.0476916320621967,1.2988505363464355,-0.093958742916584,-0.2449101656675338,-0.044125884771347,-0.222779244184494,0.0,0.0,-0.9547562599182128,0.0218127965927124
-0.0487741455435752,1.2931872606277466,-0.0966179519891738,-0.2520874440670013,-0.0556212998926639,-0.2299084216356277,0.0,0.0,-0.9473605751991272,-0.0432001948356628
-0.0498868003487587,1.2873647212982178,-0.0992727801203727,-0.2592657506465912,-0.067478097975254,-0.2371363192796707,0.0,0.0,-0.9721962809562684,-0.2663888335227966
-0.0510294921696186,1.2813835144042969,-0.1019228845834732,-0.266445130109787,-0.0797008350491523,-0.2444546520709991,0.0,0.0,-0.9768866300582886,-0.0071881413459777
-0.0522022247314453,1.2752431631088257,-0.1045677810907363,-0.2736256718635559,-0.0922936052083969,-0.251855731010437,0.0,0.0,-0.9830024242401124,-0.5468785166740417
-0.0534412376582622,1.2689435482025146,-0.1117439270019531,-0.2807842493057251,-0.1043547764420509,-0.2412233054637909,0.0,0.0,-0.9766189455986024,-0.5810810327529907
-0.0547601692378521,1.26249098777771,-0.1206277832388877,-0.2876031100749969,-0.1155340000987052,-0.2235846221446991,0.0,0.0,-0.9550542831420898,-0.2674882411956787
-0.0561089515686035,1.2558796405792236,-0.1232536062598228,-0.2947827875614166,-0.1270937770605087,-0.2311956584453582,0.0,0.0,-0.9864544868469238,-0.7068063616752625
-0.0575451850891113,1.249119997024536,-0.1331059038639068,-0.3013584315776825,-0.1375710368156433,-0.2095454931259155,0.0,0.0,-0.9907350540161132,-0.1034976840019226
-0.0590112693607807,1.242201566696167,-0.1357158720493316,-0.3085375428199768,-0.1484344750642776,-0.2172688543796539,0.0,0.0,-0.9632678627967834,-0.8314561247825623
-0.0605623237788677,1.235140323638916,-0.1452617645263672,-0.3148370385169983,-0.1582617759704589,-0.1965461522340774,0.0,0.0,-0.9672558903694152,-0.5274460315704346
-0.0621873848140239,1.2279345989227295,-0.1534454375505447,-0.3212489187717438,-0.167328268289566,-0.181329920887947,0.0,0.0,-0.9764821529388428,-0.7513871788978577
-0.0639081001281738,1.22059166431427,-0.1643349677324295,-0.3272480368614197,-0.1750726848840713,-0.1548883616924286,0.0,0.0,-0.7923082113265991,-0.7224739789962769
-0.0657170265913009,1.213102102279663,-0.1742884218692779,-0.3336621522903442,-0.181705504655838,-0.1326562464237213,0.0,0.0,-0.9352864623069764,-0.3760360479354858
-0.0675554275512695,1.205452799797058,-0.1768440306186676,-0.3408373892307281,-0.1887349486351013,-0.1405887901782989,0.0,0.0,-0.9078686833381652,-0.3444072604179382
-0.0694231986999511,1.1976441144943235,-0.1793862283229828,-0.348013311624527,-0.1961626261472702,-0.148553192615509,0.0,0.0,-0.9611034393310548,-0.5949840545654297
-0.0713575333356857,1.1896905899047852,-0.1866447925567627,-0.3544038236141205,-0.2030027657747268,-0.136802464723587,0.0,0.0,-0.9199355244636536,-0.1248139142990112
-0.0733208656311035,1.1815775632858276,-0.1891563236713409,-0.3615800142288208,-0.2102439552545547,-0.1448234319686889,0.0,0.0,-0.9068456888198853,-0.1034671664237976
-0.0753129944205284,1.1733052730560305,-0.1916507482528686,-0.3687569200992584,-0.2178874164819717,-0.1528692990541458,0.0,0.0,-0.8408671021461487,-0.6422558426856995
-0.0773844718933105,1.16489577293396,-0.2005149871110916,-0.3747484982013702,-0.2245882302522659,-0.1340164244174957,0.0,0.0,-0.6611441969871521,0.2719367742538452
-0.0794842690229415,1.1563267707824707,-0.2029703110456466,-0.3819252848625183,-0.2316935658454895,-0.1421068757772445,0.0,0.0,-0.8831288814544678,-0.4946691989898681
-0.0816123038530349,1.1475985050201416,-0.2054039239883422,-0.3891028165817261,-0.2392044216394424,-0.1502170264720916,0.0,0.0,-0.6283111572265625,-0.144010305404663
-0.0837682709097862,1.1387112140655518,-0.2078140079975128,-0.3962810635566711,-0.2471216917037964,-0.15834541618824,0.0,0.0,-0.6337947845458984,-0.119636595249176
-0.0859519019722938,1.1296647787094116,-0.2101986855268478,-0.4034600853919983,-0.2554462254047394,-0.166490763425827,0.0,0.0,-0.8815225958824158,-0.5548208951950073
-0.0882001891732215,1.1204710006713867,-0.2172212898731231,-0.4099548459053039,-0.2632094919681549,-0.1552652716636657,0.0,0.0,-0.6974223852157593,-0.4141119718551636
-0.0904755592346191,1.1111183166503906,-0.2195485085248947,-0.4171342253684997,-0.2713815569877624,-0.163441315293312,0.0,0.0,-0.6781424283981323,-0.6162642240524292
-0.0928346663713455,1.1016285419464111,-0.2290277481079101,-0.4230566024780273,-0.278449684381485,-0.1413629651069641,0.0,0.0,-0.786839485168457,-0.0781996846199035
-0.0952202826738357,1.0919800996780396,-0.2312878370285034,-0.4302356839179992,-0.2859280109405517,-0.1495657116174698,0.0,0.0,-0.6250326037406921,-0.342308759689331
-0.0976320281624794,1.082172393798828,-0.233510822057724,-0.4374154806137085,-0.2938170433044433,-0.1577803343534469,0.0,0.0,-0.8432614803314209,-0.0131956934928894
-0.1000693291425705,1.0722060203552246,-0.2356939613819122,-0.4445960223674774,-0.3021173477172851,-0.1660060733556747,0.0,0.0,-0.8262044191360474,-0.9205656051635742
-0.1025890335440635,1.062111735343933,-0.2450718581676483,-0.4500828087329864,-0.3092550337314605,-0.1427544355392456,0.0,0.0,-0.4077165126800537,-0.8923222422599792
-0.10519590228796,1.0518972873687744,-0.2550861239433288,-0.4551760852336883,-0.3150538802146911,-0.1159771084785461,0.0,0.0,-0.6506970524787903,-0.826216995716095
-0.1078843101859092,1.0415420532226562,-0.2642982006072998,-0.4612273275852203,-0.3197687566280365,-0.0942975580692291,0.0,0.0,-0.2848685979843139,0.4462616443634033
