x_pos,y_pos,x_vel,y_vel,angle,ang_vel,leg_1,leg_2,main_booster,lat_booster
-0.001495647476986,1.4032331705093384,-0.1512535512447357,-0.3416426479816437,0.0015038930578157,0.0296466462314128,0.0,0.0,-0.1571106937757964,-0.6426078750385223
-0.0030097006820142,1.3951749801635742,-0.1537962704896927,-0.3581520318984985,0.0038802761118859,0.0475328788161277,0.0,0.0,-0.3860244474358412,-0.6465224208949627
-0.004535102751106,1.386719822883606,-0.155692845582962,-0.3757895231246948,0.0070005054585635,0.0624099895358085,0.0,0.0,0.900630378518962,0.7460160158516915
-0.0061263083480298,1.378732204437256,-0.1601579487323761,-0.3550086319446563,0.0080268708989024,0.0205292645841836,0.0,0.0,-0.5955141971301281,-0.8898918834656403
-0.0077443122863769,1.3703553676605225,-0.1639813184738159,-0.37232106924057,0.0101874377578496,0.0432154312729835,0.0,0.0,0.7620028283107869,-0.5010159474579963
-0.0092239379882812,1.362457036972046,-0.1513779759407043,-0.3510604798793793,0.0135608725249767,0.0674750655889511,0.0,0.0,0.0466891615683482,-0.8889640324777222
-0.0107671739533543,1.3547145128250122,-0.1592557877302169,-0.3441665470600128,0.0184392519295215,0.0975764393806457,0.0,0.0,0.5240009186155008,0.884163971759305
-0.0120685575529932,1.3474845886230469,-0.1332656294107437,-0.3213723301887512,0.0215381253510713,0.0619829967617988,0.0,0.0,-0.991575063141506,0.6939619065057452
-0.013288116082549,1.3398725986480713,-0.1234683021903038,-0.3383385241031647,0.0230396017432212,0.0300319492816925,0.0,0.0,-0.1179390516980407,0.9351521494246672
-0.0144056323915719,1.3318774700164795,-0.1111529916524887,-0.3553260862827301,0.022441279143095,-0.0119671383872628,0.0,0.0,-0.865094697080039,0.9608270055092794
-0.0154081340879201,1.323494791984558,-0.0971961170434951,-0.3725253343582153,0.0194195955991745,-0.0604392476379871,0.0,0.0,0.1587437849066135,-0.7047840942779563
-0.0163886062800884,1.315274715423584,-0.0962271764874458,-0.3653060495853424,0.0176209025084972,-0.0359772220253944,0.0,0.0,-0.0554723488001669,0.6995261845258847
-0.0172734260559082,1.306668996810913,-0.084707885980606,-0.3824447393417358,0.0138901742175221,-0.0746213793754577,0.0,0.0,-0.1686783456262497,-0.5641907311380059
-0.0181687362492084,1.2976657152175903,-0.086527407169342,-0.4001150131225586,0.0109096858650445,-0.0596149787306785,0.0,0.0,-0.7001093427785261,-0.6900012699510396
-0.019077206030488,1.2882778644561768,-0.0886482372879982,-0.4172280132770538,0.0087368972599506,-0.0434592589735984,0.0,0.0,-0.7890028827053339,0.9314053251567048
-0.0198699943721294,1.2784889936447144,-0.0746319666504859,-0.4350433349609375,0.0041430937126278,-0.0918846726417541,0.0,0.0,0.0754342027932026,-0.922891997399135
-0.0206027030944824,1.2691550254821775,-0.0702495947480201,-0.4148328006267547,0.0011499845422804,-0.059867400676012,0.0,0.0,-0.1279786961376621,0.5590356851172795
-0.0212520603090524,1.259425163269043,-0.0602898523211479,-0.4324385523796081,-0.0034478479065001,-0.0919649228453636,0.0,0.0,0.6675924114471461,0.995387974300458
-0.021680450066924,1.250528335571289,-0.0360957756638526,-0.3954434394836426,-0.0101085333153605,-0.1332257986068725,0.0,0.0,-0.3801280550201424,0.6808729761944321
-0.0220332145690917,1.2412396669387815,-0.027129840105772,-0.4129035770893097,-0.0181645508855581,-0.1611350774765014,0.0,0.0,0.8765209279738841,0.9649537370482046
-0.0221040733158588,1.232842206954956,0.0029513740446418,-0.3733671605587005,-0.028087293729186,-0.1984731554985046,0.0,0.0,0.8978313455332354,-0.631259361832338
-0.0221672058105468,1.224814534187317,0.0026435442268848,-0.3569749295711517,-0.0369340404868125,-0.1769508123397827,0.0,0.0,-0.1078615375149067,0.5922712477066933
-0.0221442226320505,1.2163927555084229,0.0128960283473134,-0.374588131904602,-0.0474255196750164,-0.2098485678434372,0.0,0.0,-0.8702081940108914,0.5228881463231603
-0.0220461841672658,1.20757257938385,0.0217810794711112,-0.3924296796321869,-0.0592860579490661,-0.2372316569089889,0.0,0.0,-0.6532188716578866,-0.602381164079492
-0.021977711468935,1.1983697414398191,0.017528411000967,-0.4094704389572143,-0.0698681473731994,-0.2116607129573822,0.0,0.0,0.5576198380872945,0.856787342400032
-0.0219204910099506,1.189763069152832,0.0185613576322793,-0.3831696212291717,-0.0825786590576171,-0.2542102336883545,0.0,0.0,0.7907622804452898,-0.562212461418478
-0.0218091960996389,1.1819528341293335,0.0230149738490581,-0.3478213548660278,-0.0943519845604896,-0.2354664802551269,0.0,0.0,0.5897848432472319,0.8795094335422975
-0.0216645244508981,1.1749589443206787,0.0284978356212377,-0.3117901682853699,-0.1082673445343971,-0.278307557106018,0.0,0.0,-0.857445975401258,0.6643434856443338
-0.0214495658874511,1.167575478553772,0.0367320924997329,-0.329328328371048,-0.1234040260314941,-0.3027337193489074,0.0,0.0,-0.2660937605216518,0.910981462580452
-0.0211368557065725,1.1597880125045776,0.0484175011515617,-0.3476076126098633,-0.1404775381088256,-0.3414703011512756,0.0,0.0,0.132619812416195,-0.6176439693471587
-0.0207471847534179,1.1524895429611206,0.0549750626087188,-0.3259645998477936,-0.1564663201570511,-0.3197757005691528,0.0,0.0,-0.8338675498962402,-0.8917921185493469
-0.0204078666865825,1.144816756248474,0.0480717793107032,-0.3425680994987488,-0.1706113219261169,-0.2829001545906067,0.0,0.0,-0.9089232087135316,-0.988833487033844
-0.0201261527836322,1.1367868185043335,0.0401904955506324,-0.3583067655563354,-0.1826606541872024,-0.2409866601228714,0.0,0.0,-0.7255452871322632,-0.9851691126823424
-0.0199013706296682,1.128382444381714,0.0324509441852569,-0.3747926950454712,-0.1926875114440918,-0.2005367279052734,0.0,0.0,-0.9834489226341248,-0.9649021029472352
-0.0197205543518066,1.119611382484436,0.0263210870325565,-0.3909158110618591,-0.2009790539741516,-0.1658305376768112,0.0,0.0,-0.960886538028717,-0.9815859198570251
-0.0195837970823049,1.1104798316955566,0.0201372876763343,-0.4067356884479522,-0.2074974626302719,-0.1303681880235672,0.0,0.0,-0.8411247730255127,-0.9879537224769592
-0.0194991119205951,1.100978136062622,0.0130164995789527,-0.4229457676410675,-0.2120852172374725,-0.0917549431324005,0.0,0.0,-0.6258147954940796,-0.9897475838661194
-0.0194565765559673,1.091116189956665,0.0070729232393205,-0.4387169480323791,-0.2149346023797989,-0.0569876953959465,0.0,0.0,-0.9221134781837464,-0.9433572888374328
-0.0194619186222553,1.0808988809585571,0.0004038906190544,-0.4542358815670013,-0.2158799469470977,-0.0189070329070091,0.0,0.0,-0.6823871731758118,-0.8933618068695068
-0.0195046421140432,1.070313572883606,-0.0049247788265347,-0.4703716337680816,-0.2152308672666549,0.0129817621782422,0.0,0.0,-0.8695510029792786,-0.810695469379425
-0.01959228515625,1.0593678951263428,-0.0111949238926172,-0.4861177504062652,-0.2127695381641388,0.0492262467741966,0.0,0.0,-0.9436222910881042,-0.8627452850341797
-0.0197053905576467,1.048046588897705,-0.0150107415392994,-0.5026363730430603,-0.209037035703659,0.0746500045061111,0.0,0.0,-0.7164669036865234,-0.9716758728027344
-0.0198554992675781,1.036344289779663,-0.0202312804758548,-0.5193773508071899,-0.2037746012210846,0.1052488088607788,0.0,0.0,-0.98466819524765,-0.5976381301879883
-0.0200171470642089,1.0242620706558228,-0.0222856886684894,-0.5361562371253967,-0.1976045817136764,0.1234000772237777,0.0,0.0,-0.953888773918152,-0.7289912104606628
-0.0202131271362304,1.0117992162704468,-0.0271908976137638,-0.5529166460037231,-0.1899659186601638,0.1527731418609619,0.0,0.0,-0.9631997346878052,-0.2567753195762634
-0.0203823093324899,0.9989457726478576,-0.0244389120489358,-0.5703133344650269,-0.1824095249176025,0.1511278450489044,0.0,0.0,-0.981657087802887,-0.5212256908416748
-0.0205617900937795,0.985709547996521,-0.0263323839753866,-0.5872716903686523,-0.1739914864301681,0.1683609187602996,0.0,0.0,-0.9683274626731871,-0.3900058269500732
-0.0207150466740131,0.9720830321311952,-0.023656528443098,-0.6046691536903381,-0.1656433641910553,0.1669620722532272,0.0,0.0,-0.954745888710022,0.2416061162948608
-0.0208424571901559,0.9580661654472352,-0.0210237894207239,-0.6220663189888,-0.1573591083288192,0.1656846404075622,0.0,0.0,-0.9007188677787781,0.4572987556457519
-0.0209444053471088,0.943659245967865,-0.0184380356222391,-0.6394632458686829,-0.1491327583789825,0.1645270138978958,0.0,0.0,-0.9276048541069032,0.6644240617752075
-0.0209572799503803,0.9288470149040222,-0.0078255627304315,-0.6576772332191467,-0.1426040232181549,0.1305746287107467,0.0,0.0,-0.9606183767318726,-0.1846867203712463
-0.0209457390010356,0.9136440753936768,-0.0053461831994354,-0.6750717759132385,-0.1361214369535446,0.1296515017747879,0.0,0.0,-0.9662044048309326,0.1605865955352783
-0.020910358056426,0.8980506658554077,-0.0029272972606122,-0.6924661993980408,-0.129679337143898,0.1288423091173172,0.0,0.0,-0.9566795229911804,-0.0675135254859924
-0.020851707085967,0.882066547870636,-0.0005740295746363,-0.7098605036735535,-0.123272106051445,0.1281445920467376,0.0,0.0,-0.9130848050117492,0.1602298021316528
-0.0207704547792673,0.8656917810440063,0.0017081750556826,-0.7272547483444214,-0.116894319653511,0.1275557428598404,0.0,0.0,-0.9472283720970154,0.4941675662994385
-0.0206674579530954,0.8489261865615845,0.0039135674014687,-0.744648814201355,-0.1105406582355499,0.1270731091499328,0.0,0.0,-0.8228729963302612,0.4707080125808716
-0.0205432884395122,0.8317698836326599,0.0060361078940331,-0.7620429396629333,-0.1042059734463691,0.1266937553882599,0.0,0.0,-0.8411672711372375,0.5907554626464844
-0.0203415863215923,0.8142160773277283,0.0152578633278608,-0.779830813407898,-0.0993324667215347,0.0974699556827545,0.0,0.0,-0.839815080165863,0.6916099786758423
-0.0200588218867778,0.7962693572044373,0.0249247811734676,-0.7974185943603516,-0.0960155725479126,0.0663384720683097,0.0,0.0,-0.7063193917274475,0.2827054262161255
-0.019757842645049,0.7779313325881958,0.0267604440450668,-0.814810037612915,-0.092703066766262,0.0662501156330108,0.0,0.0,-0.6679561138153076,0.2359952926635742
-0.0194395072758197,0.7592021822929382,0.0284868869930505,-0.8322015404701233,-0.0893904864788055,0.0662517845630645,0.0,0.0,-0.7206389904022217,0.1194400787353515
-0.019105052575469,0.7400819659233093,0.0300972461700439,-0.849592924118042,-0.0860734954476356,0.0663397461175918,0.0,0.0,-0.6609430909156799,0.4282622337341308
-0.0187556259334087,0.7205705046653748,0.0315847024321556,-0.8669843077659607,-0.0827479884028434,0.0665100961923599,0.0,0.0,-0.1718206405639648,0.2876738309860229
-0.0183925628662109,0.7006679773330688,0.0329425856471061,-0.8843756914138794,-0.0794100388884544,0.0667587667703628,0.0,0.0,0.1501863002777099,0.2865571975708008
-0.017989445477724,0.6807910203933716,0.0368964821100235,-0.8832486867904663,-0.0760307759046554,0.0675852000713348,0.0,0.0,-0.3908423185348511,0.1784199476242065
-0.0175753589719533,0.6605228185653687,0.0379762388765811,-0.900640070438385,-0.0726318806409835,0.0679777711629867,0.0,0.0,0.256570816040039,-0.3322714567184448
-0.0170881263911724,0.6408354043960571,0.0451860651373863,-0.8748276829719543,-0.0691345855593681,0.0699460208415985,0.0,0.0,-0.2631335854530334,-0.5730265974998474
-0.0166323669254779,0.6207541823387146,0.041031364351511,-0.8922963738441467,-0.0646276995539665,0.0901376083493232,0.0,0.0,0.1373242139816284,-0.1110853552818298
-0.0161134712398052,0.6011598706245422,0.0472205653786659,-0.8706685304641724,-0.0600060820579528,0.0924323052167892,0.0,0.0,0.3652057647705078,-0.7293327450752258
-0.0157104488462209,0.5817700624465942,0.0342589169740676,-0.861541211605072,-0.0540351830422878,0.1194179207086563,0.0,0.0,0.5259593725204468,0.2254821062088012
-0.015355110168457,0.5629329085350037,0.0298642963171005,-0.8370105624198914,-0.0484231673181057,0.1122403293848037,0.0,0.0,0.5088560581207275,0.4514110088348388
-0.0149423601105809,0.5445544719696045,0.0354247018694877,-0.8166425824165344,-0.0426458269357681,0.1155471354722976,0.0,0.0,0.5810904502868652,0.8148176670074463
-0.0145672801882028,0.5270099639892578,0.033480267971754,-0.7796456217765808,-0.0386746451258659,0.0794237852096557,0.0,0.0,0.0353413820266723,-0.234431505203247
-0.0141339302062988,0.5096141695976257,0.0390671864151954,-0.7730429172515869,-0.0344520062208175,0.0844525694847107,0.0,0.0,-0.199654221534729,0.0102046728134155
-0.0137038230895996,0.4918273091316223,0.0387034378945827,-0.7904348969459534,-0.0301898662000894,0.085242785513401,0.0,0.0,0.3913886547088623,0.4375694990158081
-0.0132129667326807,0.4740572869777679,0.0444606356322765,-0.7896941900253296,-0.0256225708872079,0.0913458839058876,0.0,0.0,0.6450028419494629,0.2321969270706176
-0.0127512933686375,0.4564042091369629,0.0416440963745117,-0.7845116257667542,-0.0211601518094539,0.0892485603690147,0.0,0.0,0.9065955877304076,0.1334818601608276
-0.0122879026457667,0.43973308801651,0.0418226532638073,-0.7408804297447205,-0.0167016293853521,0.0891702398657798,0.0,0.0,0.75782310962677,0.2027984857559204
-0.0117342947050929,0.4239705801010132,0.0503991432487964,-0.7005071640014648,-0.0118087129667401,0.0978584811091423,0.0,0.0,0.4458304643630981,0.0144591331481933
-0.0112814903259277,0.4088916778564453,0.0407491438090801,-0.6701444983482361,-0.0073301596567034,0.0895711332559585,0.0,0.0,-0.5525252819061279,-0.2803374528884887
-0.0108409877866506,0.3934217691421509,0.0394722670316696,-0.6875367760658264,-0.0028126782272011,0.0903495103120803,0.0,0.0,0.0592981576919555,-0.2527328729629516
-0.010386848822236,0.3783210217952728,0.0406716838479042,-0.6711442470550537,0.0018620304763317,0.0934944450855255,0.0,0.0,0.5035841464996338,0.3970451354980469
-0.010040950961411,0.363614559173584,0.0302494429051876,-0.6536301374435425,0.0061460887081921,0.0856813192367553,0.0,0.0,0.6525888442993164,0.3988435268402099
-0.0097702024504542,0.3495336174964905,0.0229518599808216,-0.6258441805839539,0.0102104004472494,0.0812861397862434,0.0,0.0,0.7328788042068481,0.1733754873275756
-0.0095369340851902,0.3361614942550659,0.0192399304360151,-0.5943504571914673,0.0142481764778494,0.0807553753256797,0.0,0.0,0.547223687171936,0.6761000156402588
-0.0091870306059718,0.3232186436653137,0.0320571586489677,-0.5752698183059692,0.0171531550586223,0.0580994561314582,0.0,0.0,0.5221799612045288,0.6780233383178711
-0.0087842941284179,0.3103528320789337,0.0386275574564933,-0.5718319416046143,0.018783675506711,0.0326103046536445,0.0,0.0,0.2236764430999755,0.1949870586395263
-0.0083387373015284,0.2975449562072754,0.042548656463623,-0.5692625641822815,0.0207541063427925,0.0394087806344032,0.0,0.0,0.5218386650085449,-0.0594351291656494
-0.0077900886535644,0.2851389944553375,0.0522199049592018,-0.5514147877693176,0.023369712755084,0.0523124039173126,0.0,0.0,0.4719659090042114,-0.0838043093681335
-0.007147598080337,0.2728731632232666,0.0610016398131847,-0.5452022552490234,0.0265740063041448,0.0640857368707656,0.0,0.0,0.3393251895904541,0.0162935256958007
-0.0065488815307617,0.2611292898654938,0.0566407665610313,-0.5220142602920532,0.0297666434198617,0.0638526380062103,0.0,0.0,-0.0229838490486145,-0.2923265695571899
-0.0059739113785326,0.2489941865205764,0.0542659759521484,-0.5394055843353271,0.0329640321433544,0.0639477297663688,0.0,0.0,0.8330984115600586,-0.3335102200508117
-0.0053095817565917,0.2375843673944473,0.062555231153965,-0.5071920156478882,0.0368001833558082,0.0767228454351425,0.0,0.0,0.3405307531356811,-0.5752235651016235
-0.0046359063126146,0.2261769622564315,0.0621441900730133,-0.507131814956665,0.0419623665511608,0.103243663907051,0.0,0.0,0.5651565790176392,0.3807682991027832
-0.0040577887557446,0.2150985151529312,0.0528339333832263,-0.492523580789566,0.046882577240467,0.0984042212367057,0.0,0.0,0.5979105234146118,0.2644362449645996
-0.0034630775917321,0.2048851549625396,0.0541239082813262,-0.4541022181510925,0.0521636493504047,0.1056213155388832,0.0,0.0,0.5931787490844727,0.4121428728103637
-0.0029461861122399,0.1951012462377548,0.0464839860796928,-0.4350308179855346,0.0573165938258171,0.1030587330460548,0.0,0.0,0.3056879043579101,-0.3420617580413818
-0.0025905608199536,0.1858593523502349,0.0308460108935832,-0.4109373390674591,0.0619838461279869,0.0933447778224945,0.0,0.0,0.5595449209213257,0.2865010499954223
-0.0022212981712073,0.1772203594446182,0.0318667031824588,-0.3841744363307953,0.0669934749603271,0.1001922339200973,0.0,0.0,0.6038534641265869,-0.1813453435897827
-0.0019804954063147,0.1692752242088318,0.0192999951541423,-0.3533403277397156,0.0717178508639335,0.0944875627756118,0.0,0.0,0.4670579433441162,-0.343968391418457
-0.0018890381325036,0.1619258970022201,0.0047721853479743,-0.3268532752990722,0.0760502442717552,0.0866475701332092,0.0,0.0,-0.292356014251709,0.7175434827804565
-0.0017719268798828,0.1541891247034073,0.008786154910922,-0.3440049290657043,0.0789534300565719,0.0580635890364646,0.0,0.0,0.6737165451049805,-0.517698347568512
-0.0018983840709552,0.1469530165195465,-0.016201876103878,-0.3217968940734863,0.0824730843305587,0.0703929737210273,0.0,0.0,-0.0910780429840087,0.7722810506820679
-0.0020083426497876,0.1393295377492904,-0.0133170541375875,-0.3389490246772766,0.0847636088728904,0.045810543000698,0.0,0.0,0.2023632526397705,0.2258099317550659
-0.0021155357826501,0.1321062445640564,-0.0133005380630493,-0.3211842477321625,0.0873270630836486,0.051268883049488,0.0,0.0,0.0829894542694091,0.2083611488342285
-0.0022336007095873,0.1248583421111106,-0.0144886644557118,-0.3222886919975281,0.08998454362154,0.0531498193740844,0.0,0.0,0.114166259765625,0.9054021835327148
-0.0022425651550292,0.1180198490619659,-0.0016697205137461,-0.3039793670177459,0.0907528921961784,0.015367018058896,0.0,0.0,0.303157091140747,0.3066291809082031
-0.0023552894126623,0.1117018535733223,-0.011858757585287,-0.2808338105678558,0.0913288295269012,0.0115189477801322,0.0,0.0,-0.2255215048789978,0.2592906951904297
-0.0024986267089843,0.1049924716353416,-0.0148035716265439,-0.2982234358787536,0.0917872413992881,0.0091684479266405,0.0,0.0,0.2116426229476928,0.7195250988006592
-0.0025922774802893,0.0985431522130966,-0.0083292350172996,-0.2865731418132782,0.0907625630497932,-0.0204939357936382,0.0,0.0,0.1771460771560669,0.5683499574661255
-0.0027308464050292,0.0925824269652366,-0.0115374643355607,-0.2647803425788879,0.0884581506252288,-0.0460880845785141,0.0,0.0,0.0900603532791137,0.0219001770019531
-0.0029067993164062,0.0870120152831077,-0.0153055507689714,-0.2474388480186462,0.086195208132267,-0.0452589206397533,0.0,0.0,0.200429081916809,0.7902889251708984
-0.0030136108398437,0.0815609768033027,-0.0067143579944968,-0.2420459538698196,0.082266479730606,-0.0785744041204452,0.0,0.0,0.3582196235656738,-0.3539366126060486
-0.0032939910888671,0.0764662101864814,-0.0234386436641216,-0.2261887937784195,0.0777113884687423,-0.0911021754145622,0.0,0.0,0.1924718618392944,0.5466910600662231
-0.0036933899391442,0.0715276598930358,-0.0338645055890083,-0.2191846966743469,0.0717013329267501,-0.1202008947730064,0.0,0.0,-0.2178108096122741,0.8868334293365479
-0.0040571214631199,0.0662052258849144,-0.0284034200012683,-0.2361942082643509,0.0638099312782287,-0.157828077673912,0.0,0.0,-0.1038788557052612,0.7408099174499512
-0.0043919561430811,0.06049669906497,-0.023756518959999,-0.2533233165740967,0.0541931875050067,-0.1923349201679229,0.0,0.0,0.4526766538619995,0.2579689025878906
-0.0046614645980298,0.0548809394240379,-0.0175611637532711,-0.2492774575948715,0.0449117608368396,-0.1856284290552139,0.0,0.0,0.4231966733932495,-0.3085697889328003
-0.0049058916047215,0.0497632138431072,-0.0152357323095202,-0.2272061556577682,0.035814382135868,-0.1819475591182708,0.0,0.0,0.3648260831832886,-0.4874222874641418
-0.0051860809326171,0.0452552400529384,-0.0186784192919731,-0.2001602053642273,0.0266001112759113,-0.1842855811119079,0.0,0.0,-0.3061321973800659,-0.6946918368339539
-0.0055477144196629,0.0403471551835536,-0.0278655942529439,-0.2180101126432418,0.0184012372046709,-0.1639773547649383,0.0,0.0,0.1630030870437622,-0.3438887000083923
