x_pos,y_pos,x_vel,y_vel,angle,ang_vel,leg_1,leg_2,main_booster,lat_booster
-0.0015925407642498,1.4034584760665894,-0.1616452932357788,-0.3316231071949005,0.0021416433155536,0.0422739163041114,0.0,0.0,-0.3453075289726257,0.8807766437530518
-0.0031795501708984,1.3958501815795898,-0.1592278778553009,-0.3381457924842834,0.0026644566096365,0.0104581471532583,0.0,0.0,-0.2167359590530395,0.5816895961761475
-0.0047801970504224,1.3880715370178225,-0.1595063805580139,-0.3457173407077789,0.0021111771930009,-0.0110663557425141,0.0,0.0,-0.3056981563568115,0.6000505685806274
-0.0064125061035156,1.3801251649856567,-0.1620498299598693,-0.3531739115715027,0.0009368408937007,-0.0234889108687639,0.0,0.0,-0.3428499698638916,0.7580180168151855
-0.0080422405153512,1.3720152378082275,-0.1602800786495208,-0.3604357838630676,-0.0017231848323717,-0.0532057583332061,0.0,0.0,-0.100648283958435,0.0725222826004028
-0.0097416881471872,1.3637397289276123,-0.1675938069820404,-0.3678086996078491,-0.0040455227717757,-0.0464506782591342,0.0,0.0,-0.3365345001220703,0.8753213882446289
-0.0114445686340332,1.3552979230880735,-0.1666001677513122,-0.3752042055130005,-0.0076967189088463,-0.0730307400226593,0.0,0.0,-0.3164498805999756,0.1627002954483032
-0.0132172582671046,1.3466904163360596,-0.1739293038845062,-0.3825776875019073,-0.0110052451491355,-0.0661764740943908,0.0,0.0,-0.2055807113647461,0.7525982856750488
-0.0150017738342285,1.3379243612289429,-0.1739749014377594,-0.3896412551403045,-0.0154305985197424,-0.0885151177644729,0.0,0.0,-0.0060675740242004,0.6618726253509521
-0.0168040283024311,1.328995704650879,-0.1747780740261078,-0.3968990743160248,-0.0208184868097305,-0.1077676564455032,0.0,0.0,0.0925780534744262,0.5962703227996826
-0.0185572616755962,1.3204878568649292,-0.169136643409729,-0.3782205283641815,-0.0269381236284971,-0.1224039793014526,0.0,0.0,0.0367958545684814,0.771223783493042
-0.0202592853456735,1.312305569648743,-0.1628453433513641,-0.3638081550598144,-0.0342058166861534,-0.1453674286603927,0.0,0.0,-0.6441438794136047,-0.0928913950920105
-0.022031020373106,1.3039578199386597,-0.1701839864253997,-0.3711861073970794,-0.0411213226616382,-0.1383225619792938,0.0,0.0,-0.523524284362793,0.6128444671630859
-0.0238188747316598,1.295435667037964,-0.1707871854305267,-0.3789988160133362,-0.0490396954119205,-0.158381849527359,0.0,0.0,-0.0397404432296752,0.6167361736297607
-0.0256163589656353,1.286750316619873,-0.1705785095691681,-0.3863385021686554,-0.0581119321286678,-0.1814611256122589,0.0,0.0,-0.6227037310600281,0.8336154222488403
-0.027406120672822,1.2778836488723757,-0.1682081222534179,-0.3945291638374328,-0.0687858015298843,-0.2134972065687179,0.0,0.0,-0.7390866279602051,0.510778546333313
-0.0292157176882028,1.2688530683517456,-0.1693008244037628,-0.4019311964511871,-0.0803467109799385,-0.2312390804290771,0.0,0.0,-0.9062290787696838,0.2984406948089599
-0.0310946460813283,0.0,-0.1766128242015838,-0.4093140661716461,-0.0915483459830284,-0.2240528315305709,0.0,0.0,-0.7727410197257996,0.4726964235305786
-0.0330430045723915,1.250298023223877,-0.1839187294244766,-0.416696161031723,-0.1023900657892227,-0.2168537825345993,0.0,0.0,-0.7456287145614624,0.6488147974014282
-0.0350164398550987,1.2407662868499756,-0.1856778562068939,-0.4244711995124817,-0.1139900237321853,-0.2320198714733123,0.0,0.0,-0.7887105941772461,0.715552568435669
-0.0369904525578022,1.231063723564148,-0.1843830794095993,-0.432275116443634,-0.1269535571336746,-0.2592937648296356,0.0,0.0,-0.553007960319519,0.6767640113830566
-0.0389795303344726,1.2211827039718628,-0.1848979890346527,-0.4404074251651764,-0.1409318000078201,-0.2795902192592621,0.0,0.0,-0.4288414716720581,0.0914056301116943
-0.0410373695194721,0.0,-0.1921535432338714,-0.447795420885086,-0.1545457690954208,-0.2723039984703064,0.0,0.0,-0.6630606651306152,0.0787385702133178
-0.0431635864078998,0.0,-0.1993954926729202,-0.4551830291748047,-0.1677953451871872,-0.2650154531002044,0.0,0.0,-0.3565573692321777,-0.0306175351142883
-0.0453581809997558,1.190554141998291,-0.2066215276718139,-0.4625693261623382,-0.1806797534227371,-0.2577112317085266,0.0,0.0,-0.7307939529418945,-0.3412055969238281
-0.0476237311959266,1.1799943447113037,-0.2140868008136749,-0.4708933234214782,-0.1931996345520019,-0.2503977119922638,0.0,0.0,-0.7567121982574463,-0.9033051133155824
-0.0500264167785644,1.1692955493927002,-0.229986697435379,-0.476884514093399,-0.2035497426986694,-0.2070019245147705,0.0,0.0,-0.66462641954422,0.0523328781127929
-0.0524972900748252,1.158431053161621,-0.2371853291988372,-0.4842582643032074,-0.213536262512207,-0.1997304409742355,0.0,0.0,-0.5825536251068115,-0.6100260019302368
-0.0550925247371196,1.1474244594573977,-0.2514920830726623,-0.4903708100318908,-0.2216621488332748,-0.1625173985958099,0.0,0.0,-0.214761734008789,-0.296107530593872
-0.0577555671334266,1.1362515687942505,-0.2586366534233093,-0.4977406859397888,-0.2294247448444366,-0.1552520096302032,0.0,0.0,-0.9247477054595948,-0.1049599647521972
-0.0604860298335552,1.1249126195907593,-0.2657510638236999,-0.5051098465919495,-0.2368243038654327,-0.1479910612106323,0.0,0.0,-0.4375273585319519,0.7505769729614258
-0.0632341355085372,1.1133850812911987,-0.2665894627571106,-0.5136830806732178,-0.2451833933591842,-0.1671817004680633,0.0,0.0,-0.7093972563743591,0.1481560468673706
-0.0660490021109581,1.1016913652420044,-0.2736364603042602,-0.5210525989532471,-0.2531799972057342,-0.1599323749542236,0.0,0.0,-0.1066035032272338,-0.580836296081543
-0.0689803138375282,1.0898451805114746,-0.2869099974632263,-0.5275830626487732,-0.2595207095146179,-0.1268148869276046,0.0,0.0,0.2900832891464233,-0.374087929725647
-0.071839615702629,1.0785375833511353,-0.2801372408866882,-0.5035989880561829,-0.2654411494731903,-0.1184085756540298,0.0,0.0,-0.163803219795227,-0.3873767852783203
-0.074764534831047,1.067063331604004,-0.287060409784317,-0.5109650492668152,-0.271000474691391,-0.1111862808465957,0.0,0.0,0.6305136680603027,0.4830474853515625
-0.0776592269539833,1.056082010269165,-0.284284383058548,-0.4890272915363312,-0.2763190865516662,-0.1063719391822815,0.0,0.0,-0.470988392829895,0.434552788734436
-0.0806185752153396,1.044933795928955,-0.2911092042922973,-0.4963924288749695,-0.2812777161598205,-0.0991728231310844,0.0,0.0,-0.0369024872779846,-0.1939666867256164
-0.0836421027779579,1.0336189270019531,-0.2978794574737549,-0.5037572383880615,-0.2858770787715912,-0.0919871479272842,0.0,0.0,-0.3636783361434936,0.0200459957122802
-0.0867292433977127,1.0221370458602903,-0.3045912384986877,-0.5111215710639954,-0.290117859840393,-0.0848162323236465,0.0,0.0,0.4580187797546386,0.2484041452407837
-0.0897730812430381,1.0115162134170532,-0.3001877665519714,-0.4728782474994659,-0.294436901807785,-0.0863801315426826,0.0,0.0,0.0734100341796875,-0.2400574088096618
-0.0927036255598068,1.0011818408966064,-0.28958460688591,-0.4600220322608948,-0.2980281710624695,-0.0718251913785934,0.0,0.0,-0.6139566898345947,0.0124895572662353
-0.0956959724426269,0.9906801581382751,-0.296095609664917,-0.467385470867157,-0.3012635409832001,-0.0647073164582252,0.0,0.0,-0.4257106781005859,0.6285879611968994
-0.0986943244934082,0.9799846410751344,-0.2956083118915558,-0.4762424230575561,-0.305635392665863,-0.0874368846416473,0.0,0.0,0.3597798347473144,0.470183253288269
-0.1017116531729698,0.9694837927818298,-0.2977090775966644,-0.467556893825531,-0.3098082840442657,-0.0834578424692154,0.0,0.0,-0.4134467840194702,0.3098219633102417
-0.1047883033752441,0.9588157534599304,-0.3039767146110534,-0.4749204218387604,-0.3136287033557892,-0.0764084756374359,0.0,0.0,0.3524442911148071,0.8880972862243652
-0.1076907142996788,0.9484395384788512,-0.2851928770542145,-0.4622685015201568,-0.3188661336898803,-0.104748710989952,0.0,0.0,-0.5753300786018372,0.6693141460418701
-0.1106081008911132,0.937882959842682,-0.2859856188297272,-0.4704595804214477,-0.3248569071292877,-0.1198156252503395,0.0,0.0,-0.3420683145523071,0.5373772382736206
-0.1135495156049728,0.9271482825279236,-0.28791543841362,-0.4785102009773254,-0.3313500881195068,-0.129863753914833,0.0,0.0,-0.7663899064064026,0.4953868389129638
-0.1165461540222168,0.9162465929985046,-0.293781965970993,-0.4858752489089966,-0.3374969363212585,-0.1229368448257446,0.0,0.0,-0.1403855085372924,0.4041000604629516
-0.1195968613028526,0.9051781892776488,-0.2995325028896332,-0.4932398498058319,-0.3432992994785309,-0.116047166287899,0.0,0.0,-0.221055269241333,0.6393547058105469
-0.1226566284894943,0.8939239382743835,-0.2996546328067779,-0.5017147064208984,-0.3499386310577392,-0.1327864080667495,0.0,0.0,0.7657878398895264,0.8327658176422119
-0.1254238188266754,0.8830682039260864,-0.2693208754062652,-0.4842967391014099,-0.3577201068401336,-0.1556296050548553,0.0,0.0,0.2934015989303589,0.086269736289978
-0.128020092844963,0.872921884059906,-0.2525945007801056,-0.4527220129966736,-0.3651520609855652,-0.1486391574144363,0.0,0.0,0.6442359685897827,0.4571330547332763
-0.130353644490242,0.8632092475891113,-0.2272849380970001,-0.4332361817359924,-0.371562659740448,-0.1282113492488861,0.0,0.0,0.9486525058746338,-0.3226470947265625
-0.1326376944780349,0.8541675806045532,-0.2221857011318206,-0.4034779965877533,-0.3781618177890777,-0.1319834291934967,0.0,0.0,0.9412441253662108,-0.4145271778106689
-0.1345191895961761,0.8462033271789551,-0.1827376782894134,-0.3554153442382812,-0.3839201629161834,-0.115166924893856,0.0,0.0,0.9245705604553224,-0.8667197227478027
-0.1360493600368499,0.8391068577766418,-0.1499208360910415,-0.3162382245063782,-0.3872259557247162,-0.0661161467432975,0.0,0.0,0.9886677265167236,-0.2633298635482788
-0.1371647864580154,0.8331685066223145,-0.1091363579034805,-0.2645811736583709,-0.3897923231124878,-0.0513272993266582,0.0,0.0,0.9098224639892578,-0.5993571281433105
-0.138105109333992,0.8284083604812622,-0.0928568392992019,-0.2118881791830063,-0.3910455703735351,-0.0250650737434625,0.0,0.0,0.9522387981414796,-0.4785811901092529
-0.1388619393110275,0.8240528702735901,-0.0750656574964523,-0.1937451064586639,-0.3917028605937958,-0.0131455585360527,0.0,0.0,0.7419235706329346,-0.5541263818740845
-0.1395175904035568,0.8206475377082825,-0.0660381764173507,-0.1512198150157928,-0.3911985754966736,0.010085848160088,0.0,0.0,0.9049859046936036,-0.5790542364120483
-0.1398835182189941,0.8178395628929138,-0.0388491377234458,-0.124177910387516,-0.3887791931629181,0.0483873970806598,0.0,0.0,0.9190653562545776,-0.7544587254524231
-0.1400398313999176,0.815870463848114,-0.0197146460413932,-0.0864099636673927,-0.3844324648380279,0.086934395134449,0.0,0.0,-0.1793372631072998,-0.6714028716087341
-0.1402769982814788,0.8137592077255249,-0.0293679628521204,-0.0923315286636352,-0.3784271776676178,0.1201055869460105,0.0,0.0,0.1804629564285278,-0.7701449394226074
-0.1405372619628906,0.8121594786643982,-0.033375360071659,-0.0691687613725662,-0.3706249892711639,0.1560438573360443,0.0,0.0,-0.0547737479209899,-0.8209303021430969
-0.1408799141645431,0.8104362487792969,-0.043475441634655,-0.0742393285036087,-0.360895425081253,0.1945909708738327,0.0,0.0,-0.0541989803314209,-0.4233301877975464
-0.1412474662065506,0.8085469603538513,-0.0462525002658367,-0.0816095843911171,-0.3508853316307068,0.200202465057373,0.0,0.0,-0.1296666264533996,-0.3712215423583984
-0.1416375190019607,0.8064919114112854,-0.048805046826601,-0.0889806970953941,-0.3406013250350952,0.2056799381971359,0.0,0.0,0.2859351634979248,0.0188125371932983
-0.141993910074234,0.8048288226127625,-0.045401819050312,-0.0716467723250389,-0.330389529466629,0.2042360305786132,0.0,0.0,0.2195382118225097,-0.1141469478607177
-0.1422702819108963,0.8037421703338623,-0.0373916439712047,-0.0461028441786766,-0.3202323913574219,0.2031430453062057,0.0,0.0,-0.1384748220443725,-0.0766352415084838
-0.1425625830888748,0.8024899363517761,-0.0392547845840454,-0.0534755736589431,-0.3098245859146118,0.2081561088562011,0.0,0.0,-0.5353741645812988,0.5430178642272949
-0.1428352296352386,0.8010624051094055,-0.0367231220006942,-0.0614538826048374,-0.3000383675098419,0.1957242637872696,0.0,0.0,-0.0701364278793335,0.3456501960754394
-0.1431193351745605,0.799469530582428,-0.0381199903786182,-0.0688269287347793,-0.2900198996067047,0.2003700733184814,0.0,0.0,-0.8492456078529358,0.4309486150741577
-0.1434125900268554,0.7977113127708435,-0.0392841175198555,-0.0762008056044578,-0.2797792553901672,0.2048130929470062,0.0,0.0,-0.8953807353973389,0.6847774982452393
-0.1436567306518554,0.7957558035850525,-0.0330719761550426,-0.0852788537740707,-0.270880252122879,0.1779793500900268,0.0,0.0,-0.8943818807601929,0.6986384391784668
-0.1438565254211425,0.7936069965362549,-0.0275598503649234,-0.0941236093640327,-0.2631292343139648,0.1550205796957016,0.0,0.0,-0.8924160003662109,0.8715167045593262
-0.1439923346042633,0.791273295879364,-0.0196522939950227,-0.1026377230882644,-0.2569229006767273,0.1241265088319778,0.0,0.0,-0.7409965395927429,0.9189130067825316
-0.144047737121582,0.7887513041496277,-0.0097412187606096,-0.1113655865192413,-0.2526391148567199,0.0856762304902076,0.0,0.0,-0.4526245594024658,0.8403110504150391
-0.144048124551773,0.7860509157180786,-0.0030478746630251,-0.1195030733942985,-0.2495686560869217,0.061409056186676,0.0,0.0,-0.5988481640815735,0.8864578008651733
-0.1439933776855468,0.7831551432609558,0.0036975829862058,-0.1284044682979583,-0.2477653324604034,0.0360664203763008,0.0,0.0,0.1622768640518188,0.1634552478790283
-0.1437693536281585,0.7808911800384521,0.0203693937510252,-0.1002735272049903,-0.2456984668970108,0.0413373038172721,0.0,0.0,-0.9428195357322692,0.6344393491744995
-0.1434976607561111,0.7784458994865417,0.0260718017816543,-0.1084948927164077,-0.2445805966854095,0.0223573688417673,0.0,0.0,-0.9156210422515868,0.4106435775756836
-0.1432166993618011,0.7758345007896423,0.0268946345895528,-0.1158641055226326,-0.2433619350194931,0.0243729948997497,0.0,0.0,-0.8605685830116272,0.0612461566925048
-0.1429247856140136,0.7730569839477539,0.0279160141944885,-0.1232336610555648,-0.2420590966939926,0.0260568503290414,0.0,0.0,-0.8909452557563782,0.611823558807373
-0.1425663977861404,0.7700936794281006,0.0358867496252059,-0.1317106336355209,-0.2421030402183532,-0.0008787821861915,0.0,0.0,-0.936978816986084,-0.2953357100486755
-0.1421934068202972,0.766964316368103,0.0372876189649105,-0.1390807926654815,-0.24209725856781,0.0001155876525444,0.0,0.0,-0.996787428855896,-0.4447371959686279
-0.1418043076992035,0.763668954372406,0.0388689115643501,-0.1464512795209884,-0.2420594841241836,0.000755486136768,0.0,0.0,-0.9874088764190674,-0.2473226189613342
-0.1413975656032562,0.7602077126502991,0.0406241789460182,-0.1538221389055252,-0.2420076429843902,0.0010367210488766,0.0,0.0,-0.9586706161499025,0.3033163547515869
-0.1409716606140136,0.756580650806427,0.0425468310713768,-0.1611933559179306,-0.2419597953557968,0.0009571247501298,0.0,0.0,-0.9792434573173524,0.8414061069488525
-0.1404602080583572,0.752770185470581,0.0527659431099891,-0.1696229726076126,-0.243611454963684,-0.0330334678292274,0.0,0.0,-0.9866304397583008,-0.8707389831542969
-0.139988899230957,0.7488240003585815,0.0471463538706302,-0.1753907799720764,-0.2436297386884689,-0.000365711573977,0.0,0.0,-0.9775559306144714,-0.8020856976509094
-0.1395424902439117,0.7447331547737122,0.043446160852909,-0.1816169470548629,-0.2424186319112777,0.0242220759391784,0.0,0.0,-0.9960533380508424,0.341727614402771
-0.1390716582536697,0.740476667881012,0.0459710285067558,-0.1889897137880325,-0.2412827014923095,0.0227187313139438,0.0,0.0,-0.9490851759910583,-0.8240715861320496
-0.138644129037857,0.7360778450965881,0.039950244128704,-0.1950468719005584,-0.2384324222803115,0.0570055432617664,0.0,0.0,-0.9994284510612488,-0.170541226863861
-0.1381897926330566,0.7315136790275574,0.0427355282008647,-0.2024208158254623,-0.2356909960508346,0.0548285916447639,0.0,0.0,-0.9705339074134828,-0.1133983731269836
-0.1377076208591461,0.7267839312553406,0.0456411354243755,-0.2097949981689453,-0.2330744862556457,0.0523302778601646,0.0,0.0,-0.9870189428329468,-0.2308894991874694
-0.1371966302394867,0.7218890190124512,0.048660509288311,-0.217169389128685,-0.2305983453989029,0.049522690474987,0.0,0.0,-0.998640239238739,-0.6806067228317261
-0.1367000639438629,0.7168477773666382,0.0462091527879238,-0.2235142737627029,-0.2271008640527725,0.0699491947889328,0.0,0.0,-0.9994991421699524,-0.5238655805587769
-0.1362160742282867,0.7116604447364807,0.0439727418124675,-0.2298748791217804,-0.2226201891899109,0.0896134078502655,0.0,0.0,-0.9674739241600036,0.1743196249008178
-0.1357006132602691,0.7063080668449402,0.047294657677412,-0.2372510433197021,-0.2183222472667694,0.0859589800238609,0.0,0.0,-0.9955234527587892,-0.1318994760513305
-0.1351530104875564,0.7007905840873718,0.0507052168250083,-0.2446272522211074,-0.2142196744680404,0.0820511579513549,0.0,0.0,-0.967598795890808,-0.5360140204429626
-0.1346216201782226,0.6951247453689575,0.0479960367083549,-0.2510794699192047,-0.2090364694595337,0.1036640405654907,0.0,0.0,-0.9996886253356934,0.9187586307525636
-0.1340038329362869,0.6892749667167664,0.0582337975502014,-0.2594935894012451,-0.2054594457149505,0.071540743112564,0.0,0.0,-0.9999018907546996,0.5124812126159668
-0.1333048790693283,0.6832484602928162,0.067775659263134,-0.2675518691539764,-0.2033207714557647,0.0427737608551979,0.0,0.0,-0.9998452663421632,-0.8535909056663513
-0.1326314955949783,0.6770679354667664,0.0639253035187721,-0.2742272019386291,-0.1998852342367172,0.0687105730175972,0.0,0.0,-0.999539077281952,-0.6976346373558044
-0.131963163614273,0.6707400679588318,0.0626082122325897,-0.2806710600852966,-0.195629596710205,0.0851126685738563,0.0,0.0,-0.9880041480064392,-0.1800234317779541
-0.1312590539455413,0.6642472743988037,0.0664293989539146,-0.2880478203296661,-0.1916300952434539,0.0799899995326995,0.0,0.0,-0.9998531937599182,-0.1006436347961425
-0.1305188238620758,0.6575895547866821,0.0703001841902732,-0.2954244911670685,-0.1878944933414459,0.0747122690081596,0.0,0.0,-0.9995297789573668,-0.6106829047203064
-0.1297835409641266,0.6507787108421326,0.0690127834677696,-0.3021391332149505,-0.1833596229553222,0.0906976535916328,0.0,0.0,-0.9990534782409668,0.2377854585647583
-0.1290114372968673,0.6438030004501343,0.0729675069451332,-0.3095161318778991,-0.1791023463010788,0.0851451829075813,0.0,0.0,-0.9994742274284364,-0.51817387342453
-0.1282379180192947,0.6366766095161438,0.0724572092294693,-0.3161439001560211,-0.1741915196180343,0.0982165187597274,0.0,0.0,-0.9998977184295654,0.3803941011428833
-0.1274270117282867,0.6293854117393494,0.0764766633510589,-0.3235211968421936,-0.1695699244737625,0.0924320146441459,0.0,0.0,-0.999492883682251,0.2230058908462524
-0.126578614115715,0.6219293475151062,0.0805216208100318,-0.330898255109787,-0.1652426421642303,0.0865459963679313,0.0,0.0,-0.9999157786369324,-0.1033287048339843
-0.1256923675537109,0.6143081188201904,0.0845875740051269,-0.3382750153541565,-0.1612142771482467,0.0805671960115432,0.0,0.0,-0.9998886585235596,0.5722064971923828
-0.1247254386544227,0.606511116027832,0.0940752625465393,-0.3462523818016052,-0.1585939526557922,0.0524063892662525,0.0,0.0,-0.99989116191864,-0.6265662312507629
-0.1237674728035926,0.5985591411590576,0.0922787636518478,-0.3530520498752594,-0.1550812423229217,0.0702541470527648,0.0,0.0,-0.999726414680481,-0.558921754360199
-0.1228062659502029,0.5904450416564941,0.0920346900820732,-0.3602047264575958,-0.1510059982538223,0.0815048515796661,0.0,0.0,-0.9998697638511658,-0.6419156789779663
-0.1218489632010459,0.5821784734725952,0.0908876955509185,-0.3669197857379913,-0.1461666971445083,0.0967861637473106,0.0,0.0,-0.9987722635269164,0.3368827104568481
-0.1208536177873611,0.573746919631958,0.0949939340353012,-0.3742967247962951,-0.1416439861059188,0.0904542133212089,0.0,0.0,-0.9992052316665648,-0.4594752788543701
