x_pos,y_pos,x_vel,y_vel,angle,ang_vel,leg_1,leg_2,main_booster,lat_booster
-0.0015846252208575,1.4031741619110107,-0.1606215685606002,-0.3442638218402862,0.001932390849106,0.0381308421492576,0.0,0.0,-0.3091195225715637,0.581995964050293
-0.003180980682373,1.39499831199646,-0.1604094058275222,-0.3633675575256347,0.0026893098838627,0.0151405902579426,0.0,0.0,0.5349392890930176,0.8798253536224365
-0.0046311379410326,1.386929273605347,-0.1443547457456588,-0.3586254119873047,0.0020435596816241,-0.0129165221005678,0.0,0.0,0.0397747755050659,0.0166236162185668
-0.0062178610824048,1.3788812160491943,-0.1577890217304229,-0.357693612575531,0.0011680440511554,-0.0175117887556552,0.0,0.0,0.2726376056671142,0.5347002744674683
-0.0077157020568847,1.371138095855713,-0.1482143700122833,-0.344134122133255,-0.0003825923486147,-0.031015571206808,0.0,0.0,0.2613101005554199,0.0807623863220214
-0.0091692926362156,1.363566517829895,-0.1444375813007354,-0.3365125060081482,-0.0012958851875737,-0.0182673297822475,0.0,0.0,-0.6441664099693298,0.6407124996185303
-0.0106349941343069,1.3555445671081543,-0.1445482075214386,-0.3565333485603332,-0.003291017608717,-0.0399065166711807,0.0,0.0,-0.3265811204910278,0.1018422842025756
-0.012160968966782,1.3470724821090698,-0.1507278084754943,-0.3765440881252289,-0.0051426533609628,-0.0370363667607307,0.0,0.0,0.0176926851272583,0.8085284233093262
-0.0136894229799509,1.338931679725647,-0.1495004445314407,-0.3618271946907043,-0.0084534492343664,-0.0662223324179649,0.0,0.0,-0.214562177658081,0.45015549659729
-0.0152777675539255,1.3303407430648804,-0.155635729432106,-0.3818475604057312,-0.0116147762164473,-0.0632320791482925,0.0,0.0,0.3484704494476318,0.5256829261779785
-0.0168023109436035,1.3220256567001345,-0.14854496717453,-0.3695950210094452,-0.0154819292947649,-0.0773500353097915,0.0,0.0,-0.2000864744186401,0.3903684616088867
-0.0183860771358013,1.3132603168487549,-0.1546276062726974,-0.3896151185035705,-0.0191947054117918,-0.0742619708180427,0.0,0.0,-0.2535525560379028,0.7562792301177979
-0.0199562069028615,1.304046869277954,-0.1515815109014511,-0.40957111120224,-0.024574177339673,-0.1075989827513694,0.0,0.0,-0.0584696531295776,0.8251869678497314
-0.0215126033872365,1.2943731546401978,-0.1485133618116378,-0.4300779700279236,-0.0316184051334857,-0.1408975571393966,0.0,0.0,-0.1409040093421936,0.5518598556518555
-0.0230732914060354,1.2842528820037842,-0.1477411240339279,-0.4499834775924682,-0.0398510880768299,-0.1646686345338821,0.0,0.0,0.3657686710357666,0.4705791473388672
-0.0245912559330463,1.2740459442138672,-0.1440712809562683,-0.4538620114326477,-0.0474935844540596,-0.1528639644384384,0.0,0.0,0.4956257343292236,0.8528234958648682
-0.0259222034364938,1.26454496383667,-0.1240235343575477,-0.422577440738678,-0.0564642325043678,-0.1794294863939285,0.0,0.0,0.4653278589248657,0.4760406017303467
-0.0271648410707712,1.255081295967102,-0.1159795299172401,-0.4209385514259338,-0.0646745935082435,-0.1642218828201294,0.0,0.0,-0.8296100497245789,-0.3988431692123413
-0.0284639354795217,1.245167851448059,-0.1217835918068885,-0.4409568011760711,-0.0727167502045631,-0.1608577668666839,0.0,0.0,-0.6657823920249939,0.1284517049789428
-0.0298187248408794,1.23480486869812,-0.1275376379489898,-0.4609744846820831,-0.0805883929133415,-0.1574470102787017,0.0,0.0,-0.3459566831588745,0.112589955329895
-0.031228732317686,1.2239922285079956,-0.1332395821809768,-0.4809921383857727,-0.0882885530591011,-0.1540170907974243,0.0,0.0,-0.7238579392433167,0.7938632965087891
-0.0326299667358398,1.212717056274414,-0.1309164464473724,-0.5016814470291138,-0.097428910434246,-0.1828236579895019,0.0,0.0,-0.167309820652008,-0.1623368263244629
-0.0340852737426757,1.200992465019226,-0.136499136686325,-0.5217021107673645,-0.1063949465751648,-0.1793366372585296,0.0,0.0,-0.3599287271499634,-0.6992390751838684
-0.0356430038809776,1.1888184547424316,-0.1481745541095733,-0.5416320562362671,-0.1139575317502021,-0.1512650698423385,0.0,0.0,0.3773591518402099,-0.1067814826965332
-0.0373103134334087,1.1770141124725342,-0.1587442755699157,-0.5252569317817688,-0.1218948140740394,-0.1587600260972976,0.0,0.0,0.2467082738876342,0.3662631511688232
-0.0390758514404296,1.1655499935150146,-0.168250024318695,-0.5102185010910034,-0.1301659345626831,-0.1654221266508102,0.0,0.0,0.3643851280212402,0.1733185052871704
-0.0408120155334472,1.1545279026031494,-0.1655004322528839,-0.490603357553482,-0.1382486224174499,-0.1616538763046264,0.0,0.0,0.5106065273284912,0.6327972412109375
-0.04257383197546,1.1442004442214966,-0.1667060405015945,-0.4599088132381439,-0.1476975977420807,-0.1889794617891311,0.0,0.0,-0.2855696678161621,0.6082029342651367
-0.0443477630615234,1.133420467376709,-0.1671581417322158,-0.4801689982414245,-0.1579237133264541,-0.2045226842164993,0.0,0.0,-0.657530665397644,0.0946993827819824
-0.0461708083748817,1.1221909523010254,-0.1722559034824371,-0.5001870393753052,-0.1679775267839431,-0.2010759562253952,0.0,0.0,-0.3812777996063232,0.858879566192627
-0.0479719154536724,1.110504150390625,-0.168487936258316,-0.5207602977752686,-0.1796281486749649,-0.2330123633146286,0.0,0.0,-0.281476616859436,0.3647019863128662
-0.0498203262686729,1.098368763923645,-0.173408955335617,-0.5407806038856506,-0.1911083310842514,-0.2296036481857299,0.0,0.0,0.7466356754302979,0.3239661455154419
-0.0516397468745708,1.087057113647461,-0.1703044921159744,-0.5042774081230164,-0.2028231620788574,-0.2342964857816696,0.0,0.0,-0.5197818279266357,0.1549712419509887
-0.0535045638680458,1.0752966403961182,-0.1750344932079315,-0.5242974758148193,-0.2143702208995819,-0.2309410870075225,0.0,0.0,0.2812230587005615,-0.6889891028404236
-0.0553494468331337,1.0638141632080078,-0.1746256649494171,-0.5117960572242737,-0.2243427187204361,-0.1994501054286956,0.0,0.0,-0.5688276886940002,-0.1676497459411621
-0.057237721979618,1.0518821477890017,-0.179150104522705,-0.5318127870559692,-0.2341509014368057,-0.1961636245250702,0.0,0.0,-0.4714906215667724,0.075463056564331
-0.059168241918087,1.039500713348389,-0.1835671961307525,-0.5518290996551514,-0.2437967360019683,-0.1929168105125427,0.0,0.0,0.7675144672393799,-0.8896130919456482
-0.0609666816890239,1.027870535850525,-0.172370359301567,-0.5181573629379272,-0.2514056265354156,-0.1521773338317871,0.0,0.0,0.1321535110473632,-0.2836750745773315
-0.062687873840332,1.016639232635498,-0.164686232805252,-0.5004608631134033,-0.2589814960956573,-0.1515172272920608,0.0,0.0,-0.5570975542068481,-0.8505156636238098
-0.0645096749067306,1.0049831867218018,-0.1765272170305252,-0.5190525054931641,-0.2647613883018493,-0.1155969649553299,0.0,0.0,-0.6273022294044495,-0.4768234491348266
-0.0663694366812706,0.9928769469261168,-0.1804830580949783,-0.539063572883606,-0.2703887820243835,-0.1125479489564895,0.0,0.0,0.592947244644165,0.1737750768661499
-0.0680165290832519,0.981002151966095,-0.1599031388759613,-0.5286673903465271,-0.2753162384033203,-0.0985492169857025,0.0,0.0,-0.0135033726692199,-0.5674269795417786
-0.0697365775704383,0.968686044216156,-0.1682751774787902,-0.5480893850326538,-0.2791385054588318,-0.076445534825325,0.0,0.0,0.9386829137802124,-0.8422296047210693
-0.0712616890668869,0.9567868709564208,-0.1508382856845855,-0.5291761159896851,-0.2808538377285003,-0.0343071706593036,0.0,0.0,0.1690179109573364,-0.9294735193252563
-0.0728671103715896,0.9447709918022156,-0.1608228981494903,-0.5339803695678711,-0.2805603444576263,0.0058698910288512,0.0,0.0,0.0948681831359863,-0.782616913318634
-0.0744701400399208,0.9326271414756776,-0.1622730195522308,-0.5393543839454651,-0.278531402349472,0.0405786670744419,0.0,0.0,-0.4604310393333435,-0.1742523908615112
-0.0761036872863769,0.9200324416160583,-0.1654648780822754,-0.5593634247779846,-0.2763708233833313,0.0432122237980365,0.0,0.0,-0.716715931892395,-0.3606671690940857
-0.0777666121721267,0.906987190246582,-0.1685235798358917,-0.5793725252151489,-0.274082750082016,0.0457616969943046,0.0,0.0,0.0626137256622314,-0.780299186706543
-0.0794734954833984,0.8942949771881104,-0.1745385527610778,-0.5633798837661743,-0.2701297402381897,0.0790604278445243,0.0,0.0,-0.5264684557914734,-0.0577129125595092
-0.0812069922685623,0.881152331829071,-0.1773282885551452,-0.5833901166915894,-0.2660583555698395,0.0814282521605491,0.0,0.0,-0.8913447856903076,-0.3687111139297485
-0.0829659476876258,0.8675591349601746,-0.179982453584671,-0.6034005880355835,-0.2618734240531921,0.0836984440684318,0.0,0.0,-0.8971203565597534,-0.1306283473968505
-0.0847489386796951,0.8535156846046448,-0.1825007647275924,-0.6234112977981567,-0.2575801312923431,0.0858663246035575,0.0,0.0,-0.5956850051879883,-0.1097302436828613
-0.0865546241402626,0.8390217423439026,-0.1848832666873932,-0.6434221863746643,-0.2531837821006775,0.0879272073507309,0.0,0.0,-0.8360399007797241,-0.2731343507766723
-0.0883817672729492,0.8240776062011719,-0.1871302425861358,-0.663433313369751,-0.2486899495124817,0.0898763686418533,0.0,0.0,-0.6571210026741028,-0.3994123935699463
-0.0902291312813758,0.8086830377578735,-0.1892423331737518,-0.6834447383880615,-0.2441045045852661,0.0917091891169548,0.0,0.0,-0.5189728140830994,-0.2935504913330078
-0.0920953750610351,0.7928382754325867,-0.1912203729152679,-0.7034561634063721,-0.2394334524869918,0.0934210643172264,0.0,0.0,-0.6367073655128479,-0.2570377588272095
-0.0939792618155479,0.7765433192253113,-0.1930655837059021,-0.7234678864479065,-0.2346830815076828,0.095007374882698,0.0,0.0,0.0906507968902587,-0.4229026436805725
-0.0956873893737793,0.7604159712791443,-0.1759792566299438,-0.7159578800201416,-0.2294385284185409,0.1048911809921264,0.0,0.0,-0.1302587985992431,0.2112478017807006
-0.0974105820059776,0.7438384890556335,-0.1775634735822677,-0.7359704375267029,-0.2241278886795044,0.1062128171324729,0.0,0.0,-0.0312685966491699,0.4203733205795288
-0.0991476997733116,0.726810872554779,-0.179019957780838,-0.7559832334518433,-0.2187581062316894,0.1073955744504928,0.0,0.0,0.6978538036346436,-0.06536865234375
-0.100763700902462,0.7098734378814697,-0.1671959459781646,-0.7519559264183044,-0.2130930125713348,0.1133021861314773,0.0,0.0,0.2846200466156006,0.5636701583862305
-0.1023153290152549,0.6933013796806335,-0.1595294177532196,-0.7359151840209961,-0.2086871266365051,0.0881178602576255,0.0,0.0,0.0598231554031372,0.0457963943481445
-0.1037311553955078,0.6767415404319763,-0.1463545262813568,-0.7353333830833435,-0.2038776874542236,0.0961891487240791,0.0,0.0,0.1126588582992553,-0.1249839067459106
-0.1050572395324707,0.660332977771759,-0.1374841183423996,-0.728600800037384,-0.1989655047655105,0.0982438772916793,0.0,0.0,0.3628318309783935,0.0466670989990234
-0.1063198074698448,0.6439587473869324,-0.1312005817890167,-0.7270861864089966,-0.1940020471811294,0.0992694422602653,0.0,0.0,0.3142045736312866,0.1010310649871826
-0.1075958237051963,0.6278550624847412,-0.1320904046297073,-0.7151392102241516,-0.1894806772470474,0.0904272943735122,0.0,0.0,0.6376168727874756,0.2609739303588867
-0.1086973175406456,0.6125450134277344,-0.1147561892867088,-0.6798673272132874,-0.1848557293415069,0.0924989879131317,0.0,0.0,-0.0829036831855773,-0.0956237912178039
-0.1098041534423828,0.5967848896980286,-0.11529041826725,-0.6998807787895203,-0.1802338659763336,0.0924369990825653,0.0,0.0,-0.1028928756713867,0.7131896018981934
-0.1108565330505371,0.5805670022964478,-0.1083453670144081,-0.720417857170105,-0.1771127730607986,0.0624215193092823,0.0,0.0,0.9556856155395508,-0.2609501481056213
-0.111923411488533,0.5647558569908142,-0.1092615723609924,-0.7024127840995789,-0.1745270490646362,0.0517145879566669,0.0,0.0,0.8809449672698975,0.1228750944137573
-0.1129620522260665,0.5496606230735779,-0.1059330850839614,-0.6706597208976746,-0.1724535822868347,0.0414693653583526,0.0,0.0,0.0285185575485229,0.2801566123962402
-0.1139172539114952,0.5346828103065491,-0.0976445451378822,-0.6654349565505981,-0.1703287661075592,0.0424964018166065,0.0,0.0,0.3781418800354004,-0.3956766128540039
-0.114860251545906,0.5203235745429993,-0.0958714708685875,-0.6380051970481873,-0.1687468737363815,0.0316377207636833,0.0,0.0,-0.3849744796752929,0.1341116428375244
-0.1158037185668945,0.50551438331604,-0.0958694219589233,-0.6580177545547485,-0.1672194600105285,0.0305478312075138,0.0,0.0,0.6761741638183594,-0.0808904767036438
-0.116714671254158,0.490850418806076,-0.0924029797315597,-0.651585578918457,-0.1659134626388549,0.0261202156543731,0.0,0.0,0.6885538101196289,-0.7828661203384399
-0.1175565719604492,0.4762161374092102,-0.0871287137269973,-0.6500869989395142,-0.1629716604948043,0.0588360950350761,0.0,0.0,0.8635416030883789,-0.1345908641815185
-0.1183701530098915,0.4617071747779846,-0.0840577036142349,-0.6445471048355103,-0.1602749526500702,0.0539341196417808,0.0,0.0,0.8520030975341797,0.3687490224838257
-0.1190492659807205,0.4480671882629394,-0.0704773440957069,-0.6059487462043762,-0.157710313796997,0.0512930564582347,0.0,0.0,0.3174917697906494,0.3178505897521972
-0.1195608153939247,0.4349258542060852,-0.0539244040846824,-0.5837686061859131,-0.1549473404884338,0.0552591979503631,0.0,0.0,0.1270589828491211,-0.0923717617988586
-0.1200592070817947,0.4221786260604858,-0.0521509237587451,-0.5663055777549744,-0.152643620967865,0.0460748188197612,0.0,0.0,0.2655540704727173,-0.2633567452430725
-0.1206139549612999,0.4093801379203796,-0.0572073943912982,-0.5686433911323547,-0.1509114205837249,0.0346439555287361,0.0,0.0,0.4555921554565429,-0.2301713228225708
-0.1210254654288292,0.3971564769744873,-0.0429226979613304,-0.543093740940094,-0.1491357684135437,0.035513050854206,0.0,0.0,0.0741539001464843,0.6199350357055664
-0.1214024573564529,0.3850434124469757,-0.0380090400576591,-0.5383267998695374,-0.1488248109817505,0.0062190894968807,0.0,0.0,0.3505091667175293,-0.6533100605010986
-0.1217930763959884,0.3733274638652801,-0.0404585003852844,-0.5205679535865784,-0.1474301069974899,0.0278940983116626,0.0,0.0,-0.098031997680664,-0.4586356878280639
-0.1221795082092285,0.3611615896224975,-0.0399017892777919,-0.5405815243721008,-0.1461786180734634,0.0250300131738185,0.0,0.0,0.6716611385345459,-0.3847827315330505
-0.1223886460065841,0.3494001626968384,-0.0224269572645425,-0.5225852131843567,-0.1446692198514938,0.0301879104226827,0.0,0.0,0.538278341293335,-0.8247010111808777
-0.1225884407758712,0.3376625776290893,-0.0230171587318182,-0.52137690782547,-0.1416348367929458,0.060687381774187,0.0,0.0,0.7347304821014404,0.3699283599853515
-0.1226276382803917,0.3260823786258697,-0.0072492202743887,-0.5143623948097229,-0.138313353061676,0.0664297565817833,0.0,0.0,0.4958850145339966,0.6672728061676025
-0.1223940849304199,0.3147791922092438,0.0212372597306966,-0.502169668674469,-0.1362048834562301,0.0421698279678821,0.0,0.0,0.7111256122589111,-0.5694146156311035
-0.1219923943281173,0.3036065399646759,0.0366923958063125,-0.4962491691112518,-0.1327318996191024,0.069459430873394,0.0,0.0,0.7354166507720947,-0.652665376663208
-0.121538832783699,0.2931736707687378,0.0407491885125637,-0.4632811844348907,-0.128149539232254,0.0916476026177406,0.0,0.0,0.2192721366882324,0.2629631757736206
-0.1209868416190147,0.2831194698810577,0.0506735667586326,-0.4464675486087799,-0.1236483380198478,0.0900243669748306,0.0,0.0,-0.2998005747795105,0.0402508974075317
-0.1204307526350021,0.2726157307624817,0.0512722842395305,-0.4664828479290008,-0.1193390414118766,0.0861859321594238,0.0,0.0,0.258707046508789,-0.4978946447372436
-0.1197649016976356,0.2620189189910888,0.0620890669524669,-0.4706171452999115,-0.1148711666464805,0.0893578082323074,0.0,0.0,0.5447759628295898,-0.3099418878555298
-0.1190896034240722,0.2516903579235077,0.0634596794843673,-0.4587407410144806,-0.1108320206403732,0.0807829275727272,0.0,0.0,0.1740745306015014,-0.5016208291053772
-0.1183168441057205,0.2418277561664581,0.0722696930170059,-0.4379734694957733,-0.105858065187931,0.0994790717959404,0.0,0.0,0.2880747318267822,0.1106688976287841
-0.1175122261047363,0.2321802526712417,0.0757476091384887,-0.4284511804580688,-0.1011781394481659,0.0935986712574958,0.0,0.0,-0.4117587208747864,0.4770684242248535
-0.1167049407958984,0.2220830470323562,0.076226107776165,-0.448466420173645,-0.096711978316307,0.0893232673406601,0.0,0.0,-0.2357906103134155,-0.7269251942634583
-0.1159441024065017,0.2115470468997955,0.0705453902482986,-0.4679217934608459,-0.0912223309278488,0.1097928062081337,0.0,0.0,0.6145029067993164,0.3776861429214477
-0.1151667609810829,0.2016636431217193,0.0726620405912399,-0.438959389925003,-0.0861954689025878,0.1005370616912841,0.0,0.0,0.3122353553771972,0.0829983949661254
-0.1144023910164833,0.1922278553247451,0.071900688111782,-0.4191130995750427,-0.0816965028643608,0.0899794548749923,0.0,0.0,0.0272703170776367,0.29261314868927
-0.1136272400617599,0.1828070729970932,0.073267325758934,-0.4184745550155639,-0.0774959102272987,0.0840120688080787,0.0,0.0,0.3372414112091064,0.530792236328125
-0.1128746047616005,0.1736720353364944,0.0725599080324173,-0.4058660566806793,-0.0748138800263404,0.0536405146121978,0.0,0.0,0.0429604053497314,-0.3070459365844726
-0.1121922507882118,0.1645921617746353,0.0662035793066024,-0.4034479558467865,-0.0728032812476158,0.0402119904756546,0.0,0.0,0.4374558925628662,-0.2488124966621399
-0.1113734245300293,0.1559876948595047,0.0796556919813156,-0.3823153078556061,-0.070600725710392,0.0440514758229255,0.0,0.0,-0.0460900068283081,-0.8786917328834534
-0.1106188744306564,0.1469321995973587,0.0718815475702285,-0.4023006558418274,-0.0670651644468307,0.0707113593816757,0.0,0.0,0.5369163751602173,0.1596498489379882
-0.109684370458126,0.1384755223989486,0.089485228061676,-0.3756813108921051,-0.0631437599658966,0.0784277841448783,0.0,0.0,0.132750391960144,-0.8606033325195312
-0.1088051795959472,0.1303808987140655,0.0824737250804901,-0.3595417737960815,-0.0577552504837513,0.1077701225876808,0.0,0.0,0.0585861206054687,-0.5676008462905884
-0.1078406348824501,0.1226581409573555,0.0899394527077674,-0.3429946005344391,-0.0513221994042396,0.1286609917879104,0.0,0.0,-0.0344654321670532,-0.0068233013153076
-0.1068806648254394,0.1144859194755554,0.0897367969155311,-0.3630107343196869,-0.0451322607696056,0.1237989217042923,0.0,0.0,0.5132489204406738,0.5850546360015869
-0.1058528870344162,0.106987677514553,0.0979565232992172,-0.3331150114536285,-0.0403664708137512,0.0953156203031539,0.0,0.0,0.1694017648696899,0.3208119869232178
-0.104765698313713,0.0998725965619087,0.1039383262395858,-0.3161062896251678,-0.0356476418673992,0.0943767800927162,0.0,0.0,-0.2326694130897522,-0.2763519287109375
-0.103685475885868,0.0923076942563057,0.1034974679350853,-0.3361204862594604,-0.0311753284186124,0.0894460827112197,0.0,0.0,0.491580605506897,0.7222033739089966
-0.1026603728532791,0.0851338952779769,0.0999089628458023,-0.3187829256057739,-0.0286059007048606,0.0513884350657463,0.0,0.0,0.656794548034668,-0.723821759223938
-0.1018273383378982,0.0782907605171203,0.0797932147979736,-0.3040799498558044,-0.0251338481903076,0.0694411247968673,0.0,0.0,0.436010479927063,0.9333362579345704
-0.100938893854618,0.0717296451330185,0.0874776840209961,-0.2915817201137543,-0.0237872842699289,0.0269313808530569,0.0,0.0,0.1893689632415771,0.1840193271636963
-0.1000330001115799,0.0652935579419136,0.0893871039152145,-0.2860276401042938,-0.0226036868989467,0.0236719846725463,0.0,0.0,0.0642290115356445,0.7196303606033325
-0.0989798530936241,0.0587429627776145,0.1057342737913131,-0.2911452054977417,-0.0230229943990707,-0.0083861593157053,0.0,0.0,0.7695456743240356,0.3718860149383545
-0.0978177040815353,0.0528368093073368,0.1164024248719215,-0.2624984681606293,-0.0232096817344427,-0.0037335541564971,0.0,0.0,0.3999691009521484,-0.1187970638275146
-0.0966316238045692,0.0475047193467617,0.1189544573426246,-0.2369862198829651,-0.023548673838377,-0.0067799165844917,0.0,0.0,0.1040821075439453,0.1980361938476562
