x_pos,y_pos,x_vel,y_vel,angle,ang_vel,leg_1,leg_2,main_booster,lat_booster
-0.0015222548972815,1.4033210277557373,-0.1541659832000732,-0.3377431333065033,0.0017349368426948,0.0342212431132793,0.0,0.0,0.2889384465808866,-0.9938610230796496
-0.0030744553077965,1.3959763050079346,-0.1589314639568328,-0.3264379203319549,0.0054012667387723,0.0733341947197914,0.0,0.0,0.0309220274777823,0.5590693839933594
-0.0044890404678881,1.3887027502059937,-0.1442175209522247,-0.3232810795307159,0.0081209111958742,0.0543980412185192,0.0,0.0,-0.2400139721979806,-0.6243914134480586
-0.0059602735564112,1.3811230659484863,-0.1513892263174057,-0.3369091749191284,0.0123454974964261,0.0844995453953743,0.0,0.0,0.4155713677200596,0.6575593442962435
-0.0072626112960278,1.3740832805633545,-0.1334859281778335,-0.3129128515720367,0.0155647350475192,0.0643906965851783,0.0,0.0,0.7871514786349709,-0.903966419195887
-0.0084775928407907,1.367621898651123,-0.1269472986459732,-0.2872350811958313,0.0209423676133155,0.1075624823570251,0.0,0.0,-0.3888756013290397,-0.5292149498781042
-0.0097329141572117,1.3608561754226685,-0.1321491003036499,-0.3008095622062683,0.0274904314428567,0.1309733986854553,0.0,0.0,0.0431909330377964,0.7363948905810411
-0.0108295436948537,1.3544089794158936,-0.1150055304169654,-0.2866520881652832,0.0327722057700157,0.1056452840566635,0.0,0.0,-0.1813112229977582,0.72329822292971
-0.0118671413511037,1.347669005393982,-0.1077900752425193,-0.2996504008769989,0.0367718078196048,0.0799991115927696,0.0,0.0,0.1213632841546181,0.9312633786308486
-0.0128462789580225,1.341374397277832,-0.1002383083105087,-0.2798143923282623,0.0390656664967536,0.0458813235163688,0.0,0.0,-0.0221438241595086,-0.8202439215168698
-0.0138767240568995,1.3347737789154053,-0.1069283708930015,-0.2934693694114685,0.0429113395512104,0.0769205167889595,0.0,0.0,0.7079786384602411,0.5252364233703961
-0.0148069383576512,1.3286948204040527,-0.0962577983736991,-0.2702706158161163,0.0461124740540981,0.064028576016426,0.0,0.0,0.7711173479244053,-0.8682465126289586
-0.0156813617795705,1.32344651222229,-0.092898704111576,-0.2334353476762771,0.0515132695436477,0.1080254912376403,0.0,0.0,-0.5085873434373649,0.8607503100925482
-0.0164753906428813,1.3178927898406982,-0.0831284672021865,-0.2469677180051803,0.0552146770060062,0.0740346685051918,0.0,0.0,0.3613644680641317,0.9933742761503112
-0.0170894619077444,1.3130810260772705,-0.0634708479046821,-0.2139304727315902,0.0572478845715522,0.0406679734587669,0.0,0.0,0.1843439878500479,0.9595356526402522
-0.0175423622131347,1.3082879781723022,-0.0456807874143123,-0.213036298751831,0.0576331280171871,0.0077055655419826,0.0,0.0,0.5046517474129744,0.7585906060488223
-0.0178362838923931,1.3043842315673828,-0.0287574119865894,-0.1734705120325088,0.0569992735981941,-0.0126780029386281,0.0,0.0,-0.7153592715316761,-0.947082841839754
-0.0181814190000295,1.3001642227172852,-0.0355790928006172,-0.1876020282506942,0.0580599829554557,0.021216157823801,0.0,0.0,0.4387594073027536,-0.5123283409832525
-0.0185110084712505,1.296697020530701,-0.0355596989393234,-0.1542044430971145,0.0606354251503944,0.0515135526657104,0.0,0.0,-0.3569448158296187,0.5356941555273933
-0.0187981612980365,1.2929292917251587,-0.0306683629751205,-0.167533591389656,0.062564730644226,0.0385897234082222,0.0,0.0,-0.6424251371294363,0.7209710731116292
-0.0190108306705951,1.288870096206665,-0.0217406600713729,-0.180429920554161,0.0630424842238426,0.0095560085028409,0.0,0.0,-0.8452598700870491,0.8010498782451994
-0.0191526412963867,1.2845090627670288,-0.013326458632946,-0.1937855780124664,0.0621926411986351,-0.0169983468949794,0.0,0.0,-0.6827713159894637,0.5313287358399709
-0.0192372314631938,1.2798486948013306,-0.0066099055111408,-0.2070473730564117,0.060361910611391,-0.0366179682314395,0.0,0.0,0.069632263735327,-0.5533399253198859
-0.0193207748234272,1.2751822471618652,-0.0080219972878694,-0.2073878943920135,0.0600270852446556,-0.0066972761414945,0.0,0.0,-0.0636974858393419,-0.9524106125474052
-0.0194910056889057,1.2702066898345947,-0.0193728357553482,-0.2212355136871338,0.0623511373996734,0.0464854463934898,0.0,0.0,-0.0644557545000803,-0.6785391268829326
-0.0197205543518066,1.264903903007507,-0.027332853525877,-0.2358699142932891,0.066675953567028,0.08649642765522,0.0,0.0,-0.9792229558276382,-0.6222250898496086
-0.0199926383793354,1.2592971324920654,-0.0331489294767379,-0.2494648545980453,0.0725610181689262,0.1177016273140907,0.0,0.0,0.4036621430338329,-0.8357118077253141
-0.0205001831054687,1.2544246912002563,-0.0585694201290607,-0.2169539183378219,0.0802912712097168,0.1546051055192947,0.0,0.0,-0.7507606056383023,0.8767648138342228
-0.0209473613649606,1.2492634057998655,-0.0514780655503273,-0.2297667562961578,0.086992397904396,0.1340224742889404,0.0,0.0,-0.3855416085032153,0.7933593015658156
-0.0213271137326955,1.2438044548034668,-0.0435521937906742,-0.2429559975862503,0.092514581978321,0.1104434132575988,0.0,0.0,-0.1630112761443789,0.6437796611728943
-0.0216483119875192,1.2380571365356443,-0.0366972349584102,-0.2557250261306762,0.0970614925026893,0.0909383445978164,0.0,0.0,-0.9908717274665833,0.9556407928466796
-0.0218965522944927,1.2320109605789185,-0.0280987210571765,-0.2689334750175476,0.1003055572509765,0.0648813769221305,0.0,0.0,-0.92437744140625,0.9647488594055176
-0.0220729820430278,1.2256807088851929,-0.0195939652621746,-0.2814758419990539,0.102244384586811,0.0387762673199176,0.0,0.0,-0.7888954877853394,0.9497802257537842
-0.0221748352050781,1.219049096107483,-0.0108054131269454,-0.2947779893875122,0.1028542295098304,0.0121970865875482,0.0,0.0,-0.9617565870285034,0.9378058910369872
-0.0221940036863088,1.2121282815933228,-0.0009623354999348,-0.3075310885906219,0.1019071489572525,-0.0189416147768497,0.0,0.0,-0.9793494939804076,0.6000454425811768
-0.0221577640622854,1.20491623878479,0.0054581551812589,-0.3204101920127868,0.1000930517911911,-0.0362820625305175,0.0,0.0,-0.947663962841034,0.5419411659240723
-0.0220733638852834,1.1974046230316162,0.010943179950118,-0.3336844444274902,0.0976164266467094,-0.04953283816576,0.0,0.0,-0.9731521606445312,-0.1178209781646728
-0.0219816211611032,1.1895899772644043,0.0112896813079714,-0.347179114818573,0.0955120921134948,-0.0420864596962928,0.0,0.0,-0.9555640816688538,-0.1918756961822509
-0.0218827240169048,1.1814724206924438,0.0116372732445597,-0.3606735467910766,0.0937823057174682,-0.0345960110425949,0.0,0.0,-0.9687992334365844,-0.0972506999969482
-0.0217764861881732,1.1730515956878662,0.0119858682155609,-0.3741678595542907,0.0924290418624877,-0.0270653273910284,0.0,0.0,-0.8155559301376343,-0.0524401664733886
-0.0216630939394235,1.16432785987854,0.0123353833332657,-0.3876620233058929,0.0914541557431221,-0.0194979943335056,0.0,0.0,-0.9352418184280396,0.1413955688476562
-0.0215421672910451,1.1553010940551758,0.0126857357099652,-0.4011560678482055,0.0908593013882637,-0.0118972212076187,0.0,0.0,-0.964978039264679,-0.3470950126647949
-0.0214139930903911,1.145971179008484,0.0130368545651435,-0.4146500825881958,0.0906459838151931,-0.0042661791667342,0.0,0.0,-0.9717711806297302,-0.3153899312019348
-0.0212783813476562,1.1363381147384644,0.0133886635303497,-0.428144097328186,0.0908155962824821,0.0033922712318599,0.0,0.0,-0.9745013117790222,0.4563825130462646
-0.0211353302001953,1.1264020204544067,0.0137410908937454,-0.4416381120681762,0.0913693681359291,0.0110754128545522,0.0,0.0,-0.9389738440513612,-0.1947696208953857
-0.0209849365055561,1.116162896156311,0.0140940677374601,-0.4551321864128113,0.0923083871603012,0.0187806915491819,0.0,0.0,-0.9621474742889404,-0.4249966144561767
-0.0208271034061908,1.1056206226348877,0.0144475298002362,-0.4686263501644134,0.0936336740851402,0.0265057142823934,0.0,0.0,-0.9159797430038452,0.4967644214630127
-0.0206618309020996,1.0947753190994265,0.0148014109581708,-0.4821206331253052,0.0953460857272148,0.0342481955885887,0.0,0.0,-0.9485172033309937,0.5630028247833252
-0.0204548835754394,1.083636999130249,0.0194637365639209,-0.495118498802185,0.0965696349740028,0.0244710948318243,0.0,0.0,-0.9662172198295592,-0.2690685987472534
-0.0202404018491506,1.072195529937744,0.019818227738142,-0.508612871170044,0.098181739449501,0.0322421938180923,0.0,0.0,-0.9631606340408324,0.3001828193664551
-0.0200185775756835,1.0604511499404907,0.0201729498803615,-0.5221073627471924,0.1001829728484153,0.040024597197771,0.0,0.0,-0.8862576484680176,0.7903730869293213
-0.0197333339601755,1.048417568206787,0.0275557246059179,-0.5348955988883972,0.1011466607451438,0.0192737579345703,0.0,0.0,-0.9560176730155944,0.241716980934143
-0.0194405559450387,1.036080837249756,0.0279106404632329,-0.5483899712562561,0.1025003269314765,0.0270731654018163,0.0,0.0,-0.6975412964820862,-0.1434472203254699
-0.0191402435302734,1.0234410762786863,0.0282655861228704,-0.5618845224380493,0.1042442321777343,0.0348783619701862,0.0,0.0,-0.8074021935462952,0.8144545555114746
-0.0187524799257516,1.0105080604553225,0.0386759042739868,-0.5748149752616882,0.1043536514043808,0.0021882278379052,0.0,0.0,-0.5475376844406128,-0.2648409605026245
-0.0183570869266986,0.9972717761993408,0.0390306338667869,-0.5883094072341919,0.1048536449670791,0.0099999448284506,0.0,0.0,-0.7843608856201172,-0.5399826169013977
-0.017990494146943,0.9837318658828736,0.0348508618772029,-0.6019001603126526,0.1066511124372482,0.0359490476548671,0.0,0.0,-0.4204564094543457,0.8800091743469238
-0.0175315849483013,0.9699063897132874,0.0458605848252773,-0.6144745945930481,0.1066803038120269,0.0005839386722072,0.0,0.0,-0.1114394068717956,0.7842440605163574
-0.0169964786618948,0.9557969570159912,0.0548621341586113,-0.6269906163215637,0.1053385213017463,-0.0268354415893554,0.0,0.0,0.1034696102142334,0.5301382541656494
-0.0165235511958599,0.9421697854995728,0.0494185425341129,-0.6055031418800354,0.103226289153099,-0.0422447249293327,0.0,0.0,-0.867220938205719,-0.2062705755233764
-0.0160431861877441,0.9282395839691162,0.0497715920209884,-0.6189978718757629,0.1015040129423141,-0.0344456508755683,0.0,0.0,-0.5761805176734924,0.0674688816070556
-0.0155553817749023,0.9140065908432008,0.050124030560255,-0.6324924230575562,0.1001713126897811,-0.0266540795564651,0.0,0.0,-0.2134084701538086,0.1916466951370239
-0.0150600429624319,0.8994704484939575,0.0504757836461067,-0.6459869146347046,0.0992277190089225,-0.0188716556876897,0.0,0.0,-0.2275307178497314,-0.1670827269554138
-0.0145573616027832,0.884631335735321,0.0508267469704151,-0.6594813466072083,0.0986726954579353,-0.0111001329496502,0.0,0.0,0.0345548391342163,0.6731290817260742
-0.0140130994841456,0.8698675632476807,0.0559402294456958,-0.6560678482055664,0.0971706286072731,-0.0300414469093084,0.0,0.0,-0.4007033109664917,-0.8612730503082275
-0.0135432239621877,0.8547892570495605,0.0460245534777641,-0.6702075600624084,0.0981254205107688,0.0190958492457866,0.0,0.0,0.1992595195770263,0.869172215461731
-0.0130411144345998,0.8403581380844116,0.0505972132086753,-0.6413573026657104,0.0977404713630676,-0.0076989764347672,0.0,0.0,-0.3705428838729858,0.6848354339599609
-0.0124697685241699,0.8256248831748962,0.0586876161396503,-0.6547106504440308,0.0961925238370895,-0.0309587158262729,0.0,0.0,-0.0141710638999938,0.4080426692962646
-0.0118911741301417,0.8105884790420532,0.0590331964194774,-0.6682049036026001,0.0950290709733963,-0.0232690256088972,0.0,0.0,-0.3853824138641357,0.3685873746871948
-0.0113053321838378,0.7952491044998169,0.0593773014843463,-0.6816990971565247,0.0942489877343177,-0.0156017523258924,0.0,0.0,-0.3106089830398559,0.9684576988220216
-0.0106477737426757,0.7796198725700378,0.0678092092275619,-0.6945029497146606,0.0922136306762695,-0.0407073348760604,0.0,0.0,-0.3696213960647583,0.539090633392334
-0.0099384309723973,0.7636948823928833,0.0737467557191848,-0.7076069712638855,0.089429423213005,-0.0556845180690288,0.0,0.0,0.2417109012603759,0.9036965370178224
-0.0093195913359522,0.748420000076294,0.0661940425634384,-0.6786366701126099,0.0851576849818229,-0.085434466600418,0.0,0.0,-0.4243793487548828,0.1423203945159912
-0.0086936000734567,0.7328420281410217,0.0665309280157089,-0.6921319365501404,0.0812637358903884,-0.0778792053461074,0.0,0.0,-0.2217863798141479,0.286644697189331
-0.0080605503171682,0.7169612050056458,0.0668654590845108,-0.7056267857551575,0.0777458250522613,-0.0703582912683487,0.0,0.0,-0.0176452994346618,0.7368743419647217
-0.0073551177047193,0.7007771134376526,0.0753563717007637,-0.7190450429916382,0.0729708895087242,-0.0954985469579696,0.0,0.0,-0.1806548833847046,-0.525121808052063
-0.0066861151717603,0.6842801570892334,0.0702376812696456,-0.7330393195152283,0.0696700736880302,-0.0660161972045898,0.0,0.0,-0.3260577321052551,-0.0612170100212097
-0.006010151002556,0.6674801111221313,0.0705638527870178,-0.7465334534645081,0.0667393058538436,-0.0586153976619243,0.0,0.0,-0.0847991704940795,0.0271337032318115
-0.0053271292708814,0.6503769159317017,0.0708867385983467,-0.7600272297859192,0.0641762688755989,-0.0512608177959919,0.0,0.0,0.1686081886291504,0.042471170425415
-0.0047535896301269,0.633828341960907,0.0599502399563789,-0.7353818416595459,0.061611283570528,-0.0512997917830944,0.0,0.0,-0.1500777006149292,0.6030807495117188
-0.0041356086730957,0.616973876953125,0.0649839714169502,-0.74895840883255,0.0584677271544933,-0.0628711432218551,0.0,0.0,0.2215445041656494,-0.6461358070373535
-0.0035630227066576,0.6006957292556763,0.0587219670414924,-0.7234202027320862,0.0570204518735408,-0.0289456434547901,0.0,0.0,-0.3024427890777588,0.4912822246551513
-0.0029837607871741,0.5841142535209656,0.0590284988284111,-0.7369130849838257,0.0559298656880855,-0.0218116845935583,0.0,0.0,-0.6631856560707092,0.7100739479064941
-0.0023469924926757,0.5672367811203003,0.0657182037830352,-0.7500345706939697,0.053907535970211,-0.0404464751482009,0.0,0.0,-0.2792631983757019,0.5135023593902588
-0.0016641616821289,0.5500619411468506,0.0709955543279647,-0.7632318139076233,0.051233060657978,-0.0534897968173027,0.0,0.0,0.2447357177734375,-0.5080692172050476
-0.0009659767383709,0.5332430005073547,0.0709871873259544,-0.7474702596664429,0.0500733144581317,-0.0231948010623455,0.0,0.0,-0.1761966347694397,0.2601499557495117
-0.0002615928533487,0.5161206722259521,0.0712709948420524,-0.7609628438949585,0.049255933612585,-0.0163475647568702,0.0,0.0,0.0520904064178466,-0.4245911836624145
0.000495433807373,0.4990835785865783,0.0759100914001464,-0.7571974396705627,0.0490499809384346,-0.0041188732720911,0.0,0.0,0.5021369457244873,-0.5425568222999573
0.0013342857128009,0.4825282692909241,0.0823047757148742,-0.7358408570289612,0.0506123602390289,0.0312474910169839,0.0,0.0,0.1733627319335937,0.57916259765625
0.0023203850723803,0.4660967588424682,0.097662553191185,-0.7303240895271301,0.0515432953834533,0.0186189375817775,0.0,0.0,0.4435372352600097,-0.6955906748771667
0.0032177926041185,0.4503455460071563,0.0870843082666397,-0.7001448273658752,0.054171584546566,0.0525656268000602,0.0,0.0,0.0008075237274169,-0.1817853450775146
0.0041147232986986,0.4349809885025024,0.0866249948740005,-0.6829846501350403,0.0572053529322147,0.0606752857565879,0.0,0.0,0.0903820991516113,0.4842615127563476
0.0050740242004394,0.4199796617031097,0.0921639874577522,-0.6668770909309387,0.0609325766563415,0.0745443627238273,0.0,0.0,-0.282652735710144,0.6852641105651855
0.0061021805740892,0.40467369556427,0.1003448516130447,-0.6803682446479797,0.0633762702345848,0.0488740690052509,0.0,0.0,0.4998743534088135,0.2224495410919189
0.0070585249923169,0.3897520899772644,0.0930914431810379,-0.6632947325706482,0.065900482237339,0.0504840798676013,0.0,0.0,0.1242984533309936,-0.1205213069915771
0.008038711734116,0.375411719083786,0.0949031934142112,-0.6374896168708801,0.0689857602119445,0.061705470085144,0.0,0.0,-0.2419856786727905,0.0593762397766113
0.0090237613767385,0.3607681393623352,0.0950884521007537,-0.6509830951690674,0.0723588988184928,0.0674625858664512,0.0,0.0,0.4243216514587402,0.6698962450027466
0.0098983766511082,0.3468465507030487,0.0853399559855461,-0.6188425421714783,0.0744564905762672,0.0419519022107124,0.0,0.0,0.0809283256530761,0.2424439191818237
0.0108001707121729,0.3333110511302948,0.087514542043209,-0.6017124056816101,0.0770907029509544,0.052684336900711,0.0,0.0,-0.0513234138488769,0.4806838035583496
0.0117059703916311,0.3194724321365356,0.0876555740833282,-0.6152057647705078,0.0799903199076652,0.0579923801124095,0.0,0.0,0.396340012550354,0.4692333936691284
0.0124954227358102,0.3062684535980224,0.0760823935270309,-0.5869983434677124,0.0828237310051918,0.0566680245101451,0.0,0.0,0.4093450307846069,0.2872861623764038
0.0132321361452341,0.2933937013149261,0.0706618279218673,-0.5723808407783508,0.0858077555894851,0.0596803203225135,0.0,0.0,0.39816415309906,0.5108931064605713
0.0138627048581838,0.280968427658081,0.0610885992646217,-0.5523502230644226,0.0877541154623031,0.0389275327324867,0.0,0.0,0.8217403888702393,0.672014594078064
0.0143201826140284,0.2690846621990204,0.0453418418765068,-0.5281886458396912,0.0881597995758056,0.0081135472282767,0.0,0.0,0.852441668510437,0.243830919265747
0.0148278232663869,0.2581173479557037,0.0495796091854572,-0.4875093102455139,0.0893363207578659,0.0235304050147533,0.0,0.0,0.7456905841827393,0.459578275680542
0.0153677938506007,0.2474378645420074,0.0522900223731994,-0.4747468829154968,0.0910243988037109,0.0337617620825767,0.0,0.0,0.663665771484375,0.770113468170166
0.016060447320342,0.2376388609409332,0.0686021149158477,-0.435551643371582,0.0916834473609924,0.0131809515878558,0.0,0.0,0.4175384044647217,-0.8564004302024841
0.016603946685791,0.2285259366035461,0.0518063306808471,-0.4051794707775116,0.0942123308777809,0.050577413290739,0.0,0.0,0.6445374488830566,0.14849853515625
0.0172104835510253,0.2203999906778335,0.0572593323886394,-0.3613698780536651,0.0975791290402412,0.0673359930515289,0.0,0.0,0.3871307373046875,0.3847301006317138
0.0178345683962106,0.2127067595720291,0.0585503578186035,-0.3421782255172729,0.1014124676585197,0.0766665488481521,0.0,0.0,0.5120296478271484,0.404552698135376
0.0183774940669536,0.2058245092630386,0.050296314060688,-0.3061543703079223,0.105374552309513,0.0792417526245117,0.0,0.0,0.4953179359436035,0.5350284576416016
0.0189466476440429,0.199723020195961,0.0537032485008239,-0.2714051306247711,0.1085624098777771,0.0637573674321174,0.0,0.0,0.4127142429351806,0.3985681533813476
0.0195420272648334,0.1939141303300857,0.0558799393475055,-0.258441686630249,0.1122059598565101,0.0728706791996955,0.0,0.0,0.066362977027893,0.6452466249465942
0.0200547222048044,0.1883916407823562,0.0488768592476844,-0.2456284165382385,0.1145834848284721,0.0475504994392395,0.0,0.0,-0.2710235118865967,0.373989462852478
0.0205671302974224,0.1825658231973648,0.0487339384853839,-0.2591210603713989,0.1170751228928566,0.0498327203094959,0.0,0.0,0.5818102359771729,0.2172667980194091
0.0209955219179391,0.1772370934486389,0.0403184667229652,-0.2370309233665466,0.1195739209651947,0.0499760098755359,0.0,0.0,-0.3808119297027588,-0.3427386283874511
0.0214229580014944,0.1716050952672958,0.040140263736248,-0.2505234181880951,0.1221637278795242,0.051796268671751,0.0,0.0,0.5834434032440186,-0.2092019319534301
0.0219314582645893,0.1662057787179947,0.0475880354642868,-0.2402414679527282,0.1254119724035263,0.0649648159742355,0.0,0.0,0.7849516868591309,-0.1185529232025146
0.0224506370723247,0.1616223454475402,0.0480975657701492,-0.2040340900421142,0.129215195775032,0.0760641023516655,0.0,0.0,-0.1764707565307617,0.3109979629516601
0.0229681972414255,0.1567356437444687,0.0478721372783184,-0.2175269573926925,0.1330748349428177,0.0771927088499069,0.0,0.0,0.1906948089599609,-0.0260255932807922
0.0234992988407611,0.1518891453742981,0.0489850454032421,-0.215776264667511,0.1371917873620987,0.0823387280106544,0.0,0.0,0.260278582572937,0.6054222583770752
0.0240930560976266,0.1474667936563491,0.0562780201435089,-0.1968364119529724,0.1402812004089355,0.061788409948349,0.0,0.0,0.4415029287338257,-0.5941383838653564
