x_pos,y_pos,x_vel,y_vel,angle,ang_vel,leg_1,leg_2,main_booster,lat_booster
-0.0015835762023925,1.4032994508743286,-0.1603467017412185,-0.3386951088905334,0.0017931543989107,0.035373892635107,0.0,0.0,-0.6285483241081238,0.5456709861755371
-0.003180980682373,1.395374417304993,-0.1603036373853683,-0.3522231876850128,0.0023424990940839,0.0109886676073074,0.0,0.0,-0.3129787445068359,0.922940731048584
-0.0047505376860499,1.3871175050735474,-0.1552199572324752,-0.3669719398021698,0.0006280241650529,-0.0342926383018493,0.0,0.0,-0.1742687225341797,0.823157787322998
-0.0063289641402661,1.378532886505127,-0.1547416150569915,-0.3815369606018066,-0.0024357934016734,-0.0612819492816925,0.0,0.0,-0.1939360499382019,0.322028636932373
-0.0079683307558298,1.3696233034133911,-0.1607925295829773,-0.395981878042221,-0.0055508282966911,-0.0623064041137695,0.0,0.0,0.4071216583251953,0.4811830520629883
-0.0095496177673339,1.361081838607788,-0.1554741859436035,-0.379630833864212,-0.0081673096865415,-0.052334226667881,0.0,0.0,0.2057597637176513,0.3195867538452148
-0.0112051963806152,1.3528478145599363,-0.1627748012542724,-0.3659765124320984,-0.0109315915033221,-0.0552908666431903,0.0,0.0,-0.3952857851982116,0.5159326791763306
-0.0128718372434377,1.3442896604537964,-0.1625029146671295,-0.3804036676883697,-0.0150474878028035,-0.082325629889965,0.0,0.0,-0.0979673862457275,0.7364606857299805
-0.0145433424040675,1.3354134559631348,-0.1614553481340408,-0.3945629894733429,-0.0206781234592199,-0.1126231178641319,0.0,0.0,-0.0801602005958557,0.3799350261688232
-0.016276741400361,1.3262128829956057,-0.1675472259521484,-0.4090102314949035,-0.0264032538980245,-0.1145130395889282,0.0,0.0,-0.2308418154716491,0.8975639343261719
-0.0179913528263568,1.3166851997375488,-0.1635066419839859,-0.4236074090003967,-0.0342654436826705,-0.1572584807872772,0.0,0.0,-0.1069780588150024,0.6336386203765869
-0.0197122581303119,1.3068294525146484,-0.1626079380512237,-0.4382752776145935,-0.0436428934335708,-0.1875662803649902,0.0,0.0,-0.2932108640670776,0.0473862886428833
-0.0214951522648334,1.296649932861328,-0.1687009632587433,-0.4527272880077362,-0.0531413070857524,-0.1899856030941009,0.0,0.0,-0.414042592048645,0.7581262588500977
-0.0232740398496389,1.2861344814300537,-0.1664721816778183,-0.4677894413471222,-0.0644481852650642,-0.2261581718921661,0.0,0.0,-0.5342851877212524,0.8724980354309082
-0.0250299461185932,1.2752972841262815,-0.16188944876194,-0.4823025465011596,-0.0780287161469459,-0.2716351747512817,0.0,0.0,-0.2475621700286865,0.5997631549835205
-0.0267927162349224,1.2641242742538452,-0.1610116064548492,-0.497440367937088,-0.0931662321090698,-0.3027781248092651,0.0,0.0,-0.560912549495697,-0.0047784447669982
-0.0286174770444631,1.252629637718201,-0.1670877635478973,-0.5119059085845947,-0.1084591373801231,-0.3058858513832092,0.0,0.0,-0.4019892811775207,0.2872053384780884
-0.0305044166743755,1.240813374519348,-0.1731606572866439,-0.5263718962669373,-0.1239164993166923,-0.309175431728363,0.0,0.0,-0.229627251625061,0.124130368232727
-0.0324535369873046,1.228675365447998,-0.1792288124561309,-0.540839433670044,-0.1395465582609176,-0.3126296997070312,0.0,0.0,0.3124948740005493,-0.4679751396179199
-0.0344655998051166,1.2168972492218018,-0.1850814074277877,-0.5250592827796936,-0.1556571573019027,-0.3222410082817077,0.0,0.0,0.1293517351150512,-0.962810218334198
-0.0364322662353515,1.2055597305297852,-0.1823200285434723,-0.5054589509963989,-0.1700288504362106,-0.2874601185321808,0.0,0.0,-0.0944578051567077,-0.9007490277290344
-0.038530446588993,1.1939122676849363,-0.1970635801553726,-0.5191655158996582,-0.1828343123197555,-0.2561319172382355,0.0,0.0,-0.5361446142196655,-0.9118782877922058
-0.0407464988529682,1.1819566488265991,-0.2101030051708221,-0.5328227877616882,-0.1944126188755035,-0.23158660531044,0.0,0.0,0.3995250463485718,-0.5691061019897461
-0.042955495417118,1.170055270195007,-0.2104764431715011,-0.5303484797477722,-0.2049245834350586,-0.2102580517530441,0.0,0.0,0.4553370475769043,-0.6705801486968994
-0.0452977195382118,1.1587233543395996,-0.2246729135513305,-0.5049940347671509,-0.2145712226629257,-0.1929499059915542,0.0,0.0,-0.432786226272583,-0.711127519607544
-0.0477728843688964,1.1470729112625122,-0.2395101338624954,-0.5189791917800903,-0.2226670086383819,-0.1619153320789337,0.0,0.0,0.6879614591598511,-0.573032021522522
-0.0501859672367572,1.136202096939087,-0.2342432290315628,-0.4842405021190643,-0.2298328429460525,-0.1433165967464447,0.0,0.0,-0.4105851054191589,-0.0443387627601623
-0.0526615157723426,1.125007390975952,-0.2402506321668625,-0.4986923336982727,-0.237243577837944,-0.1482146233320236,0.0,0.0,-0.3949742317199707,0.7047560214996338
-0.0551561340689659,1.1134799718856812,-0.2408189475536346,-0.513752281665802,-0.2460151761770248,-0.1754321157932281,0.0,0.0,0.0823233127593994,-0.5468201041221619
-0.0576917640864849,1.1021132469177246,-0.2457656562328338,-0.5065169334411621,-0.2539677619934082,-0.1590524017810821,0.0,0.0,-0.4778821468353271,-0.263776421546936
-0.0602893829345703,1.0904232263565063,-0.251713216304779,-0.5209705829620361,-0.262185275554657,-0.16435007750988,0.0,0.0,0.7727322578430176,0.4704816341400146
-0.0629075989127159,1.0791237354278564,-0.2531324028968811,-0.5037733316421509,-0.2710598707199096,-0.1774919778108596,0.0,0.0,-0.7226951122283936,-0.5535785555839539
-0.0656339675188064,1.0675262212753296,-0.2649639248847961,-0.5168899297714233,-0.2789309322834015,-0.1574210375547409,0.0,0.0,-0.228891909122467,-0.7095394730567932
-0.0684823021292686,1.0556247234344482,-0.2784458994865417,-0.5301891565322876,-0.2854988574981689,-0.1313583999872207,0.0,0.0,0.7897336483001709,-0.7303312420845032
-0.0712368935346603,1.0443954467773438,-0.2702818214893341,-0.5001038312911987,-0.2908285856246948,-0.1065942272543907,0.0,0.0,-0.2607818245887756,-0.2896995544433594
-0.0740522369742393,1.0328423976898191,-0.2760895490646362,-0.5145560503005981,-0.296450525522232,-0.1124385818839073,0.0,0.0,-0.0471376180648803,-0.4632265567779541
-0.0769281387329101,1.0209662914276123,-0.2818630039691925,-0.5290087461471558,-0.3023691475391388,-0.1183723583817482,0.0,0.0,0.2502351999282837,-0.1513488888740539
-0.0796651840209961,1.0095787048339844,-0.2678236365318298,-0.5073476433753967,-0.3084553778171539,-0.1217247247695922,0.0,0.0,-0.1999589800834655,-0.080681562423706
-0.0824620276689529,0.997868001461029,-0.273520678281784,-0.521801233291626,-0.3148462176322937,-0.1278172731399536,0.0,0.0,-0.057191252708435,-0.42149817943573
-0.0853182822465896,0.9858341217041016,-0.2791754901409149,-0.536255419254303,-0.3215451538562774,-0.1339787989854812,0.0,0.0,0.2851492166519165,0.3782293796539306
-0.0881207436323165,0.97437846660614,-0.2731528878211975,-0.5107341408729553,-0.3289395272731781,-0.1478872597217559,0.0,0.0,0.3139822483062744,-0.4793643355369568
-0.0907542258501052,0.963143527507782,-0.2564088702201843,-0.5009364485740662,-0.3361937701702118,-0.1450850814580917,0.0,0.0,0.4235177040100097,-0.2628951072692871
-0.0932776480913162,0.9519267082214355,-0.2454710304737091,-0.5001413226127625,-0.3433771133422851,-0.1436671614646911,0.0,0.0,0.6387951374053955,-0.8458361625671387
-0.0956417098641395,0.9411041736602784,-0.2310793846845626,-0.4822854399681091,-0.3489785194396972,-0.1120282560586929,0.0,0.0,0.1799863576889038,-0.3887540698051452
-0.0980181694030761,0.9302698969841005,-0.2318815290927887,-0.482932448387146,-0.355034202337265,-0.1211134046316146,0.0,0.0,-0.09830242395401,-0.5418590307235718
-0.100489042699337,0.9191279411315918,-0.2420047521591186,-0.4964653551578522,-0.3603905141353607,-0.1071261018514633,0.0,0.0,0.6848466396331787,-0.4262077808380127
-0.1027966514229774,0.9082696437835692,-0.2256488353013992,-0.4838837385177612,-0.3657811284065246,-0.1078124642372131,0.0,0.0,0.7398074865341187,0.423474907875061
-0.1049554795026779,0.8983818292617798,-0.2099705189466476,-0.4409866631031036,-0.3720418512821197,-0.1252141743898391,0.0,0.0,0.333999752998352,-0.8561243414878845
-0.107111357152462,0.8891703486442566,-0.2109570503234863,-0.4106164276599884,-0.3769613802433014,-0.0983904600143432,0.0,0.0,0.7716705799102783,-0.7462182641029358
-0.1091978996992111,0.8804404735565186,-0.2051188498735427,-0.3889367878437042,-0.3807197511196136,-0.0751676708459854,0.0,0.0,0.9549672603607178,-0.3200452923774719
-0.1109283417463302,0.8722338080406189,-0.1699422895908355,-0.365576684474945,-0.3840145170688629,-0.0658955127000808,0.0,0.0,0.7106740474700928,-0.5040143132209778
-0.1125190705060958,0.864825427532196,-0.1565006226301193,-0.3299528658390045,-0.3867623507976532,-0.0549565739929676,0.0,0.0,0.9667668342590332,-0.6550604104995728
-0.1138803511857986,0.8577760457992554,-0.1348455846309662,-0.313660204410553,-0.3881252408027649,-0.0272578410804271,0.0,0.0,0.8848364353179932,-0.7062699198722839
-0.1149928122758865,0.8517017960548401,-0.1110505685210228,-0.2700149416923523,-0.3883297145366668,-0.0040896823629736,0.0,0.0,0.9294298887252808,-0.5763477683067322
-0.1158092468976974,0.8460133671760559,-0.0827485024929046,-0.2525224387645721,-0.3871509134769439,0.0235758405178785,0.0,0.0,0.5793325901031494,-0.8171587586402893
-0.1166573539376258,0.840717613697052,-0.087064079940319,-0.2347592860460281,-0.3847565650939941,0.0478868521749973,0.0,0.0,0.8620227575302124,-0.4381468892097473
-0.1171164512634277,0.8362877368927002,-0.0483275242149829,-0.1962355524301529,-0.3821796774864197,0.0515376403927803,0.0,0.0,0.5461195707321167,-0.8499613404273987
-0.1173121482133865,0.8323726058006287,-0.0235418435186147,-0.1729463040828704,-0.3779539465904236,0.0845138803124427,0.0,0.0,0.4448717832565307,-0.9440327882766724
-0.1172828674316406,0.8291469216346741,-0.0026746471412479,-0.1418939679861068,-0.3720096051692962,0.1188872084021568,0.0,0.0,-0.7125625014305115,-0.9399549961090088
-0.1173711791634559,0.8256511688232422,-0.0162439085543155,-0.1534587740898132,-0.3641703426837921,0.1567851603031158,0.0,0.0,-0.1303141117095947,-0.9332398176193236
-0.1175649613142013,0.821861207485199,-0.0281926393508911,-0.166236937046051,-0.3548746109008789,0.185913935303688,0.0,0.0,-0.9706029891967772,-0.7282660603523254
-0.1178596466779708,0.8177869319915771,-0.0397082604467868,-0.178581565618515,-0.3441139757633209,0.2152118980884552,0.0,0.0,-0.8657991290092468,0.3096309900283813
-0.1181920021772384,0.8133904337882996,-0.0432485602796077,-0.1930413991212844,-0.333629697561264,0.2096854448318481,0.0,0.0,-0.8853635191917419,0.7382457256317139
-0.1185032874345779,0.8086428046226501,-0.0394093617796897,-0.2091185003519058,-0.3249822854995727,0.1729482114315033,0.0,0.0,-0.9895662665367126,0.5680539608001709
-0.1188071221113205,0.8035464882850647,-0.0373081676661968,-0.2249686121940612,-0.3177763223648071,0.1441192775964737,0.0,0.0,-0.3902751803398132,-0.4093401432037353
-0.1191437691450119,0.7981268763542175,-0.040373645722866,-0.2394222915172577,-0.310823917388916,0.1390483677387237,0.0,0.0,-0.8658106327056885,-0.209134817123413
-0.1195117011666297,0.7923837900161743,-0.0432727560400962,-0.2538753449916839,-0.3041163682937622,0.134150892496109,0.0,0.0,-0.0658127069473266,0.0102661848068237
-0.1199090927839279,0.7863174080848694,-0.0460015758872032,-0.2683277428150177,-0.2976444065570831,0.1294383704662323,0.0,0.0,-0.9748787879943848,-0.5689524412155151
-0.1203736290335655,0.7799524664878845,-0.0535899214446544,-0.2814441323280334,-0.2902864813804626,0.1471590101718902,0.0,0.0,-0.6466595530509949,0.1171588897705078
-0.1208640113472938,0.7732641100883484,-0.055968414992094,-0.2958965897560119,-0.2831439077854156,0.1428514122962951,0.0,0.0,-0.9358006119728088,-0.0595908164978027
-0.1213780418038368,0.7662520408630371,-0.0581671185791492,-0.3103483915328979,-0.2762056887149811,0.1387645006179809,0.0,0.0,-0.9670419096946716,0.6125141382217407
-0.1218650788068771,0.7588966488838196,-0.0540092960000038,-0.32591313123703,-0.2707645297050476,0.1088229045271873,0.0,0.0,-0.6576042175292969,0.1493401527404785
-0.1223720535635948,0.7512173652648926,-0.0558415278792381,-0.3403625190258026,-0.2655038237571716,0.1052138656377792,0.0,0.0,-0.9600372314453124,-0.555609405040741
-0.1229341477155685,0.74322909116745,-0.0621647052466869,-0.3539637625217438,-0.2594230473041534,0.1216156631708145,0.0,0.0,-0.963398814201355,0.5026047229766846
-0.1234768852591514,0.7348986864089966,-0.0591372624039649,-0.3693877160549164,-0.2544598579406738,0.099263921380043,0.0,0.0,-0.9538999795913696,-0.328730046749115
-0.1240337342023849,0.7262442111968994,-0.0604122392833232,-0.3838356137275696,-0.2496366649866104,0.0964636951684951,0.0,0.0,-0.9541882872581482,-0.0987743139266967
-0.1246026009321212,0.7172651886940002,-0.0615012422204017,-0.3982830047607422,-0.2449387907981872,0.0939575880765914,0.0,0.0,-0.9515960812568665,-0.7761158347129822
-0.1252405196428299,0.7079916000366211,-0.0698753148317337,-0.4111638069152832,-0.2387558668851852,0.1236584559082984,0.0,0.0,-0.9481650590896606,0.0126333236694335
-0.1258864402770996,0.6983937621116638,-0.0705955922603607,-0.4256117045879364,-0.2326670438051223,0.1217763572931289,0.0,0.0,-0.8956613540649414,-0.018001914024353
-0.1265385597944259,0.6884717345237732,-0.0711335688829422,-0.4400591552257538,-0.2266558557748794,0.1202238202095031,0.0,0.0,-0.7180511951446533,-0.2523738145828247
-0.1271945983171463,0.6782251000404358,-0.0714914426207542,-0.4545061290264129,-0.2207052707672119,0.1190119162201881,0.0,0.0,-0.9528487920761108,0.0916657447814941
-0.1278529167175293,0.6676543354988098,-0.0716718509793281,-0.4689527153968811,-0.2147977203130722,0.118151344358921,0.0,0.0,-0.9935508966445924,-0.0088054537773132
-0.1285114288330078,0.6567589640617371,-0.0716778486967086,-0.4833989441394806,-0.2089150995016098,0.1176521778106689,0.0,0.0,-0.9052416682243348,-0.3678405284881592
-0.1291683167219162,0.6455393433570862,-0.0715128853917121,-0.497844785451889,-0.2030389010906219,0.117523968219757,0.0,0.0,-0.9861388206481934,-0.0707889795303344
-0.1298216879367828,0.633994996547699,-0.0711807310581207,-0.512290358543396,-0.1971501260995865,0.1177754998207092,0.0,0.0,-0.9513903260231018,0.5922695398330688
-0.130417063832283,0.6221104264259338,-0.0640800818800926,-0.5276103019714355,-0.1925913393497467,0.0911759510636329,0.0,0.0,-0.9880384206771852,-0.0854753255844116
-0.1310054808855056,0.6099008917808533,-0.0634258091449737,-0.5420540571212769,-0.187980830669403,0.0922098308801651,0.0,0.0,-0.9874039888381958,-0.3994990587234497
-0.1315851211547851,0.5973665118217468,-0.0626174733042717,-0.5564975738525391,-0.183298572897911,0.0936454236507415,0.0,0.0,-0.9874374866485596,0.0190681219100952
-0.132154181599617,0.5845072865486145,-0.061659924685955,-0.5709409713745117,-0.1785241961479187,0.0954874604940414,0.0,0.0,-0.9860190749168396,0.1445755958557129
-0.1327110230922699,0.5713230967521667,-0.0605581812560558,-0.58538419008255,-0.1736371666193008,0.0977402180433273,0.0,0.0,-0.8268824815750122,0.6795299053192139
-0.1332010328769683,0.557805061340332,-0.0526757650077343,-0.600380539894104,-0.1699629724025726,0.0734841525554657,0.0,0.0,-0.7152460217475891,-0.274050235748291
-0.1336757689714431,0.5439618825912476,-0.0513009801506996,-0.6148223876953125,-0.1661346405744552,0.0765667259693145,0.0,0.0,-0.4960581660270691,0.4948625564575195
-0.1341338157653808,0.5297935009002686,-0.0497977808117866,-0.6292641758918762,-0.1621313393115997,0.0800660774111747,0.0,0.0,-0.1705410480499267,0.4631783962249756
-0.1345734596252441,0.5152999758720398,-0.0481715872883796,-0.6437059044837952,-0.1579322516918182,0.0839818790555,0.0,0.0,0.5516996383666992,-0.6592749953269958
-0.1350232064723968,0.5012129545211792,-0.0505989976227283,-0.625502347946167,-0.1523112803697586,0.1124190688133239,0.0,0.0,0.4802744388580322,0.7720779180526733
-0.1351900100708007,0.4879230260848999,-0.0211307294666767,-0.5902164578437805,-0.1478592455387115,0.0890406966209411,0.0,0.0,-0.1269137263298034,0.4101923704147339
-0.1353344917297363,0.4743078351020813,-0.0191681422293186,-0.6046578884124756,-0.1431496143341064,0.094192586839199,0.0,0.0,0.2674950361251831,0.848336935043335
-0.1354094445705413,0.4612901210784912,-0.01071282569319,-0.5782581567764282,-0.1399454921483993,0.0640823319554328,0.0,0.0,0.1149623394012451,-0.0075928568840026
-0.1353359222412109,0.4486342966556549,0.0035621132701635,-0.562129557132721,-0.1361719816923141,0.0754702538251876,0.0,0.0,-0.0914638638496398,0.3294064998626709
-0.1352366507053375,0.4356532096862793,0.0058127986267209,-0.5765700936317444,-0.1320812106132507,0.0818157941102981,0.0,0.0,0.6334202289581299,-0.3720155954360962
-0.1350942552089691,0.4234636723995209,0.0101729528978466,-0.5414021611213684,-0.128032386302948,0.0809767171740531,0.0,0.0,0.2871921062469482,0.1142650842666626
-0.1348937004804611,0.4115296900272369,0.0157124660909175,-0.5300322771072388,-0.1237180009484291,0.0862879008054733,0.0,0.0,-0.5225304365158081,-0.6183211803436279
-0.1347223222255706,0.3992820084095001,0.0109356492757797,-0.543842613697052,-0.1175562217831611,0.1232354640960693,0.0,0.0,0.1205979585647583,0.9264729022979736
-0.1345267295837402,0.3872444629669189,0.0148417828604578,-0.534636378288269,-0.1128631830215454,0.0938608646392822,0.0,0.0,0.1235743761062622,0.8090436458587646
-0.1340988129377365,0.3755898773670196,0.0392207130789756,-0.5177174210548401,-0.1093246042728424,0.0707713961601257,0.0,0.0,0.7959309816360474,-0.0098756551742553
-0.1335297524929046,0.3641970157623291,0.0526048950850963,-0.5060402750968933,-0.1050522327423095,0.0854475051164627,0.0,0.0,-0.2364747524261474,0.3269577026367187
-0.1329287588596344,0.3524788320064544,0.0553493201732635,-0.5204808712005615,-0.1003383323550224,0.0942779630422592,0.0,0.0,0.3629792928695678,0.6062706708908081
-0.1322034895420074,0.3413917124271393,0.0685666278004646,-0.4924998879432678,-0.0964157655835151,0.0784513503313064,0.0,0.0,-0.0098958015441894,-0.157683789730072
-0.1314450204372406,0.3299792408943176,0.0714097246527671,-0.5069403052330017,-0.0920210853219032,0.0878937691450119,0.0,0.0,0.762213945388794,0.4184075593948364
-0.1305150091648101,0.3191538453102112,0.0877020880579948,-0.4808154106140136,-0.0867634862661361,0.1051520928740501,0.0,0.0,-0.272756814956665,0.4710018634796142
-0.1295506507158279,0.3080032169818878,0.0906262919306755,-0.4952570497989654,-0.0810055658221244,0.1151585206389427,0.0,0.0,0.6472295522689819,0.086732268333435
-0.1284275949001312,0.2976942360401153,0.1056874617934227,-0.4578332304954529,-0.0744543820619583,0.1310236304998397,0.0,0.0,-0.8934586644172668,0.4784268140792846
-0.1272692680358886,0.2870603799819946,0.1086761206388473,-0.4722764194011688,-0.0673770830035209,0.1415461897850036,0.0,0.0,-0.3000007271766662,0.6427946090698242
-0.1260349303483963,0.2760987281799316,0.1167710646986961,-0.4869000315666199,-0.0607812292873859,0.1319170743227005,0.0,0.0,0.3386040925979614,0.7855648994445801
-0.1247942000627517,0.2654395699501037,0.1185668259859085,-0.4735290110111236,-0.0553477331995964,0.1086703091859817,0.0,0.0,-0.0955835580825805,0.4609652757644653
-0.1235174164175987,0.2544553875923157,0.1216229051351547,-0.4879718720912933,-0.0493537262082099,0.1198800802230835,0.0,0.0,0.2404652833938598,0.8361546993255615
-0.1220958679914474,0.2437382787466049,0.1371726095676422,-0.4761606454849243,-0.0444346256554126,0.0983821153640747,0.0,0.0,0.4219926595687866,-0.2182064652442932
-0.1205116286873817,0.2331525683403015,0.1523337513208389,-0.4703074395656585,-0.0384149923920631,0.1203926801681518,0.0,0.0,0.1921731233596801,-0.0166831016540527
-0.1188012138009071,0.2229776978492736,0.1640187203884124,-0.4520535469055176,-0.0314801670610904,0.1386964917182922,0.0,0.0,-0.3467773199081421,0.2028834819793701
-0.1170537918806076,0.2124782353639602,0.1671123802661895,-0.4664989113807678,-0.0239466801285743,0.1506697386503219,0.0,0.0,0.5237034559249878,-0.185357391834259
