x_pos,y_pos,x_vel,y_vel,angle,ang_vel,leg_1,leg_2,main_booster,lat_booster
-0.0015172004932537,1.403450608253479,-0.1537977308034896,-0.3319793343544006,0.0018563123885542,0.0366247966885566,0.0,0.0,-0.5615096589655988,-0.7704611555660688
-0.0030832290649414,1.3958265781402588,-0.159930020570755,-0.338856041431427,0.0051526166498661,0.0659328922629356,0.0,0.0,-0.4954499784748942,0.9177289176227192
-0.0045539857819676,1.3880221843719482,-0.1482749879360199,-0.346867561340332,0.0063320412300527,0.0235906057059764,0.0,0.0,-0.5428325673207439,-0.987018028098405
-0.0061103822663426,1.3800396919250488,-0.1593042910099029,-0.3547925055027008,0.0099576553329825,0.0725191384553909,0.0,0.0,-0.5887143493913858,-0.0205787129372229
-0.0076593398116528,1.3718836307525637,-0.1586766391992569,-0.3625219166278839,0.0136950742453336,0.0747554153203964,0.0,0.0,0.3905491182131146,0.9971390005619852
-0.0089951511472463,1.3642423152923584,-0.1355971097946167,-0.3396334052085876,0.0156829059123992,0.0397604219615459,0.0,0.0,-0.5585268964676542,0.6105514888071117
-0.0102770803496241,1.3564280271530151,-0.1291582882404327,-0.3473075330257416,0.0166342742741107,0.0190294422209262,0.0,0.0,0.2744922707618409,-0.874131269002934
-0.0114962579682469,1.34919273853302,-0.1248817294836044,-0.3216034471988678,0.019570268690586,0.0587251782417297,0.0,0.0,0.5202853813488595,-0.6387968998909248
-0.0127854347229003,1.342943549156189,-0.1332754790782928,-0.2778023481369018,0.0238810293376445,0.0862229987978935,0.0,0.0,0.8553906626941601,-0.8303073408903673
-0.0141531946137547,1.3377468585968018,-0.1429357975721359,-0.2310731261968612,0.0299790892750024,0.1219722479581832,0.0,0.0,-0.4342123153792121,-0.742863507292652
-0.01556396484375,1.3323750495910645,-0.1486644148826599,-0.2389129251241684,0.0374891944229602,0.1502156257629394,0.0,0.0,-0.5197407663517237,0.7192306833814976
-0.0169044490903615,1.326832294464111,-0.1401901394128799,-0.246509164571762,0.0435623414814472,0.1214742213487625,0.0,0.0,0.9028402573479386,0.4606248931772202
-0.0181234367191791,1.3223334550857544,-0.1289178431034088,-0.2001691609621048,0.0505080632865428,0.138927087187767,0.0,0.0,0.7533646189784156,0.5126100958668535
-0.0192368514835834,1.3182300329208374,-0.1177285462617874,-0.1826043128967285,0.0568338073790073,0.1265264153480529,0.0,0.0,-0.2000842126029689,-0.658263842133724
-0.0203843116760253,1.3139568567276,-0.1223200410604476,-0.1902241855859756,0.0643332451581955,0.1500023752450943,0.0,0.0,-0.4074147872696576,0.5892451739742293
-0.0214712135493755,1.309509038925171,-0.1150471121072769,-0.1979684233665466,0.0706295073032379,0.1259363889694214,0.0,0.0,-0.2897546312609187,0.2338482822289203
-0.0225532539188861,1.3048880100250244,-0.1147336736321449,-0.2057022601366043,0.0771107897162437,0.1296375095844268,0.0,0.0,-0.2205991065683514,0.1627393070986442
-0.0236307140439748,1.3000937700271606,-0.1144802197813987,-0.2134366929531097,0.0837811306118965,0.1334188282489776,0.0,0.0,-0.8630171308619423,-0.4779446728669181
-0.0247044563293457,1.2951265573501587,-0.1142910495400428,-0.2211713641881942,0.0906456559896469,0.1373031139373779,0.0,0.0,-0.5400198339333038,-0.8257215785788509
-0.0258485786616802,1.289975881576538,-0.1234098076820373,-0.2294845432043075,0.0995724648237228,0.1785525977611541,0.0,0.0,0.2424671867409804,-0.3688231332072654
-0.0269511230289936,1.2855110168457031,-0.1198899745941162,-0.1991075575351715,0.1091492399573326,0.191552847623825,0.0,0.0,-0.8517972718806388,-0.4060612463260263
-0.0280521400272846,1.2808735370635986,-0.1199246644973754,-0.2068545222282409,0.1189334243535995,0.1957009583711624,0.0,0.0,0.941334174584797,-0.5869776954283826
-0.0291127208620309,1.2770369052886963,-0.1177275776863098,-0.1714888662099838,0.1305574625730514,0.2325009852647781,0.0,0.0,0.6324693003037822,-0.8555183741272997
-0.0302036292850971,1.2734798192977903,-0.1227836981415748,-0.1593529731035232,0.1442306339740753,0.2734877467155456,0.0,0.0,0.5421955856491862,0.847312987117344
-0.0314625725150108,1.270627737045288,-0.1378825902938842,-0.127960130572319,0.1562115997076034,0.2396410405635833,0.0,0.0,0.5741372672774216,-0.0665291338357916
-0.0329625122249126,1.2685444355010986,-0.1615546345710754,-0.0938455611467361,0.1677745729684829,0.2312595397233963,0.0,0.0,0.6892440402239062,-0.6307813034314693
-0.0346344001591205,1.2673808336257937,-0.1802164763212204,-0.0532430559396743,0.1808361411094665,0.2612311244010925,0.0,0.0,-0.4812201020455606,0.1079061326412259
-0.0363096222281456,1.2660460472106934,-0.1807601004838943,-0.0609877817332744,0.194128081202507,0.2658386826515198,0.0,0.0,-0.9476064973213388,0.0185271627507921
-0.0379895195364952,1.264540433883667,-0.1814038455486297,-0.0687332823872566,0.2076531797647476,0.2705017030239105,0.0,0.0,-0.2729356602508581,-0.4959954559815275
-0.0396747589111328,1.2628639936447144,-0.1821503043174743,-0.0764795467257499,0.2214139103889465,0.2752149999141693,0.0,0.0,0.9458232355155344,0.0722997585517942
-0.0415640845894813,1.2624833583831787,-0.2028476446866989,-0.0190658550709486,0.2355144321918487,0.282010555267334,0.0,0.0,-0.944750428199768,0.9947983026504515
-0.0433937087655067,1.2619502544403076,-0.1953489929437637,-0.0257262401282787,0.2481120824813842,0.2519533932209015,0.0,0.0,-0.9664162993431092,0.996816635131836
-0.0451677329838275,0.0,-0.1882873922586441,-0.0316688306629657,0.2592054903507232,0.2218681573867797,0.0,0.0,-0.984055995941162,0.9904438257217408
-0.0468825325369834,1.260456085205078,-0.1808121651411056,-0.0382946133613586,0.2687583565711975,0.1910576224327087,0.0,0.0,-0.9807120561599731,0.9974801540374756
-0.0485304817557334,1.2594945430755615,-0.1723318397998809,-0.0441438406705856,0.2764783799648285,0.154400423169136,0.0,0.0,-0.919257640838623,0.9982614517211914
-0.0501137748360633,1.2584009170532229,-0.1640478670597076,-0.0497020259499549,0.2823509573936462,0.1174515485763549,0.0,0.0,-0.9650051593780518,0.8482409715652466
-0.0516478531062603,1.2571572065353394,-0.1577523201704025,-0.0561260655522346,0.2868269681930542,0.0895200744271278,0.0,0.0,-0.9647334814071656,0.9897645711898804
-0.053117848932743,1.2557830810546875,-0.1495085656642913,-0.0615637451410293,0.2894043624401092,0.0515477433800697,0.0,0.0,-0.987144947052002,0.9908547401428224
-0.0545354858040809,1.2542780637741089,-0.1426558643579483,-0.0670775547623634,0.2903352379798889,0.0186177175492048,0.0,0.0,-0.9916452765464784,0.9883413314819336
-0.0558915138244628,1.2526359558105469,-0.1347038447856903,-0.0727950558066368,0.2894079685211181,-0.0185451786965131,0.0,0.0,-0.9971667528152466,0.990214705467224
-0.0572052970528602,1.250856637954712,-0.1290944516658783,-0.0786325111985206,0.2870621681213379,-0.0469166450202465,0.0,0.0,-0.9945783019065856,0.995769500732422
-0.0584465973079204,1.248942494392395,-0.1197249293327331,-0.0842118263244628,0.2825255095958709,-0.0907331630587577,0.0,0.0,-0.997861385345459,0.9609944820404052
-0.0596214309334754,1.246882438659668,-0.1111006885766983,-0.0903393551707267,0.2759763896465301,-0.1309823989868164,0.0,0.0,-0.9890975952148438,0.9788739681243896
-0.0607304573059082,1.2446850538253784,-0.1024984940886497,-0.0961033180356025,0.2673575580120086,-0.1723766028881073,0.0,0.0,-0.9998305439949036,0.932819128036499
-0.0617938041687011,1.2423322200775146,-0.0964160189032554,-0.102794162929058,0.2572255730628967,-0.2026394307613372,0.0,0.0,-0.999968945980072,0.8839104175567627
-0.0628065094351768,1.2398278713226318,-0.0896809548139572,-0.1093193814158439,0.2454133480787277,-0.2362442761659622,0.0,0.0,-0.9991270303726196,0.5619516372680664
-0.0637961402535438,1.2371670007705688,-0.086333654820919,-0.1161994859576225,0.232586994767189,-0.2565272450447082,0.0,0.0,-0.9974617958068848,0.8577754497528076
-0.0647594481706619,1.234363317489624,-0.0825040340423584,-0.1224809512495994,0.2185761630535125,-0.2802169620990753,0.0,0.0,-0.9966000318527222,-0.1478161811828613
-0.0657498389482498,1.2313891649246216,-0.0853835046291351,-0.1302282512187957,0.204791709780693,-0.2756890058517456,0.0,0.0,-0.9872771501541138,-0.2400606870651245
-0.0667682662606239,1.2282438278198242,-0.0883677154779434,-0.1379747837781906,0.1912296414375305,-0.2712413668632507,0.0,0.0,-0.9382592439651488,0.5754709243774414
-0.0677603706717491,1.224943995475769,-0.0845041871070861,-0.1448305398225784,0.1764551103115081,-0.2954904735088348,0.0,0.0,-0.9438260793685912,-0.0660196542739868
-0.0687826126813888,1.2214735746383667,-0.0876895487308502,-0.1525788456201553,0.161893755197525,-0.291227251291275,0.0,0.0,-0.9820140600204468,-0.4247766733169555
-0.0698360428214073,1.2178324460983276,-0.0909719690680503,-0.1603263765573501,0.147540271282196,-0.2870695292949676,0.0,0.0,-0.8922331929206848,-0.1071274876594543
-0.0709214210510253,1.2140204906463623,-0.0943484827876091,-0.1680731028318405,0.1333889663219452,-0.2830261290073395,0.0,0.0,-0.9410212635993958,-0.213388442993164
-0.0720398873090744,1.2100375890731812,-0.0978159755468368,-0.1758190989494323,0.1194336712360382,-0.2791058421134949,0.0,0.0,-0.9776458740234376,-0.1769068241119384
-0.0731922164559364,1.2058838605880735,-0.1013711914420127,-0.1835643649101257,0.1056677848100662,-0.2753178477287292,0.0,0.0,-0.9711419939994812,-0.508318305015564
-0.0744133964180946,1.201557993888855,-0.1092790514230728,-0.1914018094539642,0.0929379239678382,-0.2545973658561706,0.0,0.0,-0.8911667466163635,-0.1928087472915649
-0.0756700485944747,1.1970605850219729,-0.1129996180534362,-0.1991438716650009,0.0803828388452529,-0.2511018216609955,0.0,0.0,-0.9546137452125548,-0.7202675938606262
-0.0770133957266807,1.1923928260803225,-0.1230809688568115,-0.2068919837474823,0.0692490264773368,-0.2226763516664505,0.0,0.0,-0.9829816222190856,0.0983990430831909
-0.0783938392996788,1.1875531673431396,-0.1269521862268448,-0.21463043987751,0.0582734942436218,-0.2195105999708175,0.0,0.0,-0.9774476289749146,-0.270232081413269
-0.0798123329877853,1.182541012763977,-0.1308927834033966,-0.2223684340715408,0.0474473424255847,-0.2165233343839645,0.0,0.0,-0.9130728244781494,0.2490326166152954
-0.0812694579362869,1.1773567199707031,-0.134898766875267,-0.2301060110330581,0.0367611534893512,-0.2137239277362823,0.0,0.0,-0.9672558903694152,-0.0190193057060241
-0.082766056060791,1.172000288963318,-0.1389661282300949,-0.237843170762062,0.0262050721794366,-0.2111215591430664,0.0,0.0,-0.9850449562072754,0.6067931652069092
-0.0842527374625206,1.1664745807647705,-0.1368331909179687,-0.2454304993152618,0.0145146055147051,-0.2338096797466278,0.0,0.0,-0.9299439787864684,0.6520565748214722
-0.0857278853654861,1.1607732772827148,-0.13444784283638,-0.2533202469348907,0.0016198438825085,-0.2578949630260467,0.0,0.0,-0.9690938591957092,0.2811892032623291
-0.087244227528572,1.154900312423706,-0.1386740803718567,-0.2610613703727722,-0.0111769810318946,-0.255936861038208,0.0,0.0,-0.9946944117546082,0.1570910215377807
-0.0888024345040321,1.148855686187744,-0.1429447382688522,-0.2688021957874298,-0.0238875597715377,-0.2542116641998291,0.0,0.0,-0.996898591518402,0.0074036121368408
-0.0904029831290245,1.142639398574829,-0.1472554206848144,-0.2765427827835083,-0.0365239419043064,-0.252727746963501,0.0,0.0,-0.9942411184310912,0.7709403038024902
-0.0919822677969932,1.1362566947937012,-0.1435861438512802,-0.2840815186500549,-0.0506999157369136,-0.2835198640823364,0.0,0.0,-0.9853044152259828,-0.1231980323791503
-0.0936048477888107,1.129702925682068,-0.1479634493589401,-0.2918253242969513,-0.0648269951343536,-0.282541424036026,0.0,0.0,-0.9711122512817384,0.7028336524963379
-0.0952237099409103,1.122976303100586,-0.146451786160469,-0.2996942698955536,-0.0801035538315773,-0.3055313229560852,0.0,0.0,-0.9937987327575684,-0.8975546360015869
-0.0969535857439041,1.1160883903503418,-0.1592984646558761,-0.3069149851799011,-0.0936609953641891,-0.2711489498615265,0.0,0.0,-0.9737789630889891,0.1569234132766723
-0.0987275093793869,1.1090291738510132,-0.1637404263019561,-0.3146574795246124,-0.1072102487087249,-0.2709848284721374,0.0,0.0,-0.98571115732193,0.1985355615615844
-0.1005458831787109,1.101798415184021,-0.1681943237781524,-0.3224000334739685,-0.1207654625177383,-0.2711043953895569,0.0,0.0,-0.9915693998336792,0.6883857250213623
-0.102358341217041,1.0943819284439087,-0.1662916094064712,-0.3308982253074646,-0.1356406807899475,-0.2975042462348938,0.0,0.0,-0.9941461086273192,-0.4724364876747131
-0.1042154282331466,1.08679461479187,-0.1707551181316375,-0.3386441767215729,-0.1505509167909622,-0.2982050776481628,0.0,0.0,-0.904887080192566,0.0194618701934814
-0.1061174422502517,1.0790363550186155,-0.1752156317234039,-0.346390426158905,-0.1655110716819763,-0.2992033064365387,0.0,0.0,-0.9665908217430116,-0.7892415523529053
-0.10812558978796,1.0711299180984497,-0.1874285191297531,-0.3529514074325561,-0.1789293587207794,-0.2683658003807068,0.0,0.0,-0.948628544807434,0.5465035438537598
-0.1101298332214355,1.063044548034668,-0.1857510358095169,-0.3611855506896972,-0.1936658918857574,-0.2947307825088501,0.0,0.0,-0.978161096572876,-0.2539775967597961
-0.1121788993477821,1.05478835105896,-0.1901711374521255,-0.3689322173595428,-0.2084977328777313,-0.2966372072696686,0.0,0.0,-0.9103069305419922,-0.2321652770042419
-0.1142725944519043,1.0463614463806152,-0.1945670992136001,-0.3766793608665466,-0.2234401702880859,-0.2988491356372833,0.0,0.0,-0.8660040497779846,0.1635801792144775
-0.1164106354117393,1.037764310836792,-0.1989334523677826,-0.3844271600246429,-0.2385084778070449,-0.3013665676116943,0.0,0.0,-0.8802735805511475,-0.9081844091415404
-0.1186741814017295,1.029025673866272,-0.2135064154863357,-0.3905190825462341,-0.2515770196914673,-0.2613710463047027,0.0,0.0,-0.9784361720085144,-0.7848588824272156
-0.1210465431213378,1.020143985748291,-0.2259786128997802,-0.3967097699642181,-0.2630683481693268,-0.2298272401094436,0.0,0.0,-0.7037732601165771,0.3592895269393921
-0.1234625801444053,1.011090636253357,-0.2302185595035553,-0.4044514000415802,-0.2747311592102051,-0.233256310224533,0.0,0.0,-0.4430196285247803,-0.2040234208106994
-0.1259220093488693,1.001866102218628,-0.2344054728746414,-0.4121938347816467,-0.286580353975296,-0.2369832545518875,0.0,0.0,-0.8913137912750244,-0.0404952764511108
-0.1284242570400238,0.9924702644348145,-0.2385333031415939,-0.4199371039867401,-0.2986305654048919,-0.2410044223070144,0.0,0.0,-0.3795697689056396,-0.3784079551696777
-0.130968764424324,0.9829033017158508,-0.2425958216190338,-0.4276812672615051,-0.3108963370323181,-0.2453156411647796,0.0,0.0,-0.7344802021980286,-0.7372463345527649
-0.1335967034101486,0.973185122013092,-0.2518606781959533,-0.4343059360980987,-0.3222568929195404,-0.2272109985351562,0.0,0.0,-0.3288142085075378,-0.7503398656845093
-0.1363101005554199,0.963311731815338,-0.2613278925418854,-0.4410830438137054,-0.3326904773712158,-0.2086711674928665,0.0,0.0,-0.2715533375740051,-0.3108038306236267
-0.1390637457370758,0.9532667994499208,-0.2651537358760834,-0.4488258957862854,-0.3433815836906433,-0.2138221561908722,0.0,0.0,-0.0680570006370544,-0.3171689510345459
-0.1418570578098297,0.9430508017539978,-0.268887996673584,-0.4565697610378265,-0.3543435931205749,-0.2192405015230178,0.0,0.0,-0.4626777172088623,0.3359923362731933
-0.1446888893842697,0.9326638579368592,-0.272523820400238,-0.4643146693706512,-0.3655895590782165,-0.2249196320772171,0.0,0.0,0.0896930694580078,0.1654807329177856
-0.1474192589521408,0.9223719239234924,-0.2624350190162658,-0.4601667523384094,-0.3768245279788971,-0.2246996164321899,0.0,0.0,0.2819216251373291,0.7179923057556152
-0.1500313729047775,0.912452757358551,-0.2489188611507415,-0.4441494345664978,-0.3899095952510834,-0.2617008090019226,0.0,0.0,-0.4194441437721252,-0.9263058304786682
-0.152733713388443,0.902409017086029,-0.2592579126358032,-0.4494394659996032,-0.4016578793525696,-0.2349655628204345,0.0,0.0,0.1299803256988525,-0.5343329310417175
-0.1553730070590973,0.8927668929100037,-0.2536906898021698,-0.4314768612384796,-0.4126644432544708,-0.2201308012008667,0.0,0.0,-0.1270380020141601,-0.7281246781349182
-0.1581067144870758,0.8830016851425171,-0.264548510313034,-0.4366188645362854,-0.4221844673156738,-0.1904004514217376,0.0,0.0,0.5082635879516602,-0.6622735857963562
-0.1605783402919769,0.8739186525344849,-0.2394702136516571,-0.4060180783271789,-0.4305104315280914,-0.1665194928646087,0.0,0.0,0.9147040843963624,-0.2005948424339294
-0.1627738922834396,0.865888774394989,-0.2112928628921508,-0.3594408631324768,-0.4394884407520294,-0.1795608252286911,0.0,0.0,0.9225130081176758,-0.1111201047897338
-0.1647145301103592,0.8589321970939636,-0.1851020455360412,-0.3120167851448059,-0.4492868781089782,-0.1959685087203979,0.0,0.0,0.9650261402130128,-0.5887755155563354
-0.1664958000183105,0.852654218673706,-0.1698793619871139,-0.2816962599754333,-0.4583295881748199,-0.1808546036481857,0.0,0.0,0.9771580696105956,-0.3412424325942993
-0.1681093275547027,0.8472666144371033,-0.1522092521190643,-0.2424906343221664,-0.4684120118618011,-0.2016489952802658,0.0,0.0,0.9403970241546632,-0.8187137842178345
-0.1696986258029937,0.842704176902771,-0.1506624668836593,-0.2055903822183609,-0.4775728583335876,-0.1832170784473419,0.0,0.0,0.9895913600921632,-0.3931888341903686
-0.170798972249031,0.8390363454818726,-0.1019581779837608,-0.1658281236886978,-0.4865551590919494,-0.1796465069055557,0.0,0.0,0.9494339227676392,-0.4314197301864624
-0.1716518402099609,0.8357247114181519,-0.0771762132644653,-0.1500724703073501,-0.4956222772598266,-0.181343138217926,0.0,0.0,0.8871642351150513,-0.7814412117004395
-0.1720012724399566,0.8333126902580261,-0.0283063687384128,-0.1096164360642433,-0.5030912756919861,-0.1493798345327377,0.0,0.0,-0.0091394782066345,-0.8982649445533752
-0.1724283248186111,0.8307892680168152,-0.0374497808516025,-0.1140935495495796,-0.5090157389640808,-0.1184888631105423,0.0,0.0,-0.2818189859390259,-0.8940027356147766
-0.1729125082492828,0.8281430006027222,-0.0440777912735939,-0.1192339733242988,-0.5139246582984924,-0.0981784164905548,0.0,0.0,-0.3596505522727966,-0.9224150776863098
-0.1734632551670074,0.8253723978996277,-0.0518653206527233,-0.1243526265025138,-0.5175782442092896,-0.0730719417333602,0.0,0.0,0.1134090423583984,-0.639021635055542
-0.1737975180149078,0.8231949806213379,-0.0310020707547664,-0.0977005735039711,-0.5203307867050171,-0.0550523474812507,0.0,0.0,-0.4912891387939453,-0.9304499626159668
-0.1741930991411209,0.8209022879600525,-0.0382956638932228,-0.1023730188608169,-0.5217599868774414,-0.0285837557166814,0.0,0.0,-0.7525250315666199,-0.8989830017089844
-0.1746478974819183,0.8184806108474731,-0.0452578291296958,-0.10771956294775,-0.5220139622688293,-0.0050799464806914,0.0,0.0,-0.55745530128479,-0.9768316745758056
-0.1751843392848968,0.8159580230712891,-0.0551855377852916,-0.1115165501832962,-0.5202484130859375,0.0353107303380966,0.0,0.0,-0.0987322926521301,-0.8352354168891907
-0.1757901161909103,0.8133220076560974,-0.0636001378297805,-0.1160089969635009,-0.5168190002441406,0.0685883313417434,0.0,0.0,0.0306447744369506,-0.8719397783279419
-0.1762928962707519,0.8110358119010925,-0.0545020923018455,-0.1000138893723487,-0.5120252370834351,0.095873899757862,0.0,0.0,0.3828848600387573,-0.8625476956367493
-0.176609605550766,0.8091931343078613,-0.0371058993041515,-0.0798708572983741,-0.5058777332305908,0.1229485124349594,0.0,0.0,0.0646007061004638,-0.8770869970321655
-0.1767822206020355,0.8074552416801453,-0.023910142481327,-0.0748045444488525,-0.4983973503112793,0.1496077477931976,0.0,0.0,-0.0584051012992858,-0.8347271084785461
-0.1769914627075195,0.8055899739265442,-0.0284548066556453,-0.080193355679512,-0.4899353384971618,0.1692393720149994,0.0,0.0,-0.1116487979888916,-0.838196337223053
-0.1772403717041015,0.8036059737205505,-0.0335364528000354,-0.0851236432790756,-0.4802741706371307,0.1932228356599807,0.0,0.0,0.0125080347061157,-0.7907294034957886
