x_pos,y_pos,x_vel,y_vel,angle,ang_vel,leg_1,leg_2,main_booster,lat_booster
-0.0015459060668945,1.4032375812530518,-0.1564978957176208,-0.3414421379566192,0.0017084411811083,0.0336965732276439,0.0,0.0,0.8572399492975578,-0.5341250679318075
-0.003091525984928,1.39596688747406,-0.1574317812919616,-0.3231509923934936,0.0045470530167222,0.0567784197628498,0.0,0.0,0.9164251589436808,0.8225472256255473
-0.0044203759171068,1.389007329940796,-0.134428396821022,-0.3093224167823791,0.0060753403231501,0.0305685047060251,0.0,0.0,0.5885326796552905,0.8554518173130712
-0.0058237076736986,1.382377862930298,-0.1398911774158477,-0.2946348190307617,0.0056359153240919,-0.0087893791496753,0.0,0.0,-0.7821169495287332,-0.9465373585865252
-0.0072926520369946,1.3753643035888672,-0.1478900015354156,-0.3117256164550781,0.0066162669099867,0.0196088664233684,0.0,0.0,0.778756003071736,0.776744958692217
-0.008545970544219,1.3688420057296753,-0.125072181224823,-0.2898793220520019,0.006367614492774,-0.0049736048094928,0.0,0.0,-0.3676175539153481,-0.8481772710811069
-0.0098674772307276,1.3619320392608645,-0.1336322277784347,-0.307115226984024,0.0078207617625594,0.0290661044418811,0.0,0.0,0.7058021877160328,-0.74406246371561
-0.0110794063657522,1.3556407690048218,-0.1244869455695152,-0.2796284258365631,0.0110827200114727,0.0652452856302261,0.0,0.0,0.1789947420211624,0.7091741568316239
-0.0122431758791208,1.3498669862747192,-0.1182145327329635,-0.2566327452659607,0.0128990169614553,0.0363290011882782,0.0,0.0,0.0031683372159077,0.8314263615620845
-0.0133351329714059,1.3443740606307983,-0.1093479618430137,-0.2441257536411285,0.0130491899326443,0.0030038396362215,0.0,0.0,0.265532615210204,0.8638994416651299
-0.0142727848142385,1.3391809463500977,-0.0922371968626976,-0.2307973653078079,0.0115442387759685,-0.0301018916070461,0.0,0.0,0.5225323609438397,0.6639833521947751
-0.0150720598176121,1.334331750869751,-0.0772294029593467,-0.2154967784881591,0.0088733108714222,-0.0534235015511512,0.0,0.0,-0.7416786823788586,0.5311651276045215
-0.0157965663820505,1.329099416732788,-0.0684585943818092,-0.2325337082147598,0.004925116430968,-0.0789710581302642,0.0,0.0,-0.3467182949139245,0.6383582512341096
-0.0164375305175781,1.323475003242493,-0.0586895160377025,-0.2499655038118362,-0.0004224169533699,-0.1069603934884071,0.0,0.0,-0.5230353295027039,0.601285888357239
-0.0169891361147165,1.3174704313278198,-0.048287596553564,-0.2668843269348144,-0.0072224764153361,-0.136013388633728,0.0,0.0,0.1941389403820352,0.9224660964404162
-0.017340088263154,1.311389446258545,-0.0264232344925403,-0.2703263163566589,-0.0157861039042472,-0.1712881326675415,0.0,0.0,-0.3849037584322681,0.8109202812388083
-0.0175750739872455,1.3049304485321045,-0.012873226776719,-0.2872103452682495,-0.0262917131185531,-0.2101315706968307,0.0,0.0,-0.2195810160237898,0.5019230623692703
-0.0177209861576557,1.2980802059173584,-0.0027753193862736,-0.304706871509552,-0.0379869900643825,-0.2339266985654831,0.0,0.0,0.3858860290466077,-0.6539831304222101
-0.0177602767944335,1.2918579578399658,0.0063515491783618,-0.2768353521823883,-0.0481607392430305,-0.2034933269023895,0.0,0.0,0.0810226026105782,-0.9996109146150118
-0.0178787223994731,1.28581440448761,-0.0036406323779374,-0.2688835263252258,-0.0562734715640544,-0.1622690558433532,0.0,0.0,-0.0319553943615735,-0.7785801727198418
-0.0179976467043161,1.279394507408142,-0.0049993088468909,-0.2856013476848602,-0.0631019473075866,-0.1365817040205001,0.0,0.0,-0.7774138048512698,0.701698719699598
-0.0180105213075876,1.2725791931152344,0.0069725317880511,-0.3032698631286621,-0.0712842643260955,-0.1636611968278885,0.0,0.0,0.8702696160514514,-0.8672412118727721
-0.0178346633911132,1.2662887573242188,0.0237070824950933,-0.2798790633678436,-0.0773519799113273,-0.1213656067848205,0.0,0.0,-0.7762002601580689,0.7852915198535855
-0.0175364501774311,1.2595951557159424,0.0376240238547325,-0.2979166805744171,-0.0850854441523552,-0.154682844877243,0.0,0.0,-0.5522169130986778,0.9272835603499932
-0.017126465216279,1.252510905265808,0.0501170977950096,-0.3153956830501556,-0.0941390022635459,-0.1810875833034515,0.0,0.0,-0.6137396817517109,0.8645459968516116
-0.016608715057373,1.2450170516967771,0.0621211156249046,-0.3337498009204864,-0.1044024750590324,-0.2052693367004394,0.0,0.0,-0.6584659050905686,0.996759344843178
-0.0159529689699411,1.2371315956115725,0.0778226777911186,-0.3513646423816681,-0.1165636479854583,-0.2432236224412918,0.0,0.0,-0.3632490677261608,-0.7097193571423959
-0.0153043745085597,1.2288801670074463,0.0752465948462486,-0.3675756156444549,-0.1268917620182037,-0.2065623998641967,0.0,0.0,-0.7606473834053038,-0.6753080404459777
-0.0146584510803222,1.220260739326477,0.0732100084424018,-0.3838390111923218,-0.1354647129774093,-0.171458899974823,0.0,0.0,-0.0385663534187694,0.7379079931634811
-0.013894367031753,1.211241364479065,0.0863172262907028,-0.4017929434776306,-0.1453448385000229,-0.197602704167366,0.0,0.0,0.7543395673645414,0.5319321759268055
-0.0128732677549123,1.2031629085540771,0.1128895431756973,-0.3601327538490295,-0.1561043709516525,-0.215190976858139,0.0,0.0,-0.6228070855140686,-0.9921875
-0.0118757244199514,1.1947135925292969,0.1081621423363685,-0.3764316737651825,-0.1644979119300842,-0.1678708791732788,0.0,0.0,-0.7201654314994812,-0.9965687394142152
-0.0108998296782374,1.1859090328216553,0.1035731062293052,-0.3919866681098938,-0.1704850047826767,-0.1197420731186866,0.0,0.0,-0.8684083223342896,-0.9892101883888244
-0.0099437711760401,1.1767308712005615,0.0992575734853744,-0.4083426594734192,-0.1741498857736587,-0.0732974931597709,0.0,0.0,-0.7224279046058655,-0.9585184454917908
-0.0089930538088083,1.1671867370605469,0.096724048256874,-0.424374371767044,-0.17580446600914,-0.0330918505787849,0.0,0.0,-0.8142668008804321,-0.98866468667984
-0.0080482484772801,1.157282829284668,0.0940671414136886,-0.4401279091835022,-0.1753889322280883,0.0083106104284524,0.0,0.0,-0.7690237164497375,-0.9531200528144836
-0.007112979888916,1.1470075845718384,0.0909777283668518,-0.4563802778720855,-0.1728356778621673,0.0510652475059032,0.0,0.0,-0.8660581111907959,-0.9962475895881652
-0.0061803818680346,1.1363719701766968,0.0886840000748634,-0.4721702039241791,-0.1682572215795517,0.0915687978267669,0.0,0.0,-0.8288472890853882,-0.985719621181488
-0.0052588460966944,1.125381350517273,0.085323691368103,-0.4877155721187591,-0.1614154577255249,0.136835366487503,0.0,0.0,-0.7700796127319336,-0.8976866602897644
-0.0043337820097804,1.1140217781066897,0.0837954878807067,-0.5039469003677368,-0.1527042537927627,0.1742237508296966,0.0,0.0,-0.8830309510231018,-0.8982300162315369
-0.0034198760986328,1.1023030281066897,0.0803797841072082,-0.5197436213493347,-0.1417148560285568,0.2197873294353485,0.0,0.0,-0.9184755086898804,-0.6412785053253174
-0.0024748803116381,1.0902059078216553,0.0822792500257492,-0.5365287661552429,-0.1295463740825653,0.2433697879314422,0.0,0.0,-0.9014543294906616,-0.49091637134552
-0.0014585495227947,1.0777238607406616,0.0892394632101059,-0.5537292957305908,-0.117215059697628,0.2466261684894561,0.0,0.0,-0.9191707968711852,-0.1537849903106689
-0.0003704070986714,1.064856767654419,0.0962319001555442,-0.5709304213523865,-0.1047189459204673,0.2499223947525024,0.0,0.0,-0.7644221186637878,-0.8594905734062195
0.0007168769952841,1.051606297492981,0.0941222310066223,-0.5879476070404053,-0.0902302861213684,0.2897732853889465,0.0,0.0,-0.7971055507659912,-0.2309809327125549
0.0018765449058264,1.0379718542099,0.1011702194809913,-0.6051537990570068,-0.0755733177065849,0.2931390404701233,0.0,0.0,-0.9696470499038696,-0.007112979888916
0.0031087875831872,1.0239530801773071,0.1082427054643631,-0.6223605275154114,-0.0607464984059333,0.2965362668037414,0.0,0.0,-0.9168644547462464,-0.7872488498687744
0.0043404577299952,1.009566068649292,0.1061127558350563,-0.6388176083564758,-0.0438871309161186,0.3371874988079071,0.0,0.0,-0.7004591822624207,0.514394998550415
0.0056770322844386,0.9947981238365172,0.1172194480895996,-0.6559455394744873,-0.0276524499058723,0.3246934711933136,0.0,0.0,-0.8222410082817078,0.5613198280334473
0.0071295737288892,0.97964346408844,0.1297257393598556,-0.6733282804489136,-0.0123213063925504,0.3066229224205017,0.0,0.0,-0.9067004323005676,-0.7614071369171143
0.0086095808073878,0.9641059637069702,0.131116896867752,-0.6904996037483215,0.0043383310548961,0.3331931233406067,0.0,0.0,-0.2988028526306152,-0.3408849835395813
0.0101629253476858,0.948185384273529,0.1382821500301361,-0.7077129483222961,0.0211740974336862,0.3367152810096741,0.0,0.0,-0.3717206716537475,0.5393118858337402
0.0118402484804391,0.9318801164627076,0.151791363954544,-0.7249710559844971,0.0369199179112911,0.31491619348526,0.0,0.0,-0.5512030720710754,-0.0582952499389648
0.0135912895202636,0.9151915907859802,0.1589824855327606,-0.7421824336051941,0.052843865007162,0.3184788823127746,0.0,0.0,-0.1547754406929016,0.2551294565200805
0.0154159544035792,0.8981198668479919,0.1661845296621322,-0.7593944072723389,0.0689468160271644,0.3220592439174652,0.0,0.0,0.2152864933013916,-0.3198660612106323
0.017220402136445,0.8811763525009155,0.1643261462450027,-0.7538625597953796,0.0849044844508171,0.3191534280776977,0.0,0.0,0.1240158081054687,-0.4382672309875488
0.0191164966672658,0.8646683692932129,0.1730246394872665,-0.7347122430801392,0.101338654756546,0.3286833465099334,0.0,0.0,-0.0040209889411926,-0.520152747631073
0.0210545547306537,0.8477749228477478,0.1762773394584655,-0.7521013021469116,0.1187528371810913,0.3482836186885834,0.0,0.0,0.5537967681884766,0.4092642068862915
0.023044491186738,0.8316647410392761,0.1809915155172348,-0.7175309062004089,0.1366740614175796,0.3584244847297668,0.0,0.0,-0.4990638494491577,0.7509605884552002
0.0251590721309185,0.8151894211769104,0.1946267783641815,-0.733869194984436,0.1534637957811355,0.3357947468757629,0.0,0.0,0.5855433940887451,0.5323479175567627
0.0273874290287494,0.7988751530647278,0.2067830562591552,-0.7268118262290955,0.1695109605789184,0.3209430575370788,0.0,0.0,0.1588263511657714,0.6478222608566284
0.0295790676027536,0.7829013466835022,0.2043724358081817,-0.7116996049880981,0.1843328773975372,0.2964386641979217,0.0,0.0,0.4169849157333374,0.5190396308898926
0.0319161415100097,0.767239511013031,0.219541311264038,-0.6979047656059265,0.1985753327608108,0.2848495543003082,0.0,0.0,-0.0288134813308715,0.1883637905120849
0.0343271270394325,0.7511940598487854,0.2267910242080688,-0.7151145935058594,0.2130029797554016,0.2885530591011047,0.0,0.0,-0.0425435304641723,0.9653286933898926
0.0368885993957519,0.7347823977470398,0.2436347901821136,-0.7312666177749634,0.2256540805101394,0.2530220150947571,0.0,0.0,0.1558146476745605,0.909248113632202
0.0394025817513465,0.7185811400413513,0.2405738085508346,-0.721745491027832,0.2366349101066589,0.2196164578199386,0.0,0.0,-0.2468750476837158,0.9746191501617432
0.0420662872493267,0.7020341157913208,0.257390558719635,-0.7368906140327454,0.2457565516233444,0.1824329793453216,0.0,0.0,-0.2946970462799072,0.962916612625122
0.0448897369205951,0.6851223111152649,0.2753608226776123,-0.7528241872787476,0.2528651654720306,0.1421729624271392,0.0,0.0,-0.7131572961807251,0.9040539264678956
0.0478575713932514,0.6678627729415894,0.2915110290050506,-0.7680065631866455,0.2582423985004425,0.1075448393821716,0.0,0.0,-0.6177831888198853,-0.3242145180702209
0.0508995056152343,0.6502175331115723,0.2987437844276428,-0.7852029204368591,0.2638073563575744,0.1112993136048317,0.0,0.0,-0.6586553454399109,-0.6794982552528381
0.0539552681148052,0.6321653723716736,0.298412024974823,-0.8036299347877502,0.2711429297924042,0.1467115432024002,0.0,0.0,-0.3012521266937256,0.2584667205810547
0.0570850372314453,0.6137277483940125,0.3056336939334869,-0.8208284974098206,0.2786667048931122,0.1504759490489959,0.0,0.0,0.0516703128814697,0.5349754095077515
0.0600925460457801,0.5956655740737915,0.2944554686546325,-0.8039814829826355,0.2851408720016479,0.1294834911823272,0.0,0.0,0.6579502820968628,0.96789288520813
0.0631637573242187,0.5781190395355225,0.302459716796875,-0.7807638049125671,0.2899399399757385,0.095981441438198,0.0,0.0,0.0629479885101318,0.4350248575210571
0.0662159919738769,0.5605391263961792,0.3004803359508514,-0.7822796106338501,0.2948275208473205,0.0977515801787376,0.0,0.0,0.1022479534149169,-0.4555529356002807
0.0693222060799598,0.5429046750068665,0.3055008053779602,-0.7848038077354431,0.3001139163970947,0.1057281121611595,0.0,0.0,0.2731419801712036,-0.7908595204353333
0.0723402947187423,0.5252119898796082,0.2949780821800232,-0.7877647876739502,0.307178258895874,0.1412875801324844,0.0,0.0,0.961094617843628,0.8946927785873413
0.0752020850777626,0.5085147023200989,0.2809627652168274,-0.7432135939598083,0.3125805258750915,0.1080452352762222,0.0,0.0,0.4397453069686889,0.5088968276977539
0.0780268684029579,0.4925044476985931,0.2779206037521362,-0.7125610113143921,0.3173141479492187,0.0946725979447364,0.0,0.0,0.3369922637939453,0.3150676488876343
0.0806320160627365,0.4770084321498871,0.2561879754066467,-0.6896639466285706,0.3218171596527099,0.0900597125291824,0.0,0.0,0.7186167240142822,0.6718131303787231
0.083114244043827,0.4615663290023803,0.2453466653823852,-0.6869617104530334,0.3248178660869598,0.0600142367184162,0.0,0.0,0.753174901008606,0.9351001977920532
0.0855146422982215,0.4469967186450958,0.2387529909610748,-0.647828996181488,0.3261592090129852,0.0268270671367645,0.0,0.0,0.50389564037323,0.7075684070587158
0.0877761840820312,0.4327633380889892,0.2262480705976486,-0.6325715184211731,0.3260612487792969,-0.0019593280740082,0.0,0.0,0.9707616567611694,-0.0901219844818115
0.0897891074419021,0.4192615449428558,0.2014893740415573,-0.6000344753265381,0.3258500695228576,-0.0042233797721564,0.0,0.0,0.9501714706420898,0.8757712841033936
0.0916593521833419,0.4065766334533691,0.1887958943843841,-0.5633755922317505,0.3240045309066772,-0.0369106158614158,0.0,0.0,0.9302760362625122,0.8563857078552246
0.0935545936226844,0.3945580422878265,0.192581370472908,-0.5334764719009399,0.3208170533180237,-0.0637491643428802,0.0,0.0,0.9045445919036864,0.9578070640563964
0.0954991355538368,0.3827565312385559,0.1991515755653381,-0.5234788060188293,0.3159232139587402,-0.0978769809007644,0.0,0.0,0.8275882005691528,0.7990338802337646
0.0975438132882118,0.3712805509567261,0.2103643417358398,-0.5087749361991882,0.3098181784152984,-0.1221004351973533,0.0,0.0,0.8873279094696045,-0.61154705286026
0.0995858162641525,0.3604108691215515,0.2082522213459015,-0.4822376370429992,0.3056204319000244,-0.0839552730321884,0.0,0.0,0.9436726570129396,-0.4420911073684692
0.1017148941755294,0.3498930931091308,0.2160470783710479,-0.4667988121509552,0.3023690581321716,-0.0650276094675064,0.0,0.0,0.8689693212509155,-0.6849368810653687
0.1036015525460243,0.3401839435100555,0.1903063505887985,-0.4311796724796295,0.3006774187088012,-0.0338328331708908,0.0,0.0,0.8040952682495117,-0.0508993268013
0.1053446754813194,0.3312905132770538,0.1756088733673095,-0.3949941992759704,0.2993291616439819,-0.0269650425761938,0.0,0.0,0.8050768375396729,-0.5600055456161499
0.1070378273725509,0.3231024742126465,0.1689597070217132,-0.3639894723892212,0.2996984422206878,0.0073856548406183,0.0,0.0,0.644202470779419,-0.6483034491539001
0.1087601631879806,0.3150130212306976,0.1701699197292328,-0.3599534928798675,0.3018232583999634,0.0424964688718318,0.0,0.0,0.7658723592758179,-0.2078151702880859
0.1103346794843673,0.307292103767395,0.1554710865020752,-0.34356290102005,0.3038741648197174,0.0410182401537895,0.0,0.0,0.8777709007263184,0.3403881788253784
0.1117746382951736,0.3006319999694824,0.1414069086313247,-0.2965489327907562,0.3065554201602936,0.0536250658333301,0.0,0.0,0.8535449504852295,0.1212923526763916
0.1130633354187011,0.2944872379302978,0.1262188851833343,-0.2736620604991913,0.3093005120754242,0.0549019388854503,0.0,0.0,0.9599785804748536,0.0525996685028076
0.113989733159542,0.2892376184463501,0.0904726982116699,-0.233781948685646,0.3115469813346863,0.0449300147593021,0.0,0.0,0.9376494884490968,-0.16566002368927
0.1148272529244422,0.2848175764083862,0.080947607755661,-0.1970516592264175,0.3144491910934448,0.0580441541969776,0.0,0.0,0.7138345241546631,-0.5034173727035522
0.1153932586312294,0.2810794115066528,0.0528011694550514,-0.1669649630784988,0.3183910548686981,0.0788374170660972,0.0,0.0,0.8740687370300293,0.2776387929916382
0.1156670600175857,0.2781214714050293,0.0238360408693552,-0.1322476118803024,0.3220808506011963,0.0737959966063499,0.0,0.0,0.8473237752914429,0.1512107849121093
0.1158000007271766,0.2755568027496338,0.0097119193524122,-0.1147909089922905,0.3258230686187744,0.074844129383564,0.0,0.0,0.8396651744842529,-0.4000313282012939
0.1156564727425575,0.2734955549240112,-0.0175476260483264,-0.0923329666256904,0.3291444182395935,0.0664265751838684,0.0,0.0,0.7672603130340576,0.958702802658081
0.1152930259704589,0.2717910408973694,-0.0375789776444435,-0.0760403126478195,0.3304328322410583,0.0257686879485845,0.0,0.0,0.1768978834152221,0.9830505847930908
0.1149778366088867,0.2705132365226745,-0.0309839453548192,-0.0566691569983959,0.3298785388469696,-0.0110857961699366,0.0,0.0,0.5567352771759033,0.9656620025634766
0.1147427558898925,0.2694036662578583,-0.0213247239589691,-0.048817291855812,0.3276023864746094,-0.0455233231186866,0.0,0.0,0.1789369583129882,0.8436543941497803
0.1145625114440918,0.2687772512435913,-0.0144111718982458,-0.0270243417471647,0.3238332867622375,-0.0753822773694992,0.0,0.0,-0.3827271461486816,0.7190353870391846
0.1144864112138748,0.2677967548370361,-0.0027961828745901,-0.0425096787512302,0.3188177049160003,-0.1003108471632003,0.0,0.0,-0.3118293881416321,0.973374843597412
0.1145498305559158,0.2664859294891357,0.013391001150012,-0.0567289069294929,0.3115038871765136,-0.1462763249874115,0.0,0.0,-0.3624229431152344,0.8684799671173096
0.1147369369864463,0.2648252248764038,0.0275318026542663,-0.0719375386834144,0.3023639619350433,-0.1827985346317291,0.0,0.0,-0.9075578451156616,0.54315185546875
0.1150115951895713,0.2628037929534912,0.0372187346220016,-0.0878488197922706,0.2922918498516083,-0.2014417350292205,0.0,0.0,-0.9030759334564208,0.5763550996780396
0.1153794303536415,0.2604239881038666,0.0476671457290649,-0.1036238893866539,0.281088262796402,-0.2240720242261886,0.0,0.0,-0.6481752991676331,0.7352131605148315
0.1158552169799804,0.2576837539672851,0.0599955096840858,-0.1194526925683021,0.2683566510677337,-0.2546326816082001,0.0,0.0,-0.8353306651115417,0.8779146671295166
0.1164258942008018,0.2545828521251678,0.0707600489258766,-0.1353662014007568,0.2543629705905914,-0.2798733711242676,0.0,0.0,-0.3813194036483764,0.7896214723587036
0.1170840263366699,0.251115083694458,0.0806320756673812,-0.1516291201114654,0.2392677217721939,-0.3019053936004638,0.0,0.0,-0.6051657795906067,0.5973693132400513
0.1178235039114952,0.247279867529869,0.0898245573043823,-0.1679513603448867,0.2231590300798416,-0.3221734166145324,0.0,0.0,-0.1219017505645752,0.1819126605987548
0.1185976043343544,0.2430615723133087,0.0932073816657066,-0.1851651668548584,0.2071947604417801,-0.31928551197052,0.0,0.0,0.2337877750396728,-0.1171891689300537
0.1194440871477127,0.2388844788074493,0.0999081060290336,-0.1835835874080658,0.1918211430311203,-0.3074727654457092,0.0,0.0,0.5688164234161377,-0.1636499166488647
0.120287224650383,0.2353064119815826,0.0990543067455291,-0.157181441783905,0.1770098060369491,-0.2962262630462646,0.0,0.0,0.5366358757019043,0.0725787878036499
0.1210479736328125,0.232458621263504,0.0906237587332725,-0.1248954385519027,0.1624348312616348,-0.2914995551109314,0.0,0.0,0.4003989696502685,0.5223315954208374
0.121889017522335,0.2296371608972549,0.0994594395160675,-0.123789481818676,0.1470787674188614,-0.3071216940879822,0.0,0.0,0.5415000915527344,0.1550880670547485
0.1227572411298751,0.227306991815567,0.1016806215047836,-0.1021616160869598,0.1322619467973709,-0.2963363528251648,0.0,0.0,-0.602170467376709,0.0735753774642944
