x_pos,y_pos,x_vel,y_vel,angle,ang_vel,leg_1,leg_2,main_booster,lat_booster
-0.0015022277366369,1.4034216403961182,-0.1522402763366699,-0.3332670927047729,0.0018125408096238,0.0357574298977851,0.0,0.0,-0.5729118870663741,-0.6067180756253294
-0.0030265809036791,1.395740270614624,-0.1553791910409927,-0.3413940966129303,0.0047336313873529,0.0584277734160423,0.0,0.0,0.0293251265291136,-0.8990797301975232
-0.00450220098719,1.388227105140686,-0.1523812860250473,-0.3339419662952423,0.0094992043450474,0.0953204855322837,0.0,0.0,-0.2010873417192085,0.8487618620581013
-0.0059025762602686,1.3805091381072998,-0.1435605436563491,-0.3430469632148742,0.0129804024472832,0.0696302503347396,0.0,0.0,-0.2618220471790482,-0.642203698093127
-0.0073210718110203,1.3725898265838623,-0.1464432924985885,-0.3520167171955108,0.0175291113555431,0.090982399880886,0.0,0.0,-0.3173614146868946,0.9792142718781556
-0.0086232181638479,1.3644688129425049,-0.1324845850467682,-0.3609589338302612,0.0197685845196247,0.0447936542332172,0.0,0.0,-0.2124812759900844,-0.9642583809622136
-0.0099823949858546,1.35614275932312,-0.1402556747198104,-0.3701062798500061,0.0240628607571125,0.0858932062983512,0.0,0.0,-0.1816119313214343,0.8049503060271372
-0.0112407682463526,1.3476192951202393,-0.1282498240470886,-0.3788614869117737,0.0264422893524169,0.0475931540131568,0.0,0.0,-0.8583439813502862,-0.8331261042979048
-0.0125445369631052,1.3388994932174685,-0.1345584094524383,-0.3876245319843292,0.0305836498737335,0.0828347951173782,0.0,0.0,-0.8853934800969343,0.6182509686212471
-0.0137780187651515,1.3299832344055176,-0.1263760179281234,-0.3963471055030823,0.0335801281034946,0.059935163706541,0.0,0.0,-0.4656708324577998,-0.9282906495386248
-0.015052318572998,1.32086181640625,-0.1321450322866439,-0.4055116474628448,0.0382369644939899,0.0931452363729476,0.0,0.0,-0.555159886244996,0.7596144186392997
-0.0162382125854492,1.3115400075912476,-0.1216702833771705,-0.4143863618373871,0.0412945710122585,0.0611577816307544,0.0,0.0,0.6933653705604419,-0.6280509564472554
-0.0173372272402048,1.3030991554260254,-0.1147083416581153,-0.3752906024456024,0.0460467599332332,0.0950524508953094,0.0,0.0,-0.3765450211401739,0.8709415831133116
-0.0183379165828228,1.294452667236328,-0.1030106768012046,-0.3843839764595032,0.048960868269205,0.0582873001694679,0.0,0.0,-0.6738777765268544,-0.6838926017059626
-0.0193584449589252,1.2856076955795288,-0.1061311736702919,-0.3932528495788574,0.0530043430626392,0.0808766707777977,0.0,0.0,0.6915775788463829,-0.7617723356080552
-0.0203101150691509,1.2770121097564695,-0.1011235117912292,-0.3822471499443054,0.058904904872179,0.1180219873785972,0.0,0.0,0.8114011510181862,-0.7073621457325356
-0.0211878772825002,1.2696363925933838,-0.0956376865506172,-0.328133761882782,0.0666880682110786,0.1556775271892547,0.0,0.0,0.6064502353585952,0.9179677042048824
-0.0218405723571777,1.2626186609268188,-0.0715923309326171,-0.3121922314167022,0.0729594081640243,0.1254379451274871,0.0,0.0,0.0432869759025569,0.9956244052050256
-0.0223568920046091,1.2561830282211304,-0.0560239553451538,-0.2862506806850433,0.0773118808865547,0.0870571061968803,0.0,0.0,-0.9477052099009464,-0.8562112766951157
-0.022928237915039,1.2495357990264893,-0.0635613650083541,-0.2957882285118103,0.0836914703249931,0.1276032030582428,0.0,0.0,0.1180833237929026,-0.7012013875155932
-0.0234785079956054,0.0,-0.063063845038414,-0.2706232666969299,0.0916672423481941,0.1595298945903778,0.0,0.0,-0.6416004731675204,0.6088916906965954
-0.0239584930241107,1.2371797561645508,-0.0548809096217155,-0.2794302105903625,0.0985045507550239,0.1367583721876144,0.0,0.0,0.5447303483192452,-0.8344953193434839
-0.0243979450315237,1.2314693927764893,-0.0528047382831573,-0.2543945610523224,0.1073096916079521,0.1761190444231033,0.0,0.0,0.224312605466769,-0.742017265243142
-0.0248406417667865,1.2258940935134888,-0.0547760426998138,-0.2485703527927398,0.1177632436156272,0.2090892493724823,0.0,0.0,0.0977105349155036,0.763927659827937
-0.0253607742488384,0.0,-0.060992706567049,-0.2294462174177169,0.1267119348049163,0.1789894998073578,0.0,0.0,0.5233508451603199,-0.8031807652962677
-0.0261520389467477,1.2163090705871582,-0.0895876511931419,-0.1982129365205764,0.1371302306652069,0.2083657085895538,0.0,0.0,-0.703584614131433,-0.8710460154940295
-0.0269906036555767,1.2116605043411257,-0.0961412116885185,-0.2077820003032684,0.1493770480155944,0.2449361979961395,0.0,0.0,0.7886090360117599,0.8677464239579323
-0.0280290599912405,1.2081255912780762,-0.1141863837838172,-0.1581816971302032,0.1597077548503875,0.2066140472888946,0.0,0.0,-0.0201264307675381,-0.7442246304194232
-0.0291181560605764,1.2043784856796265,-0.1211428418755531,-0.1678905189037323,0.1719505786895752,0.2448562830686569,0.0,0.0,0.7418103971075085,-0.8776718197588776
-0.0303668975830078,1.2011635303497314,-0.1388926208019256,-0.1445694863796234,0.186016634106636,0.2813210189342499,0.0,0.0,-0.7811819177031167,0.6921442222137424
-0.0315408706665039,1.1977717876434326,-0.1300626993179321,-0.1523873656988144,0.1987496763467788,0.2546608448028564,0.0,0.0,0.3493727514041442,0.6304550084538594
-0.0327846519649028,1.194696068763733,-0.1357292383909225,-0.138264924287796,0.2101931273937225,0.2288691699504852,0.0,0.0,0.0712047798772439,-0.873040794227511
-0.0342471115291118,1.192149043083191,-0.1593945920467376,-0.1151295080780983,0.2234849780797958,0.2658370733261108,0.0,0.0,-0.5001931194870848,-0.6766341348891711
-0.0357463844120502,1.1893764734268188,-0.1646457761526107,-0.1255255788564682,0.2383947372436523,0.2981955409049988,0.0,0.0,0.6713163359382739,0.8103002312448534
-0.037296675145626,1.1873595714569092,-0.1682108938694,-0.0918351113796234,0.2518061995506286,0.2682289779186249,0.0,0.0,0.128923792423059,0.9976219519828304
-0.0388671867549419,1.1859350204467771,-0.1683132350444793,-0.0652840808033943,0.2632980942726135,0.2298371791839599,0.0,0.0,0.4264453187568389,-0.9189982863660672
-0.0406150817871093,1.1848366260528564,-0.1879113614559173,-0.051237691193819,0.2767380774021148,0.2687996029853821,0.0,0.0,-0.925496478232488,0.6796755512519359
-0.0422904975712299,1.1835658550262451,-0.1792916357517242,-0.058738175779581,0.2888154685497284,0.2415482699871063,0.0,0.0,0.4401559794248615,0.853134859368361
-0.0441311821341514,1.1831719875335691,-0.1941508054733276,-0.0195415839552879,0.2992134392261505,0.2079589664936065,0.0,0.0,0.3895272717705578,0.7813218123556337
-0.046020220965147,1.183349609375,-0.1975655853748321,0.0060859476216137,0.3081651031970978,0.1790337860584259,0.0,0.0,-0.2366215328331091,0.844614665599337
-0.0478408820927143,1.1833572387695312,-0.1894246637821197,-0.0012404125882312,0.315803200006485,0.1527624875307083,0.0,0.0,-0.9755614399909972,0.9702823162078856
-0.0495558753609657,1.183203935623169,-0.1766723692417144,-0.0079503310844302,0.3211692273616791,0.1073203459382057,0.0,0.0,-0.9228609204292296,0.984975814819336
-0.0511660575866699,1.1828808784484863,-0.1640388518571853,-0.015038076788187,0.3243226706981659,0.0630690529942512,0.0,0.0,-0.9913203120231628,0.8975998163223267
-0.0526809692382812,1.182392954826355,-0.1525782644748687,-0.0219270195811986,0.3254537582397461,0.0226216446608304,0.0,0.0,-0.9763127565383912,0.9512741565704346
-0.0541109070181846,1.1817256212234497,-0.142464131116867,-0.0295415390282869,0.3248966634273529,-0.0111416345462203,0.0,0.0,-0.994723618030548,0.9725887775421144
-0.0554449073970317,1.1808860301971436,-0.1309277117252349,-0.0367639735341072,0.3223243355751037,-0.0514465868473053,0.0,0.0,-0.9975617527961732,0.8269916772842407
-0.0566947944462299,1.1798741817474363,-0.1208372861146926,-0.0440621711313724,0.3180097639560699,-0.0862913429737091,0.0,0.0,-0.99541437625885,0.941231369972229
-0.0578750595450401,1.178697943687439,-0.1124710664153099,-0.0510687939822673,0.3122349679470062,-0.1154951229691505,0.0,0.0,-0.9985876679420472,0.8830664157867432
-0.0589917190372943,1.1773523092269895,-0.1048351526260376,-0.0583583265542984,0.305161565542221,-0.1414688527584076,0.0,0.0,-0.9989437460899352,0.9410154819488524
-0.0600264556705951,1.1758346557617188,-0.0949629992246627,-0.0656883269548416,0.2963557541370392,-0.1761165112257003,0.0,0.0,-0.9992021322250366,0.8630363941192627
-0.0609685890376567,1.1741522550582886,-0.0836648046970367,-0.0726550817489624,0.2854911386966705,-0.2172921150922775,0.0,0.0,-0.9992601275444032,0.7932621240615845
-0.0618461593985557,1.1722984313964844,-0.0758632123470306,-0.0801181271672248,0.2732792496681213,-0.244237869977951,0.0,0.0,-0.9826939105987548,0.7372150421142578
-0.0626463890075683,1.1702680587768557,-0.0664793327450752,-0.0877664759755134,0.259420782327652,-0.2771700024604797,0.0,0.0,-0.9955475926399232,0.8227715492248535
-0.0633753761649131,1.1680705547332764,-0.0577749125659465,-0.0950678810477256,0.2439975887537002,-0.3084639012813568,0.0,0.0,-0.983538806438446,0.2534903287887573
-0.0640957802534103,1.1656736135482788,-0.0569744296371936,-0.1041044890880584,0.2286906242370605,-0.3061389327049255,0.0,0.0,-0.9757306575775146,0.3058383464813232
-0.064808465540409,1.1630773544311523,-0.0562700256705284,-0.1131407395005226,0.2135004550218582,-0.3038030564785003,0.0,0.0,-0.9781442880630492,0.0857181549072265
-0.0655144676566124,1.1602813005447388,-0.0556649379432201,-0.1221766471862793,0.1984276622533798,-0.3014559745788574,0.0,0.0,-0.9575369358062744,-0.0081593394279479
-0.0662147551774978,1.1572858095169067,-0.0551619827747345,-0.1312121897935867,0.1834727525711059,-0.2990975975990295,0.0,0.0,-0.9918214082717896,0.1192686557769775
-0.0669102668762207,1.1540906429290771,-0.0547635070979595,-0.1402473598718643,0.1686363518238067,-0.2967278063297272,0.0,0.0,-0.9704891443252563,-0.1576593518257141
-0.0676020607352256,1.1506956815719604,-0.0544713325798511,-0.149282157421112,0.1539190113544464,-0.2943466603755951,0.0,0.0,-0.971050262451172,-0.2159324288368225
-0.0682911872863769,1.1471009254455566,-0.0542867183685302,-0.1583165526390075,0.139321282505989,-0.2919542491436004,0.0,0.0,-0.972661554813385,-0.0575925707817077
-0.0689785927534103,1.1433063745498655,-0.0542103573679924,-0.167350560426712,0.1248437389731407,-0.2895509004592895,0.0,0.0,-0.9919943809509276,-0.4959478974342346
-0.0696655288338661,1.1393120288848877,-0.0542423240840435,-0.1763841807842254,0.1104868948459625,-0.287136971950531,0.0,0.0,-0.9876620173454284,-0.5016924738883972
-0.070390798151493,1.1351118087768557,-0.059145200997591,-0.1857363730669021,0.0972126126289367,-0.2654858231544494,0.0,0.0,-0.9602259993553162,0.103830337524414
-0.0711174011230468,1.1307114362716677,-0.0593919828534126,-0.1947669982910156,0.0840599909424781,-0.2630529403686523,0.0,0.0,-0.9858887791633606,0.2501654624938965
-0.0718464851379394,1.126110553741455,-0.0597437024116516,-0.2037972658872604,0.0710294246673584,-0.2606112658977508,0.0,0.0,-0.987879753112793,-0.3771750330924988
-0.0725789070129394,1.1213090419769287,-0.060198176652193,-0.212827131152153,0.0581213347613811,-0.2581616044044494,0.0,0.0,-0.9795144200325012,0.2761430740356445
-0.0733158141374588,1.116307258605957,-0.0607527494430542,-0.2218566089868545,0.0453360900282859,-0.2557049393653869,0.0,0.0,-0.993723690509796,-0.2404265999794006
-0.0740580558776855,1.1111047267913818,-0.0614043362438678,-0.2308857291936874,0.0326739773154258,-0.2532424330711365,0.0,0.0,-0.9957883358001708,0.3093228340148926
-0.0748064965009689,1.1057016849517822,-0.0621495135128498,-0.2399144470691681,0.0201352294534444,-0.2507751882076263,0.0,0.0,-0.996992528438568,0.1526823043823242
-0.0755620971322059,1.100097894668579,-0.0629845708608627,-0.2489427775144577,0.0077199945226311,-0.2483045607805252,0.0,0.0,-0.9988520741462708,0.6734533309936523
-0.0762696266174316,1.0942952632904053,-0.0568774454295635,-0.2578782439231872,-0.0059793218970298,-0.2739862501621246,0.0,0.0,-0.9980440139770508,0.375051736831665
-0.0769859328866005,1.0882922410964966,-0.0578802935779094,-0.2669089138507843,-0.0195549353957176,-0.2715121805667877,0.0,0.0,-0.9842209815979004,0.3558883666992187
-0.0777117758989334,1.0820889472961426,-0.0589608736336231,-0.2759391069412231,-0.0330068953335285,-0.2690393328666687,0.0,0.0,-0.9820398688316344,0.1033943891525268
-0.0784478187561035,1.0756850242614746,-0.0601149387657642,-0.2849688827991485,-0.0463353618979454,-0.266569435596466,0.0,0.0,-0.9751957654953004,-0.1678327322006225
-0.0791948288679122,1.069080471992493,-0.0613382272422313,-0.2939982414245605,-0.0595405809581279,-0.264104276895523,0.0,0.0,-0.9864492416381836,0.4055581092834472
-0.0799533873796463,1.0622754096984863,-0.0626265555620193,-0.3030271530151367,-0.0726228803396225,-0.2616458535194397,0.0,0.0,-0.965479016304016,0.3696695566177368
-0.0807239562273025,1.0552695989608765,-0.0639757961034774,-0.3120556771755218,-0.0855826884508133,-0.2591963112354278,0.0,0.0,-0.9866620302200316,-0.2635021805763244
-0.0815073028206825,1.0480629205703735,-0.0653819590806961,-0.3210838139057159,-0.0984205603599548,-0.2567576766014099,0.0,0.0,-0.972705066204071,-0.2704728245735168
-0.0823039039969444,1.040655493736267,-0.0668411925435066,-0.3301115334033966,-0.1111371889710426,-0.2543323636054992,0.0,0.0,-0.984358847141266,0.1667205095291137
-0.0831140503287315,1.0330471992492676,-0.0683497637510299,-0.3391388654708862,-0.1237333267927169,-0.2519228160381317,0.0,0.0,-0.995780348777771,-0.0040544271469116
-0.0839385017752647,1.025237798690796,-0.0699041560292244,-0.3481657803058624,-0.1362099051475525,-0.2495317161083221,0.0,0.0,-0.9968523383140564,-0.6745311617851257
-0.0848391503095626,1.017240047454834,-0.0792546421289444,-0.3564864099025726,-0.1469933688640594,-0.2156694233417511,0.0,0.0,-0.9860024452209472,-0.2480335235595703
-0.0857548713684082,1.009040594100952,-0.0808901339769363,-0.3655095994472503,-0.157659575343132,-0.2133243083953857,0.0,0.0,-0.988590121269226,-0.4855051040649414
-0.0866859406232833,1.0006396770477295,-0.0825618728995323,-0.3745324909687042,-0.1682098954916,-0.2110063284635543,0.0,0.0,-0.944005012512207,-0.273245096206665
-0.0876326560974121,0.992036998271942,-0.0842670425772667,-0.3835550248622894,-0.178645834326744,-0.2087187469005584,0.0,0.0,-0.830757200717926,-0.5068261623382568
-0.0886340141296386,0.98323792219162,-0.0908203199505806,-0.3922230005264282,-0.1879960000514984,-0.1870033890008926,0.0,0.0,-0.8054964542388916,-0.4690859317779541
-0.0896516814827919,0.9742368459701538,-0.0925842374563217,-0.4012433886528015,-0.1972353905439376,-0.1847878396511078,0.0,0.0,-0.943656861782074,-0.4540250301361084
-0.0906861275434494,0.965033769607544,-0.0943742170929908,-0.4102635979652405,-0.2063660770654678,-0.1826138794422149,0.0,0.0,0.2219794988632202,-0.5278339982032776
-0.0916086211800575,0.9560308456420898,-0.0845894068479538,-0.4012175798416137,-0.2141008377075195,-0.1546952873468399,0.0,0.0,-0.9804245829582214,-0.4366922378540039
-0.0925483703613281,0.9468256831169128,-0.0864247232675552,-0.4102356135845184,-0.2217317223548889,-0.1526176184415817,0.0,0.0,-0.1682668924331665,-0.7249021530151367
-0.0935576409101486,0.9374412298202516,-0.0948629528284072,-0.4180136322975158,-0.227872297167778,-0.1228116303682327,0.0,0.0,-0.8797317147254944,-0.8521457314491272
-0.0946359634399414,0.9278751015663148,-0.1032284870743751,-0.4258802533149719,-0.2325499802827835,-0.0935537964105606,0.0,0.0,-0.8458968997001648,-0.7124539017677307
-0.0957791358232498,0.9181150197982788,-0.1109656915068626,-0.4343142211437225,-0.2359427958726883,-0.0678564459085464,0.0,0.0,-0.9864964485168456,-0.6536540985107422
-0.0969951599836349,0.908169686794281,-0.1197632700204849,-0.4423090517520904,-0.2378120720386505,-0.0373855903744697,0.0,0.0,-0.9758132696151732,-0.9369155168533324
-0.0982893928885459,0.8980546593666077,-0.1292803436517715,-0.4495825469493866,-0.2379596978425979,-0.0029526071157306,0.0,0.0,-0.997391939163208,-0.8001770973205566
-0.0996659249067306,0.8877593874931335,-0.1392394453287124,-0.4573106169700622,-0.2363468408584594,0.0322572290897369,0.0,0.0,-0.9761313796043396,-0.762183666229248
-0.1011304855346679,0.8772933483123779,-0.1499557942152023,-0.4645972549915313,-0.2327935546636581,0.071065679192543,0.0,0.0,-0.996311604976654,-0.1512922644615173
-0.1026137322187423,0.8666244745254517,-0.1519098579883575,-0.4736118018627167,-0.2291654646396637,0.072561927139759,0.0,0.0,-0.975877285003662,0.1968132257461547
-0.1041160598397255,0.8557525873184204,-0.153873473405838,-0.4826264977455139,-0.2254673689603805,0.0739614963531494,0.0,0.0,-0.992270827293396,0.6873319149017334
-0.1055909171700477,0.8446671366691589,-0.1500321626663208,-0.4923052787780761,-0.2228952050209045,0.0514432676136493,0.0,0.0,-0.970950484275818,-0.5257539749145508
-0.1071273833513259,0.8333912491798401,-0.1573410332202911,-0.5005942583084106,-0.219162181019783,0.0746606737375259,0.0,0.0,-0.6842464804649353,-0.0755772590637207
-0.108683206140995,0.8219125270843506,-0.1593281179666519,-0.5096094012260437,-0.2153752297163009,0.0757388919591903,0.0,0.0,-0.9901818633079528,0.4843918085098266
-0.1102584823966026,0.8102311491966248,-0.1613214612007141,-0.5186246037483215,-0.2115402072668075,0.0767005681991577,0.0,0.0,-0.9015852212905884,-0.5618204474449158
-0.1118885055184364,0.7983617186546326,-0.1677701920270919,-0.5268519520759583,-0.2067292481660843,0.0962192863225936,0.0,0.0,-0.9252704977989196,-0.570478081703186
-0.1135784164071083,0.7862973809242249,-0.1748224943876266,-0.5353887677192688,-0.2008557915687561,0.117469236254692,0.0,0.0,-0.8780375123023987,-0.1564653515815735
-0.1152881607413292,0.7740306258201599,-0.1768310368061065,-0.544405996799469,-0.1949527710676193,0.1180604547262191,0.0,0.0,-0.9395127892494202,-0.2799367904663086
-0.1170176491141319,0.761561393737793,-0.1788432896137237,-0.5534235239028931,-0.1890266090631485,0.1185232996940612,0.0,0.0,-0.4707286953926086,-0.2704750299453735
-0.1187669783830642,0.7488898038864136,-0.180858701467514,-0.5624410510063171,-0.1830837875604629,0.1188565641641616,0.0,0.0,-0.9475572109222412,-0.0556141138076782
-0.1205364242196083,0.7360157370567322,-0.1828767657279968,-0.5714587569236755,-0.1771308034658432,0.1190597638487815,0.0,0.0,-0.7926579117774963,-0.0461893081665039
-0.1223259940743446,0.7229393124580383,-0.1848969906568527,-0.5804765820503235,-0.1711741536855697,0.1191331967711448,0.0,0.0,-0.1870562434196472,0.4521521329879761
-0.1241356879472732,0.7096605896949768,-0.1869189441204071,-0.589494526386261,-0.165220245718956,0.1190780028700828,0.0,0.0,-0.8781319856643677,0.6888980865478516
-0.125905230641365,0.6961608529090881,-0.1813278496265411,-0.5995137691497803,-0.1608418375253677,0.0875682160258293,0.0,0.0,-0.2076508998870849,-0.4594355821609497
-0.1276951730251312,0.6824584007263184,-0.1833516657352447,-0.6085304021835327,-0.1564787328243255,0.0872620120644569,0.0,0.0,-0.4723210334777832,-0.0738490223884582
-0.1295054405927658,0.6685534119606018,-0.1853759884834289,-0.6175472140312195,-0.1521369963884353,0.0868346095085144,0.0,0.0,0.2167017459869384,0.1556566953659057
-0.131289005279541,0.6550650000572205,-0.1826016902923584,-0.5990543365478516,-0.1478959023952484,0.0848219245672226,0.0,0.0,-0.5563880205154419,0.2581650018692016
-0.1330929696559906,0.6413741111755371,-0.184625893831253,-0.6080712676048279,-0.1436876952648162,0.0841640532016754,0.0,0.0,0.0735878944396972,0.6983910799026489
-0.1347343474626541,0.6277885437011719,-0.1670047789812088,-0.6035290360450745,-0.1408277451992035,0.0571988895535469,0.0,0.0,-0.5062012672424316,0.6952967643737793
-0.1363328993320465,0.6139898300170898,-0.1610550731420517,-0.6131595969200134,-0.1396245658397674,0.0240631587803363,0.0,0.0,-0.727057695388794,0.0234882831573486
-0.1379520446062088,0.5999885201454163,-0.1630761921405792,-0.6221752166748047,-0.1384698301553726,0.0230948198586702,0.0,0.0,-0.3864606022834778,-0.2843893766403198
