x_pos,y_pos,x_vel,y_vel,angle,ang_vel,leg_1,leg_2,main_booster,lat_booster
-0.0014818191993981,1.4032156467437744,-0.1501309275627136,-0.3424263000488281,0.001743150060065,0.0343836843967437,0.0,0.0,-0.4215692281723022,0.9406704902648926
-0.0028391839005053,1.3951208591461182,-0.1354101449251175,-0.3597661256790161,0.0014190287329256,-0.0064823916181921,0.0,0.0,-0.0201361775398254,0.6315863132476807
-0.0040892600081861,1.3866121768951416,-0.1231298893690109,-0.3781619966030121,-0.0004353685944806,-0.0370914414525032,0.0,0.0,-0.2205356955528259,0.4979263544082641
-0.0052904128096997,1.377694606781006,-0.1182224005460739,-0.3963412344455719,-0.0022968386765569,-0.0372330471873283,0.0,0.0,-0.0615435242652893,-0.0213707089424133
-0.0064402581192553,1.3683680295944214,-0.1130890026688575,-0.4145176112651825,-0.0041682929731905,-0.0374326296150684,0.0,0.0,0.1353390216827392,0.0374282598495483
-0.0074407579377293,1.3591917753219604,-0.0985991433262825,-0.4078371822834015,-0.0056009045802056,-0.0286549776792526,0.0,0.0,-0.6772989630699158,-0.6201557517051697
-0.0084362030029296,1.3496068716049194,-0.0993733406066894,-0.4259938299655914,-0.0057747927494347,-0.0034779026173055,0.0,0.0,-0.6679753065109253,0.5392844676971436
-0.0093210218474268,1.3396143913269043,-0.0869361087679863,-0.4441230595111847,-0.0072983116842806,-0.0304732117801904,0.0,0.0,-0.7441888451576233,0.596829891204834
-0.0100997928529977,1.329218864440918,-0.0751429945230484,-0.4620388746261596,-0.0099987164139747,-0.054013330489397,0.0,0.0,-0.7985067963600159,-0.5212192535400391
-0.0108575820922851,1.318418264389038,-0.0740720406174659,-0.4800361692905426,-0.0116868056356906,-0.0337650589644908,0.0,0.0,-0.1553812623023986,-0.1042878627777099
-0.0115513801574707,1.307208776473999,-0.0676424950361251,-0.4982122182846069,-0.013400349766016,-0.0342741422355175,0.0,0.0,-0.7477571368217468,-0.2810816168785095
-0.0121790887787938,1.2955905199050903,-0.0610099807381629,-0.5163881778717041,-0.0151411360129714,-0.0348189212381839,0.0,0.0,-0.8877562880516052,-0.9109331965446472
-0.012795066460967,1.283569097518921,-0.0612376742064952,-0.5342861413955688,-0.0154960881918668,-0.0070994994603097,0.0,0.0,-0.8545747399330139,-0.823248028755188
-0.0133987423032522,1.271132469177246,-0.061438150703907,-0.5527299046516418,-0.0144397551193833,0.0211283583194017,0.0,0.0,-0.6250674724578857,-0.7048884630203247
-0.0139733310788869,1.2582950592041016,-0.0595718510448932,-0.5705305337905884,-0.0123487506061792,0.0418240502476692,0.0,0.0,-0.6454814672470093,-0.0641546249389648
-0.0144743919372558,1.2450486421585083,-0.0521893873810768,-0.5887070894241333,-0.0102974167093634,0.0410307571291923,0.0,0.0,-0.4953078031539917,-0.6326092481613159
-0.0149389263242483,1.2314015626907349,-0.0494569167494773,-0.6065226793289185,-0.0073196021839976,0.0595616400241851,0.0,0.0,-0.7682836651802063,-0.7523757219314575
-0.0153719903901219,1.2173396348953247,-0.047423493117094,-0.6249560117721558,-0.0032473756000399,0.0814514905214309,0.0,0.0,-0.3093020915985107,-0.3940237760543823
-0.0157266613095998,1.202869176864624,-0.0395329184830188,-0.6431331038475037,0.0007758966530673,0.0804726630449295,0.0,0.0,-0.5047920942306519,0.0519077777862548
-0.0160013195127248,1.1879898309707642,-0.0314821116626262,-0.6613102555274963,0.0047477805055677,0.0794447585940361,0.0,0.0,-0.7307408452033997,-0.0594396591186523
-0.0161945335566997,1.1727018356323242,-0.0232772435992956,-0.6794876456260681,0.0086650941520929,0.0783532261848449,0.0,0.0,-0.5050973296165466,-0.2011103630065918
-0.0163047797977924,1.157004952430725,-0.0149241266772151,-0.6976650357246399,0.0125249149277806,0.0772031396627426,0.0,0.0,-0.6235972046852112,0.018939733505249
-0.016330623999238,1.140899419784546,-0.0064286412671208,-0.7158423662185669,0.0163243487477302,0.0759955495595932,0.0,0.0,-0.6465402245521545,-0.0673097968101501
-0.0162708275020122,1.1243849992752075,0.002203385811299,-0.7340196967124939,0.0200605932623147,0.0747313797473907,0.0,0.0,-0.8174660801887512,0.1622037887573242
-0.0161240585148334,1.107461929321289,0.0109660867601633,-0.7521971464157104,0.0237308554351329,0.0734116286039352,0.0,0.0,-0.6699092388153076,0.5504323244094849
-0.0158557891845703,1.0901124477386477,0.0240252669900655,-0.7711326479911804,0.0265027713030576,0.0554380342364311,0.0,0.0,-0.5159813165664673,0.3737890720367431
-0.0154979703947901,1.0723541975021362,0.0330420061945915,-0.7893070578575134,0.0292045511305332,0.054035909473896,0.0,0.0,-0.3091113567352295,0.3047555685043335
-0.0150496484711766,1.0541870594024658,0.0421718321740627,-0.8074814677238464,0.0318343490362167,0.0525958538055419,0.0,0.0,-0.2139701843261718,0.0840749740600586
-0.0145095828920602,1.0356111526489258,0.0514091663062572,-0.8256558179855347,0.0343903303146362,0.051119577139616,0.0,0.0,0.5676419734954834,0.5235006809234619
-0.0138729093596339,1.0173189640045166,0.0622793138027191,-0.8130215406417847,0.0357737988233566,0.0276691354811191,0.0,0.0,-0.326114296913147,-0.4199202060699463
-0.0131424907594919,0.9986177682876588,0.0717152580618858,-0.8311954736709595,0.0370800867676734,0.0261258427053689,0.0,0.0,0.1340284347534179,-0.2858693599700928
-0.0123821254819631,0.9799556136131288,0.0750420987606048,-0.8294551968574524,0.0380606390535831,0.0196111313998699,0.0,0.0,-0.0025553703308105,-0.0380458235740661
-0.0115263937041163,0.96088445186615,0.0846555307507515,-0.8476289510726929,0.0389610305428504,0.0180079489946365,0.0,0.0,0.0827841758728027,-0.0685285925865173
-0.010625553317368,0.9417563676834106,0.0894510224461555,-0.8501594066619873,0.0395866371691226,0.012512294575572,0.0,0.0,-0.1724656224250793,0.555548906326294
-0.0095828054472804,0.9222230315208436,0.1048797145485878,-0.8681321740150452,0.0389942303299903,-0.0118483798578381,0.0,0.0,0.7284325361251831,-0.268960177898407
-0.0084542278200387,0.9034678339958192,0.1134513020515441,-0.8335472941398621,0.0384057648479938,-0.0117691392078995,0.0,0.0,-0.266639769077301,-0.6808768510818481
-0.0072835921309888,0.8842970132827759,0.1163185015320777,-0.8520565032958984,0.0391461551189422,0.014807641506195,0.0,0.0,-0.5835012197494507,-0.324471116065979
-0.0060140611603856,0.8647173047065735,0.1262888014316558,-0.8702303171157837,0.0398004092276096,0.013085039332509,0.0,0.0,-0.1704912781715393,-0.0908235907554626
-0.004645156674087,0.8447284698486328,0.1363164186477661,-0.8884040117263794,0.0403675772249698,0.0113433990627527,0.0,0.0,-0.139540433883667,-0.8286723494529724
-0.0032387734390795,0.8243281245231628,0.1385585516691208,-0.9067418575286864,0.042417749762535,0.0410035587847232,0.0,0.0,-0.3912755250930786,-0.6869642734527588
-0.0017962455749511,0.8035206198692322,0.1406481117010116,-0.9248858094215392,0.0459872335195541,0.0713896974921226,0.0,0.0,0.2265899181365966,-0.2612043619155884
-0.0001791000395314,0.7828930616378784,0.1577605903148651,-0.9169095754623412,0.0498910695314407,0.0780765861272811,0.0,0.0,-0.0827901363372802,-0.8595854640007019
0.001482582069002,0.7618429064750671,0.1608561426401138,-0.9357444047927856,0.0551408976316452,0.1049966216087341,0.0,0.0,0.1071401834487915,-0.5528900027275085
0.0032563209533691,0.7409162521362305,0.170912817120552,-0.9303255081176758,0.0615268312394619,0.1277186274528503,0.0,0.0,0.3467293977737427,-0.7046387195587158
0.0050250054337084,0.7199237942695618,0.1691461205482483,-0.933335304260254,0.0691672936081886,0.1528091579675674,0.0,0.0,0.5961661338806152,0.3525879383087158
0.0069177625700831,0.6990108489990234,0.1814457327127456,-0.92984801530838,0.0769212767481803,0.1550796627998352,0.0,0.0,0.8896130323410034,-0.6528359651565552
0.0088971136137843,0.6784533858299255,0.1886931508779525,-0.9141682386398317,0.0860752686858177,0.1830798387527465,0.0,0.0,0.9357993602752686,-0.4231541156768799
0.0107639310881495,0.6589309573173523,0.1781453192234039,-0.8681797385215759,0.0945274382829666,0.1690435111522674,0.0,0.0,0.78806471824646,0.1447488069534301
0.0125099178403615,0.6402537226676941,0.1668411791324615,-0.8306080102920532,0.1022225320339202,0.1539020538330078,0.0,0.0,0.509764552116394,0.3944603204727173
0.0142921451479196,0.6218589544296265,0.1706469655036926,-0.8180862665176392,0.1097350642085075,0.1502508223056793,0.0,0.0,0.2892917394638061,0.5347727537155151
0.0162917133420705,0.6037469506263733,0.1932995021343231,-0.8054808974266052,0.1163512766361236,0.1323244124650955,0.0,0.0,0.2333495616912841,0.4753537178039551
0.0182877536863088,0.58603835105896,0.193240538239479,-0.7875585556030273,0.122675210237503,0.1264787465333938,0.0,0.0,0.5601540803909302,-0.0940632820129394
0.0204378124326467,0.5685651898384094,0.2082633972167968,-0.7771543264389038,0.1293831467628479,0.1341586709022522,0.0,0.0,-0.034721553325653,0.1167168617248535
0.0226906780153512,0.5506834983825684,0.2186523675918579,-0.7953310608863831,0.1359975039958953,0.1322867721319198,0.0,0.0,0.8217271566390991,-0.5480497479438782
0.0251042358577251,0.5332173109054565,0.2332221269607544,-0.7770426869392395,0.144103318452835,0.1621167212724685,0.0,0.0,0.4276255369186401,0.3254244327545166
0.0274803154170513,0.5159293413162231,0.2299568951129913,-0.7691112160682678,0.1517336070537567,0.152605652809143,0.0,0.0,0.5795334577560425,-0.0773969292640686
0.0299324989318847,0.4993833303451538,0.2372632771730423,-0.7362110614776611,0.1596861332654953,0.1590509563684463,0.0,0.0,-0.0722439289093017,0.2285025119781494
0.0324870124459266,0.4824290573596954,0.2475945204496383,-0.7543890476226807,0.1675452888011932,0.1571830660104751,0.0,0.0,0.2385753393173217,-0.5000004768371582
0.0350611694157123,0.4659898281097412,0.2485280930995941,-0.731657862663269,0.1764445155858993,0.1779845058917999,0.0,0.0,0.1464250087738037,0.172661542892456
0.0375893600285053,0.4499337673187256,0.2442756593227386,-0.7146397233009338,0.1850062012672424,0.1712341457605362,0.0,0.0,0.0517967939376831,0.2416023015975952
0.0402074828743934,0.4338261485099792,0.2532338500022888,-0.7169886827468872,0.1936258971691131,0.1723943352699279,0.0,0.0,0.6287803649902344,0.0696027278900146
0.0426965728402137,0.418299525976181,0.2408843487501144,-0.691136360168457,0.2016958147287368,0.1613987535238266,0.0,0.0,0.6373066902160645,0.2368139028549194
0.0453033447265625,0.4031547605991363,0.2522037923336029,-0.6742796301841736,0.2102398723363876,0.1708807051181793,0.0,0.0,0.6569852828979492,0.2369352579116821
0.0479050651192665,0.388510912656784,0.2516841292381286,-0.6520637273788452,0.2188015282154083,0.1712333112955093,0.0,0.0,0.3266040086746216,-0.2260165214538574
0.0505423545837402,0.3739322125911712,0.2553310692310333,-0.6492089033126831,0.2273009866476059,0.1699893772602081,0.0,0.0,0.6461291313171387,0.672888994216919
0.0530667304992675,0.3597787320613861,0.2457620352506637,-0.6300901770591736,0.2340614795684814,0.1352103054523468,0.0,0.0,0.3283214569091797,0.2158206701278686
0.0555462837219238,0.3462265729904175,0.2413220703601837,-0.6033909916877747,0.2408116310834884,0.1350031644105911,0.0,0.0,-0.0972936153411865,0.01429283618927
0.0581233985722065,0.3322657644748688,0.251162439584732,-0.6215668320655823,0.2474721521139145,0.1332105696201324,0.0,0.0,0.6683657169342041,-0.841504693031311
0.060549259185791,0.3191463351249695,0.2344305515289306,-0.584480881690979,0.2557850480079651,0.1662580221891403,0.0,0.0,0.4929189682006836,0.3730236291885376
0.0628803223371505,0.306207001209259,0.2254368364810943,-0.5764372944831848,0.2636162638664245,0.156624287366867,0.0,0.0,0.2422065734863281,0.2525545358657837
0.0651067718863487,0.2935695648193359,0.215389683842659,-0.562988817691803,0.2710404992103576,0.1484848260879516,0.0,0.0,0.6699299812316895,0.3871858119964599
0.0672883987426757,0.2814451456069946,0.2108699381351471,-0.540229856967926,0.2785218060016632,0.1496260464191436,0.0,0.0,0.5366158485412598,0.0881850719451904
0.0692314133048057,0.2699955999851227,0.1876469999551773,-0.5101516246795654,0.285362958908081,0.1368230879306793,0.0,0.0,0.507556676864624,0.6572573184967041
0.071237564086914,0.2589486241340637,0.1952035129070282,-0.4920441508293152,0.2909320592880249,0.1113817244768142,0.0,0.0,0.184538722038269,-0.0034108757972717
0.0732300728559494,0.2478854060173034,0.1940456926822662,-0.4927511811256408,0.2963052988052368,0.1074650064110755,0.0,0.0,0.5734977722167969,0.335584282875061
0.0752828568220138,0.2368858456611633,0.1998588293790817,-0.4899834990501404,0.3018951416015625,0.1117970570921897,0.0,0.0,0.4216022491455078,-0.2652279138565063
0.0773098021745681,0.2258835583925247,0.1974945813417434,-0.4900809526443481,0.3072773516178131,0.1076439768075943,0.0,0.0,0.7436306476593018,-0.4043381214141845
0.0791606903076171,0.2156652808189392,0.1800020635128021,-0.4552303254604339,0.3125379979610443,0.1052127033472061,0.0,0.0,0.8218293190002441,0.0596649646759033
0.0809024795889854,0.2063627988100052,0.1687995493412017,-0.41461381316185,0.3181274533271789,0.1117889061570167,0.0,0.0,0.7186903953552246,0.3791695833206177
0.0823492035269737,0.1978080570697784,0.1398967057466507,-0.381268173456192,0.3230987787246704,0.0994264855980873,0.0,0.0,0.957036018371582,0.8087530136108398
0.0836550742387771,0.1893453001976013,0.1278002858161926,-0.3767468631267547,0.3259971439838409,0.0579673834145069,0.0,0.0,0.684048056602478,0.4379866123199463
0.0848194137215614,0.1816381961107254,0.1135459095239639,-0.3431935310363769,0.3290104866027832,0.0602668337523937,0.0,0.0,0.8374000787734985,0.7051887512207031
0.0857893973588943,0.1743981689214706,0.0958221778273582,-0.3220454752445221,0.3302303552627563,0.0243974030017852,0.0,0.0,0.8998901844024658,0.3423774242401123
0.0865198150277137,0.1678243279457092,0.0722202137112617,-0.2923594713211059,0.3310866057872772,0.0171251185238361,0.0,0.0,0.4460232257843017,0.3098069429397583
0.0871115699410438,0.1617043167352676,0.0584740526974201,-0.2721612751483917,0.3318241834640503,0.0147512909024953,0.0,0.0,0.713951587677002,0.690193772315979
0.0877184867858886,0.1561058610677719,0.0611970722675323,-0.2487068921327591,0.3312962353229522,-0.0105586675927042,0.0,0.0,0.555680513381958,-0.6324962377548218
0.0882623642683029,0.1505370289087295,0.0536657385528087,-0.2476694583892822,0.3320540487766266,0.0151560427621006,0.0,0.0,0.7024788856506348,0.0977921485900878
0.0888228416442871,0.1451941281557083,0.054956316947937,-0.2377113401889801,0.3331896364688873,0.0227116122841835,0.0,0.0,0.1007999181747436,-0.2753013372421264
0.0894095450639724,0.140029489994049,0.0572133734822273,-0.2298756539821624,0.3347164392471313,0.0305362753570079,0.0,0.0,0.7104477882385254,0.6077754497528076
0.0901097282767295,0.1351299881935119,0.0694417357444763,-0.2178922444581985,0.3353253006935119,0.0121769625693559,0.0,0.0,0.1682455539703369,0.7037773132324219
0.0907330513000488,0.13060362637043,0.0631860941648483,-0.2009702622890472,0.3344262242317199,-0.0179815515875816,0.0,0.0,-0.0157656073570251,-0.1544721126556396
0.0914034843444824,0.1256681531667709,0.0679567903280258,-0.2191428244113922,0.3334721624851227,-0.0190811716020107,0.0,0.0,0.3771208524703979,0.3530622720718384
0.0920331925153732,0.1211626827716827,0.0634767040610313,-0.200129359960556,0.3329459130764007,-0.0105249807238578,0.0,0.0,-0.0341821312904357,-0.0631413459777832
0.0927020087838172,0.1162480190396308,0.0674268454313278,-0.2183019965887069,0.3323700726032257,-0.0115167926996946,0.0,0.0,0.6166011095046997,0.5557072162628174
0.0932323485612869,0.1116236746311187,0.0548510961234569,-0.2051098197698593,0.3304743766784668,-0.0379139855504035,0.0,0.0,0.334223985671997,0.9616601467132568
0.0937105193734169,0.1076650246977806,0.0515319518744945,-0.1750942766666412,0.3265963792800903,-0.0775601416826248,0.0,0.0,0.3948783874511719,0.1968545913696289
0.0940414443612098,0.1039706543087959,0.0369386151432991,-0.1633284091949463,0.3225866258144378,-0.0801953375339508,0.0,0.0,-0.5016419887542725,0.9721708297729492
0.0944486632943153,0.0999048575758934,0.0461393855512142,-0.179508239030838,0.3169550895690918,-0.112631008028984,0.0,0.0,-0.3263263702392578,-0.1763367056846618
0.0948717147111892,0.0954303592443466,0.0477667637169361,-0.1976838558912277,0.3112893104553222,-0.1133158579468727,0.0,0.0,-0.5960595607757568,0.8834524154663086
0.0953645706176757,0.0905825719237327,0.0563751570880413,-0.2139556854963302,0.3039454519748688,-0.1468770056962967,0.0,0.0,0.8889188766479492,-0.559679388999939
0.0954680442810058,0.0864905193448066,0.0166533719748258,-0.1805649548768997,0.2974282503128052,-0.1303440183401107,0.0,0.0,-0.2391490936279297,0.7720489501953125
0.0956283584237098,0.0820132344961166,0.0238295085728168,-0.1974143385887146,0.2893843650817871,-0.1608775556087494,0.0,0.0,-0.2650287747383117,0.3330655097961426
0.095783993601799,0.0771278217434883,0.0234021227806806,-0.2155930250883102,0.2813200950622558,-0.1612853854894638,0.0,0.0,0.6469271183013916,-0.0801399946212768
0.0956407561898231,0.072524219751358,-0.0057801301591098,-0.2029792815446853,0.27254518866539,-0.1754989773035049,0.0,0.0,0.6010738611221313,0.9507349729537964
0.0954773873090744,0.0686014741659164,-0.0059845456853508,-0.1724555790424347,0.2619608342647552,-0.211687371134758,0.0,0.0,0.5509674549102783,0.886480450630188
0.0953354835510253,0.0648180544376373,-0.0021504363976418,-0.1660434901714325,0.2496635168790817,-0.2459462881088256,0.0,0.0,0.238585352897644,0.2446736097335815
0.0951317772269249,0.0614992715418338,-0.0087606385350227,-0.145574003458023,0.2378634810447693,-0.2360009253025055,0.0,0.0,-0.1176430583000183,0.7217068672180176
0.094949722290039,0.0577988252043724,-0.0051911566406488,-0.162416398525238,0.2246554046869278,-0.2641615867614746,0.0,0.0,-0.1074126958847045,-0.3031558990478515
0.0947317108511924,0.0536917559802532,-0.0087364800274372,-0.1806046217679977,0.2114489376544952,-0.2641294598579407,0.0,0.0,0.4886200428009033,-0.2780336141586303
0.0944306403398513,0.0499655567109584,-0.0173314046114683,-0.1638349741697311,0.1985656470060348,-0.2576658129692077,0.0,0.0,0.2094707489013672,-0.0978866219520568
0.0939609557390213,0.0467100702226161,-0.0341403968632221,-0.1430240720510482,0.1856666803359985,-0.2579793334007263,0.0,0.0,-0.1527208089828491,0.0698134899139404
0.0934411063790321,0.0430477485060691,-0.0391384474933147,-0.1612119227647781,0.1727799922227859,-0.2577336728572845,0.0,0.0,-0.184070885181427,-0.0219627618789672
0.0928666144609451,0.0389787293970584,-0.0445924364030361,-0.1793997883796692,0.1599090248346328,-0.2574193775653839,0.0,0.0,0.374725341796875,-0.3304071426391601
0.0920506492257118,0.0352406613528728,-0.0682535618543624,-0.1647556722164154,0.1465863287448883,-0.2664540410041809,0.0,0.0,-0.457884669303894,0.3595806360244751
0.0911715477705001,0.0310961101204156,-0.0745692402124404,-0.1829446256160736,0.1332859843969345,-0.2660069465637207,0.0,0.0,0.1193280220031738,0.5011099576950073
0.0901979431509971,0.0271173566579818,-0.0829832404851913,-0.1756083518266677,0.1189784333109855,-0.2861508727073669,0.0,0.0,0.2205958366394043,0.3779420852661133
0.0891256332397461,0.0233229249715805,-0.0929494723677635,-0.1675665229558944,0.1047882437705993,-0.2838035225868225,0.0,0.0,0.4114038944244385,0.6770741939544678
0.0881227478384971,0.019602308049798,-0.0848782509565353,-0.1643510162830352,0.089504949748516,-0.3056660592556,0.0,0.0,-0.5463531017303467,0.2891172170639038
0.0870419517159462,0.015475925989449,-0.0926973819732666,-0.1825447529554367,0.0742562115192413,-0.3049747347831726,0.0,0.0,0.0667201280593872,-0.4562329053878784
0.0858572944998741,0.0117246247828006,-0.1031692996621131,-0.1660367846488952,0.0591196492314338,-0.3027310967445373,0.0,0.0,0.0331385135650634,-0.2477878928184509
0.0846165642142295,0.0078630307689309,-0.10899069160223,-0.1710976213216781,0.0442072637379169,-0.298247754573822,0.0,0.0,0.4827051162719726,-0.2116346359252929
0.0833520889282226,0.0044315550476312,-0.1118007898330688,-0.1521431505680084,0.0297447517514228,-0.2892499566078186,0.0,0.0,0.0415272712707519,-0.4566360712051391
