x_pos,y_pos,x_vel,y_vel,angle,ang_vel,leg_1,leg_2,main_booster,lat_booster
-0.0015723227988928,1.403202772140503,-0.1592888683080673,-0.3429900109767914,0.0018338926602154,0.0361809730529785,0.0,0.0,0.0776079249878829,-0.7870169755119131
-0.0032175064552575,1.3955345153808594,-0.1679545938968658,-0.3408192694187164,0.0052386047318577,0.0681013911962509,0.0,0.0,-0.0986040938990981,0.7901479960804124
-0.0048363683745265,1.3874388933181765,-0.1634391844272613,-0.3598087728023529,0.0067679518833756,0.0305898878723382,0.0,0.0,-0.9441684136181884,0.6905980507308099
-0.0064615248702466,1.3789199590682983,-0.1629907488822937,-0.3786255717277527,0.0072388346306979,0.0094185378402471,0.0,0.0,-0.8022402064443255,0.8513935671493662
-0.0080554960295557,1.3699827194213867,-0.1578404754400253,-0.397197812795639,0.0057047703303396,-0.0306841917335987,0.0,0.0,-0.8596619648873041,-0.935970669049263
-0.0097564700990915,1.3606221675872805,-0.1700379550457,-0.4160245954990387,0.0056447372771799,-0.0012009385973215,0.0,0.0,0.8449682640663396,0.74340432648566
-0.011480426415801,1.3518075942993164,-0.1708211004734039,-0.3917551338672638,0.0040905652567744,-0.0310863312333822,0.0,0.0,0.753617695511444,-0.7781585652736713
-0.0131451608613133,1.3436042070388794,-0.166885420680046,-0.3645962476730346,0.0044986521825194,0.0081623401492834,0.0,0.0,0.3694515491385532,-0.8137214848247403
-0.0149391172453761,1.3360278606414795,-0.1814738363027572,-0.3367327153682709,0.0065489928238093,0.0410106852650642,0.0,0.0,-0.8954942761271725,-0.8761879840046894
-0.0168532375246286,1.32803475856781,-0.1952880918979644,-0.3552722036838531,0.0103862890973687,0.0767531394958496,0.0,0.0,0.3622706595429079,0.9196005411822458
-0.0186695102602243,1.3203585147857666,-0.1838018596172332,-0.3411844968795776,0.0125279948115348,0.0428380109369754,0.0,0.0,-0.5305804031367745,-0.864278077380181
-0.0205971710383892,1.3122576475143433,-0.1965126693248748,-0.3600728809833526,0.0162351317703723,0.0741494074463844,0.0,0.0,-0.1018296027138532,-0.6679936487932838
-0.0226175300776958,1.3037378787994385,-0.2068818360567093,-0.378715306520462,0.0210324916988611,0.0959558188915252,0.0,0.0,-0.1651554452785038,0.927231772414057
-0.0246076583862304,1.294790744781494,-0.201846569776535,-0.3976975679397583,0.0238349512219429,0.0560540854930877,0.0,0.0,0.7376413067792009,-0.84268940544065
-0.0265727043151855,1.2867343425750732,-0.2013856172561645,-0.3581401705741882,0.0286724902689456,0.096759408712387,0.0,0.0,-0.4858038470224557,-0.9582501346130448
-0.0286508556455373,1.278242826461792,-0.2143394947052002,-0.377540647983551,0.0351210981607437,0.1289839446544647,0.0,0.0,-0.6875288448200345,0.9149431385336676
-0.0306922905147075,1.26934552192688,-0.2084674388170242,-0.3955454230308532,0.0393928028643131,0.0854416564106941,0.0,0.0,-0.1759387623686266,0.7112478248317804
-0.0327158942818641,1.2600246667861938,-0.2049748599529266,-0.4143268764019012,0.041977223008871,0.0516934618353843,0.0,0.0,-0.4286067438364227,-0.6957640398001523
-0.034837532788515,1.2502862215042114,-0.2159993201494217,-0.4329380393028259,0.0457773655652999,0.0760098844766616,0.0,0.0,0.956671484773103,-0.7984717086782775
-0.0372084602713584,1.2411189079284668,-0.2423569709062576,-0.4076080024242401,0.0509861968457698,0.1041859984397888,0.0,0.0,-0.6883422519469724,-0.601290753116464
-0.0396689400076866,1.2315316200256348,-0.2523090839385986,-0.4263235926628113,0.0571929812431335,0.1241466253995895,0.0,0.0,-0.4788161401243045,-0.8818565355942064
-0.0422492995858192,1.2215125560760498,-0.2661023736000061,-0.445612221956253,0.0651763379573822,0.1596815586090088,0.0,0.0,0.2441357760518949,-0.6634675168684377
-0.0448520667850971,1.2116913795471191,-0.2698822319507599,-0.4369425475597381,0.074704997241497,0.1905904710292816,0.0,0.0,0.4751152918473811,0.8323751179429508
-0.0473917014896869,1.2018723487854004,-0.2620577216148376,-0.4368225634098053,0.0827306509017944,0.1605271846055984,0.0,0.0,-0.9832220971124096,0.6108473406115
-0.0499466881155967,1.1916388273239136,-0.2627082765102386,-0.4552400410175323,0.089880920946598,0.1430181860923767,0.0,0.0,-0.988158925301668,-0.838855286785913
-0.0526348128914833,1.1809566020965576,-0.278167575597763,-0.4753562808036804,0.0991597175598144,0.1855757534503936,0.0,0.0,-0.8827361661342157,-0.7711281840636715
-0.0554354675114154,1.1698499917984009,-0.2910070121288299,-0.4943911135196686,0.1100169345736503,0.2171442955732345,0.0,0.0,0.4528280365520922,-0.7645125016157506
-0.0585556998848915,1.1593823432922363,-0.3243355453014374,-0.4661768674850464,0.122246116399765,0.2445834875106811,0.0,0.0,-0.4672871051723803,0.8927684670357936
-0.0616737380623817,1.148512601852417,-0.3227344751358032,-0.4840377867221832,0.1331246495246887,0.2175706177949905,0.0,0.0,0.9506530510725067,0.8622324975137461
-0.0648791342973709,1.1380833387374878,-0.3297269642353058,-0.4643678665161133,0.1422740519046783,0.1829883307218551,0.0,0.0,0.8612880990306084,0.7634719802150043
-0.0681901946663856,1.128675937652588,-0.3388289213180542,-0.4188599586486816,0.1499871164560318,0.154261365532875,0.0,0.0,-0.1559058726255511,0.6931338111154053
-0.0715054497122764,1.1188546419143677,-0.3380852341651916,-0.4371839463710785,0.1565368324518203,0.1309942752122879,0.0,0.0,-0.7269645825996467,0.7117894895547027
-0.0748252868652343,1.1086300611495972,-0.3373478055000305,-0.4549983739852905,0.161892756819725,0.1071185693144798,0.0,0.0,-0.4011677199704846,-0.9646300768093488
-0.0782793015241622,1.097955584526062,-0.3529230952262878,-0.4752620458602905,0.1694259494543075,0.1506637632846832,0.0,0.0,-0.981359056671187,-0.698042895846545
-0.0818380340933799,1.086848258972168,-0.3647944033145904,-0.4946995973587036,0.1783523559570312,0.1785280704498291,0.0,0.0,0.597700228862887,0.9209822836095688
-0.0854882225394249,1.076431393623352,-0.3721246123313904,-0.463841438293457,0.1854833960533142,0.1426211446523666,0.0,0.0,0.4164362438763258,0.7532275940665013
-0.089227870106697,1.0661746263504028,-0.3795417547225952,-0.4565593004226684,0.1910943239927292,0.1122181192040443,0.0,0.0,-0.7200075122067926,0.6907134583838905
-0.0929627418518066,1.055518627166748,-0.3776300549507141,-0.4741444587707519,0.1952507346868515,0.0831281915307045,0.0,0.0,-0.0433794881270446,0.6651872926579339
-0.0967021957039833,1.0444626808166504,-0.3768400549888611,-0.4917630851268768,0.1981731653213501,0.0584485009312629,0.0,0.0,0.7190985126826057,-0.7391555169942814
-0.100643441081047,1.0339086055755615,-0.3985768258571625,-0.4696691930294037,0.2026621401309967,0.0897794142365455,0.0,0.0,-0.2352422990047593,-0.9645286474881376
-0.1047250777482986,1.0229144096374512,-0.414881944656372,-0.4895683228969574,0.209439605474472,0.135548934340477,0.0,0.0,-0.4228299260139465,0.9877433776855468
-0.1087657958269119,1.011526107788086,-0.408423364162445,-0.5067686438560486,0.2138328403234481,0.0878650099039077,0.0,0.0,-0.1783363223075866,0.9791744947433472
-0.1127683669328689,0.9997344017028807,-0.4023551046848297,-0.5243805646896362,0.2159498035907745,0.0423391237854957,0.0,0.0,0.0193480253219604,0.9755859375
-0.1167441383004188,0.9880456924438475,-0.3976914286613464,-0.5195202231407166,0.216063767671585,0.0022792895324528,0.0,0.0,-0.3810423612594604,0.9951155185699464
-0.1206975951790809,0.9759473204612732,-0.3936098217964172,-0.5374531149864197,0.2143140137195587,-0.0349949225783348,0.0,0.0,-0.2643003463745117,0.9774234294891356
-0.1246191039681434,0.963444173336029,-0.3883290588855743,-0.5551424622535706,0.2104453146457672,-0.0773736387491226,0.0,0.0,-0.5953866839408875,0.9969172477722168
-0.1285057961940765,0.9505416750907898,-0.3826377391815185,-0.5725998282432556,0.2043581306934356,-0.1217437610030174,0.0,0.0,-0.8058747053146362,0.9941253662109376
-0.1323821097612381,0.9372479319572448,-0.3799425065517425,-0.5897890329360962,0.1966190040111541,-0.1547829210758209,0.0,0.0,-0.9410606622695924,0.9933357238769532
-0.1362499296665191,0.9235600829124452,-0.3775121867656708,-0.6071471571922302,0.1872944980859756,-0.1864901185035705,0.0,0.0,-0.955278754234314,0.9938229322433472
-0.1400932371616363,0.9094704389572144,-0.3730931878089905,-0.6248347163200378,0.1760191768407821,-0.225506454706192,0.0,0.0,-0.973292887210846,0.9745054244995116
-0.143892765045166,0.8949857950210571,-0.3662354350090027,-0.642194926738739,0.1622918248176574,-0.2745472490787506,0.0,0.0,-0.9830514788627625,0.9794723987579346
-0.1476736068725586,0.8801056146621704,-0.3625351786613464,-0.6597135066986084,0.146748811006546,-0.3108606338500976,0.0,0.0,-0.990219235420227,0.9634974002838136
-0.1514145880937576,0.8648220300674438,-0.3561765551567077,-0.677604615688324,0.1288888752460479,-0.3571988046169281,0.0,0.0,-0.99528306722641,0.941840648651123
-0.1551313400268554,0.849144458770752,-0.3517655432224273,-0.6951796412467957,0.1090857237577438,-0.3960631489753723,0.0,0.0,-0.9925960302352904,0.9920508861541748
-0.1587996482849121,0.8330633640289307,-0.3443227410316467,-0.7132227420806885,0.0867623761296272,-0.4464671611785888,0.0,0.0,-0.9881905913352966,0.962289810180664
-0.1624525040388107,0.8165718913078308,-0.341046005487442,-0.7317270040512085,0.0627692118287086,-0.4798634946346283,0.0,0.0,-0.9119176864624025,0.996701717376709
-0.1660628318786621,0.7996848225593567,-0.3343757092952728,-0.749627411365509,0.0364170856773853,-0.527042806148529,0.0,0.0,-0.4561704397201538,0.9958128929138184
-0.1696241348981857,0.7823957800865173,-0.326901912689209,-0.7679483890533447,0.0075615751557052,-0.5771106481552124,0.0,0.0,0.930054783821106,0.9391990900039672
-999.0,0.7661511898040771,-0.3134391605854034,-0.7221106886863708,-0.0230627879500389,-0.6124875545501709,0.0,0.0,0.2899152040481567,0.8450448513031006
-0.1765460968017578,0.7504257559776306,-0.3149052560329437,-0.6997352838516235,-0.055507518351078,-0.6488950848579407,0.0,0.0,0.551999568939209,0.9172561168670654
-0.1799231469631195,0.7347961068153381,-0.3030571341514587,-0.6962946057319641,-0.0897947773337364,-0.685745894908905,0.0,0.0,0.4669252634048462,0.4264274835586548
-0.1833770722150802,0.719703197479248,-0.3103581070899963,-0.6732718348503113,-0.1245814487338066,-0.6957336664199829,0.0,0.0,0.5984444618225098,0.9649991989135742
-0.186602309346199,0.704908549785614,-0.2857671082019806,-0.6610201597213745,-0.1612312942743301,-0.732997477054596,0.0,0.0,0.6628036499023438,-0.7976070046424866
-0.189806655049324,0.6906329393386841,-0.2854290008544922,-0.6386528015136719,-0.1963340193033218,-0.7020543813705444,0.0,0.0,-0.0993112921714782,-0.3867303133010864
-0.1930519044399261,0.6759520173072815,-0.2896479070186615,-0.6574941277503967,-0.2315399795770645,-0.7041197419166565,0.0,0.0,0.9591925144195556,-0.9179289937019348
-0.1964035928249359,0.6619693636894226,-0.3020069897174835,-0.6270139217376709,-0.2653018534183502,-0.6752383708953857,0.0,0.0,0.657078742980957,-0.9805063009262084
-0.1996179521083831,0.6488537192344666,-0.2904246151447296,-0.5888513922691345,-0.2971535325050354,-0.6370336413383484,0.0,0.0,0.5233376026153564,-0.842433512210846
-0.2027755230665207,0.6356984376907349,-0.2866776585578918,-0.5909106135368347,-0.3273054957389831,-0.6030391454696655,0.0,0.0,0.7179079055786133,-0.7090632319450378
-0.2057064026594162,0.623413622379303,-0.2656278908252716,-0.5524752736091614,-0.356060266494751,-0.575095534324646,0.0,0.0,0.9194304943084716,-0.884719729423523
-0.2086599320173263,0.6115861535072327,-0.2695555090904236,-0.5322965383529663,-0.3833562731742859,-0.5459200143814087,0.0,0.0,0.6090749502182007,-0.8584790825843811
-0.2115553319454193,0.6003610491752625,-0.2654137015342712,-0.5055986046791077,-0.4091570377349853,-0.5160150527954102,0.0,0.0,0.7652435302734375,-0.927625834941864
-0.2142521888017654,0.5896609425544739,-0.2475230693817138,-0.48216113448143,-0.4331208169460296,-0.4792757034301758,0.0,0.0,0.4479812383651733,-0.9824124574661256
-0.2168547213077545,0.5796938538551331,-0.2399962842464447,-0.4493882358074188,-0.4552556872367859,-0.442697674036026,0.0,0.0,0.333202600479126,-0.9655693173408508
-0.2192897796630859,0.569943904876709,-0.2251704037189483,-0.439453125,-0.4754952788352966,-0.4047924876213074,0.0,0.0,0.4756401777267456,-0.95922189950943
-0.2216942757368087,0.5603119730949402,-0.2239278107881546,-0.4338707625865936,-0.4939150214195251,-0.3683947920799255,0.0,0.0,0.4765915870666504,-0.9811145663261414
-0.2239992618560791,0.5506428480148315,-0.2158523797988891,-0.4350891709327698,-0.5103961229324341,-0.3296225666999817,0.0,0.0,0.931227445602417,-0.9865395426750184
-0.2262436896562576,0.5411532521247864,-0.211551621556282,-0.4266467690467834,-0.5250330567359924,-0.2927387058734894,0.0,0.0,0.9325788021087646,-0.994914710521698
-0.2281220406293869,0.5325238108634949,-0.1767375171184539,-0.387873500585556,-0.5377312302589417,-0.2539636492729187,0.0,0.0,0.7982821464538574,-0.9758106470108032
-0.2295479327440261,0.5246112942695618,-0.1333438456058502,-0.3553790748119354,-0.5483853220939636,-0.2130809128284454,0.0,0.0,0.9519293308258056,-0.9207095503807068
-0.23067507147789,0.5176935791969299,-0.1048704385757446,-0.3106778264045715,-0.5574871301651001,-0.1820347160100937,0.0,0.0,0.5950533151626587,-0.992506980895996
-0.2318430840969085,0.5109284520149231,-0.1105327978730201,-0.3032961785793304,-0.5647894740104675,-0.1460460722446441,0.0,0.0,0.8758136034011841,-0.99696546792984
-0.232568547129631,0.5049093961715698,-0.068045288324356,-0.2694258689880371,-0.5700609683990479,-0.1054296493530273,0.0,0.0,0.6411046981811523,-0.9981220364570618
-0.2331635504961013,0.4993470907211303,-0.0565753653645515,-0.2484680563211441,-0.5734896659851074,-0.0685739815235138,0.0,0.0,0.6292345523834229,-0.98834890127182
-0.2335250377655029,0.4943224787712097,-0.0348288975656032,-0.2238844484090805,-0.5750429034233093,-0.0310646407306194,0.0,0.0,0.5877878665924072,-0.9751793742179872
-0.2336066216230392,0.489800214767456,-0.0084427427500486,-0.2008646875619888,-0.5747047066688538,0.0067635416053235,0.0,0.0,0.4344391822814941,-0.8263272047042847
-0.2334068715572357,0.4854769706726074,0.0182667691260576,-0.1914078295230865,-0.5727005004882812,0.0400841161608696,0.0,0.0,-0.1633094549179077,-0.994919776916504
-0.2332819998264312,0.4807860553264618,0.0092226406559348,-0.207086905837059,-0.5688667893409729,0.0766740515828132,0.0,0.0,-0.6285131573677063,-0.9656469225883484
-0.2332197725772857,0.4757206737995147,0.0016346515621989,-0.2231819927692413,-0.5635012984275818,0.107310339808464,0.0,0.0,-0.0710595250129699,-0.9843687415122986
-0.233210951089859,0.4702818095684051,-0.0049073519185185,-0.2393060475587844,-0.5567540526390076,0.13494473695755,0.0,0.0,0.5389000177383423,-0.9875322580337524
-0.2329528331756591,0.4648288488388061,0.018271941691637,-0.2392517626285553,-0.5480096340179443,0.1748878508806228,0.0,0.0,-0.2819832563400268,-0.8960436582565308
-0.2327524721622467,0.4590173959732055,0.0109591353684663,-0.2546315491199493,-0.5375414490699768,0.2093640118837356,0.0,0.0,-0.0475300550460815,-0.8993903398513794
-0.2326045930385589,0.4528440833091736,0.0042476570233702,-0.2702288627624511,-0.5254653096199036,0.2415229380130767,0.0,0.0,0.1568529605865478,-0.9256654381752014
-0.2321908473968505,0.4468391537666321,0.0292155146598815,-0.2622521817684173,-0.5116430521011353,0.2764448821544647,0.0,0.0,-0.2030603289604187,-0.705941915512085
-0.2318131029605865,0.440443754196167,0.0246226973831653,-0.2793935537338257,-0.4968118071556091,0.2966250777244568,0.0,0.0,0.32002854347229,-0.8754242062568665
-0.2313360273838043,0.4342485070228576,0.0330369397997856,-0.2701302468776703,-0.4803968369960785,0.3282994627952575,0.0,0.0,-0.0788095593452453,-0.6296314597129822
-0.2308834046125412,0.4276723861694336,0.0296219326555728,-0.2869420647621155,-0.4630609452724457,0.3467179834842682,0.0,0.0,0.1747872829437255,-0.5040197968482971
-0.2302891314029693,0.4212613105773926,0.0429334603250026,-0.2795592546463012,-0.4449353516101837,0.3625125288963318,0.0,0.0,0.0104891061782836,-0.5116603970527649
-0.2295821160078048,0.4151772260665893,0.053407996892929,-0.2650215327739715,-0.4260987341403961,0.3767323493957519,0.0,0.0,0.1446912288665771,-0.2095770835876464
-0.2286044061183929,0.4093002378940582,0.0802863985300064,-0.2560271322727203,-0.407216727733612,0.3776400685310364,0.0,0.0,-0.1038855910301208,-0.3699480891227722
-0.2276091575622558,0.4030071496963501,0.0821112170815467,-0.2748002111911773,-0.3885699808597564,0.3729350864887237,0.0,0.0,0.0346592664718627,-0.553182065486908
-0.2265098989009857,0.3970102965831756,0.0916063636541366,-0.2616507709026336,-0.3690961301326751,0.3894773423671722,0.0,0.0,-0.1626309156417846,0.0895674228668212
-0.2253901064395904,0.3905975818634033,0.0937428474426269,-0.2804254591464996,-0.3498608469963074,0.3847057223320007,0.0,0.0,0.1484221220016479,-0.1015330553054809
-0.2241813689470291,0.3843996822834015,0.1030952185392379,-0.2712521255016327,-0.3312406539916992,0.3724039494991302,0.0,0.0,-0.1393187046051025,0.1969159841537475
-0.222949594259262,0.3777855038642883,0.1055185422301292,-0.2900239825248718,-0.3128617703914642,0.3675777018070221,0.0,0.0,-0.4328519701957702,0.4626848697662353
-0.221693605184555,0.3707548975944519,0.1080745607614517,-0.3087950050830841,-0.2947253882884979,0.3627277314662933,0.0,0.0,-0.7956763505935669,0.532347559928894
-0.2203689515590667,0.3632830381393432,0.1162438243627548,-0.3288916647434234,-0.2780297994613647,0.3339120745658874,0.0,0.0,-0.8045352101325989,0.2134096622467041
-0.219017893075943,0.3553940057754516,0.1190464347600936,-0.3476576209068298,-0.2615785896778106,0.3290240466594696,0.0,0.0,-0.613997220993042,0.7831168174743652
-0.2175808399915695,0.3470704257488251,0.1293032467365265,-0.3674332201480865,-0.2468914240598678,0.2937434017658233,0.0,0.0,-0.8574629426002502,0.8817734718322754
-0.216030403971672,0.3383067548274994,0.1429987102746963,-0.3875177204608917,-0.2346446067094802,0.2449366152286529,0.0,0.0,-0.8718953132629395,0.4564036130905151
-0.2144507467746734,0.3291242122650146,0.1461231261491775,-0.4062725901603699,-0.2226439714431762,0.2400127649307251,0.0,0.0,-0.7653824090957642,0.308802843093872
-0.2128410786390304,0.3195226192474365,0.1493412852287292,-0.4250268340110779,-0.2108899056911468,0.2350813448429107,0.0,0.0,-0.7750482559204102,0.7344691753387451
-0.2111371457576751,0.3094879388809204,0.1605899333953857,-0.4446199536323547,-0.2010042816400528,0.1977125108242035,0.0,0.0,-0.4296807050704956,0.2301505804061889
-0.2094015628099441,0.2990334928035736,0.1639795452356338,-0.4633699953556061,-0.1913655400276184,0.1927751749753952,0.0,0.0,0.2182235717773437,0.2036870718002319
-0.2076354473829269,0.2888562679290771,0.167679876089096,-0.4511899650096893,-0.1823907494544983,0.1794962584972381,0.0,0.0,-0.2200481295585632,-0.7092145085334778
-0.2059033364057541,0.2782760560512543,0.1627928763628006,-0.4689865112304687,-0.1719379276037216,0.2090563774108886,0.0,0.0,0.096422791481018,0.3949359655380249
-0.2040874511003494,0.2678326666355133,0.1714583188295364,-0.4630087316036224,-0.1617975831031799,0.2028065472841262,0.0,0.0,0.0679714679718017,0.4116370677947998
-0.2021650820970535,0.2574759721755981,0.1822618097066879,-0.4592419266700744,-0.1518255621194839,0.1994403749704361,0.0,0.0,0.4359351396560669,-0.0319076180458068
-0.2000482529401779,0.2471372485160827,0.2014107704162597,-0.458485871553421,-0.1415739804506302,0.2050316333770752,0.0,0.0,-0.0045989751815795,0.3322479724884033
-0.1978959143161773,0.2363787293434143,0.2051914930343628,-0.477235347032547,-0.131566897034645,0.2001415938138961,0.0,0.0,0.196054458618164,-0.2670059204101562
-0.1956129074096679,0.2260650247335434,0.2183994352817535,-0.4575414061546325,-0.1217195764183998,0.196946233510971,0.0,0.0,-0.4537736773490906,-0.1644017696380615
-0.1932935714721679,0.2153313905000686,0.2222767323255539,-0.4762898087501526,-0.112114742398262,0.1920966804027557,0.0,0.0,0.3521827459335327,0.6341760158538818
