x_pos,y_pos,x_vel,y_vel,angle,ang_vel,leg_1,leg_2,main_booster,lat_booster
-0.0016128539573401,1.4029756784439087,-0.1639362573623657,-0.3530791997909546,0.0023741391487419,0.0468774661421775,0.0,0.0,-0.3647641673093655,-0.668059548869493
-0.0033641816116869,1.3944026231765747,-0.1792410910129547,-0.3810345530509949,0.0064384280703961,0.0812941640615463,0.0,0.0,0.9229244755004338,-0.739976961532077
-0.0050992011092603,1.3858819007873535,-0.1800673902034759,-0.3787407577037811,0.0129295065999031,0.1298339068889618,0.0,0.0,0.185853847691559,-0.9816916235704656
-0.0071080205962061,1.377244472503662,-0.2099446952342987,-0.3839880526065826,0.0218769088387489,0.1789646446704864,0.0,0.0,0.9741191870899932,-0.90458820702925
-0.0091279027983546,1.369134545326233,-0.2137442529201507,-0.3606531023979187,0.0335121043026447,0.2327256202697754,0.0,0.0,-0.1840036837905152,-0.5741758169423884
-0.0112750055268406,1.3603756427764893,-0.2279043495655059,-0.3896343111991882,0.0465679317712783,0.2611406445503235,0.0,0.0,-0.7200197368548962,0.5519653359177004
-0.0134731288999319,1.3509736061096191,-0.2324897348880767,-0.4183091521263122,0.0591151379048824,0.2509675621986389,0.0,0.0,-0.1378836014688216,-0.8147888612163864
-0.0158127788454294,1.3409240245819092,-0.248399332165718,-0.4472850859165191,0.0734219998121261,0.2861632704734802,0.0,0.0,-0.7604155419862613,-0.501595222575205
-0.0182863231748342,1.3302303552627563,-0.2633577883243561,-0.4761376678943634,0.0892860293388366,0.3173100650310516,0.0,0.0,0.8559575866440132,-0.6088104324665007
-0.0209755897521972,1.3201087713241575,-0.2866601347923279,-0.451000839471817,0.1068993583321571,0.3522996008396148,0.0,0.0,0.7454544669426857,-0.8684135484832106
-0.0237939842045307,1.3102864027023315,-0.3020046949386596,-0.438116580247879,0.1269682794809341,0.4014153480529785,0.0,0.0,-0.3952781220768098,-0.5109772722574373
-0.0267422683537006,1.2998143434524536,-0.3163937628269195,-0.4674085080623626,0.148479551076889,0.4302644729614258,0.0,0.0,0.619545396257156,0.9504486680145616
-0.029671287164092,1.2897710800170898,-0.3132403194904327,-0.448527067899704,0.1688318252563476,0.4070830345153808,0.0,0.0,0.5248619769011371,0.758263953575814
-0.0326214805245399,1.2795958518981934,-0.3144435584545135,-0.4545572102069855,0.1883462816476822,0.3903249502182007,0.0,0.0,0.1675059690516298,-0.6343503147421232
-0.0357167236506938,1.2696609497070312,-0.3308435976505279,-0.4444044530391693,0.209844022989273,0.4299941956996918,0.0,0.0,0.8138236704750874,0.7807333654174875
-0.0387856476008892,1.2596145868301392,-0.3273919820785522,-0.4495462477207184,0.2306063175201416,0.4152838289737701,0.0,0.0,0.1412516887915291,-0.5890293420489311
-0.0420288071036338,1.2498173713684082,-0.3465872406959533,-0.4390802085399627,0.2532690763473511,0.453296959400177,0.0,0.0,-0.8560835191536962,0.867451478533453
-0.0452853217720985,1.2394038438796997,-0.3462144732475281,-0.4665148556232452,0.2743166089057922,0.4209886491298675,0.0,0.0,0.4343135368758188,0.8254328137376358
-0.0486745834350585,1.229427456855774,-0.3583907186985016,-0.4471710920333862,0.2943557202816009,0.4008184373378753,0.0,0.0,-0.7011564287088818,0.5866430662451149
-0.0521218292415142,1.2188262939453125,-0.3635965883731842,-0.475098580121994,0.3139061033725738,0.3910436630249023,0.0,0.0,0.5371368156488325,-0.8333156593751021
-0.055819034576416,1.2086188793182373,-0.3907957375049591,-0.4583744704723358,0.3358834981918335,0.4395870268344879,0.0,0.0,-0.488366827856618,0.5501051831680471
-0.0595705024898052,1.1977895498275757,-0.3955023884773254,-0.4861832559108734,0.3572569787502289,0.4275075793266296,0.0,0.0,0.4879441088509397,0.9490290508509291
-0.0633955001831054,1.1871159076690674,-0.401477038860321,-0.4792321026325226,0.3773487508296966,0.4018719792366028,0.0,0.0,0.9194851056399422,-0.8358672761819055
-0.0674269646406173,1.176311731338501,-0.4242551326751709,-0.4859358668327331,0.3998885154724121,0.450836032629013,0.0,0.0,0.6827339281974525,-0.9059457637183216
-0.0720255821943283,1.165640115737915,-0.4827905595302582,-0.4809485971927643,0.4246040880680084,0.4943554997444153,0.0,0.0,0.4671335172166169,0.5119776626299524
-0.0770641341805458,1.1551059484481812,-0.5257468223571777,-0.4749684333801269,0.4484463930130005,0.4768458306789398,0.0,0.0,0.774733884412627,0.5079043260869365
-0.0824988335371017,1.1450194120407104,-0.5646514892578125,-0.4552684426307678,0.471769779920578,0.466467797756195,0.0,0.0,-0.5662244678861474,0.8155052304868515
-0.0879881829023361,1.1343350410461426,-0.5691471099853516,-0.4818970561027527,0.4942722022533417,0.4500485062599182,0.0,0.0,-0.0548104987627844,-0.519208268194847
-0.0936192497611045,1.1229808330535889,-0.5846897959709167,-0.5126014351844788,0.5186264514923096,0.4870845377445221,0.0,0.0,0.9669320179034392,-0.6830919704377908
-0.0997036918997764,1.1116831302642822,-0.6314026117324829,-0.5110935568809509,0.5448894500732422,0.5252602100372314,0.0,0.0,-0.7283053035644591,-0.9714966774255698
-0.1059524565935134,1.0997012853622437,-0.6496034860610962,-0.5428113341331482,0.5736586451530457,0.5753844380378723,0.0,0.0,-0.9929745197296144,0.9997353553771972
-0.1122399345040321,1.087133526802063,-0.651896595954895,-0.5688048601150513,0.601085364818573,0.5485342741012573,0.0,0.0,-0.9624921679496764,0.9971578121185304
-0.118573285639286,1.07399320602417,-0.6549375653266907,-0.5941361784934998,0.6271496415138245,0.5212860703468323,0.0,0.0,-0.9789784550666808,0.9984956979751588
-0.1249438300728797,1.060268759727478,-0.6571110486984253,-0.6198853254318237,0.6517966389656067,0.4929403662681579,0.0,0.0,-0.9325693249702454,0.9996438026428224
-0.1313484162092209,1.0459799766540527,-0.6587599515914917,-0.6445719003677368,0.6746984720230103,0.4580368399620056,0.0,0.0,-0.9907812476158142,0.996185302734375
-0.1377900093793869,1.0311315059661863,-0.6607467532157898,-0.6689444780349731,0.6958285570144653,0.4226019382476806,0.0,0.0,-0.976493775844574,0.991478443145752
-0.1442682296037674,1.0157097578048706,-0.6629028916358948,-0.6939651966094971,0.7153637409210205,0.3907032012939453,0.0,0.0,-0.9612687826156616,0.9867455959320068
-0.1507832556962967,0.9997321367263794,-0.6649256944656372,-0.7180188894271851,0.7330414652824402,0.3535549342632293,0.0,0.0,-0.9935110807418824,0.9493227005004884
-0.1573460549116134,0.9831892848014832,-0.6683619022369385,-0.7426004409790039,0.749199390411377,0.3231586515903473,0.0,0.0,-0.990064799785614,0.996396780014038
-0.1639437675476074,0.9660873413085938,-0.6702972650527954,-0.7667109370231628,0.7634909152984619,0.2858299612998962,0.0,0.0,-0.967834770679474,0.9952781200408936
-0.170592114329338,0.9484139680862428,-0.6742246150970459,-0.7915464639663696,0.7763893604278564,0.2579690515995025,0.0,0.0,-0.9603819847106934,0.9991340637207032
-0.1772648841142654,0.9301929473876952,-0.6749398112297058,-0.8148787617683411,0.7870341539382935,0.212895393371582,0.0,0.0,-0.9670873880386353,0.9714699983596802
-0.1839621514081955,0.9114131927490234,-0.6758166551589966,-0.8387691378593445,0.7955946922302246,0.1712102591991424,0.0,0.0,-0.913239598274231,0.978600025177002
-0.1906870901584625,0.8920818567276001,-0.677024245262146,-0.8622798919677734,0.8020130395889282,0.1283663958311081,0.0,0.0,-0.9517933130264282,0.9981656074523926
-0.1974455863237381,0.8721749782562256,-0.6791914701461792,-0.8870572447776794,0.8067646026611328,0.0950318723917007,0.0,0.0,-0.873948335647583,0.9782332181930542
-0.2042316496372223,0.8517045378684998,-0.6805583238601685,-0.9111676812171936,0.8095553517341614,0.0558163002133369,0.0,0.0,-0.8743676543235779,0.9794456958770752
-0.2110454589128494,0.8306753039360046,-0.6819067001342773,-0.9349957704544068,0.8103040456771851,0.0149740222841501,0.0,0.0,-0.824742317199707,0.977196455001831
-0.2179091423749923,0.8090745806694031,-0.685884416103363,-0.959697425365448,0.8096103668212891,-0.013873559422791,0.0,0.0,-0.6918089985847473,0.7919954061508179
-0.2248294353485107,0.7868847250938416,-0.6908125281333923,-0.985361099243164,0.8078675866127014,-0.0348561443388462,0.0,0.0,-0.700314998626709,0.8963979482650757
-0.2317876368761062,0.7641198635101318,-0.6934671998023987,-1.0101358890533447,0.8045176863670349,-0.066998466849327,0.0,0.0,-0.6767848134040833,0.7073904275894165
-0.2387831658124923,0.7407823801040649,-0.6960316300392151,-1.034796953201294,0.799515962600708,-0.1000341549515724,0.0,0.0,-0.7323134541511536,0.799401044845581
-0.2458257228136062,0.7168627977371216,-0.6997743248939514,-1.0600347518920898,0.7931821346282959,-0.1266761869192123,0.0,0.0,-0.8302462100982666,0.4773029088973999
-0.252950370311737,0.6922977566719055,-0.708161473274231,-1.0888813734054563,0.7871400713920593,-0.1208406537771225,0.0,0.0,-0.867576003074646,0.6224035024642944
-0.2601248323917389,0.6671420931816101,-0.7122900485992432,-1.114601969718933,0.7799495458602905,-0.1438101828098297,0.0,0.0,-0.938255250453949,0.3849610090255737
-0.2673790454864502,0.6413404941558838,-0.7204114198684692,-1.1434470415115356,0.773009181022644,-0.1388078778982162,0.0,0.0,-0.9623799324035645,0.2966296672821045
-0.2747116982936859,0.6148930788040161,-0.7283892035484314,-1.1722904443740845,0.7662965059280396,-0.1342540979385376,0.0,0.0,-0.9746727347373962,-0.0945760011672973
-0.2821215093135834,0.5877992510795593,-0.7362156510353088,-1.20113205909729,0.7597880363464355,-0.1301692873239517,0.0,0.0,-0.9832422733306884,0.0211399793624877
-0.2896068692207336,0.5600587725639343,-0.7438825368881226,-1.2299723625183103,0.7534594535827637,-0.1265715509653091,0.0,0.0,-0.989294707775116,-0.538169264793396
-0.2971954345703125,0.5316381454467773,-0.7550577521324158,-1.2607721090316772,0.7483289837837219,-0.1026094332337379,0.0,0.0,-0.9959254860877992,-0.6074360013008118
-0.3048975467681885,0.5025203227996826,-0.7676154971122742,-1.292526364326477,0.7448449730873108,-0.069680169224739,0.0,0.0,-0.9954719543457032,-0.7248729467391968
-0.3127048909664154,0.472698450088501,-0.7793289422988892,-1.3245514631271362,0.7429537177085876,-0.0378249771893024,0.0,0.0,-0.9972412586212158,-0.6843215823173523
-0.3206281661987304,0.4421688318252563,-0.7922914624214172,-1.3568518161773682,0.742910623550415,-0.0008617070270702,0.0,0.0,-0.9978017210960388,-0.6634746789932251
-0.3286476731300354,0.410948634147644,-0.8028305172920227,-1.388105392456055,0.7440938949584961,0.0236649364233016,0.0,0.0,-0.9975537061691284,-0.5701975226402283
-0.3367637991905212,0.3790377676486969,-0.8134185671806335,-1.4193698167800903,0.7465173602104187,0.0484690219163894,0.0,0.0,-0.9984367489814758,-0.4863672852516174
-0.3449431955814361,0.3464783430099487,-0.8197348713874817,-1.4481967687606812,0.7489333152770996,0.0483187958598136,0.0,0.0,-0.9977625012397766,-0.4006963968276977
-0.3531838059425354,0.3132700026035309,-0.8258246183395386,-1.4770222902297974,0.7513144016265869,0.0476214326918125,0.0,0.0,-0.9978256225585938,-0.4408638477325439
-0.3614834249019623,0.2794125974178314,-0.8316795229911804,-1.50584614276886,0.7536335587501526,0.0463831834495067,0.0,0.0,-0.996537446975708,-0.2315053343772888
-0.3698399066925049,0.2449057847261428,-0.8372920155525208,-1.5346685647964478,0.7558643221855164,0.044615551829338,0.0,0.0,-0.995536744594574,-0.2105474472045898
-0.3782508373260498,0.2097494006156921,-0.8426545858383179,-1.5634894371032717,0.7579808831214905,0.0423307903110981,0.0,0.0,-0.9912562370300292,0.2244300842285156
-0.3867139220237732,0.1739431172609329,-0.8477603793144226,-1.592308759689331,0.759958028793335,0.0395428203046321,0.0,1.0,0.5527987480163574,0.9990010261535645
-0.3896617293357849,0.1678462773561477,-0.3779150545597076,-0.3606285750865936,0.8645549416542053,2.025933027267456,0.0,1.0,-0.9962133765220642,-0.8513946533203125
-0.3916262984275818,0.1685238480567932,-0.2927800118923187,-0.0697835236787796,1.02414071559906,3.1705551147460938,0.0,1.0,-0.9999531507492064,-0.972241222858429
-0.3939569890499115,0.168452963232994,-0.3054328560829162,-0.0984606072306633,1.1795308589935305,3.104105234146118,0.0,0.0,-0.9993471503257751,0.9626610279083252
-0.3965033590793609,0.1678985655307769,-0.303508460521698,-0.1219497472047805,1.3316960334777832,3.043518543243408,0.0,0.0,-0.9995360374450684,0.9107022285461426
-0.3992729783058166,0.1668485701084137,-0.3028901219367981,-0.1460652947425842,1.4812781810760498,2.9918465614318848,0.0,0.0,-0.9992864727973938,0.937697172164917
-0.4022658765316009,0.1652801632881164,-0.3028517067432403,-0.1684826910495758,1.6277657747268677,2.9299468994140625,0.0,0.0,-0.9992510080337524,0.8710553646087646
-0.4054822325706482,0.1631286740303039,-0.3040362894535064,-0.191983938217163,1.771689772605896,2.8786683082580566,0.0,0.0,-0.9988256692886353,0.8474946022033691
-0.4089280664920807,0.1603544801473617,-0.3072771430015564,-0.2153405994176864,1.913036108016968,2.82710599899292,0.0,0.0,-0.9988526701927184,0.7663378715515137
-0.4125955104827881,0.1569239646196365,-0.3115754127502441,-0.2385038286447525,2.051750421524048,2.7744626998901367,0.0,0.0,-0.9975340962409972,0.6471133232116699
-0.4164619445800781,0.1527690440416336,-0.3151795268058777,-0.2638044655323028,2.1886932849884038,2.73902440071106,0.0,0.0,-0.9974433183670044,0.711836576461792
-0.4205054342746734,0.1478858590126037,-0.318244069814682,-0.2882478535175323,2.324198007583618,2.710138320922852,0.0,0.0,-0.9931705594062804,0.6395514011383057
-0.4247244894504547,0.1422373354434967,-0.323953628540039,-0.3129368126392364,2.4575514793396,2.6690573692321777,0.0,0.0,-0.9922235012054444,0.4007387161254883
-0.4290611743927002,0.1357543319463729,-0.3247134387493133,-0.3406281769275665,2.590370416641236,2.6586155891418457,0.0,0.0,-0.995425283908844,0.4009674787521362
-0.4334948658943176,0.128420814871788,-0.3254324793815613,-0.3682003021240234,2.72265625,2.6479697227478027,0.0,0.0,-0.9944953322410583,-0.2529318332672119
-0.4380036294460296,0.1202248409390449,-0.3261290192604065,-0.3956795930862427,2.854402542114258,2.6371512413024902,0.0,0.0,-0.993180215358734,-0.5443705916404724
-0.4387829303741455,0.1183937862515449,-0.0434291884303092,-0.0394266471266746,2.853267192840576,-0.3276562094688415,0.0,0.0,-0.993180215358734,-0.5443705916404724
