x_pos,y_pos,x_vel,y_vel,angle,ang_vel,leg_1,leg_2,main_booster,lat_booster
-0.001488494919613,1.4030954837799072,-0.1507980525493621,-0.3477651178836822,0.001746051129885,0.0344412103295326,0.0,0.0,0.7986014883923187,-0.6841282456864146
-0.0029352188576012,1.3955148458480835,-0.1479160487651825,-0.3369227647781372,0.0049528940580785,0.0641434416174888,0.0,0.0,0.4519398750001939,-0.8414491455607768
-0.0042825699783861,1.3879317045211792,-0.1398530900478363,-0.337054431438446,0.0100140236318111,0.1012320145964622,0.0,0.0,0.7255295332558498,0.9956405782566704
-0.0056616785004734,1.3805981874465942,-0.1408064514398574,-0.3259593844413757,0.0128916408866643,0.057557500898838,0.0,0.0,0.8082194925658441,0.7950122734376737
-0.0067975046113133,1.373812556266785,-0.115247830748558,-0.3015939593315124,0.0145322429016232,0.0328150019049644,0.0,0.0,-0.3758328402564466,0.6978275142073991
-0.0078309057280421,1.366498351097107,-0.103269025683403,-0.3250769972801208,0.0144718615338206,-0.0012079768348485,0.0,0.0,0.3629767087882096,-0.8496597501730387
-0.0089239124208688,1.3593677282333374,-0.1109077557921409,-0.316930741071701,0.0160619523376226,0.0318046584725379,0.0,0.0,0.141063748492543,-0.6685299058168396
-0.0099255563691258,1.352381706237793,-0.1032595634460449,-0.3105280101299286,0.0191318001598119,0.0614024773240089,0.0,0.0,-0.4480970736276235,-0.5970499827272744
-0.010940265841782,1.3448717594146729,-0.1057829856872558,-0.3338343799114227,0.0233991667628288,0.0853550881147384,0.0,0.0,-0.167777539472596,0.7215408579687428
-0.0118634225800633,1.3368394374847412,-0.0951833203434944,-0.3570366203784942,0.0262296888977289,0.0566155388951301,0.0,0.0,-0.0359740267511876,0.853457986430789
-0.0126750944182276,1.3282818794250488,-0.0820636749267578,-0.38035649061203,0.0271188337355852,0.0177848003804683,0.0,0.0,-0.5581248985159388,0.7006081075557129
-0.0133903501555323,1.319196105003357,-0.0708477199077606,-0.4037955701351166,0.0264475122094154,-0.0134275872260332,0.0,0.0,0.9831816143980364,-0.6684273321158006
-0.0139781953766942,1.310848355293274,-0.059896133840084,-0.3710304498672485,0.0275444481521844,0.0219407398253679,0.0,0.0,0.4116753764903444,-0.6097374379070609
-0.0145235061645507,1.3024213314056396,-0.0569948367774486,-0.374580055475235,0.029978934675455,0.0486943647265434,0.0,0.0,-0.9213542999357976,0.9607599063708704
-0.0149414064362645,1.2934794425964355,-0.0418569296598434,-0.397418349981308,0.0300482492893934,0.0013864422217011,0.0,0.0,-0.7593722319489038,0.7386257357486576
-0.0152561189606785,1.2840029001235962,-0.0297813266515731,-0.4211436808109283,0.0283752735704183,-0.0334628112614154,0.0,0.0,-0.9414884199961022,-0.670410420608947
-0.0155778881162405,1.2740036249160769,-0.0315088406205177,-0.4444087445735931,0.0277152825146913,-0.0132010430097579,0.0,0.0,-0.918839899753791,-0.7936908429454597
-0.0159136764705181,1.263466238975525,-0.0341156646609306,-0.4683344960212707,0.0282446481287479,0.0105881709605455,0.0,0.0,-0.1385598498226834,0.9838127117950648
-0.0161260608583688,1.2524129152297974,-0.0194603875279426,-0.491223931312561,0.026489270851016,-0.0351107157766819,0.0,0.0,0.9109152106685924,-0.5330973512962792
-0.016463566571474,1.2418062686920166,-0.0327259935438632,-0.4713865518569946,0.0254842098802328,-0.0201030410826206,0.0,0.0,-0.0422537509729266,0.6257904803490759
-0.0167082790285348,1.2306774854660034,-0.0219061560928821,-0.4945784211158752,0.0229551959782838,-0.0505849346518516,0.0,0.0,-0.1616332018922432,-0.6428617902365061
-0.0169699676334857,1.2190141677856443,-0.0248630605638027,-0.5183473825454712,0.0216625891625881,-0.0258545372635126,0.0,0.0,-0.3948346920591046,0.5709746790603452
-0.0171444900333881,1.2068229913711548,-0.0147264376282691,-0.5417978167533875,0.0189716145396232,-0.0538244433701038,0.0,0.0,-0.7770726893463478,-0.7833695260665559
-0.0173416137695312,1.1940922737121582,-0.0183632131665945,-0.5657874345779419,0.0176398642361164,-0.0266375746577978,0.0,0.0,0.5872333373411092,0.9859141929372516
-0.0175948143005371,1.1817606687545776,-0.0218011084944009,-0.5480318069458008,0.0141564533114433,-0.0696745738387107,0.0,0.0,-0.7942531401894697,0.5914554122968818
-0.0177811626344919,1.1688826084136963,-0.0141837429255247,-0.5723236203193665,0.0097614377737045,-0.0878999382257461,0.0,0.0,-0.604560078217774,-0.9064396515698164
-0.0180081371217966,1.155480146408081,-0.0200358107686042,-0.5956448912620544,0.0071357111446559,-0.0525146834552288,0.0,0.0,-0.7623043331101145,0.8879025227667643
-0.0181498527526855,1.1415587663650513,-0.0100897792726755,-0.6187155842781067,0.0031050445977598,-0.0806133821606636,0.0,0.0,0.5271211462488192,0.5490517811736318
-0.0183506961911916,1.1281867027282717,-0.0145413223654031,-0.5943112969398499,-0.0023615641985088,-0.1093322858214378,0.0,0.0,0.1401734226137787,0.8147868435492689
-0.018473720178008,1.1147876977920532,-0.0050940667279064,-0.5955407023429871,-0.0094821490347385,-0.1424117237329483,0.0,0.0,-0.227052400414679,0.7752923668896543
-0.0185050014406442,1.1008684635162354,0.0057292147539556,-0.6187193393707275,-0.0182156693190336,-0.1746704131364822,0.0,0.0,-0.1000646352767944,-0.997380256652832
-0.018597412854433,1.0864174365997314,-0.0026430855505168,-0.6423615217208862,-0.02473377995193,-0.1303622424602508,0.0,0.0,-0.908753514289856,-0.9666094779968262
-0.0187495239078998,1.071450114250183,-0.0107927676290273,-0.6652947664260864,-0.0290893577039241,-0.0871116369962692,0.0,0.0,-0.8437421321868896,-0.9712917804718018
-0.0189601890742778,1.0559487342834473,-0.0188000909984111,-0.6889945864677429,-0.0313340127468109,-0.0448929704725742,0.0,0.0,-0.8068987727165222,-0.9430214166641236
-0.0192177779972553,1.0399237871170044,-0.025312727317214,-0.7122304439544678,-0.031778123229742,-0.0088821975514292,0.0,0.0,-0.8053404688835144,-0.7110538482666016
-0.0195050239562988,1.023377776145935,-0.0296427421271801,-0.735361635684967,-0.0308748334646224,0.0180657878518104,0.0,0.0,-0.6271238327026367,-0.2753164768218994
-0.0197685249149799,1.0063025951385498,-0.0272338781505823,-0.7588746547698975,-0.0299963373690843,0.0175698567181825,0.0,0.0,-0.6133360266685486,-0.7346214056015015
-0.0200634952634573,0.9887067675590516,-0.0317437313497066,-0.7819998264312744,-0.0277732294052839,0.0444620177149772,0.0,0.0,0.0881145000457763,0.3823976516723633
-0.0203471183776855,0.9714149832725524,-0.0304680578410625,-0.7684853076934814,-0.0256946478039026,0.0415717214345932,0.0,0.0,-0.0834130644798278,0.1065480709075927
-0.0206101424992084,0.9535941481590272,-0.0283796545118093,-0.7919986844062805,-0.0236404351890087,0.0410840883851051,0.0,0.0,0.0248181819915771,0.5179109573364258
-0.0208746902644634,0.9359742403030396,-0.027343314141035,-0.7830955386161804,-0.0227637942880392,0.017533017322421,0.0,0.0,-0.0901237726211547,0.520972728729248
-0.021071434020996,0.9178223013877868,-0.01927375420928,-0.8067556023597717,-0.0231594089418649,-0.0079123759642243,0.0,0.0,0.1882641315460205,-0.1726114153861999
-0.0211762432008981,0.8994771838188171,-0.0103876572102308,-0.8153379559516907,-0.0232550147920846,-0.0019118769560009,0.0,0.0,-0.2922624945640564,-0.3086955547332763
-0.0212656967341899,0.8806031346321106,-0.0088255042210221,-0.8388508558273315,-0.0233732536435127,-0.0023649237118661,0.0,0.0,0.1940940618515014,0.2682042121887207
-0.0213656425476074,0.8615201115608215,-0.0097136199474334,-0.8481342792510986,-0.0236494038254022,-0.0055233789607882,0.0,0.0,0.5800315141677856,0.2664070129394531
-0.0214016921818256,0.8423858880996704,-0.0035131436306983,-0.8504146933555603,-0.0237436760216951,-0.0018852116772904,0.0,0.0,0.487757921218872,0.5658390522003174
-0.0213132854551076,0.8233193159103394,0.00995440967381,-0.8474252223968506,-0.0248440168797969,-0.0220068283379077,0.0,0.0,0.3814893960952759,-0.7956891655921936
-0.0213668830692768,0.8047838807106018,-0.0056974124163389,-0.8237898349761963,-0.0245202723890543,0.0064752311445772,0.0,0.0,-0.1342529058456421,0.636872410774231
-0.0213738437741994,0.7857234477996826,-4.7454032028326765e-06,-0.8471335172653198,-0.0252024419605731,-0.0136432144790887,0.0,0.0,0.2597430944442749,-0.2239205837249755
-0.0213815681636333,0.7667165398597717,1.2858424270234536e-05,-0.8447734117507935,-0.0259770881384611,-0.0154930874705314,0.0,0.0,0.0911186933517456,-0.1141350269317627
-0.0212810523808002,0.747742235660553,0.0104154637083411,-0.8433087468147278,-0.0263303481042385,-0.007065278943628,0.0,0.0,-0.0559261441230773,0.4243278503417969
-0.0211785323917865,0.7282389402389526,0.0106265228241682,-0.8668216466903687,-0.0266993809491395,-0.0073807127773761,0.0,0.0,-0.0318662524223327,0.1260931491851806
-0.0210759155452251,0.7082064747810364,0.010651471093297,-0.8903346657752991,-0.0270831156522035,-0.0076746419072151,0.0,0.0,0.5564097166061401,0.4539215564727783
-0.0209515579044818,0.688771665096283,0.0128137022256851,-0.8637731671333313,-0.0274665765464305,-0.00766904046759,0.0,0.0,0.3107132911682129,-0.0992610454559326
-0.0207020752131938,0.6693829894065857,0.0247911605983972,-0.8617146611213684,-0.0273157227784395,0.0030174937564879,0.0,0.0,0.2372260093688964,0.2879881858825683
-0.020520020276308,0.6499974131584167,0.0184032190591096,-0.8615879416465759,-0.0275072269141674,-0.0038300051819533,0.0,0.0,0.5768489837646484,-0.1099833846092224
-0.0202345848083496,0.6312195062637329,0.0283284578472375,-0.8345654606819153,-0.0272939074784517,0.0042664110660552,0.0,0.0,0.3234328031539917,-0.0395346879959106
-0.0198329929262399,0.6127182841300964,0.0394376516342163,-0.8222663402557373,-0.0265783611685037,0.0143107250332832,0.0,0.0,0.1304254531860351,-0.1041353940963745
-0.0193761829286813,0.5945306420326233,0.0447307899594306,-0.8083228468894958,-0.0256343930959701,0.0188794527202844,0.0,0.0,0.1128854751586914,0.1135441064834594
-0.0189695358276367,0.5766096711158752,0.0399515591561794,-0.7964764833450317,-0.0249347258359193,0.0139933405444026,0.0,0.0,0.0187904834747314,0.0353716611862182
-0.0185399055480957,0.5585008859634399,0.042113296687603,-0.804820716381073,-0.0240949504077434,0.0167954433709383,0.0,0.0,0.3410396575927734,-0.2191287279129028
-0.0181938167661428,0.5407198071479797,0.0341538898646831,-0.7902634739875793,-0.0236366000026464,0.0091669764369726,0.0,0.0,0.0448006391525268,-0.6363431215286255
-0.0178191177546978,0.5228972434997559,0.035615436732769,-0.7920883893966675,-0.0218150615692138,0.0364308468997478,0.0,0.0,-0.1390915513038635,-0.3744229078292846
-0.0174633022397756,0.5045456290245056,0.0337363220751285,-0.8156015872955322,-0.0199965201318264,0.0363708958029747,0.0,0.0,0.6654198169708252,-0.429180383682251
-0.0171117782592773,0.4862707853317261,0.0332776233553886,-0.8121917843818665,-0.018143605440855,0.0370580181479454,0.0,0.0,0.8006548881530762,-0.2548578977584839
-0.0169050209224224,0.4684367179870605,0.0194384343922138,-0.7926129698753357,-0.0169160887598991,0.0245501939207315,0.0,0.0,0.7804715633392334,-0.4598733186721802
-0.0166821479797363,0.4514561891555786,0.0209289006888866,-0.7546741366386414,-0.0155820660293102,0.0266805496066808,0.0,0.0,0.4894613027572632,-0.5894550681114197
-0.0164456367492675,0.4343343377113342,0.0209362041205167,-0.7609463334083557,-0.0128933833912014,0.0537734925746917,0.0,0.0,0.8631470203399658,-0.4494531154632568
-0.0161911007016897,0.4181268513202667,0.022580087184906,-0.7203092575073242,-0.010062787681818,0.0566122122108936,0.0,0.0,0.7089853286743164,-0.3921939134597778
-0.0160551071166992,0.4021263718605041,0.0111873894929885,-0.7111192941665649,-0.0076808161102235,0.0476393401622772,0.0,0.0,0.8315674066543579,0.0120741128921508
-0.0160421375185251,0.3867239952087402,-0.0006413832888938,-0.6845405101776123,-0.00576749490574,0.03826654702425,0.0,0.0,0.5113368034362793,-0.4189175367355346
-0.0160255432128906,0.3716464042663574,-0.0004233350628055,-0.6701104044914246,-0.0037211636081337,0.0409268364310264,0.0,0.0,0.9779109954833984,0.5996637344360352
-0.016150951385498,0.3575637340545654,-0.012938005849719,-0.6258968710899353,-0.0033221619669348,0.0079799126833677,0.0,0.0,0.9138407707214355,0.696685791015625
-0.0161564834415912,0.3439546227455139,0.0002074449730571,-0.6048487424850464,-0.0040800180286169,-0.0151570960879325,0.0,0.0,0.0490078926086425,0.5090402364730835
-0.0161746032536029,0.3301849365234375,1.4941038898541592e-05,-0.611991286277771,-0.0058881863951683,-0.0361635349690914,0.0,0.0,0.9128696918487548,-0.0822206139564514
-0.0161426551640033,0.3164501190185547,0.0046522375196218,-0.6104432344436646,-0.0073273624293506,-0.0287834759801626,0.0,0.0,0.9032917022705078,-0.4089983701705932
-0.0161757469177246,0.3027732074260711,-0.0016796078998595,-0.607871413230896,-0.0089297592639923,-0.0320479944348335,0.0,0.0,0.9478592872619628,-0.2342710494995117
-0.01624221727252,0.2899700403213501,-0.0049869040958583,-0.5690367817878723,-0.0105723282322287,-0.0328514464199543,0.0,0.0,0.561668872833252,-0.2482542395591735
-0.0162573810666799,0.2777933180332184,-0.0002141813456546,-0.5411968231201172,-0.0118590854108333,-0.0257349275052547,0.0,0.0,0.8137863874435425,-0.6113574504852295
-0.0164753906428813,0.2664427757263183,-0.0213872678577899,-0.5044710040092468,-0.0122670736163854,-0.0081599745899438,0.0,0.0,0.9538321495056152,-0.0534180402755737
-0.0168749801814556,0.2551535367965698,-0.0388338938355445,-0.5017525553703308,-0.0133764436468482,-0.022187503054738,0.0,0.0,0.2572023868560791,0.7134628295898438
-0.017209243029356,0.2442421019077301,-0.0309214647859334,-0.4849773645401001,-0.0158507283776998,-0.049485445022583,0.0,0.0,0.6232514381408691,0.1492643356323242
-0.0176682472229003,0.2336521744728088,-0.0429311320185661,-0.470698744058609,-0.0187785793095827,-0.0585571154952049,0.0,0.0,0.542098879814148,-0.1160662770271301
-0.0182008743286132,0.2234835922718048,-0.0500697195529937,-0.4519805610179901,-0.0219359714537858,-0.0631478652358055,0.0,0.0,-0.3814648389816284,-0.297263503074646
-0.018768310546875,0.2127860188484192,-0.0535521507263183,-0.4754942953586578,-0.0250859782099723,-0.0630000680685043,0.0,0.0,0.6288177967071533,-0.4631410837173462
-0.0192703250795602,0.2024165242910385,-0.0474298223853111,-0.4609176516532898,-0.0278307758271694,-0.0548958368599414,0.0,0.0,0.2215807437896728,0.0515367984771728
-0.0197831150144338,0.1918967515230178,-0.0485896281898021,-0.4675955474376678,-0.0304867550730705,-0.053119771182537,0.0,0.0,0.5480642318725586,-0.0788379907608032
-0.0202330593019723,0.1814097464084625,-0.0427147112786769,-0.4661369621753692,-0.0327327661216259,-0.0449202507734298,0.0,0.0,0.6717336177825928,-0.643028974533081
-0.0205892566591501,0.1712544113397598,-0.0350406430661678,-0.4513615667819977,-0.0333155915141105,-0.0116566335782408,0.0,0.0,0.1156249046325683,0.2003262042999267
-0.020878504961729,0.1609645932912826,-0.0287827793508768,-0.4573290646076202,-0.0334547720849514,-0.0027840014081448,0.0,0.0,0.805073618888855,-0.1734806895256042
-0.0211825370788574,0.1513765156269073,-0.030239287763834,-0.4261388480663299,-0.0336143150925636,-0.0031907130032777,0.0,0.0,0.5475221872329712,0.4839639663696289
-0.0214698798954486,0.1423232406377792,-0.0287187099456787,-0.4023724794387817,-0.0336313806474208,-0.0003413142985664,0.0,0.0,-0.0343832969665527,-0.3043587207794189
-0.0217936523258686,0.1327408105134964,-0.0323637537658214,-0.4258853793144226,-0.0336398854851722,-0.0001701385190244,0.0,0.0,0.691962480545044,0.4684126377105713
-0.0220393184572458,0.1231252774596214,-0.0250574257224798,-0.4273445308208465,-0.0331619754433631,0.0095584820955991,0.0,0.0,0.8837392330169678,0.5136315822601318
-0.0223252288997173,0.1138508394360542,-0.0278584901243448,-0.4122123420238495,-0.033885158598423,-0.0144638372585177,0.0,0.0,0.9244217872619628,0.1441229581832885
-0.0225152019411325,0.10554900765419,-0.0187402665615081,-0.3689775168895721,-0.034143503755331,-0.0051666414365172,0.0,0.0,0.271752119064331,-0.4834924936294555
-0.0227450374513864,0.0973758548498153,-0.0226440764963626,-0.363261878490448,-0.0344759076833725,-0.0066480794921517,0.0,0.0,0.535902738571167,-0.0614725351333618
-0.023101806640625,0.0897882059216499,-0.0348123796284198,-0.3372479975223541,-0.0353344418108463,-0.0171706415712833,0.0,0.0,0.1594142913818359,0.6024183034896851
-0.0233625415712595,0.082402616739273,-0.0241211615502834,-0.3282962739467621,-0.0372724905610084,-0.0387608036398887,0.0,0.0,0.5320634841918945,-0.1360644102096557
-0.0236842148005962,0.0755337327718734,-0.0299705509096384,-0.3053412437438965,-0.0394309386610984,-0.04316933080554,0.0,0.0,0.0491163730621337,0.2283881902694702
-0.0240766517817974,0.0688515976071357,-0.0368203297257423,-0.2970483601093292,-0.0418231412768363,-0.0478439219295978,0.0,0.0,0.3544235229492187,0.2281166315078735
-0.0245094299316406,0.062253650277853,-0.0407824330031871,-0.2933154702186584,-0.0443003103137016,-0.0495432503521442,0.0,0.0,0.3674230575561523,0.4566535949707031
-0.0250540729612112,0.0558790080249309,-0.0515046790242195,-0.2834055125713348,-0.0472146645188331,-0.0582871735095977,0.0,0.0,0.6815066337585449,0.8574337959289551
-0.0257128719240427,0.0497796647250652,-0.0609335489571094,-0.2712484896183014,-0.0521080791950225,-0.0978682041168212,0.0,0.0,0.5453658103942871,0.7362613677978516
-0.0262064933776855,0.044149812310934,-0.043141983449459,-0.2504457235336303,-0.0582556277513504,-0.1229511648416519,0.0,0.0,0.2902154922485351,0.0981718301773071
-0.0266728401184082,0.0384186841547489,-0.0406516343355178,-0.2549618184566498,-0.0641718506813049,-0.1183244958519935,0.0,0.0,0.5608998537063599,-0.6436750888824463
-0.0270319934934377,0.0332332961261272,-0.0315623804926872,-0.2306530624628067,-0.0684705600142479,-0.0859741270542144,0.0,0.0,0.6271069049835205,0.7628300189971924
-0.0273404121398925,0.0286656711250543,-0.0249274484813213,-0.2032887637615203,-0.0743232369422912,-0.1170535460114479,0.0,0.0,-0.0949926376342773,-0.4059197306632995
-0.027686309069395,0.0235694032162427,-0.028682867065072,-0.2268044501543045,-0.0801659449934959,-0.1168540865182876,0.0,0.0,0.7409465312957764,-0.1543195843696594
-0.027940560132265,0.0188480708748102,-0.0199090521782636,-0.2101421356201172,-0.0856267139315605,-0.1092154383659362,0.0,0.0,0.5976748466491699,-0.2503246665000915
-0.0281716343015432,0.0147789809852838,-0.0175750255584716,-0.1811751425266266,-0.0911096185445785,-0.1096584200859069,0.0,0.0,0.500231146812439,0.0931129455566406
-0.0283202175050973,0.0112418988719582,-0.0095971012488007,-0.1575296223163604,-0.0963274911046028,-0.104357324540615,0.0,0.0,0.0469298362731933,-0.1693097352981567
-0.0283429138362407,0.0083507988601922,-0.0161181800067424,-0.1276521980762481,-0.0826357528567314,0.2738047540187835,1.0,0.0,0.4786436557769775,0.3807613849639892
-0.028327751904726,0.0063739037141203,-0.027985954657197,-0.086494006216526,-0.0534164831042289,0.584408700466156,1.0,0.0,0.3272407054901123,0.1963872909545898
-0.0284080505371093,0.0044847703538835,-0.0362486466765403,-0.0831880569458007,-0.0255395844578742,0.5575380325317383,1.0,0.0,0.4261066913604736,0.6614497900009155
-0.0284439083188772,0.0028045631479471,-0.0304488148540258,-0.0744312927126884,0.0009815121302381,0.5304220914840698,0.0,0.0,-0.0381903648376464,0.9634113311767578
-0.0284377094358205,0.0006022906163707,-0.0242311842739582,-0.0980758368968963,0.0255134310573339,0.4906387329101562,0.0,0.0,0.6751672029495239,0.6436848640441895
-0.0283708572387695,-0.0008636260172352,0.0017449108418077,-0.0652897730469703,0.0302138477563858,0.0937850847840309,0.0,1.0,-0.1082395911216735,0.6872824430465698
-0.0283561702817678,-0.0021796964574605,0.016908710822463,-0.0583853386342525,0.0144811989739537,-0.3152719140052795,0.0,1.0,0.1435778141021728,0.2457094192504882
-0.0282999984920024,-0.0021267675328999,0.0187718886882066,0.0024248347617685,0.0015269160503521,-0.2590509057044983,1.0,1.0,-0.3474096059799194,-0.4002207517623901
