x_pos,y_pos,x_vel,y_vel,angle,ang_vel,leg_1,leg_2,main_booster,lat_booster
-0.0015459060668945,1.4029748439788818,-0.1566143035888672,-0.3531169891357422,0.0018156167352572,0.0358184389770031,0.0,0.0,0.8965138620421789,0.7674229524439541
-0.0029874802567064,1.3951942920684814,-0.1445920914411544,-0.345804363489151,0.002250520279631,0.0086994301527738,0.0,0.0,-0.5549383814299746,-0.6819604566509667
-0.0044876099564135,1.3867584466934204,-0.1515418142080307,-0.3749290704727173,0.0037590668071061,0.030174121260643,0.0,0.0,0.0574211429620832,0.7899465952218325
-0.0060294149443507,1.3781499862670898,-0.1540981084108352,-0.3825944662094116,0.0036670868285,-0.0018396268133074,0.0,0.0,-0.3272393385827432,-0.8446614724862365
-0.0076349256560206,1.3688944578170776,-0.1617990434169769,-0.4113630950450897,0.0049079777672886,0.0248200334608554,0.0,0.0,0.0098128830678134,-0.6554633965641835
-0.0092063900083303,1.3594868183135986,-0.1598409414291381,-0.4181297421455383,0.0075653768144547,0.0531527586281299,0.0,0.0,-0.6167521364879627,0.7747772002287465
-0.010724926367402,1.3494303226470947,-0.153058648109436,-0.4469634890556335,0.0087565360590815,0.0238255467265844,0.0,0.0,-0.7553977154401821,0.5454135133407356
-0.0121927261352539,1.3387267589569092,-0.1466284394264221,-0.4757183194160461,0.0086087705567479,-0.0029556362424045,0.0,0.0,-0.245197875421004,0.6148009399956115
-0.0136130331084132,1.327380895614624,-0.1406791508197784,-0.504253625869751,0.0072717554867267,-0.0267427265644073,0.0,0.0,-0.9847256854687776,0.8024949126384312
-0.01496725063771,1.315391182899475,-0.1324741691350937,-0.5328593850135803,0.0043476070277392,-0.0584885776042938,0.0,0.0,0.7328795136570645,0.6858985436487043
-0.0161664001643657,1.3036890029907229,-0.1158134713768959,-0.5200895667076111,0.000296179583529,-0.0810359790921211,0.0,0.0,0.7444757274701703,0.9051452988429368
-0.0172027591615915,1.2921723127365112,-0.0978679880499839,-0.5118599534034729,-0.0054129492491483,-0.1141931191086769,0.0,0.0,0.3635208440705122,-0.7384637340617743
-0.01816301420331,1.280875563621521,-0.091913565993309,-0.5020950436592102,-0.0094762230291962,-0.0812728554010391,0.0,0.0,0.4358043497598605,-0.9516666200930882
-0.0191131588071584,1.269383668899536,-0.0928656086325645,-0.5107687711715698,-0.0116016808897256,-0.0425131171941757,0.0,0.0,-0.9029131895527218,0.918573115923109
-0.0199576374143362,1.257250189781189,-0.0800081342458725,-0.5393019914627075,-0.0159949567168951,-0.0878734439611435,0.0,0.0,-0.1355731402058455,-0.95298686626984
-0.0208452232182025,1.2444579601287842,-0.0858500674366951,-0.5685831308364868,-0.0188637431710958,-0.0573805943131446,0.0,0.0,-0.1127542675724595,-0.8128223787883683
-0.021761130541563,1.231027126312256,-0.0899247080087661,-0.596951425075531,-0.0205163788050413,-0.0330558530986309,0.0,0.0,0.8339912640558507,0.5429283599246795
-0.0224344246089458,1.2175593376159668,-0.0650196298956871,-0.5985982418060303,-0.0227929931133985,-0.0455363169312477,0.0,0.0,-0.0287600875020652,0.8472795045693463
-0.0230044368654489,1.203447699546814,-0.0526894330978393,-0.6272628903388977,-0.0270588062703609,-0.0853239297866821,0.0,0.0,-0.6173211255734736,-0.8992438825954099
-0.0236275680363178,1.1886892318725586,-0.0600024946033954,-0.6559661030769348,-0.0293391533195972,-0.0456108227372169,0.0,0.0,0.6886628700708852,-0.7226554468483484
-0.0241132732480764,1.1744353771209717,-0.0479757860302925,-0.6335195899009705,-0.0299252085387706,-0.0117222499102354,0.0,0.0,0.7845446312426787,-0.9178997449296816
-0.0246120449155569,1.1602457761764526,-0.0510991625487804,-0.6306241154670715,-0.0287144910544157,0.0242165010422468,0.0,0.0,0.7289227483414618,-0.8001419044850899
-0.0249753948301076,1.1462562084197998,-0.0393974557518959,-0.621699333190918,-0.0256790090352296,0.0607150010764598,0.0,0.0,-0.5730517620930589,-0.5271878118321542
-0.0253410339355468,1.13161301612854,-0.0405122265219688,-0.6507523655891418,-0.021776970475912,0.078047476708889,0.0,0.0,0.7360542044449927,-0.730962836023723
-0.0258765220642089,1.1173439025878906,-0.0585416369140148,-0.6341158151626587,-0.0168333817273378,0.0988803207874298,0.0,0.0,-0.7279112574107582,0.7622639058669949
-0.0263286586850881,1.1024069786071775,-0.0489921309053897,-0.6638268828392029,-0.013105503283441,0.0745575278997421,0.0,0.0,0.5641722120182897,-0.5652064790705567
-0.0267733577638864,1.087856650352478,-0.0493248477578163,-0.6466427445411682,-0.0083146477118134,0.0958171039819717,0.0,0.0,0.0631791190726975,0.7752481261326829
-0.0272091869264841,1.0734622478485107,-0.0467355772852897,-0.6397358775138855,-0.0051942006684839,0.0624088570475578,0.0,0.0,-0.4347386828985637,0.7041552416669148
-0.027559470385313,1.0584239959716797,-0.0369983837008476,-0.6683619618415833,-0.0032487066928297,0.0389097929000854,0.0,0.0,-0.426743961239495,-0.6174617257484682
-0.0279173851013183,1.0427343845367432,-0.0389645136892795,-0.6973167061805725,-0.0001144299458246,0.062685489654541,0.0,0.0,0.005585625670343,0.9321150386265742
-0.0281436927616596,1.0271787643432615,-0.0238357447087764,-0.691361665725708,0.001075894688256,0.0238065794110298,0.0,0.0,-0.7384222149848938,-0.1352425217628479
-0.0283248908817768,1.0109736919403076,-0.0192375369369983,-0.7202264666557312,0.0021773588377982,0.0220295190811157,0.0,0.0,-0.6084397435188293,0.0323163270950317
-0.0284600257873535,0.994119107723236,-0.0145404012873768,-0.7490912675857544,0.0031866009812802,0.020184751600027,0.0,0.0,0.0897929668426513,0.6267614364624023
-0.0285467151552438,0.9769662618637084,-0.0082679195329546,-0.7623452544212341,0.0027914443053305,-0.0079032406210899,0.0,0.0,-0.1925387382507324,-0.5373833775520325
-0.0286270137876272,0.9591649770736694,-0.0085843177512288,-0.7911698818206787,0.0033372484613209,0.0109160877764225,0.0,0.0,-0.190331220626831,-0.2748175859451294
-0.0286588668823242,0.9407142400741576,-0.0036289039999246,-0.8200346231460571,0.0037812266964465,0.0088796764612197,0.0,0.0,0.2763056755065918,0.4538801908493042
-0.0286630634218454,0.9221416115760804,-0.0006632969598285,-0.8254556059837341,0.0040266145952045,0.004907616879791,0.0,0.0,0.2790464162826538,0.7551174163818359
-0.0285266879945993,0.9038096070289612,0.0149794491007924,-0.8147464990615845,0.0027039574924856,-0.0264532826840877,0.0,0.0,-0.1838198900222778,-0.5464878082275391
-0.028385829180479,0.8848341703414917,0.0143602835014462,-0.8433520197868347,0.0024283956736326,-0.005511098075658,0.0,0.0,0.66428542137146,0.707087516784668
-0.0281084068119525,0.8661291003227234,0.0294991619884967,-0.8313376903533936,0.000699232739862,-0.0345832668244838,0.0,0.0,0.1795926094055175,-0.144433856010437
-0.0278558731079101,0.8476083874702454,0.0274718794971704,-0.8231445550918579,-0.0014983734581619,-0.0439518801867961,0.0,0.0,-0.3510414361953735,-0.5364847183227539
-0.0275851245969533,0.828437089920044,0.0285629630088806,-0.8520594835281372,-0.0029660344589501,-0.029353242367506,0.0,0.0,0.6466352939605713,0.7236053943634033
-0.0270976070314645,0.8090765476226807,0.0516013726592063,-0.8604767918586731,-0.0057774912565946,-0.0562289953231811,0.0,0.0,0.1997394561767578,-0.8344556093215942
-0.0265379901975393,0.7896406054496765,0.0571910627186298,-0.8638269305229187,-0.0069925426505506,-0.0243006665259599,0.0,0.0,0.0102441310882568,0.6432034969329834
-0.0259012226015329,0.769817590713501,0.0663538351655006,-0.8810427784919739,-0.0096403658390045,-0.0529563352465629,0.0,0.0,0.0870342254638671,-0.635050892829895
-0.0252250675112009,0.749668538570404,0.069107100367546,-0.8955205678939819,-0.0111089525744318,-0.0293720755726099,0.0,0.0,0.1933857202529907,-0.2010633945465088
-0.0244473461061716,0.7293536067008972,0.0791862234473228,-0.9028980135917664,-0.0125024579465389,-0.027869988232851,0.0,0.0,0.3674905300140381,-0.5362468361854553
-0.023750115185976,0.7094327211380005,0.0704201236367225,-0.8853756189346313,-0.0131911542266607,-0.013774056918919,0.0,0.0,0.0642304420471191,-0.2480496764183044
-0.0230772010982036,0.6896256804466248,0.0685200467705726,-0.8803260922431946,-0.0144072938710451,-0.0243228394538164,0.0,0.0,0.4552947282791137,-0.5441988110542297
-0.0224064830690622,0.6698408722877502,0.0673922970890998,-0.879324197769165,-0.0147231211885809,-0.0063163875602185,0.0,0.0,0.2451453208923339,-0.2221681475639343
-0.0215665809810161,0.6500498652458191,0.0839463472366333,-0.8796015381813049,-0.0146738085895776,0.0009861923754215,0.0,0.0,0.2702445983886719,-0.6708651185035706
-0.0207656864076852,0.6304656267166138,0.078900322318077,-0.8703983426094055,-0.0135036567226052,0.023403126746416,0.0,0.0,0.759465217590332,-0.7180629968643188
-0.0198334697633981,0.6109368205070496,0.0904457718133926,-0.8679277896881104,-0.0107637383043766,0.0547984056174755,0.0,0.0,0.6391704082489014,-0.4771029353141784
-0.0188343040645122,0.5919455885887146,0.0972616970539093,-0.8440365195274353,-0.0081474278122186,0.0523263737559318,0.0,0.0,0.420954942703247,-0.8750504851341248
-0.0177004821598529,0.5729299187660217,0.1089476719498634,-0.8451238870620728,-0.0037679877132177,0.0875885635614395,0.0,0.0,0.580108642578125,-0.4154609441757202
-0.0166009906679391,0.5539414882659912,0.1060843020677566,-0.8439248204231262,4.888132389169186e-05,0.0763374716043472,0.0,0.0,0.6715407371520996,-0.331560730934143
-0.015351009555161,0.5355133414268494,0.1208299398422241,-0.819033682346344,0.0041653821244835,0.082330010831356,0.0,0.0,0.7701543569564819,-0.8283550143241882
-0.013951301574707,0.517524003982544,0.1339669674634933,-0.7995544672012329,0.0100946566089987,0.1185853108763694,0.0,0.0,0.6595261096954346,0.1216698884963989
-0.0124294282868504,0.5001272559165955,0.1459713280200958,-0.773242175579071,0.0162299647927284,0.1227061599493026,0.0,0.0,0.168898344039917,-0.314828872680664
-0.0109150884672999,0.4829140901565552,0.1456165909767151,-0.7651068568229675,0.0219747517257928,0.1148958653211593,0.0,0.0,-0.0776749849319458,-0.511015772819519
-0.0093823429197072,0.4650461971759796,0.1466582864522934,-0.7942392826080322,0.0285085700452327,0.1306761354207992,0.0,0.0,0.8216999769210815,-0.0879194736480712
-0.0079269409179687,0.4476842284202575,0.1395922750234604,-0.771767258644104,0.0343898124992847,0.1176248341798782,0.0,0.0,0.8681325912475586,-0.2824912071228027
-0.0062968255952,0.4305571317672729,0.1565488874912262,-0.7613664865493774,0.0407762862741947,0.1277293860912323,0.0,0.0,0.5666036605834961,-0.049389362335205
-0.004612922668457,0.4136534929275512,0.1619605123996734,-0.7514609098434448,0.0471257828176021,0.1269898265600204,0.0,0.0,0.828794002532959,0.1367764472961425
-0.0028863907791674,0.3967663049697876,0.1663339138031005,-0.7507544755935669,0.0533756017684936,0.1249963641166687,0.0,0.0,0.9409242868423462,-0.4755104184150696
-0.0012872696388512,0.3802584409713745,0.154412567615509,-0.7338919043540955,0.0588137097656726,0.1087618917226791,0.0,0.0,0.9290542602539062,-0.3082365989685058
0.0003328323364257,0.3645998239517212,0.1565323919057846,-0.6961634159088135,0.0642296746373176,0.1083194836974144,0.0,0.0,0.7668132781982422,-0.3867104053497314
0.0020749091636389,0.3487685918807983,0.1684610694646835,-0.7038651704788208,0.0699147880077362,0.1137020960450172,0.0,0.0,0.8668928146362305,-0.610512375831604
0.0037879943847656,0.3337372541427612,0.1643844693899154,-0.6683995723724365,0.076764665544033,0.1369976103305816,0.0,0.0,0.768470287322998,0.0241844654083251
0.0054157255217432,0.318803071975708,0.1564661562442779,-0.6640783548355103,0.0830142945051193,0.1249929293990135,0.0,0.0,0.9448174238204956,0.1548163890838623
0.0069234846159815,0.3043977618217468,0.1451041847467422,-0.6405594348907471,0.0886312276124954,0.1123385056853294,0.0,0.0,0.9066572189331056,-0.1174567937850952
0.0084565160796046,0.2904211580753326,0.1476026326417923,-0.6215318441390991,0.0942815020680427,0.1130054369568824,0.0,0.0,0.6444318294525146,0.3465596437454223
0.0098360059782862,0.2770324349403381,0.1329761892557144,-0.595374345779419,0.0992097109556198,0.0985640436410904,0.0,0.0,0.6328604221343994,0.1626745462417602
0.0112840654328465,0.2638571262359619,0.1396299451589584,-0.5859209299087524,0.1043470576405525,0.1027470231056213,0.0,0.0,0.91229248046875,-0.1058931350708007
0.0126986503601074,0.2507017254829407,0.1365973055362701,-0.585030734539032,0.1091794148087501,0.0966470167040824,0.0,0.0,0.855650782585144,0.179236888885498
0.014201546087861,0.2374539673328399,0.145197793841362,-0.5891717672348022,0.1142430901527404,0.1012738123536109,0.0,0.0,0.9524638652801514,-0.3648974895477295
0.0156735423952341,0.2241482883691787,0.1423891484737396,-0.5917402505874634,0.1190147325396537,0.0954328253865242,0.0,0.0,0.935248851776123,-0.1116488575935363
0.0170767791569232,0.211575299501419,0.1356869637966156,-0.5591763854026794,0.123624637722969,0.0921983271837234,0.0,0.0,0.9401034116744996,0.5000381469726562
0.0185501091182231,0.1998094916343689,0.1435165703296661,-0.5232455134391785,0.1274226903915405,0.075961023569107,0.0,0.0,0.9191219806671144,-0.3847562074661255
0.0198239330202341,0.1887818872928619,0.1242870241403579,-0.4903813898563385,0.1305077075958252,0.0617001876235008,0.0,0.0,0.9837654829025269,-0.8729742169380188
0.0208597183227539,0.1776407808065414,0.0991688221693039,-0.495552510023117,0.1348900496959686,0.0876472517848014,0.0,0.0,0.9856477975845336,-0.7347009778022766
0.0218107216060161,0.1672679334878921,0.0892175585031509,-0.4615617096424103,0.1407602280378341,0.1174036487936973,0.0,0.0,0.9294943809509276,-0.6089711785316467
0.0225435253232717,0.1572072803974151,0.0666152238845825,-0.4477808177471161,0.1474060863256454,0.1329175233840942,0.0,0.0,0.950721263885498,-0.0637860894203186
0.0231430046260356,0.1476708501577377,0.0536862313747406,-0.4244760274887085,0.1536576896905899,0.125031977891922,0.0,0.0,0.9545844793319702,0.4800268411636352
0.0236495025455951,0.1387082636356353,0.0445539280772209,-0.3989779055118561,0.1597533375024795,0.1219130530953407,0.0,0.0,0.8977648019790649,0.0502563714981079
0.0241956710815429,0.1301101744174957,0.04814163595438,-0.3828458786010742,0.1662263423204422,0.1294600367546081,0.0,0.0,0.8718242645263672,-0.0626726150512695
0.0247504226863384,0.1214433535933494,0.0489696487784385,-0.3859321475028991,0.1727423518896103,0.1303202211856842,0.0,0.0,0.9502413272857666,-0.3576059341430664
0.0253769867122173,0.1128581389784812,0.0557280667126178,-0.3823882341384887,0.1796886622905731,0.1389261782169342,0.0,0.0,0.9010634422302246,-0.0870938897132873
0.02609758451581,0.1046391353011131,0.0644293129444122,-0.3662325441837311,0.1873469650745391,0.1531659662723541,0.0,0.0,0.7242231369018555,0.8247082233428955
0.0270081516355276,0.0964346528053283,0.0848623663187027,-0.365443080663681,0.1935785561800003,0.1246316283941268,0.0,0.0,0.8939059972763062,0.2745085954666137
0.0277900695800781,0.0888467878103256,0.0720902383327484,-0.3380478918552398,0.1997198760509491,0.1228265911340713,0.0,0.0,0.8641045093536377,-0.5358538031578064
0.0284390449523925,0.0818706154823303,0.0576849468052387,-0.3110409677028656,0.2069867253303527,0.1453371196985244,0.0,0.0,0.6499736309051514,0.5177301168441772
0.0291625019162893,0.0752789601683616,0.0658662840723991,-0.293884813785553,0.2135226875543594,0.1307191699743271,0.0,0.0,0.7808213233947754,-0.0634089112281799
0.0299583431333303,0.0685886740684509,0.0726646482944488,-0.2983635365962982,0.2205192297697067,0.1399301588535308,0.0,0.0,0.7599000930786133,-0.1350143551826477
0.030620764940977,0.0620250552892684,0.0596250295639038,-0.2927214503288269,0.2272207885980606,0.1340312957763672,0.0,0.0,0.5768013000488281,0.9295699596405028
0.031295109540224,0.0560821406543254,0.0626039132475853,-0.2648845314979553,0.232120931148529,0.0980026349425315,0.0,0.0,0.6827800273895264,0.6073393821716309
0.03189592435956,0.0503436438739299,0.056540448218584,-0.2556077539920807,0.2357111871242523,0.0718055441975593,0.0,0.0,0.6228313446044922,0.5770026445388794
0.0322667136788368,0.0450703464448452,0.0350260846316814,-0.234698086977005,0.2377920299768448,0.0416168607771396,0.0,0.0,0.923861026763916,0.4942234754562378
0.0325805656611919,0.0403681136667728,0.0288863983005285,-0.2093951255083084,0.2403324097394943,0.0508072599768638,0.0,0.0,0.6499419212341309,0.6703792810440063
0.0327451713383197,0.0361108407378196,0.0154206929728388,-0.1893801838159561,0.2413861751556396,0.0210753753781318,0.0,0.0,0.5784549713134766,0.794607400894165
0.032747458666563,0.0322427377104759,0.0009133226121775,-0.1718033403158188,0.2406905144453048,-0.0139132784679532,0.0,0.0,0.8571251630783081,0.9559650421142578
0.0326927192509174,0.028553519397974,-0.0028544454835355,-0.1635407656431198,0.2380301058292389,-0.0532081015408039,0.0,0.0,0.8922371864318848,0.7136461734771729
0.0324214920401573,0.0251885987818241,-0.0227743200957775,-0.1488532274961471,0.2336089164018631,-0.0884237885475158,0.0,0.0,0.8442709445953369,0.5192171335220337
0.0318458564579486,0.0227899178862571,-0.0348785631358623,-0.1032099202275276,0.2105655074119568,-0.4609853625297546,0.0,1.0,0.7374787330627441,0.5571167469024658
0.0312695503234863,0.0209109410643577,-0.0339587107300758,-0.0803185999393463,0.1867127269506454,-0.4770756363868713,0.0,1.0,0.690173864364624,0.5089316368103027
0.0307278633117675,0.0189718101173639,-0.0295455362647771,-0.0832674950361251,0.1620279848575592,-0.4936948418617248,0.0,1.0,0.691753625869751,0.3314517736434936
0.0302058216184377,0.0175834987312555,-0.0281604677438735,-0.0592606551945209,0.1380317211151123,-0.4799258708953857,0.0,1.0,0.2919493913650512,0.2768170833587646
0.0295820236206054,0.0164512488991022,-0.0381864681839942,-0.0482580326497554,0.1139537692070007,-0.4815590977668762,0.0,0.0,-0.9129059910774232,0.5183227062225342
0.0290369037538766,0.014692292548716,-0.028986033052206,-0.0764229372143745,0.0886281505227088,-0.5065126419067383,0.0,0.0,-0.6191185712814331,-0.2056726813316345
0.0285196304321289,0.0122924661263823,-0.0261895768344402,-0.1053413972258567,0.0633440166711807,-0.5056827664375305,0.0,0.0,-0.2976038455963135,-0.6991756558418274
0.0279730800539255,0.00925287976861,-0.0305596850812435,-0.1342456340789795,0.0395154133439064,-0.4765722751617431,0.0,0.0,0.7234025001525879,-0.5520162582397461
0.027443503960967,0.0068086003884673,-0.0301699731498956,-0.1081862524151802,0.0170224085450172,-0.449860155582428,0.0,0.0,0.5200722217559814,-0.7984499931335449
0.0269510261714458,0.0043503381311893,-0.0282674524933099,-0.1091499179601669,-0.0036890357732772,-0.4142290651798248,0.0,0.0,0.5103881359100342,-0.6247758865356445
0.0263129230588674,0.0020978904794901,-0.0438899919390678,-0.1002747863531112,-0.0233530830591917,-0.3932810425758362,0.0,0.0,0.3888717889785766,-0.5289751291275024
0.0256587974727153,0.0005433178157545,-0.0656392946839332,-0.0691050514578819,-0.0231015589088201,0.0050723445601761,1.0,0.0,0.2370527982711792,0.4281996488571167
0.0251388549804687,-0.0004297518753446,-0.070111259818077,-0.0430606678128242,-0.005218060221523,0.3576683402061462,1.0,0.0,0.2657153606414795,0.8654806613922119
0.0247012134641408,-0.0014558577677235,-0.0594638399779796,-0.0456239655613899,0.0102780433371663,0.3099222779273987,1.0,0.0,0.4914906024932861,0.9299767017364502
0.0243722908198833,-0.0019900822080671,-0.0288472510874271,-0.0237686112523078,0.0061068949289619,-0.0836471319198608,0.0,1.0,-0.5046230554580688,-0.1181113719940185
0.0241587646305561,-0.0020075703505426,-0.018287418410182,-0.00088914349908,0.002640112536028,-0.0699103474617004,1.0,1.0,-0.937320113182068,0.2305355072021484
0.0240025520324707,-0.001568438950926,-0.0124686146154999,0.0195216666907072,-0.000481024821056,-0.0624230615794658,1.0,1.0,-0.9896437525749208,0.1169002056121826
0.0239377971738576,-0.0009903335012495,-0.010948278941214,0.0256842263042926,0.0039249830879271,0.0881019905209541,1.0,1.0,-0.4609264731407165,0.9807300567626952
