x_pos,y_pos,x_vel,y_vel,angle,ang_vel,leg_1,leg_2,main_booster,lat_booster
-0.0015798568492755,1.4029749631881714,-0.1601808071136474,-0.3531208336353302,0.0019676841329783,0.0388296023011207,0.0,0.0,-0.4112022933403856,0.5562823100036141
-0.0031671524047851,1.3944008350372314,-0.1596532315015792,-0.3810761570930481,0.0028771278448402,0.0181911084800958,0.0,0.0,0.5379020169796733,0.6809040243328013
-0.0046188356354832,1.3857364654541016,-0.1452484428882599,-0.3850803971290588,0.0029519114177674,0.0014960576081648,0.0,0.0,-0.3453807892422325,0.5338724628078335
-0.0060880659148097,1.3764208555221558,-0.1463813185691833,-0.414027988910675,0.0024182829074561,-0.0106736179441213,0.0,0.0,0.9154642580979266,0.8632987505822416
-0.0073765753768384,1.3675932884216309,-0.1271980702877044,-0.3923335373401642,0.0007927912520244,-0.0325129702687263,0.0,0.0,-0.8541668857470586,0.8665021824479693
-0.0086287502199411,1.3581148386001587,-0.1217414289712905,-0.4212632179260254,-0.0026475226040929,-0.0688130632042884,0.0,0.0,-0.7724094148229015,0.655576704025935
-0.0098768230527639,1.347986936569214,-0.1203820332884788,-0.4501405656337738,-0.0070230327546596,-0.0875179022550582,0.0,0.0,0.689619617232015,0.5983089487096231
-0.0109522817656397,1.338201880455017,-0.1027000695466995,-0.4349285066127777,-0.0118125015869736,-0.0957981795072555,0.0,0.0,0.4011806841826562,-0.746780255017502
-0.0121312141418457,1.3288408517837524,-0.1148854121565818,-0.4160701334476471,-0.0147850755602121,-0.0594568364322185,0.0,0.0,-0.194272904688608,-0.7362684208581001
-0.0134079931303858,1.3188362121582031,-0.1265314519405365,-0.4446696937084198,-0.0159210227429866,-0.0227210074663162,0.0,0.0,-0.5583398490328959,-0.7304598354656877
-0.0147721292451024,1.3081834316253662,-0.1369161009788513,-0.4734468460083008,-0.0154217975214123,0.0099853407591581,0.0,0.0,-0.1716787091579064,0.5335195556811204
-0.0161253921687603,1.2968789339065552,-0.1350495517253875,-0.5024263858795166,-0.0156923756003379,-0.0054121254943311,0.0,0.0,0.0808345310940481,0.9140914842064348
-0.0173325538635253,1.285611629486084,-0.1190610527992248,-0.5007855296134949,-0.0173346064984798,-0.0328474603593349,0.0,0.0,-0.4509771080420985,-0.68999282399747
-0.018620204180479,1.2736895084381104,-0.1287752836942672,-0.529877245426178,-0.0173216797411441,0.0002586619812063,0.0,0.0,-0.2653729312485959,0.6228803182307512
-0.0198774337768554,1.261122465133667,-0.1246501356363296,-0.5585463047027588,-0.0183766093105077,-0.0211006738245487,0.0,0.0,0.9786011339189118,0.5652435261291955
-0.020972441881895,1.2484278678894043,-0.1081920266151428,-0.5642159581184387,-0.0196688752621412,-0.0258476324379444,0.0,0.0,-0.530642574371746,0.6382399050653791
-0.0220318790525198,1.2350891828536987,-0.1035424694418907,-0.5928611755371094,-0.0220351479947567,-0.0473298504948616,0.0,0.0,0.4671871138683714,0.9813159418749172
-0.0228860862553119,1.221584439277649,-0.0816982313990593,-0.6002768278121948,-0.0257239378988742,-0.0737830176949501,0.0,0.0,0.1698366370612372,0.6317872912883673
-0.0236214641481637,1.2082834243774414,-0.06916543841362,-0.5912426710128784,-0.0300439614802598,-0.086408220231533,0.0,0.0,-0.8064023650937446,-0.610708379588587
-0.0244320873171091,1.194334626197815,-0.0786046385765075,-0.6199942827224731,-0.0324764549732208,-0.0486542023718357,0.0,0.0,0.1065028169654305,0.8743039978983775
-0.0250760074704885,1.180489420890808,-0.0607257559895515,-0.6154274344444275,-0.0360953994095325,-0.0723857507109642,0.0,0.0,0.1252126283421564,-0.8687753986115122
-0.0257853511720895,1.166444182395935,-0.0695617347955703,-0.6242614388465881,-0.037456426769495,-0.0272229462862014,0.0,0.0,0.3107054292811722,0.9193154612125892
-0.0263026244938373,1.1523847579956057,-0.0491254329681396,-0.6249333620071411,-0.0400273539125919,-0.0514233112335205,0.0,0.0,-0.633945056201412,-0.7436137067809294
-0.0268855094909667,1.1376701593399048,-0.0575562305748462,-0.6539995670318604,-0.0407512672245502,-0.0144797293469309,0.0,0.0,0.3317498174918971,-0.7980656619329289
-0.027651309967041,1.1230974197387695,-0.0778516978025436,-0.6476486325263977,-0.0394993163645267,0.025041427463293,0.0,0.0,-0.6263476864893143,0.8343823730396511
-0.0283777229487895,1.1078546047210691,-0.073194071650505,-0.6774424314498901,-0.0389546640217304,0.0108928252011537,0.0,0.0,-0.6311944085392607,-0.5473240563440076
-0.0291555412113666,1.091968059539795,-0.0799908712506294,-0.7060174345970154,-0.0367731526494026,0.0436300709843635,0.0,0.0,0.0611601121085538,-0.7416217160005424
-0.0300758369266986,1.076242446899414,-0.0962262973189354,-0.6988121867179871,-0.0326251275837421,0.0829605311155319,0.0,0.0,-0.1785284420913777,-0.9673888269470748
-0.0310943610966205,1.0598801374435425,-0.1089929789304733,-0.7270717620849609,-0.025573031976819,0.1410416513681411,0.0,0.0,-0.7598193168114125,0.98734250178367
-0.0320414528250694,1.0428621768951416,-0.1004975661635398,-0.7562698125839233,-0.0198513902723789,0.1144328713417053,0.0,0.0,0.4123236732764106,0.5785466369239753
-0.0329132080078125,1.0262848138809204,-0.0924199819564819,-0.7367088794708252,-0.0146736884489655,0.103553906083107,0.0,0.0,-0.3997364044189453,0.5180349349975586
-0.0337502472102642,1.00905442237854,-0.0886249393224716,-0.7657572031021118,-0.0098226787522435,0.0970201268792152,0.0,0.0,0.2687616348266601,0.7926905155181885
-0.0345902442932128,0.9921056628227234,-0.0878163948655128,-0.7532627582550049,-0.0060521163977682,0.0754112154245376,0.0,0.0,-0.5828644037246704,-0.1271590590476989
-0.0354286208748817,0.9745073318481444,-0.0882441997528076,-0.7821323871612549,-0.0017065939027816,0.0869105085730552,0.0,0.0,0.1567194461822509,0.6508028507232666
-0.0361992828547954,0.9569196105003356,-0.0807559341192245,-0.7816750407218933,0.0019392883405089,0.0729176476597786,0.0,0.0,0.3457190990447998,0.8558840751647949
-0.0368825905025005,0.9396132826805116,-0.0709070339798927,-0.7691755294799805,0.0044786832295358,0.0507880374789238,0.0,0.0,-0.2189663648605346,0.3967465162277221
-0.0375610366463661,0.9216575026512146,-0.0710032135248184,-0.7980448603630066,0.0075980895198881,0.0623879618942737,0.0,0.0,0.5718159675598145,0.9055545330047609
-0.0381266586482524,0.9041469097137452,-0.0585421398282051,-0.7782606482505798,0.0095514692366123,0.0390674769878387,0.0,0.0,0.0824594497680664,0.0242347717285156
-0.0387166030704975,0.8868144154548645,-0.0614348426461219,-0.7703433632850647,0.0119681181386113,0.0483329221606254,0.0,0.0,-0.6186826229095459,0.2370965480804443
-0.0392988212406635,0.8688328862190247,-0.0612626187503337,-0.7992129921913147,0.0149684464558959,0.0600066110491752,0.0,0.0,0.5731151103973389,0.7116097211837769
-0.0399391166865825,0.8513185381889343,-0.0660057514905929,-0.7784353494644165,0.016918497160077,0.0390011854469776,0.0,0.0,0.7147111892700195,0.8055144548416138
-0.0403746590018272,0.8339730501174927,-0.0447635576128959,-0.7709228992462158,0.0181165412068367,0.0239606201648712,0.0,0.0,0.380742073059082,0.4945154190063476
-0.0407239906489849,0.8163735866546631,-0.0371273681521415,-0.7822287082672119,0.0202766042202711,0.0432014688849449,0.0,0.0,0.4268350601196289,0.5769069194793701
-0.0409335121512413,0.7988125085830688,-0.0227841809391975,-0.780521035194397,0.0220841318368911,0.0361505597829818,0.0,0.0,0.2769534587860107,0.6801328659057617
-0.0411185249686241,0.7809358239173889,-0.0195063762366771,-0.7945299744606018,0.0230735931545496,0.0197891108691692,0.0,0.0,0.4524018764495849,0.4663658142089844
-0.0412590019404888,0.7628517150878906,-0.0158352442085742,-0.8037621378898621,0.0248385109007358,0.0352986194193363,0.0,0.0,0.5713709592819214,0.8312488794326782
-0.0412683486938476,0.7447561621665955,-0.001740812906064,-0.8042647838592529,0.0256407875567674,0.0160454008728265,0.0,0.0,0.2176827192306518,0.4314459562301636
-0.0413646697998046,0.7269294261932373,-0.0106651093810796,-0.7923147082328796,0.0266497191041708,0.0201787203550338,0.0,0.0,0.3350014686584472,0.7545437812805176
-0.0415273681282997,0.709412693977356,-0.0161956418305635,-0.7785244584083557,0.0265823993831872,-0.001346098491922,0.0,0.0,0.6186561584472656,0.5389585494995117
-0.0416712760925293,0.6919930577278137,-0.0137786623090505,-0.7741968035697937,0.0259760525077581,-0.0121268797665834,0.0,0.0,0.016183853149414,0.1367591619491577
-0.041724681854248,0.6744541525840759,-0.0057412451133131,-0.7795132994651794,0.0263694506138563,0.0078677851706743,0.0,0.0,-0.1761971712112426,-0.0440044999122619
-0.0417668335139751,0.6562657356262207,-0.0052170408889651,-0.8083832859992981,0.0273550134152174,0.0197111051529645,0.0,0.0,0.4640729427337646,0.8508448600769043
-0.0416324622929096,0.6380215883255005,0.0134219229221344,-0.8108588457107544,0.0273823458701372,0.0005465850117616,0.0,0.0,0.3714172840118408,0.5557205677032471
-0.0414586067199707,0.6201277375221252,0.0178624391555786,-0.795268177986145,0.0269033890217542,-0.0095791397616267,0.0,0.0,0.2365179061889648,0.2688603401184082
-0.041172981262207,0.6021363139152527,0.0279255155473947,-0.7996286153793335,0.0275340434163808,0.0126129612326622,0.0,0.0,0.31160569190979,0.5561394691467285
-0.040926743298769,0.5840524435043335,0.0246828477829694,-0.8037271499633789,0.0274776499718427,-0.0011281633051112,0.0,0.0,0.8217971324920654,0.7068276405334473
-0.0405274406075477,0.5666504502296448,0.04055105894804,-0.7734116911888123,0.0268695633858442,-0.0121619291603565,0.0,0.0,0.2586684226989746,0.5800552368164062
-0.0399720184504985,0.5493784546852112,0.0564944520592689,-0.7676283717155457,0.0259247459471225,-0.0188961531966924,0.0,0.0,0.2560830116271972,0.5417494773864746
-0.0393204689025878,0.532405436038971,0.0664736032485961,-0.7543354034423828,0.0246267598122358,-0.0259596109390258,0.0,0.0,0.2029377222061157,-0.2332402467727661
-0.0387317650020122,0.5156389474868774,0.0598454065620899,-0.7451609373092651,0.0236685667186975,-0.0191640388220548,0.0,0.0,0.0926654338836669,-0.2601094245910644
-0.0381093025207519,0.4985916316509247,0.062458049505949,-0.757656991481781,0.0234638173133134,-0.0040950630791485,0.0,0.0,0.2026536464691162,0.3043591976165771
-0.0375670418143272,0.481658011674881,0.0541653707623481,-0.752605140209198,0.0235187001526355,0.0010978386271744,0.0,0.0,0.5989542007446289,-0.1970482468605041
-0.0369135849177837,0.4648298323154449,0.064124546945095,-0.7479371428489685,0.0247243642807006,0.0241131801158189,0.0,0.0,0.6721292734146118,-0.0017611980438232
-0.0362493507564067,0.4482835531234741,0.0644866675138473,-0.7354246973991394,0.026638651266694,0.0382859334349632,0.0,0.0,0.7628777027130127,-0.1472691297531128
-0.0355872139334678,0.4317296743392944,0.06363345682621,-0.7357761263847351,0.0291903559118509,0.0510339438915252,0.0,0.0,0.8868582248687744,-0.0828505158424377
-0.0350863449275493,0.4155324101448059,0.0475454591214656,-0.7199287414550781,0.0316872783005237,0.0499385856091976,0.0,0.0,0.9447383880615234,-0.0575847029685974
-0.0345941558480262,0.4001975357532501,0.0459664277732372,-0.681624174118042,0.0349008329212665,0.0642709657549858,0.0,0.0,0.8963940143585205,0.8146672248840332
-0.0339495651423931,0.3847156763076782,0.062026459723711,-0.6881396770477295,0.0373102016746997,0.0481873750686645,0.0,0.0,0.8250268697738647,0.494133710861206
-0.0333151817321777,0.3699999451637268,0.0602388568222522,-0.6541157960891724,0.0404581427574157,0.0629590526223182,0.0,0.0,0.8302695751190186,0.2262431383132934
-0.0328131690621376,0.3554147481918335,0.0469028055667877,-0.6483241319656372,0.043724700808525,0.0653312876820564,0.0,0.0,0.7676591873168945,0.8219199180603027
-0.0323945060372352,0.3412667512893677,0.0398179218173027,-0.6288629770278931,0.0457514412701129,0.0405349321663379,0.0,0.0,0.4066723585128784,0.7515299320220947
-0.0319218635559082,0.3272710740566253,0.0460710786283016,-0.6220673322677612,0.0469288043677806,0.0235472731292247,0.0,0.0,0.961822271347046,0.8401516675949097
-0.0316094383597373,0.3141311705112457,0.0314860232174396,-0.5839895606040955,0.0466843768954277,-0.0048880772665143,0.0,0.0,0.8964414596557617,0.8462364673614502
-0.0311829559504985,0.301346480846405,0.0438041202723979,-0.5681741833686829,0.0455425642430782,-0.0228363461792469,0.0,0.0,0.9499390125274658,0.7876064777374268
-0.0307745933532714,0.2885994017124176,0.0430664233863353,-0.5664688348770142,0.0433400310575962,-0.0440504662692546,0.0,0.0,0.8916616439819336,0.3909065723419189
-0.0303229335695505,0.2757660746574402,0.0464179962873458,-0.570336103439331,0.0420992858707904,-0.0248149652034044,0.0,0.0,0.9399471282958984,-0.3815761804580688
-0.0299456603825092,0.2628784477710724,0.0385430566966533,-0.5727589726448059,0.0412883087992668,-0.0162194687873125,0.0,0.0,0.9013903141021729,0.7032859325408936
-0.0295838359743356,0.2507189512252807,0.0378403402864933,-0.5403774976730347,0.0396531149744987,-0.0327040068805217,0.0,0.0,0.9021539688110352,0.264453649520874
-0.0291920658200979,0.2393234372138977,0.0397897623479366,-0.5064504146575928,0.0390447042882442,-0.0121681913733482,0.0,0.0,0.888664960861206,-0.0820225477218627
-0.0289922710508108,0.2286716252565384,0.0205940250307321,-0.473396748304367,0.0384427607059478,-0.0120388995856046,0.0,0.0,0.7272348403930664,0.8188447952270508
-0.0289194099605083,0.2178764194250106,0.0092178536579012,-0.4797409474849701,0.0365363135933876,-0.0381290055811405,0.0,0.0,0.857836127281189,0.35140061378479
-0.0288655273616313,0.2077669203281402,0.0064981416799128,-0.4492846131324768,0.0354376100003719,-0.0219741147011518,0.0,0.0,0.1711189746856689,0.8738906383514404
-0.028874684125185,0.1976188719272613,0.0013936755713075,-0.4509698748588562,0.0331573970615863,-0.0456044152379035,0.0,0.0,0.5862493515014648,0.7736473083496094
-0.028939152136445,0.1878007799386978,-0.0030724932439625,-0.4362906813621521,0.029829503968358,-0.0665578097105026,0.0,0.0,0.4838571548461914,0.4596033096313476
-0.0290719978511333,0.1782746464014053,-0.0104745216667652,-0.4233309924602508,0.0270450115203857,-0.0556896403431892,0.0,0.0,0.5547101497650146,0.7651901245117188
-0.0291099548339843,0.1689265370368957,-0.0001867262617452,-0.4154113233089447,0.023488700389862,-0.0711263269186019,0.0,0.0,0.3705664873123169,0.8358135223388672
-0.0291098598390817,0.1593499779701233,0.0046708891168236,,0.0188846420496702,-0.0920811519026756,0.0,0.0,0.631187915802002,-0.6186239719390869
-0.0291133876889944,0.1497173458337783,0.0022341946605592,-0.4280882179737091,0.016330637037754,-0.0510799884796142,0.0,0.0,0.5948681831359863,0.5086121559143066
-0.0289826393127441,0.1402666717767715,0.0156899895519018,-0.4200031459331512,0.013756962493062,-0.05147385597229,0.0,0.0,0.3564807176589966,0.3303263187408447
-0.0287929531186819,0.1306545585393905,0.0204512570053339,-0.4271873831748962,0.0122907105833292,-0.0293250046670436,0.0,0.0,0.8615012168884277,0.1634588241577148
-0.0286736488342285,0.1216626465320587,0.0128663033246994,-0.3996347784996032,0.0113684413954615,-0.0184454880654811,0.0,0.0,0.6626291275024414,-0.6343948245048523
-0.0286355968564748,0.1131707727909088,0.0028175581246614,-0.3774249255657196,0.0123552288860082,0.019735399633646,0.0,0.0,0.6841650009155273,0.3353664875030517
-0.0285371784120798,0.1050517633557319,0.0076752514578402,-0.3608645796775818,0.0144920758903026,0.0427369214594364,0.0,0.0,0.4876019954681396,-0.4962861537933349
-0.028412913903594,0.0967261865735054,0.0092723593115806,-0.3700575232505798,0.0176054947078228,0.0622685737907886,0.0,0.0,0.7934190034866333,0.7271394729614258
-0.0283658020198345,0.0885782092809677,0.0025992873124778,-0.3621598780155182,0.0196847021579742,0.0415841527283191,0.0,0.0,0.9303473234176636,0.8252158164978027
-0.0282306671142578,0.0813076347112655,0.0122946109622716,-0.3231531679630279,0.0208903159946203,0.024112232029438,0.0,0.0,0.5641155242919922,-0.6837626099586487
-0.0282526016235351,0.0741930603981018,-0.0052789906039834,-0.3162479698657989,0.0239391066133976,0.0609756298363208,0.0,0.0,0.5625282526016235,0.99554705619812
-0.028417682275176,0.0675645694136619,-0.0179741084575653,-0.2946250736713409,0.0253949463367462,0.0291166044771671,0.0,0.0,0.6175545454025269,0.9950182437896729
-0.0284967422485351,0.0613228902220726,-0.0080071650445461,-0.277408242225647,0.025491964071989,0.0019404038321226,0.0,0.0,0.358666181564331,-0.1126405000686645
-0.0287096984684467,0.0553554408252239,-0.021692531183362,-0.2652292251586914,0.0258862357586622,0.007885318249464,0.0,0.0,0.3095638751983642,0.987279176712036
-0.0290125850588083,0.0496357530355453,-0.0291505642235279,-0.2541903853416443,0.0247707832604646,-0.0223093517124652,0.0,0.0,0.6488791704177856,0.9667277336120604
-0.0293574333190917,0.0440105535089969,-0.0318494439125061,-0.2499676346778869,0.0221717581152915,-0.0519807524979114,0.0,0.0,0.7620303630828857,0.9805302619934082
-0.0298585891723632,0.0386968478560447,-0.0457747280597686,-0.2361033111810684,0.0178839694708585,-0.0857555419206619,0.0,0.0,0.717064380645752,0.9975155591964722
-0.0305489543825387,0.0335457175970077,-0.0628953278064727,-0.2288797795772552,0.0118277920410037,-0.1211237087845802,0.0,0.0,0.8123407363891602,0.98080575466156
-0.031125258654356,0.0289376117289066,-0.0501545555889606,-0.2047668546438217,0.0044407383538782,-0.1477410942316055,0.0,0.0,0.6082773208618164,0.99658203125
-0.0316426269710063,0.0242118462920188,-0.0427339822053909,-0.2100328952074051,-0.0044468794949352,-0.1777525246143341,0.0,0.0,0.4611847400665283,0.9135396480560304
-0.0320268645882606,0.0198553651571273,-0.0281275156885385,-0.193679541349411,-0.0146085647866129,-0.2032335549592971,0.0,0.0,0.2239367961883545,0.7212555408477783
-0.0324543006718158,0.0157182551920413,-0.0313438549637794,-0.184018850326538,-0.0258629135787487,-0.2250870466232299,0.0,0.0,0.5355310440063477,0.1737165451049804
-0.0328199379146099,0.0121188024058938,-0.0261388812214136,-0.1601867526769638,-0.0361610800027847,-0.2059634029865265,0.0,0.0,0.0878831148147583,0.4943172931671142
-0.0332146659493446,0.0084404209628701,-0.029603611677885,-0.1637515276670456,-0.0459079220890998,-0.194936916232109,0.0,0.0,0.1899440288543701,0.7915158271789551
-0.0336200706660747,0.0049988245591521,-0.0293838027864694,-0.1533346027135849,-0.0569395832717418,-0.2206330001354217,0.0,0.0,0.362496018409729,0.5830190181732178
-0.0338954925537109,0.0026084757409989,-0.0347119756042957,-0.1059943735599517,-0.0497973375022411,0.1429038047790527,1.0,0.0,0.5125277042388916,0.5336744785308838
-0.0339189544320106,0.000823161622975,-0.0263282153755426,-0.0787382870912551,-0.0260380879044532,0.4752661287784576,1.0,0.0,0.1337358951568603,0.4428344964981079
-0.0339508056640625,-0.000589110830333,-0.0372559837996959,-0.0625361427664756,0.0076528075151145,0.6738994121551514,1.0,0.0,0.5272572040557861,0.9861266613006592
-0.0341599471867084,-0.0012571597471833,-0.031932421028614,-0.0297910254448652,0.0184866152703762,0.2166337966918945,1.0,1.0,-0.4088674783706665,0.9929120540618896
-0.0342830643057823,-0.0015635752351954,-0.0146943405270576,-0.01365970633924,0.0208382774144411,0.0470130443572998,1.0,1.0,-0.7494262456893921,0.88816237449646
-0.0342857353389263,-0.0014425539411604,0.0007060570060275,0.0053943223319947,0.0198692381381988,-0.019381983205676,1.0,1.0,-0.8319976329803467,-0.0965193510055542
-0.03431873396039,-0.0009984159842133,0.0001535306655569,0.019780583679676,0.0164547860622406,-0.0683082342147827,1.0,1.0,-0.7055622339248657,-0.005215585231781
-0.03437290340662,-0.0003227138658985,-0.0002229400415671,0.0300757177174091,0.0113198980689048,-0.1027125716209411,1.0,1.0,-0.6374140977859497,-0.0328871607780456
-0.0344367995858192,0.0004568791482597,-0.0004014479927718,0.0346821695566177,0.0053940615616738,-0.1185281500220298,1.0,1.0,-0.5834000110626221,-0.3093634843826294
-0.0344474799931049,0.0006668424466624,0.0005900430260226,0.0093366652727127,0.0037526239175349,-0.0328287445008754,1.0,1.0,-0.7629836201667786,0.0020564794540405
