x_pos,y_pos,x_vel,y_vel,angle,ang_vel,leg_1,leg_2,main_booster,lat_booster
-0.0015809058677405,1.4029260873794556,-0.1601605266332626,-0.3552929759025574,0.0018439722480252,0.0363804176449775,0.0,0.0,-0.2333366870880127,0.9392085075378418
-0.0031417845748364,1.3942523002624512,-0.1559105068445205,-0.3854987323284149,0.0016623015981167,-0.0036328579299151,0.0,0.0,0.3424621820449829,0.7357076406478882
-0.0045862197875976,1.3853671550750732,-0.1430193483829498,-0.3948957026004791,0.0002670302928891,-0.0279080718755722,0.0,0.0,-0.117850124835968,0.3197765350341797
-0.0060944557189941,1.3757834434509275,-0.1494626700878143,-0.425945907831192,-0.0010826571378856,-0.0269965529441833,0.0,0.0,0.8893477916717529,0.8212660551071167
-0.0074419975280761,1.366621971130371,-0.132152572274208,-0.4071737229824066,-0.0036489609628915,-0.05133056640625,0.0,0.0,-0.0547748804092407,0.5913225412368774
-0.0088000297546386,1.3567609786987305,-0.1318197399377823,-0.4382811486721039,-0.007597797550261,-0.0789842084050178,0.0,0.0,0.5389280319213867,0.7130858898162842
-0.0101905819028615,1.347008466720581,-0.1336432099342346,-0.4334849119186401,-0.0129481861367821,-0.1070176362991333,0.0,0.0,-0.0056257843971252,0.2063376903533935
-0.0116522787138819,1.3365576267242432,-0.1408207565546035,-0.4645360112190246,-0.0182371512055397,-0.1057889014482498,0.0,0.0,0.4585345983505249,0.7309613227844238
-0.0131274219602346,1.326523780822754,-0.1407444328069687,-0.4460554718971252,-0.0249311476945877,-0.1338921785354614,0.0,0.0,0.368643045425415,0.5600130558013916
-0.0146183967590332,1.3166958093643188,-0.141270250082016,-0.4369417130947113,-0.0326674319803714,-0.1547399014234542,0.0,0.0,0.0770940780639648,0.7762062549591064
-0.0160462372004985,1.3067457675933838,-0.133530780673027,-0.4424510896205902,-0.041823960840702,-0.1831477433443069,0.0,0.0,-0.2480615973472595,-0.2732914686203003
-0.017551040276885,1.296098232269287,-0.14130899310112,-0.4735012352466583,-0.0509055666625499,-0.1816485822200775,0.0,0.0,0.3893575668334961,0.7263720035552979
-0.0189250949770212,1.2856247425079346,-0.127066969871521,-0.465869128704071,-0.0611436367034912,-0.2047802656888961,0.0,0.0,-0.156728446483612,0.321837306022644
-0.0203785896301269,1.2744539976119995,-0.1351015120744705,-0.4969273507595062,-0.0713008269667625,-0.203162282705307,0.0,0.0,0.0709335803985595,0.6683669090270996
-0.0217181202024221,1.263375997543335,-0.1225839629769325,-0.4929348528385162,-0.0825804993510246,-0.2256139069795608,0.0,0.0,-0.3476648330688476,0.3052453994750976
-0.0231393817812204,1.2516008615493774,-0.1308461278676986,-0.523994505405426,-0.0937738716602325,-0.2238876074552536,0.0,0.0,0.1050159931182861,-0.4329315423965454
-0.0244978908449411,1.2399704456329346,-0.1251127868890762,-0.5176166892051697,-0.1044463142752647,-0.2134682387113571,0.0,0.0,-0.1384363174438476,-0.6233959794044495
-0.025977898389101,1.2276430130004885,-0.1383083313703537,-0.5485824942588806,-0.1140828430652618,-0.192747950553894,0.0,0.0,0.1708592176437378,-0.3316404223442077
-0.027409266680479,1.215454339981079,-0.133877620100975,-0.5424474477767944,-0.1233048811554908,-0.1844572573900222,0.0,0.0,-0.4137166738510132,-0.822706937789917
-0.0289993286132812,1.2025810480117798,-0.151709035038948,-0.5727642774581909,-0.1305726617574691,-0.1453692615032196,0.0,0.0,0.6224944591522217,-0.5955266952514648
-0.0304916389286518,1.1900951862335205,-0.143570214509964,-0.5554419159889221,-0.136221706867218,-0.1129908934235572,0.0,0.0,-0.0020716190338134,-0.325663149356842
-0.0320711135864257,1.1769105195999146,-0.1523895561695099,-0.5864962339401245,-0.1417732834815979,-0.1110413074493408,0.0,0.0,0.5504738092422485,-0.2856565117835998
-0.0335455909371376,1.1637609004974363,-0.1425628960132599,-0.5849088430404663,-0.146658182144165,-0.0977065414190292,0.0,0.0,-0.2233836650848388,-0.8428568243980408
-0.0351678840816021,1.1499160528182983,-0.1589274555444717,-0.6156511306762695,-0.1499575972557068,-0.065994031727314,0.0,0.0,0.6520671844482422,-0.7795936465263367
-0.0369988456368446,1.1363784074783323,-0.1811556220054626,-0.6018728613853455,-0.151884838938713,-0.0385483913123607,0.0,0.0,0.8491442203521729,0.7864015102386475
-0.0389165878295898,1.1233197450637815,-0.1880078613758087,-0.5807760953903198,-0.1556526571512222,-0.0753563195466995,0.0,0.0,0.0522938966751098,-0.3306831121444702
-0.0408505424857139,1.1102477312088013,-0.1897470206022262,-0.5813671946525574,-0.1593043506145477,-0.0730335265398025,0.0,0.0,0.4688160419464111,0.1117386817932128
-0.0428736694157123,1.0975914001464844,-0.1982310861349105,-0.5629417896270752,-0.1633877605199813,-0.0816683918237686,0.0,0.0,0.803929328918457,0.6314712762832642
-0.0449519157409668,1.0855190753936768,-0.2022057026624679,-0.5371808409690857,-0.1690113693475723,-0.1124726310372352,0.0,0.0,-0.0550886392593383,0.7878272533416748
-0.0470629706978797,1.072730541229248,-0.2040753811597824,-0.5691996812820435,-0.1760530173778534,-0.1408334076404571,0.0,0.0,0.8825440406799316,-0.6605175733566284
-0.0491249077022075,1.0606834888458252,-0.2006666958332061,-0.5360928773880005,-0.181600883603096,-0.1109572276473045,0.0,0.0,-0.8263421654701233,0.8209177255630493
-0.0512243285775184,1.0479182004928589,-0.2030965387821197,-0.5681989789009094,-0.188477486371994,-0.1375319510698318,0.0,0.0,0.8809938430786133,0.7248361110687256
-0.053288459777832,1.0358190536499023,-0.1979977190494537,-0.5388349890708923,-0.1969310790300369,-0.1690720021724701,0.0,0.0,0.6363716125488281,0.7241809368133545
-0.0553881637752056,1.0235447883605957,-0.2001070976257324,-0.546865701675415,-0.2068729400634765,-0.198837324976921,0.0,0.0,0.7791295051574707,0.6471610069274902
-0.0573737137019634,1.0115445852279663,-0.1875670552253723,-0.5349181294441223,-0.217959851026535,-0.221738263964653,0.0,0.0,0.1448389291763305,0.4161317348480224
-0.0593269355595111,0.9996106624603271,-0.1845343261957168,-0.5320268869400024,-0.2288788110017776,-0.2183787524700164,0.0,0.0,0.337799072265625,0.441906213760376
-0.0613107681274414,0.9875252842903136,-0.1876383870840072,-0.5388317108154297,-0.2397861182689666,-0.2181462943553924,0.0,0.0,0.3670004606246948,-0.5498324632644653
-0.0632470101118087,0.9756676554679872,-0.1841833293437957,-0.5285757780075073,-0.2493946701288223,-0.1921706944704055,0.0,0.0,0.6740117073059082,-0.4402738809585571
-0.0651052445173263,0.9643682837486268,-0.1763266772031784,-0.5038406848907471,-0.2590773999691009,-0.1936550438404083,0.0,0.0,0.4085263013839721,-0.6553453803062439
-0.0669489875435829,0.9531329274177552,-0.1763633042573928,-0.5007874965667725,-0.2672740817070007,-0.1639337688684463,0.0,0.0,0.0296190977096557,0.2038614749908447
-0.0688232406973838,0.9419281482696532,-0.1792284101247787,-0.4995141625404358,-0.2756681740283966,-0.1678811013698578,0.0,0.0,-0.0229764580726623,-0.5070544481277466
-0.0708228126168251,0.9300370216369628,-0.1926794350147247,-0.5298806428909302,-0.2831354737281799,-0.1493459492921829,0.0,0.0,-0.205552875995636,-0.6276734471321106
-0.0729580894112587,0.9174585342407228,-0.2074154913425445,-0.5602458119392395,-0.2894305884838104,-0.1259022504091262,0.0,0.0,0.161081314086914,-0.9053797125816344
-0.0750727653503418,0.9047093987464904,-0.207265168428421,-0.5674660205841064,-0.2937583029270172,-0.0865539908409118,0.0,0.0,-0.0174897909164428,-0.0771806240081787
-0.0772822350263595,0.8912617564201355,-0.2168641090393066,-0.5985057950019836,-0.2979753613471985,-0.0843412429094314,0.0,0.0,-0.611789882183075,0.2884895801544189
-0.0795866996049881,0.8771154284477234,-0.2264671772718429,-0.6295454502105713,-0.3020817637443542,-0.0821278616786003,0.0,0.0,-0.3696597814559936,-0.4663547277450561
-0.0819860473275184,0.8622704148292542,-0.2360724657773971,-0.6605850458145142,-0.3060774803161621,-0.079914353787899,0.0,0.0,-0.1154873371124267,-0.3589837551116943
-0.0844802856445312,0.8467267751693726,-0.2456780672073364,-0.6916244029998779,-0.3099625408649444,-0.0777011141180992,0.0,0.0,-0.1560587286949157,-0.2841061353683471
-0.0870695114135742,0.8304844498634338,-0.2552821040153503,-0.7226637005805969,-0.3137369751930237,-0.0754886195063591,0.0,0.0,0.6011257171630859,-0.6199595928192139
-0.0896693244576454,0.8142778873443604,-0.2576293349266052,-0.7208069562911987,-0.3161893784999847,-0.0490482896566391,0.0,0.0,0.9659790992736816,0.6309336423873901
-0.0919321998953819,0.7982327342033386,-0.2232552021741867,-0.7137787938117981,-0.3193351924419403,-0.0629161149263382,0.0,0.0,-0.6280521154403687,-0.8226251006126404
-0.0943559631705284,0.7815274596214294,-0.2412306070327758,-0.7427118420600891,-0.3205257356166839,-0.0238110404461622,0.0,0.0,0.8293341398239136,0.0910416841506958
-0.0966044440865516,0.7647667527198792,-0.2243475914001464,-0.7450281381607056,-0.3210460245609283,-0.0104058030992746,0.0,0.0,0.7760982513427734,-0.9179505705833436
-0.0987399071455001,0.7485682368278503,-0.214970976114273,-0.7196213006973267,-0.3195675313472748,0.0295697506517171,0.0,0.0,0.7452943325042725,-0.3911694884300232
-0.1006586998701095,0.7323302030563354,-0.1940970122814178,-0.7212028503417969,-0.3172507286071777,0.046335645020008,0.0,0.0,-0.0819035768508911,-0.308396577835083
-0.1026715263724327,0.7153933644294739,-0.2036331593990326,-0.7522411942481995,-0.3148238360881805,0.0485379621386528,0.0,0.0,0.4624801874160766,-0.4674031734466553
-0.1044810265302658,0.698725163936615,-0.1837601512670517,-0.7401959896087646,-0.3119019567966461,0.0584375634789466,0.0,0.0,0.3139905929565429,-0.3945332765579223
-0.1061152443289756,0.6820735931396484,-0.166837528347969,-0.7393405437469482,-0.3083624541759491,0.0707898810505867,0.0,0.0,0.5244886875152588,-0.6563340425491333
-0.1075884848833084,0.6658049821853638,-0.1522952765226364,-0.7220085263252258,-0.3032161295413971,0.1029257923364639,0.0,0.0,0.7111194133758545,-0.5578733086585999
-0.1090334877371788,0.6500648856163025,-0.1504767090082168,-0.698322057723999,-0.2970410287380218,0.1235022321343422,0.0,0.0,0.1843130588531494,-0.0601552128791809
-0.1104587540030479,0.6339911222457886,-0.1487792581319809,-0.7131240963935852,-0.2905866205692291,0.1290873736143112,0.0,0.0,0.6295101642608643,0.3255937099456787
-0.1118731498718261,0.6182557940483093,-0.1473717391490936,-0.6981775164604187,-0.2844804525375366,0.1221236586570739,0.0,0.0,0.3251900672912597,0.1986811161041259
-0.1131683364510536,0.602377712726593,-0.1360129863023758,-0.7044421434402466,-0.2778068780899048,0.1334714442491531,0.0,0.0,0.9160268306732178,-0.0822386741638183
-0.1143341064453125,0.5868156552314758,-0.1233192235231399,-0.6903876662254333,-0.2708980441093445,0.1381768882274627,0.0,0.0,0.8056118488311768,-0.4295809268951416
-0.1154659241437912,0.5711849331855774,-0.1200742125511169,-0.6934347748756409,-0.2638410329818725,0.1411399096250534,0.0,0.0,0.877346396446228,-0.0339345335960388
-0.1166494339704513,0.5558837056159973,-0.1247177571058273,-0.6789235472679138,-0.2573264539241791,0.1302918046712875,0.0,0.0,0.8547604084014893,-0.3191175460815429
-0.117655374109745,0.5412686467170715,-0.1072053536772728,-0.6484138369560242,-0.2505925297737121,0.1346787512302398,0.0,0.0,0.8941287994384766,-0.1995483040809631
-0.1185770034790039,0.5264077186584473,-0.0993058979511261,-0.6592853665351868,-0.2433157563209533,0.1455353647470474,0.0,0.0,0.940274715423584,0.2037749290466308
-0.119315430521965,0.5122967958450317,-0.0812546536326408,-0.6259457468986511,-0.2357851564884185,0.1506122648715973,0.0,0.0,0.6178734302520752,0.2624330520629883
-0.1201236695051193,0.4981961548328399,-0.0879392400383949,-0.6255737543106079,-0.2285743355751037,0.1442165672779083,0.0,0.0,0.7498674392700195,0.432938814163208
-0.1209520325064659,0.4844783544540405,-0.0896141976118087,-0.6086486577987671,-0.2217074781656265,0.1373372822999954,0.0,0.0,0.7888102531433105,0.6449189186096191
-0.1216343864798545,0.4710208177566528,-0.0739281550049781,-0.5972687005996704,-0.2159455567598343,0.1152383312582969,0.0,0.0,0.3200857639312744,0.0398310422897338
-0.1223587989807128,0.4578866958618164,-0.0777771025896072,-0.5829676985740662,-0.2105552107095718,0.1078067421913147,0.0,0.0,0.8702930212020874,0.0556710958480834
-0.1229504570364952,0.4449871480464935,-0.0649889409542083,-0.5724949240684509,-0.2046763449907302,0.1175769343972206,0.0,0.0,0.4631317853927612,0.7804934978485107
-0.1235289573669433,0.431883305311203,-0.0621765553951263,-0.5818004012107849,-0.2003183215856552,0.0871603637933731,0.0,0.0,0.8686954975128174,0.5824191570281982
-0.1239927262067794,0.4185771942138672,-0.0498569458723068,-0.5909147262573242,-0.1968094259500503,0.0701778978109359,0.0,0.0,0.8767194747924805,-0.6709044575691223
-0.1245536804199218,0.405160129070282,-0.0609217099845409,-0.5956783890724182,-0.1919520944356918,0.0971466153860092,0.0,0.0,0.882861852645874,0.6123394966125488
-0.124984361231327,0.3923702836036682,-0.0467597618699073,-0.5679681301116943,-0.1882478296756744,0.0740851759910583,0.0,0.0,0.763033390045166,-0.8598466515541077
-0.125304028391838,0.3801657259464264,-0.0376411713659763,-0.5417158007621765,-0.1825481057167053,0.1139947548508644,0.0,0.0,0.8008590936660767,0.8660881519317627
-0.1256038695573806,0.3686036169528961,-0.0337900295853614,-0.5134066939353943,-0.1787251383066177,0.0764590352773666,0.0,0.0,0.8261386156082153,0.7654485702514648
-0.1260093748569488,0.3569011092185974,-0.0425895676016807,-0.5198662877082825,-0.1766783148050308,0.0409365594387054,0.0,0.0,0.8282535076141357,-0.3795115947723388
-0.1262910813093185,0.3457800149917602,-0.0305138621479272,-0.4939952492713928,-0.1743311136960983,0.0469440482556819,0.0,0.0,0.6665306091308594,0.3501136302947998
-0.1266447007656097,0.3348444700241089,-0.0373286232352256,-0.4857940375804901,-0.1723645627498626,0.0393312871456146,0.0,0.0,0.6403146982192993,-0.1350603699684143
-0.1270065307617187,0.3242188692092895,-0.0379712022840976,-0.4720412790775299,-0.1705595105886459,0.0361011885106563,0.0,0.0,0.5191617012023926,0.2212722301483154
-0.1273374557495117,0.313847929239273,-0.0349333807826042,-0.4607188999652862,-0.1687171757221222,0.0368469841778278,0.0,0.0,-0.0443229079246521,0.3872888088226318
-0.127733513712883,0.3027784824371338,-0.0415297336876392,-0.4917588531970978,-0.1667888015508651,0.0385676100850105,0.0,0.0,0.7205417156219482,-0.2704940438270569
-0.128108412027359,0.2915315926074981,-0.0396203622221946,-0.499624103307724,-0.1646625697612762,0.0425246283411979,0.0,0.0,0.3830103874206543,0.1913583278656005
-0.1284110993146896,0.2800658345222473,-0.0328377969563007,-0.5093067288398743,-0.1620959639549255,0.0513320565223693,0.0,0.0,0.9155615568161012,-0.5389078855514526
-0.128526970744133,0.268848180770874,-0.0158380605280399,-0.4981067478656769,-0.1578464955091476,0.084988996386528,0.0,0.0,0.7625107765197754,-0.1171933412551879
-0.1284832060337066,0.2575204074382782,-0.0006424910388886,-0.502933144569397,-0.152833491563797,0.1002603024244308,0.0,0.0,0.9488346576690674,0.4952263832092285
-0.1283611357212066,0.2468096613883972,0.0071466667577624,-0.4755207002162933,-0.1477787792682647,0.1010941416025161,0.0,0.0,0.5996136665344238,-0.4568908810615539
-0.1281476020812988,0.2364837229251861,0.0160752274096012,-0.4584146440029144,-0.1425160616636276,0.1052544862031936,0.0,0.0,0.3702377080917358,0.781935453414917
-0.1277217864990234,0.2262460589408874,0.0386547520756721,-0.45463827252388,-0.1385945081710815,0.0784311667084693,0.0,0.0,0.4513437747955322,0.122107982635498
-0.1272070854902267,0.2157177031040191,0.0470531359314918,-0.4675232768058777,-0.1342005729675293,0.0878788530826568,0.0,0.0,0.880326509475708,-0.6752499938011169
-0.1267662942409515,0.205374464392662,0.0384106710553169,-0.4592008590698242,-0.1285585463047027,0.1128406524658203,0.0,0.0,0.9167170524597168,0.6495676040649414
-0.1260710656642913,0.1957996189594268,0.0648207291960716,-0.4251509010791778,-0.1238835006952285,0.0935007408261299,0.0,0.0,0.2714784145355224,-0.496880292892456
-0.1253652572631836,0.1861818581819534,0.0659205764532089,-0.4270757436752319,-0.1192405223846435,0.0928593724966049,0.0,0.0,0.5367411375045776,-0.7304436564445496
-0.1247757896780967,0.1770077049732208,0.05298538133502,-0.4072752892971039,-0.113324224948883,0.1183257922530174,0.0,0.0,0.023496389389038,-0.3096867799758911
-0.1241002082824707,0.1677707582712173,0.0613145157694816,-0.4100700318813324,-0.1071160808205604,0.1241626739501953,0.0,0.0,0.3263262510299682,0.4617319107055664
-0.1234142333269119,0.1587410122156143,0.0625069290399551,-0.4008978605270386,-0.1010687947273254,0.1209456771612167,0.0,0.0,0.553335428237915,0.7568280696868896
-0.1226892471313476,0.1500731110572815,0.0680468827486038,-0.3849439322948456,-0.0966477021574974,0.0884217694401741,0.0,0.0,0.2635067701339721,-0.3285281062126159
-0.121947668492794,0.141278326511383,0.0697478055953979,-0.3905990719795227,-0.0922858268022537,0.0872378349304199,0.0,0.0,0.697419285774231,-0.5766871571540833
-0.1213191971182823,0.132733017206192,0.0576026253402233,-0.3794769048690796,-0.0870821103453636,0.1040742248296737,0.0,0.0,0.7953101396560669,0.8281285762786865
-0.1207465156912803,0.1243530809879303,0.0540085211396217,-0.3722576200962066,-0.0838538110256195,0.0645660161972045,0.0,0.0,0.6656522750854492,-0.3873403072357178
-0.1199931129813194,0.1163443624973297,0.0715741291642189,-0.3557378053665161,-0.0801169350743293,0.0747375637292862,0.0,0.0,0.5913197994232178,-0.420627236366272
-0.1191336661577224,0.1081616282463073,0.0818860232830047,-0.3634634017944336,-0.0760968923568725,0.0804007425904274,0.0,0.0,0.6818346977233887,-0.3060174584388733
-0.118044376373291,0.1004255637526512,0.1041711121797561,-0.3435931205749511,-0.0713887810707092,0.0941622853279113,0.0,0.0,0.1984090805053711,-0.6063678860664368
-0.1169526129961013,0.0928457081317901,0.1032270044088363,-0.3366085886955261,-0.0655025243759155,0.1177251487970352,0.0,0.0,0.4793159961700439,0.0710477828979492
-0.1156503707170486,0.0857006609439849,0.1236847415566444,-0.3172853589057922,-0.0590295530855655,0.1294592320919037,0.0,0.0,-0.1031453609466552,0.7329959869384766
-0.1142454147338867,0.0778519511222839,0.1356213986873626,-0.3486493825912475,-0.0542092248797416,0.0964066237211227,0.0,0.0,0.8257007598876953,-0.3989326953887939
-0.1127577796578407,0.0706570446491241,0.1439424455165863,-0.3196033239364624,-0.0494390875101089,0.0954026877880096,0.0,0.0,0.627845287322998,-0.1996861696243286
-0.1111260429024696,0.0639222711324691,0.1580778956413269,-0.2991644144058227,-0.044410191476345,0.1005782932043075,0.0,0.0,0.2673126459121704,-0.1584738492965698
-0.109367087483406,0.0570123307406902,0.1705342382192611,-0.3069590032100677,-0.0391173362731933,0.1058572381734848,0.0,0.0,0.7984874248504639,-0.7899931073188782
-0.1077363938093185,0.05042689666152,0.1564502120018005,-0.2925277352333069,-0.0325755663216114,0.1308355778455734,0.0,0.0,0.8189585208892822,-0.120730459690094
-0.1061712279915809,0.0440001115202903,0.1505849510431289,-0.2855172455310821,-0.0267175901681184,0.1171594858169555,0.0,0.0,0.9292418956756592,0.2689592838287353
-0.1045530289411544,0.0378634296357631,0.1560401022434234,-0.2726489901542663,-0.0210098754614591,0.114154502749443,0.0,0.0,0.8706588745117188,0.4205642938613891
-0.1028289794921875,0.0319336764514446,0.16652312874794,-0.2634738087654114,-0.0152037860825657,0.1161216124892234,0.0,0.0,0.9408435821533204,0.1975631713867187
-0.100878432393074,0.0259361118078231,0.1884977519512176,-0.2665066719055176,-0.0087292324751615,0.1294911205768585,0.0,0.0,0.8052657842636108,-0.6104965209960938
-0.0987858772277832,0.0203633401542902,0.2012136876583099,-0.2476515620946884,-0.0007890490815043,0.1588036864995956,0.0,0.0,0.8317582607269287,-0.9940154552459716
-0.0966681465506553,0.0154442405328154,0.2017267048358917,-0.2186476290225982,0.0091260867193341,0.1983027756214141,0.0,0.0,0.909370183944702,-0.9490194320678712
