x_pos,y_pos,x_vel,y_vel,angle,ang_vel,leg_1,leg_2,main_booster,lat_booster
-0.0015149116516113,1.4032689332962036,-0.1539626270532608,-0.3400535881519317,0.002214113716036,0.0437087342143058,0.0,0.0,0.4936620885892029,-0.6801797490020193
-0.0030250549316406,1.3959078788757324,-0.1551397740840912,-0.3271769285202026,0.0063022952526807,0.0817721933126449,0.0,0.0,0.3160410851808741,-0.8674497770264815
-0.0044770240783691,1.3886677026748655,-0.1517101526260376,-0.3218221068382263,0.0127357169985771,0.1286803781986236,0.0,0.0,0.9057360009552402,-0.7824503939617491
-0.0061417580582201,1.3819307088851929,-0.1747244298458099,-0.2995175421237945,0.020886305719614,0.1630270332098007,0.0,0.0,0.95237766114714,-0.6241820676197387
-0.0077044488862156,1.3760004043579102,-0.1667759120464325,-0.2637465596199035,0.0312846861779689,0.207986831665039,0.0,0.0,-0.5816848592369082,-0.6576081295794609
-0.0093036647886037,1.3697134256362915,-0.1720228642225265,-0.279710978269577,0.043256226927042,0.2394528090953827,0.0,0.0,0.5195312053783399,-0.8688493655579543
-0.0110153201967477,1.363863825798035,-0.1855527907609939,-0.2604591250419616,0.0575016736984252,0.2849352359771728,0.0,0.0,0.1626134624213926,0.7663918708783748
-0.0125720975920557,1.3583612442016602,-0.1692567020654678,-0.2451401352882385,0.0709586217999458,0.2691638767719269,0.0,0.0,0.4397824915027748,-0.7203551705769927
-0.0142491338774561,1.3535979986190796,-0.1833225041627884,-0.2125104516744613,0.0864451676607132,0.3097594678401947,0.0,0.0,0.4966268299685086,-0.7007813917103942
-0.0160403251647949,1.349463939666748,-0.1967495232820511,-0.1848475188016891,0.1039584428071975,0.3502976298332214,0.0,0.0,0.4235737257114793,-0.7914920370959128
-0.0178663246333599,1.345747947692871,-0.2025700360536575,-0.1666689068078994,0.1238255128264427,0.3973777890205383,0.0,0.0,0.0076038771572686,0.8254722976643518
-0.0196207053959369,1.34218168258667,-0.1943917572498321,-0.1601846665143966,0.1427288800477981,0.3781017959117889,0.0,0.0,0.1937463873331091,-0.7280286229701769
-0.0214032176882028,1.3390311002731323,-0.1994165182113647,-0.1421954035758972,0.1638939827680587,0.4233408868312835,0.0,0.0,0.9302876598290248,0.8006223050625616
-0.0231093410402536,1.336175799369812,-0.1910071372985839,-0.1292879283428192,0.184352234005928,0.4092025756835937,0.0,0.0,0.927197389612906,-0.9492784201575196
-0.0248944275081157,1.3344299793243408,-0.2017097473144531,-0.0806509032845497,0.2077374458312988,0.4677468240261078,0.0,0.0,0.5757548331331577,0.6004439606694866
-0.0265878681093454,1.3327960968017578,-0.192224234342575,-0.0759987160563469,0.2309054881334304,0.4634032249450683,0.0,0.0,-0.0057997944851382,0.7315302398500443
-0.0282225608825683,1.330847978591919,-0.1851590722799301,-0.0901339575648307,0.2529793977737427,0.4415182173252105,0.0,0.0,-0.3124606717310279,0.7600728680998432
-0.0297940261662006,1.3285740613937378,-0.1775875240564346,-0.1047203093767166,0.273892194032669,0.4182949662208557,0.0,0.0,0.572613671002155,0.773335850180732
-0.0314269065856933,1.3271291255950928,-0.1829588860273361,-0.0680340975522995,0.2941503226757049,0.4051997661590576,0.0,0.0,-0.3146961211769177,-0.6064724456706021
-0.0331223495304584,1.3253132104873655,-0.1911714226007461,-0.0852352753281593,0.3165484368801117,0.4480030536651611,0.0,0.0,-0.4136687415610187,0.7010030330839685
-0.0347675308585166,1.3231867551803589,-0.1850354522466659,-0.0991382896900177,0.3379590809345245,0.4282517433166504,0.0,0.0,0.7373334255913497,-0.6415160150744447
-0.0366138443350791,1.3213506937026978,-0.2069877088069915,-0.0870175436139106,0.3614738583564758,0.4703381657600403,0.0,0.0,0.3207498738344505,-0.8068789326270691
-0.0385769829154014,1.3198082447052002,-0.2208633422851562,-0.074959248304367,0.3875314593315124,0.5211985111236572,0.0,0.0,-0.1488139508983834,0.9012395729072452
-0.0404790863394737,1.3179569244384766,-0.2132981568574905,-0.0887543708086013,0.4122904241085052,0.4952238500118255,0.0,0.0,0.8955237770465652,-0.7294853280579148
-0.042907141149044,1.3166382312774658,-0.2673618197441101,-0.0660034716129303,0.4389302730560303,0.5328455567359924,0.0,0.0,0.5762371675433422,-0.8596802094794146
-0.0458335876464843,1.3157321214675903,-0.3190585374832153,-0.048817228525877,0.4679197072982788,0.5797881484031677,0.0,0.0,-0.5585422896748677,0.8608968504937287
-0.0487176887691021,1.3145356178283691,-0.3135223686695099,-0.0619077607989311,0.4958651959896087,0.5589100122451782,0.0,0.0,-0.4689606252525773,0.768281857173834
-0.0515802390873432,1.3130378723144531,-0.3105430603027344,-0.0755884796380996,0.5233135223388672,0.5489662289619446,0.0,0.0,0.2124637648117244,0.7049299500747732
-0.0547920241951942,1.3119025230407717,-0.3443583250045776,-0.0596389025449752,0.5499248504638672,0.5322269797325134,0.0,0.0,0.9340544001838776,0.9109402258034688
-0.0582811348140239,1.3111859560012815,-0.3707086443901062,-0.0409831628203392,0.5753418803215027,0.5083401799201965,0.0,0.0,0.6140238684202939,-0.8372126723925418
-0.0622797980904579,1.311139702796936,-0.423492431640625,-0.0125454375520348,0.6033582091331482,0.5603269338607788,0.0,0.0,-0.321132043913219,-0.757969939774932
-0.0663512200117111,1.310693383216858,-0.4324857592582702,-0.0318233855068683,0.6340217590332031,0.6132713556289673,0.0,0.0,-0.8567752743864296,-0.9591331061928812
-0.07051582634449,1.3098409175872805,-0.4437428116798401,-0.0516921840608119,0.6678339838981628,0.676244854927063,0.0,0.0,0.6760255341552417,0.6658621456770527
-0.0749414414167404,1.3090600967407229,-0.4684992730617523,-0.0487679801881313,0.7008486390113831,0.660294771194458,0.0,0.0,0.896759235066247,-0.919037358390764
-0.079893872141838,1.3087210655212402,-0.5226426720619202,-0.0309889689087867,0.7367167472839355,0.7173622250556946,0.0,0.0,-0.2227064030025725,-0.6582397763032606
-0.0849101990461349,1.308000922203064,-0.5297520756721497,-0.0496015436947345,0.7747941017150879,0.7615472674369812,0.0,0.0,-0.23161531680184,0.8376362112080893
-0.0899064987897872,1.3070077896118164,-0.526027500629425,-0.0619528628885746,0.8118772506713867,0.7416638135910034,0.0,0.0,-0.6287263786037878,-0.87989797441932
-0.0949768051505088,1.30561625957489,-0.534200131893158,-0.0816492140293121,0.851614236831665,0.7947400808334351,0.0,0.0,0.8938215352705572,-0.8798621245831162
-0.1008850112557411,1.304720759391785,-0.6185234785079956,-0.0617254227399826,0.894066572189331,0.8490481376647949,0.0,0.0,-0.7431920348621446,0.6167719217866633
-0.1067933067679405,1.3035508394241333,-0.6167000532150269,-0.0743084773421287,0.935824990272522,0.8351686596870422,0.0,0.0,0.6541194698056898,0.6900492738582249
-0.1134009361267089,1.302667498588562,-0.6846340894699097,-0.0617015734314918,0.9765549302101136,0.8146005868911743,0.0,0.0,-0.9950766563415528,0.9999855756759644
-0.119986817240715,1.3015615940093994,-0.6799688339233398,-0.0710560977458953,1.0152565240859983,0.7740321159362793,0.0,0.0,-0.9967691898345948,0.9999986886978148
-0.1265499144792556,1.3002257347106934,-0.6754416227340698,-0.0806802585721015,1.052025556564331,0.7353805303573608,0.0,0.0,-0.991666316986084,0.999929904937744
-0.133097842335701,1.298666000366211,-0.6717875003814697,-0.0899134650826454,1.0868198871612549,0.6958855390548706,0.0,0.0,-0.995479166507721,0.999891996383667
-0.1396349966526031,1.2968552112579346,-0.6690046787261963,-0.1005777269601821,1.120194435119629,0.6674898862838745,0.0,0.0,-0.9924330711364746,0.9998067617416382
-0.1461594551801681,1.2948100566864014,-0.6659749150276184,-0.1102330386638641,1.151785969734192,0.6318315267562866,0.0,0.0,-0.9968284964561462,0.999176263809204
-0.1526751518249511,1.292535662651062,-0.6634475588798523,-0.1195391565561294,1.1815149784088137,0.5945807695388794,0.0,0.0,-0.9964639544487,0.9995672702789308
-0.1592020988464355,1.290008306503296,-0.6633187532424927,-0.1302418410778045,1.210049033164978,0.5706802606582642,0.0,0.0,-0.9999249577522278,0.9974653720855712
-0.1657415330410003,1.287224292755127,-0.6634271144866943,-0.1411469429731369,1.23746919631958,0.5484026074409485,0.0,0.0,-0.9975675344467164,0.9999158382415771
-0.1722827851772308,1.2841994762420654,-0.6624027490615845,-0.1510042399168014,1.2633219957351685,0.5170551538467407,0.0,0.0,-0.9950318336486816,0.999845027923584
-0.1788225173950195,1.2809641361236572,-0.6609641909599304,-0.159032255411148,1.2869222164154053,0.4720079004764557,0.0,0.0,-0.9997884035110474,0.9992449283599854
-0.1853738725185394,1.277484655380249,-0.6611981391906738,-0.1690496802330017,1.3090815544128418,0.4431868493556976,0.0,0.0,-0.9996118545532228,0.998333215713501
-0.1919244825839996,1.2737877368927002,-0.6601360440254211,-0.1774014681577682,1.329121470451355,0.400798887014389,0.0,0.0,-0.9999406337738036,0.9953272342681884
-0.1984884291887283,1.2698583602905271,-0.6606942415237427,-0.1867058277130127,1.3474674224853516,0.3669186234474182,0.0,0.0,-0.9998342990875244,0.988316297531128
-0.2050544321537017,1.2657184600830078,-0.6600888967514038,-0.1946064531803131,1.3635470867156982,0.3215930163860321,0.0,0.0,-0.9998132586479188,0.9869911670684814
-0.2116291970014572,1.2613240480422974,-0.6604697704315186,-0.2051044851541519,1.3783589601516724,0.2962372601032257,0.0,0.0,-0.9822761416435242,0.9953008890151978
-0.2182178050279617,1.2567133903503418,-0.6612492799758911,-0.2133715152740478,1.3910908699035645,0.2546393573284149,0.0,0.0,-0.998813807964325,0.9751107692718506
-0.2248167544603347,1.2518905401229858,-0.6617547273635864,-0.2213519960641861,1.4016233682632446,0.2106511145830154,0.0,0.0,-0.9999899864196776,0.9148142337799072
-0.2314325273036956,1.2468376159667969,-0.663036048412323,-0.2303957045078277,1.4103758335113523,0.1750486344099044,0.0,0.0,-0.9971823692321776,0.7667722702026367
-0.2380681484937667,1.241515040397644,-0.6648032069206238,-0.2418103963136673,1.418244242668152,0.1573687493801117,0.0,0.0,-0.998120665550232,0.7148118019104004
-0.2447141110897064,1.2359323501586914,-0.6656131744384766,-0.2526127696037292,1.42496919631958,0.1344994157552719,0.0,0.0,-0.99979829788208,0.7855644226074219
-0.2513789534568786,1.230077624320984,-0.6673286557197571,-0.2641373574733734,1.4308456182479858,0.1175282448530197,0.0,0.0,-0.9999837875366212,0.3835971355438232
-0.2580670416355133,1.2238777875900269,-0.6697255373001099,-0.2800050675868988,1.4375134706497192,0.1333601921796798,0.0,0.0,-0.9991840720176696,0.6172584295272827
-0.2647725939750671,1.2174043655395508,-0.6713274717330933,-0.2916310429573059,1.4433640241622925,0.1170101389288902,0.0,0.0,-0.9843444228172302,0.3945021629333496
-0.2715014815330505,1.2105858325958252,-0.6737192869186401,-0.307498574256897,1.450002908706665,0.1327782571315765,0.0,0.0,-0.9971596598625184,0.5654107332229614
-0.2782498300075531,1.2034720182418823,-0.6755868196487427,-0.3203928172588348,1.456302046775818,0.1259821206331253,0.0,0.0,-0.9994604587554932,0.5621709823608398
-0.2850208878517151,1.1960784196853638,-0.677740216255188,-0.3323721587657928,1.4619227647781372,0.1124145612120628,0.0,0.0,-0.9993372559547424,0.3787524700164795
-0.2918152809143066,1.1883399486541748,-0.6801212430000305,-0.3482392728328705,1.4683258533477783,0.1280615627765655,0.0,0.0,-0.9993628859519958,0.3615998029708862
-0.2986330389976501,1.1802561283111572,-0.6824963092803955,-0.3641063272953033,1.4755088090896606,0.1436600238084793,0.0,0.0,-0.999695122241974,0.6497169733047485
-0.3054684996604919,1.1718878746032717,-0.6841551661491394,-0.3763487040996551,1.4820940494537354,0.1317042708396911,0.0,0.0,-0.9996689558029176,0.3940614461898803
-0.3123273253440857,1.1631745100021362,-0.6865187287330627,-0.3922153115272522,1.489453673362732,0.147191435098648,0.0,0.0,-0.9918056726455688,0.209375262260437
-0.3192097246646881,1.1541157960891724,-0.6888744235038757,-0.4080818295478821,1.4975844621658323,0.1626147627830505,0.0,0.0,-0.9847860336303712,0.7799804210662842
-0.3261180520057678,1.1447806358337402,-0.691353440284729,-0.41984423995018,1.5049402713775637,0.1471163630485534,0.0,0.0,-0.9976588487625122,0.1301624774932861
-0.333049863576889,1.1351003646850586,-0.6936944127082825,-0.4357101023197174,1.5130599737167358,0.1623938232660293,0.0,0.0,-0.9994163513183594,0.2172044515609741
-0.3400053381919861,1.1250746250152588,-0.6960253715515137,-0.4515756666660309,1.521939396858215,0.1775877773761749,0.0,0.0,-0.9968428611755372,0.2103276252746582
-0.3469844758510589,1.11470365524292,-0.6983455419540405,-0.4674408733844757,1.5315738916397097,0.1926902830600738,0.0,0.0,-0.998210310935974,0.2684288024902344
-0.3539873659610748,1.1039869785308838,-0.7006540894508362,-0.4833057224750519,1.541958570480347,0.2076927870512008,0.0,0.0,-0.99598890542984,0.1123297214508056
-0.3610141277313232,1.0929245948791504,-0.7029498815536499,-0.4991700947284698,1.553087830543518,0.2225857675075531,0.0,0.0,-0.9906247854232788,0.4982613325119018
-0.3680649399757385,1.0815167427062988,-0.7052320241928101,-0.5150339007377625,1.5649558305740356,0.2373590171337127,0.0,0.0,-0.995793640613556,0.325168251991272
-0.3751398622989654,1.069762945175171,-0.7074995040893555,-0.5308970212936401,1.5775558948516846,0.252001404762268,0.0,0.0,-0.9948275089263916,0.6162413358688354
-0.3822349607944488,1.0577174425125122,-0.7093599438667297,-0.5435329675674438,1.5896639823913574,0.2421619892120361,0.0,0.0,-0.9852015376091005,0.5060744285583496
-0.3893577456474304,1.0453861951828003,-0.7120016813278198,-0.555800199508667,1.6011316776275637,0.2293546497821808,0.0,0.0,-0.9336045980453492,0.098376989364624
-0.3965044021606445,1.0327088832855225,-0.7142270803451538,-0.5716608762741089,1.6133081912994385,0.2435304224491119,0.0,0.0,-0.9603158831596376,0.3997867107391357
-0.4036750197410583,1.0196850299835205,-0.7164338827133179,-0.5875205397605896,1.6261842250823977,0.2575214505195617,0.0,0.0,-0.933142900466919,0.0706490278244018
-0.410869687795639,1.006314754486084,-0.7186209559440613,-0.6033791899681091,1.6397497653961182,0.2713110744953155,0.0,0.0,-0.8975247740745544,0.3623255491256714
-0.418088436126709,0.9925978779792786,-0.7207869291305542,-0.6192365884780884,1.653993844985962,0.2848812937736511,0.0,0.0,-0.9057560563087464,0.0698920488357544
-0.4253312945365906,0.9785341024398804,-0.7229304313659668,-0.635092556476593,1.6689045429229736,0.2982128262519836,0.0,0.0,-0.790966272354126,0.4367902278900146
-0.432598352432251,0.9641229510307312,-0.7250500917434692,-0.6509469747543335,1.6844687461853027,0.3112850785255432,0.0,0.0,-0.7866544723510742,0.217581033706665
-0.4398895800113678,0.9493643641471864,-0.7271444797515869,-0.666799783706665,1.7006725072860718,0.3240758776664734,0.0,0.0,-0.7720414400100708,0.2083902359008789
-0.4472050666809082,0.9342579245567322,-0.7292121052742004,-0.682650625705719,1.7175005674362185,0.3365617394447326,0.0,0.0,-0.7353535890579224,0.1511088609695434
-0.4545447826385498,0.9188035130500792,-0.7312514185905457,-0.6984993815422058,1.7349364757537842,0.3487177193164825,0.0,0.0,-0.75791996717453,0.1230196952819824
-0.4619086682796478,0.90300053358078,-0.7332609295845032,-0.7143458127975464,1.752962350845337,0.3605174720287323,0.0,0.0,-0.7732964158058167,0.330278992652893
-0.4692967534065246,0.8868487477302551,-0.7352389097213745,-0.7301896810531616,1.7715590000152588,0.3719334602355957,0.0,0.0,-0.7478794455528259,0.6080919504165649
-0.4767149984836578,0.8704267740249634,-0.738180935382843,-0.7413387894630432,1.7889307737350464,0.347435712814331,0.0,0.0,-0.7447908520698547,0.0704325437545776
-0.4841566085815429,0.8536551594734192,-0.7400990724563599,-0.7571784257888794,1.8068307638168333,0.357999712228775,0.0,0.0,-0.7075030207633972,0.1145449876785278
-0.4916215538978576,0.8365336656570435,-0.7419809699058533,-0.7730150818824768,1.825235366821289,0.3680912554264068,0.0,0.0,-0.4919294118881225,0.4247300624847412
-0.4991094470024109,0.8190616965293884,-0.7438247799873352,-0.7888486385345459,1.8441193103790283,0.3776790499687195,0.0,0.0,-0.7196976542472839,0.0811845064163208
-0.5066202878952026,0.8012387752532959,-0.7456287741661072,-0.8046788573265076,1.863455891609192,0.3867315351963043,0.0,0.0,-0.8310823440551758,0.2436379194259643
-0.5141535997390747,0.7830643057823181,-0.7473911046981812,-0.820505678653717,1.8832167387008667,0.3952171206474304,0.0,0.0,-0.716476321220398,0.3252220153808594
-0.5217092633247375,0.7645374536514282,-0.7491098046302795,-0.8363288640975952,1.903371810913086,0.403104692697525,0.0,0.0,-0.8541712164878845,0.5265352725982666
-0.5293000936508179,0.7457051873207092,-0.7525025010108948,-0.8493441939353943,1.9227772951126096,0.38811194896698,0.0,0.0,-0.7897822260856628,0.4293810129165649
-0.5369119644165039,0.726519763469696,-0.7541338205337524,-0.865161120891571,1.942513108253479,0.3947157561779022,0.0,0.0,-0.8077477812767029,0.5444729328155518
-0.5445566773414612,0.7070264220237732,-0.7573426365852356,-0.8782593607902527,1.961471915245056,0.3791770339012146,0.0,0.0,-0.8138957023620605,0.3940894603729248
-0.5522211194038391,0.6871789693832397,-0.7588788866996765,-0.8940698504447937,1.9806913137435915,0.3843885362148285,0.0,0.0,-0.780708909034729,0.5578176975250244
-0.5599262118339539,0.6670435070991516,-0.7631744146347046,-0.9059299826622008,1.9985440969467163,0.3570590317249298,0.0,0.0,-0.7298044562339783,0.5352300405502319
-0.5676648020744324,0.6466156840324402,-0.7667697668075562,-0.9180757999420166,2.01514744758606,0.3320662677288055,0.0,0.0,-0.6855618357658386,0.5318753719329834
-0.5754441618919373,0.6258981227874756,-0.7712361812591553,-0.9299915432929992,2.030309200286865,0.3032349944114685,0.0,0.0,-0.7098972797393799,0.70206618309021
-0.5832653641700745,0.6048912405967712,-0.7759081721305847,-0.941879391670227,2.0439600944519043,0.2730178833007812,0.0,0.0,-0.719332754611969,0.3321132659912109
-0.591101348400116,0.583528459072113,-0.7771862745285034,-0.957679033279419,2.057681083679199,0.2744207382202148,0.0,0.0,-0.660095751285553,0.6155397891998291
-0.598975658416748,0.5618788599967957,-0.7816449999809265,-0.9693974256515504,2.0697684288024902,0.2417487800121307,0.0,0.0,-0.7004525661468506,0.5342679023742676
-0.6068849563598633,0.5399229526519775,-0.7856369614601135,-0.9822221994400024,2.0805912017822266,0.2164546996355056,0.0,0.0,-0.6836823225021362,0.4701689481735229
-0.6148059964179993,0.5176101922988892,-0.7867328524589539,-0.9980154037475586,2.0913658142089844,0.2154919654130935,0.0,0.0,-0.62972491979599,0.65825355052948
-0.6227639317512512,0.4950152039527893,-0.7912776470184326,-1.0094246864318848,2.1002683639526367,0.1780531555414199,0.0,0.0,-0.6383354067802429,0.6980847120285034
-0.6307534575462341,0.4721167981624603,-0.7951158881187439,-1.0220460891723633,2.1077232360839844,0.1490988135337829,0.0,0.0,-0.7348402738571167,0.6216709613800049
-0.6387695074081421,0.4489092528820038,-0.7984181046485901,-1.0349994897842407,2.1138501167297363,0.1225370392203331,0.0,0.0,-0.6547000408172607,0.5072605609893799
-0.6468120813369751,0.425391286611557,-0.8017536997795105,-1.04799222946167,2.118616104125977,0.0953186228871345,0.0,0.0,-0.7375616431236267,0.711082935333252
-0.654889702796936,0.4015877246856689,-0.8062941431999207,-1.0595327615737915,2.1213860511779785,0.0553974732756614,0.0,0.0,-0.6183235049247742,0.6063446998596191
-0.6629987955093384,0.3774998188018799,-0.8105214238166809,-1.0710023641586304,2.122129201889038,0.0148628698661923,0.0,0.0,-0.5147948265075684,0.5492668151855469
-0.6711392998695374,0.3531135320663452,-0.8146127462387085,-1.0832228660583496,2.1210622787475586,-0.0213385410606861,0.0,0.0,-0.581911563873291,0.6670689582824707
-0.6793146729469299,0.3284319341182709,-0.8191450834274292,-1.095209717750549,2.118025541305542,-0.0607337541878223,0.0,0.0,-0.5355992317199707,0.6404958963394165
-0.6875168085098267,0.3034628629684448,-0.8228858709335327,-1.1067956686019895,2.1129345893859863,-0.1018167734146118,0.0,0.0,-0.3432172536849975,0.5790293216705322
