x_pos,y_pos,x_vel,y_vel,angle,ang_vel,leg_1,leg_2,main_booster,lat_booster
-0.0015713691245764,1.403501033782959,-0.1584342420101165,-0.3297331631183624,0.00115895899944,0.0228168424218893,0.0,0.0,-0.2835289239883423,0.702329158782959
-0.003131580306217,1.3959784507751465,-0.1549838930368423,-0.33433398604393,0.0001361061586067,-0.0204581711441278,0.0,0.0,-0.3132263422012329,0.3855226039886474
-0.0047407150268554,1.3883321285247805,-0.1592345684766769,-0.3398399353027344,-0.001528923632577,-0.0333037786185741,0.0,0.0,0.4295136928558349,-0.0294086337089538
-0.0065017701126635,1.3812111616134644,-0.1732738316059112,-0.3164953589439392,-0.0043306881561875,-0.056040484458208,0.0,0.0,0.0238847732543945,0.7123759984970093
-0.0081629753112792,1.3745743036270142,-0.1612958759069442,-0.2949898838996887,-0.0091011887416243,-0.095418781042099,0.0,0.0,0.2617483139038086,-0.5335400700569153
-0.0097982408478856,1.3684349060058594,-0.159383088350296,-0.2728960812091827,-0.0131947854533791,-0.0818796381354332,0.0,0.0,-0.3989168405532837,-0.4072361588478088
-0.0114839551970362,1.3621723651885986,-0.1637954115867614,-0.2783829271793365,-0.017928808927536,-0.0946890860795974,0.0,0.0,-0.8363621830940247,0.2171860933303833
-0.0132206920534372,1.35578715801239,-0.1682419329881668,-0.2838659584522247,-0.0233005639165639,-0.1074447780847549,0.0,0.0,-0.293484091758728,-0.0300835967063903
-0.0150086404755711,1.3492790460586548,-0.1727209985256195,-0.2893508970737457,-0.0293087679892778,-0.1201752424240112,0.0,0.0,-0.6186642050743103,0.1244385242462158
-0.016848087310791,1.3426485061645508,-0.1772301346063614,-0.2948371469974518,-0.0359515473246574,-0.1328677982091903,0.0,0.0,-0.7401164174079895,0.3075189590454101
-0.0187393184751272,1.335895538330078,-0.1817671507596969,-0.3003244698047638,-0.0432266965508461,-0.1455164849758148,0.0,0.0,-0.9014610648155212,-0.6057218313217163
-0.0207246784120798,1.3290218114852903,-0.1916159689426422,-0.3057165145874023,-0.0500716492533683,-0.1369116604328155,0.0,0.0,-0.871235191822052,-0.1251205801963806
-0.0227622035890817,1.3220258951187134,-0.1962059885263443,-0.3112054169178009,-0.0575443767011165,-0.1494683921337127,0.0,0.0,-0.7639743685722351,0.1225121021270752
-0.024852180853486,1.3149075508117676,-0.2008171379566192,-0.3166950941085815,-0.0656411200761795,-0.1619498133659362,0.0,0.0,-0.7593904137611389,-0.29395192861557
-0.0269947052001953,1.3076674938201904,-0.2054474055767059,-0.3221863806247711,-0.0743586868047714,-0.1743672341108322,0.0,0.0,-0.9213953614234924,-0.0297140479087829
-0.0291897766292095,1.3003058433532717,-0.2100952416658401,-0.3276790380477905,-0.0836933404207229,-0.1867101490497589,0.0,0.0,-0.8272314071655273,0.0266177654266357
-0.031437586992979,1.2928225994110107,-0.2147586643695831,-0.333173394203186,-0.0936410054564476,-0.1989713460206985,0.0,0.0,-0.9070744514465332,0.0594116449356079
-0.0337382331490516,1.2852182388305664,-0.2194356918334961,-0.3386695683002472,-0.1041972041130065,-0.2111430913209915,0.0,0.0,-0.8206018209457397,-0.10394948720932
-0.0360916145145893,1.2774930000305176,-0.2241244316101074,-0.3441676795482635,-0.1153571084141731,-0.22321817278862,0.0,0.0,-0.8346363306045532,-0.0628447532653808
-0.0384979248046875,1.2696468830108645,-0.2288229912519455,-0.349667876958847,-0.1271154731512069,-0.2351885288953781,0.0,0.0,-0.8226233720779419,-0.6939297914505005
-0.040999412536621,1.2616933584213257,-0.238866776227951,-0.3544882535934448,-0.1383732110261917,-0.2251754254102707,0.0,0.0,-0.7879831194877625,0.3655476570129394
-0.0435538291931152,1.2536193132400513,-0.2435828149318695,-0.3599904179573059,-0.1502183675765991,-0.2369243204593658,0.0,0.0,-0.837873101234436,-0.8254380822181702
-0.0462118163704872,1.2454349994659424,-0.2546660602092743,-0.3649041056632995,-0.1613497585058212,-0.2226475179195404,0.0,0.0,-0.8109623193740845,0.3355624675750732
-0.0489224418997764,1.2371304035186768,-0.259391576051712,-0.3704078793525696,-0.1730552166700363,-0.2341299802064895,0.0,0.0,-0.6735972166061401,-0.6546757817268372
-0.0517484657466411,1.228723406791687,-0.2720082700252533,-0.3749123811721802,-0.1837040036916732,-0.2129941284656524,0.0,0.0,-0.5803166031837463,0.1032919883728027
-0.0546298995614051,1.2201749086380005,-0.2769967913627624,-0.3813544809818268,-0.1949121952056884,-0.2241633683443069,0.0,0.0,-0.8338701725006104,-0.3107368946075439
-0.0575641617178916,1.2115061283111572,-0.2817516922950744,-0.3868545591831207,-0.2066718488931656,-0.2351931780576706,0.0,0.0,-0.9504294395446776,-0.9563195109367372
-0.0606395713984966,1.2027552127838137,-0.2976811528205871,-0.390342652797699,-0.2166269123554229,-0.1991012692451477,0.0,0.0,-0.6691166162490845,-0.4222543239593506
-0.0637675300240516,1.193884015083313,-0.30242520570755,-0.3958411514759063,-0.227115198969841,-0.2097661048173904,0.0,0.0,-0.7581876516342163,-0.7547270059585571
-0.0670082122087478,1.1849100589752195,-0.3147622048854828,-0.4002994000911712,-0.2365549057722091,-0.1887940615415573,0.0,0.0,-0.8203669190406799,-0.8961055278778076
-0.0703659057617187,1.175849437713623,-0.3277141153812408,-0.4040132462978363,-0.2447468787431717,-0.1638393104076385,0.0,0.0,-0.7580257654190063,-0.0609326362609863
-0.0737755745649337,1.1666680574417114,-0.3324252963066101,-0.4095095992088318,-0.2534393668174743,-0.173849731683731,0.0,0.0,-0.4900005459785461,-0.0426338911056518
-0.0772367492318153,1.1573660373687744,-0.3371213376522064,-0.4150067269802093,-0.2626198530197143,-0.1836104094982147,0.0,0.0,-0.6870920658111572,-0.3279707431793213
-0.0807490348815918,1.147943377494812,-0.3417999148368835,-0.4205046594142914,-0.2722750902175903,-0.193104475736618,0.0,0.0,-0.7698360085487366,0.0108367204666137
-0.0843122452497482,0.0,-0.346458375453949,-0.4260033369064331,-0.2823907732963562,-0.2023142278194427,0.0,0.0,-0.7528044581413269,-0.5165897607803345
-0.0879630073904991,1.128757119178772,-0.3558025658130646,-0.4304128587245941,-0.2919314205646515,-0.1908129006624221,0.0,0.0,-0.9043797850608826,-0.1196511387825012
-0.0916637405753135,1.1189934015274048,-0.3604122698307037,-0.4359112679958343,-0.3019013404846191,-0.1993982493877411,0.0,0.0,-0.9300755858421326,-0.5806834697723389
-0.0954539328813552,1.1091326475143433,-0.3700654506683349,-0.4401491582393646,-0.3111718893051147,-0.1854103654623031,0.0,0.0,-0.7890173196792603,0.1130902767181396
-0.0992931351065635,1.0991512537002563,-0.3746145367622375,-0.4456468522548675,-0.320836454629898,-0.1932919174432754,0.0,0.0,-0.8093158006668091,-0.723950207233429
-0.1032322868704795,1.0890756845474243,-0.3856153488159179,-0.4496647417545318,-0.3294668793678283,-0.1726082265377044,0.0,0.0,-0.5848473906517029,-0.5781624913215637
-0.1072688102722168,1.0789097547531128,-0.3963857591152191,-0.4534972012042999,-0.3370555937290191,-0.1517742872238159,0.0,0.0,-0.2606188058853149,0.3117544651031494
-0.1113526374101638,1.0686227083206177,-0.4008185863494873,-0.4589917361736297,-0.3449776768684387,-0.1584416478872299,0.0,0.0,-0.3196491003036499,-0.4721692204475403
-0.1154830902814865,1.0582146644592283,-0.405206024646759,-0.4644862711429596,-0.3532106876373291,-0.1646603494882583,0.0,0.0,-0.4610923528671264,-0.2090767621994018
-0.1196595206856727,1.0476852655410769,-0.4095441401004791,-0.4699806869029999,-0.3617311120033264,-0.170408546924591,0.0,0.0,-0.6645063757896423,0.1479103565216064
-0.123880960047245,1.0370348691940308,-0.4138287603855133,-0.4754749536514282,-0.3705143332481384,-0.1756645441055297,0.0,0.0,-0.9020946621894836,-0.5857170224189758
-0.1281876564025879,1.026280641555786,-0.423210859298706,-0.4799186885356903,-0.3784288167953491,-0.1582899242639541,0.0,0.0,-0.8053734302520752,0.4811735153198242
-0.1325377523899078,1.0154049396514893,-0.4273743629455566,-0.4854108095169067,-0.3865537345409393,-0.1624984443187713,0.0,0.0,-0.8558502793312073,0.1377565860748291
-0.1369302719831466,1.00440776348114,-0.4314704835414886,-0.4909024834632873,-0.3948613703250885,-0.1661528348922729,0.0,0.0,-0.6806549429893494,-0.0308431982994079
-0.1413642913103103,0.9932888150215148,-0.4354941248893738,-0.4963935613632202,-0.403323084115982,-0.169234350323677,0.0,0.0,-0.7800144553184509,0.0180644989013671
-0.1458387374877929,0.9820481538772584,-0.4394398629665375,-0.5018839240074158,-0.4119093418121338,-0.1717256605625152,0.0,0.0,-0.6852231621742249,-0.0778657793998718
-0.1503522843122482,0.970685601234436,-0.4433020055294037,-0.5073735117912292,-0.4205898940563202,-0.1736109852790832,0.0,0.0,-0.7446718215942383,-0.0651042461395263
-0.1549037992954254,0.9592010378837584,-0.4470745027065277,-0.5128622055053711,-0.4293337166309356,-0.1748765707015991,0.0,0.0,-0.2353510856628418,0.5503600835800171
-0.159446433186531,0.947559654712677,-0.444957971572876,-0.5202678442001343,-0.4394658207893371,-0.2026427537202835,0.0,0.0,-0.1439011096954345,0.0954025983810424
-0.1640245467424392,0.9357961416244508,-0.4485336244106293,-0.5257564187049866,-0.4495976269245147,-0.2026356011629104,0.0,0.0,-0.608970046043396,-0.6393706798553467
-0.1686713248491287,0.9239327311515808,-0.4563777446746826,-0.5299543738365173,-0.4586954712867737,-0.1819569170475006,0.0,0.0,0.0217911005020141,0.4388220310211181
-0.173274427652359,0.912377953529358,-0.4518728852272033,-0.5163567662239075,-0.4680013060569763,-0.1861171573400497,0.0,0.0,0.6570174694061279,0.7476723194122314
-0.1774011552333831,0.901666820049286,-0.4031395018100738,-0.4792961180210113,-0.4785743951797485,-0.2114615738391876,0.0,0.0,-0.4654524326324463,0.0666034221649169
-0.1815571784973144,0.8908330202102661,-0.40623539686203,-0.4847801923751831,-0.4890168011188507,-0.2088483124971389,0.0,0.0,-0.4396697282791137,0.2123767137527465
-0.1857408583164215,0.8798760175704956,-0.4091922342777252,-0.4902626276016235,-0.4992961585521698,-0.2055870294570922,0.0,0.0,0.4198952913284302,0.3841359615325928
-0.1896844804286956,0.8697319626808167,-0.385141909122467,-0.4542268514633178,-0.5096830725669861,-0.2077387869358062,0.0,0.0,0.7515215873718262,0.6193528175354004
-0.1933691054582595,0.8598958849906921,-0.3584658503532409,-0.440926045179367,-0.5210209488868713,-0.2267590761184692,0.0,0.0,0.4366606473922729,-0.7581802010536194
-0.1969063729047775,0.8508495092391968,-0.3453035950660705,-0.4053095877170563,-0.5306243896484375,-0.1920685917139053,0.0,0.0,0.6031579971313477,-0.1477833390235901
-0.2001066207885742,0.8422372341156006,-0.312372624874115,-0.3857837617397308,-0.5393854975700378,-0.1752219051122665,0.0,0.0,0.8646777868270874,-0.7065433263778687
-0.2029918730258941,0.83441162109375,-0.2825618088245392,-0.3502008318901062,-0.5462603569030762,-0.1374967396259308,0.0,0.0,0.9086216688156128,-0.7543894052505493
-0.2056966722011566,0.8270877003669739,-0.2662392854690552,-0.3272366821765899,-0.5511701703071594,-0.0981964841485023,0.0,0.0,0.985715389251709,0.4624149799346924
-0.2081704139709472,0.8206628561019897,-0.2428726255893707,-0.2874085307121277,-0.5563948750495911,-0.1044938713312149,0.0,0.0,0.9428037405014038,-0.5166072845458984
-0.2101338803768158,0.8154096007347107,-0.1932262778282165,-0.2347776293754577,-0.5600295066833496,-0.0726926177740097,0.0,0.0,0.9827228784561156,-0.4472476243972778
-0.2118372023105621,0.8103976249694824,-0.1679681241512298,-0.2237427085638046,-0.5627835392951965,-0.055079024285078,0.0,0.0,0.9613912105560304,-0.21561199426651
-0.2129799425601959,0.8065192103385925,-0.1124300360679626,-0.1731482148170471,-0.5649399161338806,-0.0431274436414241,0.0,0.0,0.8847389221191406,-0.521477460861206
-0.2139696627855301,0.8033203482627869,-0.0982116535305976,-0.1424949020147323,-0.5658347010612488,-0.0178956724703311,0.0,0.0,0.6686575412750244,-0.9522631764411926
-0.2147442400455474,0.8010072112083435,-0.078756958246231,-0.1022564247250557,-0.5643100738525391,0.0304927788674831,0.0,0.0,0.1052519083023071,-0.8473783135414124
-0.2153309285640716,0.7991297841072083,-0.0619764551520347,-0.0820492953062057,-0.5604536533355713,0.077127918601036,0.0,0.0,-0.0514856576919555,-0.9419488310813904
-0.2159865349531173,0.7972054481506348,-0.0714474469423294,-0.0830788165330886,-0.5536031723022461,0.1370096504688263,0.0,0.0,0.6081804037094116,-0.8096439242362976
-0.216327428817749,0.7958592176437378,-0.0420801304280757,-0.0565736331045627,-0.5443537831306458,0.1849881410598755,0.0,0.0,-0.0021194815635681,-0.8448539972305298
-0.2167219668626785,0.7944352626800537,-0.049631580710411,-0.0592234320938587,-0.5326471328735352,0.2341331541538238,0.0,0.0,0.4549310207366943,-0.5478220582008362
-0.2169432640075683,0.7932342290878296,-0.0340302363038063,-0.0487673319876194,-0.5190569162368774,0.2718047201633453,0.0,0.0,0.0962972640991211,-0.0472630858421325
-0.217057317495346,0.7922171354293823,-0.0238473825156688,-0.0405381359159946,-0.5049657225608826,0.2818234264850616,0.0,0.0,-0.058684229850769,-0.1229106783866882
-0.2171551287174224,0.7910749912261963,-0.0228622965514659,-0.0460086315870285,-0.4902632236480713,0.2940498888492584,0.0,0.0,-0.1546011567115783,-0.0757926106452941
-0.2172340452671051,0.7898085713386536,-0.02163877338171,-0.0514807030558586,-0.4749370217323303,0.3065238893032074,0.0,0.0,-0.4366493225097656,-0.3983718156814575
-0.2172915488481521,0.7884178161621094,-0.0201796386390924,-0.0569545663893222,-0.4589757323265075,0.3192259967327118,0.0,0.0,-0.6577539443969727,0.0760525465011596
-0.2173250168561935,0.7869030833244324,-0.0184886157512664,-0.0624304302036762,-0.4423688352108001,0.3321378529071808,0.0,0.0,-0.5598919987678528,0.1366863250732422
-0.2173320800065994,0.7852646708488464,-0.0165702942758798,-0.0679085031151771,-0.4251067340373993,0.3452420830726623,0.0,0.0,-0.6329573392868042,0.5596555471420288
-0.2172771394252777,0.7834802865982056,-0.0102156559005379,-0.0746631696820259,-0.4081480205059051,0.3391744494438171,0.0,0.0,-0.5707854628562927,0.5153944492340088
-0.2171569764614105,0.7815526723861694,-0.0035264573525637,-0.0812873616814613,-0.3914847671985626,0.3332653343677521,0.0,0.0,-0.3801313638687134,0.3712056875228882
-0.2170036286115646,0.779501736164093,-0.0009578713215887,-0.0867678299546241,-0.3741419315338135,0.3468569815158844,0.0,0.0,-0.4498623013496399,0.7841756343841553
-0.2167493849992752,0.7772891521453857,0.0101210568100214,-0.0944189801812172,-0.3579609096050262,0.323620468378067,0.0,0.0,-0.313075304031372,0.5582767724990845
-0.2164166420698166,0.774924099445343,0.0183618031442165,-0.1014760285615921,-0.3422852158546448,0.3135138154029846,0.0,0.0,-0.5214993953704834,0.6878223419189453
-0.2159872949123382,0.7723992466926575,0.0288354847580194,-0.10893265157938,-0.3275426030158996,0.2948521375656128,0.0,0.0,-0.9247403740882874,0.7819533348083496
-0.2154447585344314,0.7697134613990784,0.0413206592202186,-0.1164941936731338,-0.3140846788883209,0.2691586315631866,0.0,0.0,-0.9172393083572388,0.8414707183837891
-0.2147835791110992,0.7668595910072327,0.0544881410896778,-0.1243648007512092,-0.3020381331443786,0.2409307211637497,0.0,0.0,-0.8028253316879272,0.896228551864624
-0.2140103280544281,0.7638562321662903,0.0667083412408828,-0.1313115954399109,-0.2910791337490082,0.2191797941923141,0.0,0.0,-0.9381465315818788,0.4074345827102661
-0.2131915092468261,0.7607285380363464,0.0705320239067077,-0.1367847621440887,-0.2794035971164703,0.2335104942321777,0.0,0.0,-0.9648829102516174,0.8387823104858398
-0.2122484147548675,0.7574467062950134,0.0842237174510955,-0.1439742147922516,-0.2690584361553192,0.2069030702114105,0.0,0.0,-0.9909228086471558,0.7761027812957764
-0.2111895978450775,0.7540035843849182,0.0968620330095291,-0.1513926833868026,-0.2598329484462738,0.1845090687274933,0.0,0.0,-0.987200915813446,0.2634445428848266
-0.2100811004638672,0.750436007976532,0.1010950580239296,-0.1568646878004074,-0.2498810887336731,0.1990370750427246,0.0,0.0,-0.998297929763794,0.5800011157989502
-0.2088699340820312,0.7467312812805176,0.1119285076856613,-0.1631230264902115,-0.2405309230089187,0.187003344297409,0.0,0.0,-0.9861350059509276,0.8794534206390381
-0.2075419872999191,0.7428777813911438,0.1245448142290115,-0.1699432730674743,-0.2321558594703674,0.1675011962652206,0.0,0.0,-0.9991077184677124,0.558866024017334
-0.2061260640621185,0.7388923764228821,0.1334790289402008,-0.1758702248334884,-0.2239369004964828,0.16437928378582,0.0,0.0,-0.9756199717521667,0.0961843729019165
-0.204656034708023,0.7347825169563293,0.1381468921899795,-0.1813428252935409,-0.2149820327758789,0.1790974289178848,0.0,0.0,-0.9959001541137696,0.4756574630737304
-0.2031309604644775,0.7305483222007751,0.1429053097963333,-0.1868169456720352,-0.2052894085645675,0.1938524544239044,0.0,0.0,-0.996739387512207,0.0696403980255127
-0.2015499621629715,0.7261902689933777,0.1477478891611099,-0.1922927647829055,-0.1948573738336563,0.208640769124031,0.0,0.0,-0.9994117021560668,0.6155672073364258
-0.1998666822910308,0.7216927409172058,0.158392921090126,-0.1986165344715118,-0.1848710477352142,0.1997265964746475,0.0,0.0,-0.998416006565094,0.3880109786987304
-0.1981258392333984,0.7170714735984802,0.1633866876363754,-0.2040940672159195,-0.1741424351930618,0.2145723402500152,0.0,0.0,-0.9997146129608154,0.8545739650726318
-0.196277230978012,0.7123116254806519,0.1746960133314132,-0.2103931754827499,-0.163956418633461,0.203720286488533,0.0,0.0,-0.9988337755203248,0.6734333038330078
-0.1943075209856033,0.7074167132377625,0.1876220852136612,-0.2165534645318985,-0.1546093374490738,0.1869415193796157,0.0,0.0,-0.9994330406188964,0.8478796482086182
-0.1922061890363693,0.7023734450340271,0.2018961161375045,-0.2233097702264785,-0.1463902443647384,0.1643818318843841,0.0,0.0,-0.999694287776947,0.5977451801300049
-0.1899865120649337,0.6971979737281799,0.2144640237092971,-0.2292990833520889,-0.1389055252075195,0.1496942937374115,0.0,0.0,-0.9997736811637878,0.6264933347702026
-0.1876586973667144,0.6918937563896179,0.2257246971130371,-0.2350988835096359,-0.1318755447864532,0.1405997425317764,0.0,0.0,-0.9995863437652588,0.0253423452377319
-0.1852700263261795,0.686465859413147,0.2310552895069122,-0.2405755221843719,-0.1240975707769393,0.155559629201889,0.0,0.0,-0.999482810497284,0.5855576992034912
-0.1827682554721832,0.6809043288230896,0.2429295033216476,-0.2465918809175491,-0.1168882846832275,0.1441856473684311,0.0,0.0,-0.9999184012413024,0.4324038028717041
-0.1802047789096832,0.6752189993858337,0.2483406066894531,-0.2520696520805359,-0.1089299097657203,0.1591671705245971,0.0,0.0,-0.9998928308486938,0.4910829067230224
-0.1775792092084884,0.6694104075431824,0.2537871301174164,-0.2575488984584808,-0.1002220809459686,0.1741566210985183,0.0,0.0,-0.9998717308044434,0.5535892248153687
-0.174841970205307,0.663468062877655,0.2654497921466827,-0.2635675370693207,-0.0920169204473495,0.1641028821468353,0.0,0.0,-0.9977071285247804,0.6505857706069946
-0.1720011681318283,0.657397985458374,0.2760927975177765,-0.2693142890930176,-0.084094688296318,0.158444732427597,0.0,0.0,-0.9998628497123718,0.872978687286377
-0.1690432578325271,0.6511952877044678,0.2884144484996795,-0.275278627872467,-0.0767914801836013,0.1460640132427215,0.0,0.0,-0.9998043775558472,0.725817084312439
-0.1659669876098632,0.6448624134063721,0.3009046912193298,-0.2811330258846283,-0.0701320320367813,0.1331887990236282,0.0,0.0,-0.9999738335609436,0.6271995306015015
-0.1627756059169769,0.6383993625640869,0.3129666447639465,-0.286967933177948,-0.0640253201127052,0.122134268283844,0.0,0.0,-0.9986300468444824,0.6495263576507568
-0.1594583541154861,0.6318010091781616,0.3263821005821228,-0.2930456399917602,-0.0587432086467742,0.1056423410773277,0.0,0.0,-0.999675750732422,0.5099654197692871
-0.1560302674770355,0.6250771880149841,0.3378922939300537,-0.2986545264720917,-0.0538898818194866,0.0970668420195579,0.0,0.0,-0.9995173215866088,0.4102308750152588
-0.1525381058454513,0.618229866027832,0.3435381948947906,-0.3041338920593261,-0.0482866764068603,0.1120641380548477,0.0,0.0,-0.99909108877182,0.5812668800354004
