x_pos,y_pos,x_vel,y_vel,angle,ang_vel,leg_1,leg_2,main_booster,lat_booster
-0.0016133307944983,1.4034799337387085,-0.1634110957384109,-0.3306759595870971,0.0018570964457467,0.0366401188075542,0.0,0.0,0.1474330628189992,-0.8576924524132613
-0.003343200776726,1.3963946104049685,-0.1765836626291275,-0.3149071633815765,0.0054121459834277,0.0711083486676216,0.0,0.0,-0.0384798672231814,-0.6350704463707697
-0.0052021979354321,1.3891595602035522,-0.1905007660388946,-0.3215836584568023,0.0099608609452843,0.0909828171133995,0.0,0.0,-0.3336641283962958,0.8373036981595264
-0.007098579313606,1.381778120994568,-0.1929028630256652,-0.3280891478061676,0.0131926871836185,0.0646424144506454,0.0,0.0,0.4458385905128814,0.6121078339552184
-0.0089211463928222,1.3751133680343628,-0.1846054792404174,-0.2962291538715362,0.0155043806880712,0.046238012611866,0.0,0.0,0.3165592673553103,0.7738079979963228
-0.010656451806426,1.3689563274383545,-0.1744990050792694,-0.2736576497554779,0.0164636615663766,0.0191876478493213,0.0,0.0,0.3028256942657927,-0.7342861215631213
-0.0125668523833155,1.3633358478546145,-0.1934496015310287,-0.2498313039541244,0.0188464540988206,0.0476603731513023,0.0,0.0,0.4807227733198311,-0.7953072689513196
-0.0144912721589207,1.3584450483322144,-0.1966844648122787,-0.2174219936132431,0.0230468660593032,0.0840159654617309,0.0,0.0,-0.131030470787808,-0.6082242610475874
-0.0165544506162405,1.3534148931503296,-0.2117874175310135,-0.2236537635326385,0.0284653324633836,0.1083792820572853,0.0,0.0,-0.5933038691896557,0.7420262141494686
-0.0186489112675189,1.3482476472854614,-0.2134269028902053,-0.2297334223985672,0.0324004292488098,0.0787093192338943,0.0,0.0,0.0588381455776727,-0.9714721337146875
-0.0208555217832326,1.3435076475143433,-0.2265564501285553,-0.2108076959848404,0.0382295958697795,0.1165940538048744,0.0,0.0,0.0154925768560452,-0.6608357354128853
-0.0231663696467876,1.33910870552063,-0.2383312433958053,-0.1957123726606369,0.0453958846628665,0.1433386504650116,0.0,0.0,-0.3596737741196667,0.8857592706637827
-0.0254817958921194,1.334575891494751,-0.2365911453962326,-0.2016204744577407,0.0503951907157897,0.0999955385923385,0.0,0.0,0.4534419330763732,0.6401704219958286
-0.0277848243713378,1.3303697109222412,-0.2341713458299636,-0.1870771199464798,0.0542335771024227,0.076774314045906,0.0,0.0,0.6176536281662037,-0.8243274009212673
-0.0301322937011718,1.327243685722351,-0.2405027598142624,-0.1391462981700897,0.0599352493882179,0.1140437498688697,0.0,0.0,-0.1337222500042121,-0.733352208904413
-0.0326150879263877,1.323960781097412,-0.2551945447921753,-0.1462020725011825,0.0667846202850341,0.1369998008012771,0.0,0.0,-0.3849917793229134,0.8614938850970503
-0.0351031310856342,1.320552110671997,-0.2535452246665954,-0.15171580016613,0.071478933095932,0.0938946604728698,0.0,0.0,0.226187392144906,-0.7770538036315435
-0.0376398079097271,1.3174149990081787,-0.2600362002849579,-0.1397450417280197,0.0777965933084487,0.126364603638649,0.0,0.0,-0.3609547213642483,-0.8093153414341144
-0.0403178222477436,1.3141350746154783,-0.275464117527008,-0.1461879163980484,0.0854007303714752,0.1520962417125702,0.0,0.0,-0.2390410913468934,0.7207498701383088
-0.0430337898433208,1.3107171058654783,-0.2779358327388763,-0.1522811502218246,0.0916973203420639,0.1259429603815078,0.0,0.0,0.4507050285722802,-0.6733047122327023
-0.0458271987736225,1.3081557750701904,-0.2872037887573242,-0.1143329590559005,0.0995018631219863,0.1561052501201629,0.0,0.0,0.7243291150362918,0.826943077219188
-0.0486738197505474,1.3061468601226809,-0.2908116281032562,-0.0897136107087135,0.1056088432669639,0.1221503466367721,0.0,0.0,0.6596221414960461,0.6250090194619169
-0.0514741912484169,1.3048384189605713,-0.2851836681365967,-0.0585199035704135,0.1107288748025894,0.1024096831679344,0.0,0.0,0.3604584173000424,-0.707074557412297
-0.0543791763484478,1.303762435913086,-0.2970794141292572,-0.0483202971518039,0.1172799617052078,0.1310334056615829,0.0,0.0,-0.3347888643864829,0.6319938902462537
-0.0573307052254676,1.3025507926940918,-0.300661027431488,-0.0542989522218704,0.1227751523256301,0.1099132746458053,0.0,0.0,-0.8751731882657883,-0.8268442460886509
-0.0604447349905967,1.3011630773544312,-0.3188887238502502,-0.0623118728399276,0.1302242130041122,0.1489810943603515,0.0,0.0,0.2691166249939509,-0.7801726962220666
-0.0637720078229904,1.3004549741744995,-0.3416755199432373,-0.032279185950756,0.1391325742006302,0.1781674325466156,0.0,0.0,-0.1285758713794171,0.6247025494104924
-0.0671432465314865,1.2996175289154053,-0.3449733555316925,-0.0379736013710498,0.1469541639089584,0.1564322412014007,0.0,0.0,-0.6785325712904611,-0.7151194447524896
-0.0706639289855957,1.2986268997192385,-0.3615236580371856,-0.044984858483076,0.1564013361930847,0.1889430880546569,0.0,0.0,-0.6061111304581694,0.6658548192552332
-0.0742137879133224,1.297502040863037,-0.3630256950855255,-0.0508618578314781,0.164447009563446,0.1609137207269668,0.0,0.0,-0.6402264651431844,0.625073057790759
-0.0777924507856369,1.2962524890899658,-0.3644970059394836,-0.0562815442681312,0.1710757613182068,0.1325754523277282,0.0,0.0,0.0676852425950202,-0.8317546496177535
-0.0816186890006065,1.2952409982681274,-0.3907517492771148,-0.0459172464907169,0.1792295277118683,0.163075715303421,0.0,0.0,-0.591973942359094,-0.7141482690534842
-0.0855845436453819,1.2940751314163208,-0.40619558095932,-0.0530096516013145,0.1888749301433563,0.1929076164960861,0.0,0.0,0.045651356336942,-0.653242068980879
-0.0897624939680099,1.293068766593933,-0.4285008907318115,-0.0461298003792762,0.1996499001979828,0.2154993563890457,0.0,0.0,-0.5954540760524634,-0.7639458876601231
-0.0940708145499229,1.2919032573699951,-0.4428545832633972,-0.0534674860537052,0.2117744982242584,0.2424918860197067,0.0,0.0,-0.2610174305000361,-0.8392663387775705
-0.0985137969255447,1.2905807495117188,-0.4577550888061523,-0.0607601515948772,0.2253840863704681,0.2721914649009704,0.0,0.0,0.4892292497833215,-0.9746549079164
-0.1032178848981857,1.2896764278411863,-0.4856033325195312,-0.0425847619771957,0.2407847344875335,0.3080130517482757,0.0,0.0,0.6182877837562042,-0.9807586860906669
-0.1082023605704307,1.2897117137908936,-0.5153989195823669,-0.0013112000888213,0.2580482959747314,0.3452709913253784,0.0,0.0,0.6332319291206745,-0.8389913373398257
-0.1135716438293457,1.290780782699585,-0.5552310347557068,0.0441961325705051,0.2767689228057861,0.3744124472141266,0.0,0.0,-0.8942308861616621,0.8524349971650715
-0.1189361587166786,1.2917391061782837,-0.552718997001648,0.0394094549119472,0.2935113906860351,0.3348491787910461,0.0,0.0,0.2578759233159924,-0.8849769115029256
-0.1246896758675575,1.293343186378479,-0.5930659770965576,0.0676250383257865,0.31181600689888,0.3660929799079895,0.0,0.0,-0.9268082976341248,0.9970781803131104
-0.1304098069667816,1.2948473691940308,-0.5870977640151978,0.0635250881314277,0.3274978399276733,0.3136369287967682,0.0,0.0,-0.8184647560119629,0.9996037483215332
-0.1360947638750076,1.2962422370910645,-0.5810765027999878,0.0590949170291423,0.3406393527984619,0.2628302872180938,0.0,0.0,-0.8961265087127686,0.9923442602157592
-0.1417440474033355,1.297537326812744,-0.5750191807746887,0.0551359765231609,0.3512315154075622,0.2118434906005859,0.0,0.0,-0.9066862463951112,0.9975234270095824
-0.1473685204982757,1.2987148761749268,-0.5705441832542419,0.0503350868821144,0.359740674495697,0.1701828986406326,0.0,0.0,-0.7919234037399292,0.9937615394592284
-0.1529551446437835,1.299782633781433,-0.56447434425354,0.0459840707480907,0.3658720552921295,0.1226275414228439,0.0,0.0,-0.825029730796814,0.9972572326660156
-0.1584992408752441,1.3007463216781616,-0.5578919649124146,0.0419399291276931,0.3695549666881561,0.0736582279205322,0.0,0.0,-0.8693544864654541,0.9899882078170776
-0.1640224456787109,1.3016088008880615,-0.5540308952331543,0.0378893390297889,0.371367484331131,0.0362501293420791,0.0,0.0,-0.8265628218650818,0.9901583194732666
-0.1695226728916168,1.302366852760315,-0.5500303506851196,0.0336901620030403,0.3713760375976562,0.0001708860800135,0.0,0.0,-0.9613112807273864,0.9939064979553224
-0.1749791204929351,1.3030178546905518,-0.5435978174209595,0.0294597148895263,0.3692066967487335,-0.043386947363615,0.0,0.0,-0.9869778156280518,0.9735121726989746
-0.1803701370954513,1.3035744428634644,-0.5345032811164856,0.0259132739156484,0.3643467724323272,-0.0971985235810279,0.0,0.0,-0.7696878910064697,0.9417319297790528
-0.1857187300920486,1.3040276765823364,-0.5283836126327515,0.0217660404741764,0.3575142920017242,-0.1366495192050933,0.0,0.0,-0.981452703475952,0.777733564376831
-0.1910126656293869,1.3043698072433472,-0.5209183692932129,0.0172950308769941,0.3485831022262573,-0.1786237061023712,0.0,0.0,-0.9986338019371032,0.875119686126709
-0.1962534934282302,1.3046106100082395,-0.5136178731918335,0.0131997503340244,0.3376189768314361,-0.2192827463150024,0.0,0.0,-0.9953604936599731,0.9437799453735352
-0.2014114409685135,1.3047504425048828,-0.5027765035629272,0.0092069329693913,0.3240272402763366,-0.2718350887298584,0.0,0.0,-0.9949140548706056,0.394067645072937
-0.2065702974796295,1.304747223854065,-0.5025922060012817,0.0027745312545448,0.3102107346057892,-0.2763301134109497,0.0,0.0,-0.9841459393501282,0.65860915184021
-0.2116698771715164,1.30463445186615,-0.4948717057704925,-0.0018623720388859,0.2946095168590545,-0.3120246529579162,0.0,0.0,-0.9699679017066956,0.6098849773406982
-0.2167055159807205,1.304408073425293,-0.4867028295993805,-0.0067527680657804,0.2772532403469085,-0.3471257090568542,0.0,0.0,-0.9525879621505736,-0.0500831007957458
-0.221729040145874,1.3040401935577393,-0.4851699769496918,-0.0131954634562134,0.2596669793128967,-0.3517252206802368,0.0,0.0,-0.9831661581993104,0.1129816770553588
-0.2267358750104904,1.3035309314727783,-0.4832053184509277,-0.0196392275393009,0.2418495416641235,-0.3563490509986877,0.0,0.0,-0.9288710951805116,0.1994247436523437
-0.2317219227552414,1.3028806447982788,-0.4808201193809509,-0.0260840952396392,0.2237999886274337,-0.3609907329082489,0.0,0.0,-0.9723777770996094,-0.6179443001747131
-0.2367390692234039,1.3020732402801514,-0.4850560128688812,-0.0334503389894962,0.2069673687219619,-0.3366525173187256,0.0,0.0,-0.9821003079414368,-0.5540031790733337
-0.2417610138654709,1.301111936569214,-0.4861337542533874,-0.0405534170567989,0.1907883435487747,-0.3235806226730346,0.0,0.0,-0.9918495416641236,-0.4795894622802734
-0.2467502057552337,1.3000092506408691,-0.4825737476348877,-0.0469949804246425,0.1743765920400619,-0.3282351493835449,0.0,0.0,-0.8696234822273254,-0.3508573770523071
-0.2517029643058777,1.2987648248672483,-0.4786533713340759,-0.0534375645220279,0.1577327102422714,-0.3328774571418762,0.0,0.0,-0.9584294557571412,-0.5178194642066956
-0.2566646635532379,1.2973675727844238,-0.480515569448471,-0.0605175383388996,0.1421070396900177,-0.3125135004520416,0.0,0.0,-0.8188930153846741,-0.0435305833816528
-0.2615830302238464,1.2958285808563232,-0.4759275019168854,-0.066958799958229,0.1262516677379608,-0.3171074688434601,0.0,0.0,-0.9369139671325684,-0.3506920933723449
-0.2664551138877868,1.2941479682922363,-0.4710317552089691,-0.0734010264277458,0.1101684793829917,-0.3216636180877685,0.0,0.0,-0.7367597222328186,-0.1383533477783203
-0.271277904510498,1.2923259735107422,-0.4658461213111877,-0.0798442363739013,0.0938598215579986,-0.3261729776859283,0.0,0.0,-0.9353875517845154,0.751185417175293
-0.2759985327720642,1.2903668880462646,-0.4541016221046448,-0.0860401764512062,0.0760663002729415,-0.3558703362941742,0.0,0.0,-0.9773730039596558,-0.6893110871315002
-0.2807272970676422,1.2882626056671145,-0.4562681317329407,-0.092761144042015,0.059634756296873,-0.3286309540271759,0.0,0.0,-0.8636482357978821,0.0627835988998413
-0.2853988707065582,1.2860170602798462,-0.4503169655799866,-0.0992064103484153,0.0429874919354915,-0.3329454064369201,0.0,0.0,-0.8606588840484619,0.9395465850830078
-0.2899528443813324,1.2836453914642334,-0.4368460774421692,-0.1049756035208702,0.0246575865894556,-0.3665983974933624,0.0,0.0,-0.9491289258003236,0.6910508871078491
-0.2943839132785797,1.2811365127563477,-0.4227686524391174,-0.1113005131483078,0.004578735679388,-0.4015769362449646,0.0,0.0,-0.339491605758667,-0.7145220041275024
-0.2988110482692718,1.2784818410873413,-0.4236868321895599,-0.1180289536714553,-0.0142011120915412,-0.3755971491336822,0.0,0.0,-0.4134835004806518,-0.494304895401001
-0.3031725883483886,1.2756876945495603,-0.4169371724128723,-0.12448251247406,-0.033176951110363,-0.3795168697834015,0.0,0.0,-0.8671261668205261,0.6700413227081299
-0.3074168264865875,1.27274489402771,-0.4037368297576904,-0.131373256444931,-0.0536063499748706,-0.4085882306098938,0.0,0.0,-0.9563501477241516,0.7836387157440186
-0.311530590057373,1.2696659564971924,-0.3889832198619842,-0.1377925276756286,-0.0757554322481155,-0.4429821372032165,0.0,0.0,-0.8374503254890442,0.0883578062057495
-0.3155737519264221,1.2664490938186646,-0.3817779719829559,-0.1442584842443466,-0.0980804562568664,-0.4465008676052093,0.0,0.0,-0.736667275428772,-0.2890273332595825
-0.3195447921752929,1.2630946636199951,-0.3744439780712127,-0.1507252901792526,-0.120573841035366,-0.4498681128025055,0.0,0.0,-0.8715892434120178,-0.4739924669265747
-0.323442280292511,1.259602665901184,-0.3669915497303009,-0.1571928709745407,-0.143227532505989,-0.4530742168426513,0.0,0.0,-0.7472006678581238,-0.8365355730056763
-0.3273251950740814,1.255993366241455,-0.367031067609787,-0.1625951081514358,-0.164468839764595,-0.424826055765152,0.0,0.0,-0.8014103174209595,-0.1533197164535522
-0.3311322331428528,1.2522456645965576,-0.3593683838844299,-0.1690582633018493,-0.1858531087636947,-0.427685022354126,0.0,0.0,-0.9055455923080444,-0.2483588457107544
-0.3348621726036072,1.24836003780365,-0.351613700389862,-0.1755218803882599,-0.2073708772659301,-0.4303553104400635,0.0,0.0,-0.8317822813987732,-0.714819073677063
-0.3385698795318603,1.244356989860535,-0.3508104681968689,-0.1808333694934845,-0.2275436967611313,-0.4034565389156341,0.0,0.0,-0.8432000279426575,-0.4224472045898437
-0.3421986103057861,1.2402150630950928,-0.3428924083709717,-0.1872926354408264,-0.2478299885988235,-0.4057261049747467,0.0,0.0,0.0515865087509155,-0.6222479343414307
-0.3457261025905609,1.236256718635559,-0.33402019739151,-0.1791993826627731,-0.2669470310211181,-0.3823406100273132,0.0,0.0,-0.832243025302887,-0.9731287956237792
-0.3492370247840881,1.232177495956421,-0.3339775204658508,-0.1845225393772125,-0.2844953238964081,-0.3509656488895416,0.0,0.0,-0.9286336302757264,-0.5869739055633545
-0.3527002334594726,1.2279722690582275,-0.3300928771495819,-0.1901552975177765,-0.301223874092102,-0.3345707356929779,0.0,0.0,-0.4070444107055664,-0.6953920722007751
-0.3561228811740875,1.223639726638794,-0.3270955681800842,-0.1957796961069107,-0.3169392645359039,-0.3143078684806824,0.0,0.0,-0.6979267597198486,-0.8862150311470032
-0.3595286309719085,1.219204664230347,-0.3271838128566742,-0.2001052945852279,-0.3308800458908081,-0.2788156867027282,0.0,0.0,-0.3356962203979492,-0.3106824159622192
-0.362851470708847,1.2146275043487549,-0.3189122080802917,-0.2065457701683044,-0.3448655009269714,-0.2797088027000427,0.0,0.0,-0.011875569820404,-0.3531244397163391
-0.3660908341407776,1.2099087238311768,-0.310599148273468,-0.212985947728157,-0.3588830530643463,-0.2803511321544647,0.0,0.0,0.2989304065704345,0.1070828437805175
-0.3690817356109619,1.2053663730621338,-0.2861571013927459,-0.2051757872104644,-0.3725532591342926,-0.2734043896198272,0.0,0.0,-0.2111178040504455,-0.8044607639312744
-0.3720528483390808,1.2007169723510742,-0.2859236598014831,-0.209600418806076,-0.3844324946403503,-0.2375844717025756,0.0,0.0,0.173588752746582,-0.6085385680198669
-0.3746898174285888,1.196772575378418,-0.2538442611694336,-0.1779924929141998,-0.3949393033981323,-0.2101361751556396,0.0,0.0,0.005264401435852,-0.2631534337997436
-0.3771215379238128,1.1931726932525637,-0.23331980407238,-0.1627683192491531,-0.4054920971393585,-0.2110558450222015,0.0,0.0,-0.5054174661636353,-0.7772494554519653
-0.379533439874649,1.1894793510437012,-0.2332277595996856,-0.1664578318595886,-0.4140609502792358,-0.1713771373033523,0.0,0.0,-0.3651928305625915,-0.5476856231689453
-0.3818925023078918,1.185666561126709,-0.2289209365844726,-0.1715240627527237,-0.4216085076332092,-0.1509512364864349,0.0,0.0,0.0067471265792846,-0.7968176007270813
-0.3840687870979309,1.1824021339416504,-0.2122430056333542,-0.1467049866914749,-0.4274381995201111,-0.1165934354066848,0.0,0.0,-0.5260504484176636,-0.2739151120185852
-0.3861588537693023,1.1789932250976562,-0.2037068903446197,-0.1531288623809814,-0.4331956207752228,-0.1151476353406906,0.0,0.0,0.4888365268707275,-0.217028260231018
-0.3879944384098053,1.1760647296905518,-0.1782558411359787,-0.1318012773990631,-0.4389714002609253,-0.1155158504843711,0.0,0.0,-0.0931541323661804,0.0859482288360595
-0.3897433280944824,1.1729915142059326,-0.1696914285421371,-0.138224110007286,-0.4446489512920379,-0.1135518178343772,0.0,0.0,0.268118143081665,-0.0777567028999328
-0.3913367390632629,1.1703925132751465,-0.1537609547376632,-0.1172949969768524,-0.4507498145103454,-0.1220172196626663,0.0,0.0,-0.1074498891830444,-0.0234841108322143
-0.392842948436737,1.1676486730575562,-0.1451766937971115,-0.1237170696258544,-0.4567271471023559,-0.1195467486977577,0.0,0.0,0.3178205490112304,-0.2368903756141662
-0.3940881192684173,1.1651238203048706,-0.1194187849760055,-0.1139003708958625,-0.4623423218727112,-0.1123037338256836,0.0,0.0,0.3798832893371582,-0.6614816784858704
-0.3948867917060852,1.1632590293884275,-0.0763792544603347,-0.0840459167957305,-0.4661907851696014,-0.0769692510366439,0.0,0.0,-0.0726130008697509,-0.4644283056259155
-0.3955979347229004,1.1612486839294434,-0.0677776783704757,-0.0904647782444953,-0.4698795080184936,-0.0737742260098457,0.0,0.0,0.102542757987976,-0.7439231276512146
-0.3959152102470398,1.1598289012908936,-0.0300337187945842,-0.0636805370450019,-0.4717539846897125,-0.0374903865158557,0.0,0.0,-0.2676324248313904,-0.78956538438797
-0.396192729473114,1.158300280570984,-0.027534682303667,-0.068017691373825,-0.4719999730587005,-0.0049196546897292,0.0,0.0,-0.2577368021011352,-0.8278707265853882
-0.3964382708072662,1.1566778421401978,-0.0261012222617864,-0.0715805441141128,-0.4702836275100708,0.0343267507851123,0.0,0.0,-0.4198235869407654,-0.6357907652854919
-0.396634042263031,1.1549450159072876,-0.0224012285470962,-0.0760574340820312,-0.4671569764614105,0.0625330433249473,0.0,0.0,-0.4442167282104492,-0.7766369581222534
-0.3967900276184082,1.1530988216400146,-0.0198948346078395,-0.0806195959448814,-0.4624130427837372,0.0948785617947578,0.0,0.0,-0.7821568250656128,-0.7631199955940247
-0.3969218730926513,1.151156306266785,-0.0194392297416925,-0.0842698737978935,-0.4555224478244781,0.137812003493309,0.0,0.0,-0.4611741304397583,-0.5804945230484009
-0.3970155119895935,1.1491036415100098,-0.0171942748129367,-0.088696151971817,-0.4469299018383026,0.1718512028455734,0.0,0.0,-0.7778650522232056,-0.3940608501434326
-0.3970209658145904,1.1469060182571411,-0.0086283851414918,-0.0951167717576026,-0.4380966424942016,0.1766654849052429,0.0,0.0,-0.4999051094055176,-0.1554943323135376
-0.3969382345676422,1.1445635557174685,-7.44063436286524e-05,-0.1015376076102256,-0.4290143251419067,0.1816460639238357,0.0,0.0,-0.3974053859710693,-0.7139710187911987
-0.3968090116977691,1.1420974731445312,0.0032314036507159,-0.1066810861229896,-0.4185212254524231,0.2098620235919952,0.0,0.0,-0.3274120092391968,-0.3196725845336914
-0.3965917229652405,1.1394867897033691,0.0117549356073141,-0.11310426145792,-0.407763659954071,0.2151515185832977,0.0,0.0,-0.7074766755104065,-0.4382245540618896
-0.3962863385677337,1.136731743812561,0.020261013880372,-0.1195279061794281,-0.3967344462871551,0.2205844223499298,0.0,0.0,-0.6366744637489319,-0.515980064868927
