x_pos,y_pos,x_vel,y_vel,angle,ang_vel,leg_1,leg_2,main_booster,lat_booster
-0.0014492988120764,1.402951717376709,-0.1466720700263977,-0.3541515171527862,0.0015639681369066,0.0308358818292617,0.0,0.0,-0.6936061978340149,0.1256277561187744
-0.0028239251114428,1.3943336009979248,-0.1388373225927353,-0.383025050163269,0.0029226678889244,0.0271773524582386,0.0,0.0,0.1019755601882934,0.9462218284606934
-0.0039446828886866,1.3854403495788574,-0.1113993376493454,-0.3952521681785583,0.0022517952602356,-0.0134185655042529,0.0,0.0,-0.0324148535728454,-0.0507071614265441
-0.0049907686188817,1.3758742809295654,-0.103746972978115,-0.4251599311828613,0.0014034423511475,-0.0169688966125249,0.0,0.0,-0.4588462710380554,0.3994017839431762
-0.005962180905044,1.3656353950500488,-0.0960959643125534,-0.4550599455833435,0.0003701155656017,-0.0206684991717338,0.0,0.0,-0.2752348184585571,0.072790503501892
-0.0068590166047215,1.3547236919403076,-0.088446520268917,-0.484960526227951,-0.0008540194830857,-0.0244850404560565,0.0,0.0,0.3618693351745605,-0.3636319041252136
-0.0076995850540697,1.3438533544540403,-0.082529991865158,-0.4831258952617645,-0.0023638112470507,-0.0301986131817102,0.0,0.0,-0.4276247024536133,0.2144958972930908
-0.0084657669067382,1.3323103189468384,-0.0748861581087112,-0.5130329728126526,-0.0040760617703199,-0.0342481657862663,0.0,0.0,0.0125820636749267,-0.2327550649642944
-0.0091629978269338,1.3208637237548828,-0.0677410960197448,-0.5087376832962036,-0.0060317236930131,-0.0391167812049388,0.0,0.0,-0.7238104343414307,-0.7000094652175903
-0.0098412511870265,1.3087491989135742,-0.0670313462615013,-0.5384232401847839,-0.0068121519871056,-0.0156103800982236,0.0,0.0,-0.4785219430923462,-0.8156098127365112
-0.0105005260556936,1.295963168144226,-0.066317394375801,-0.5682659149169922,-0.0064268200658261,0.0077074589207768,0.0,0.0,-0.5340105295181274,-0.6535223722457886
-0.0111313816159963,1.2825034856796265,-0.0644096955657005,-0.598202645778656,-0.0051223593764007,0.0260917730629444,0.0,0.0,-0.2533243894577026,-0.8710684180259705
-0.0117424009367823,1.2683759927749634,-0.0635614097118377,-0.6278831362724304,-0.0026930358726531,0.0485909134149551,0.0,0.0,0.0436530113220214,-0.8329715728759766
-0.0122940065339207,1.2539047002792358,-0.0590574815869331,-0.643168032169342,0.0011707475641742,0.0772827342152595,0.0,0.0,-0.3264946937561035,0.2882839441299438
-0.0127722742035985,1.2387607097625732,-0.0514855161309242,-0.6730735301971436,0.0047959191724658,0.0725094228982925,0.0,0.0,-0.4322735071182251,-0.3898501396179199
-0.0131772998720407,1.2229440212249756,-0.0439252741634845,-0.7029761672019958,0.0081792185083031,0.0676720440387725,0.0,0.0,-0.2816402912139892,-0.5665105581283569
-0.0135439876466989,1.2064610719680786,-0.0407098308205604,-0.7326087951660156,0.0121834073215723,0.0800909474492073,0.0,0.0,0.1155370473861694,-0.1436278820037841
-0.0137447360903024,1.1896865367889404,-0.024326954036951,-0.7455719709396362,0.0163881722837686,0.0841027125716209,0.0,0.0,-0.289453387260437,0.1865522861480713
-0.0138730052858591,1.1722395420074463,-0.0168163813650608,-0.775477409362793,0.0203391890972852,0.0790274441242218,0.0,0.0,-0.3710256814956665,0.4282965660095215
-0.0139288902282714,1.154119610786438,-0.0093244407325983,-0.8053798675537109,0.0240335687994956,0.0738938599824905,0.0,0.0,-0.0051989555358886,-0.1290993690490722
-0.0139126777648925,1.1353273391723633,-0.0018533697584643,-0.8352806568145752,0.0274679493159055,0.0686938688158989,0.0,0.0,0.2182508707046508,0.6819698810577393
-0.013769912533462,1.1163499355316162,0.0124220484867692,-0.8434706926345825,0.0292983949184417,0.0366123989224433,0.0,0.0,0.7802817821502686,0.2379379272460937
-0.0134329795837402,1.0975855588912964,0.0314564630389213,-0.8340180516242981,0.0315143540501594,0.0443229600787162,0.0,0.0,0.509408712387085,-0.0782268047332763
-0.012969970703125,1.0785789489746094,0.0440351143479347,-0.8447926044464111,0.0337575897574424,0.0448686070740222,0.0,0.0,0.3031351566314697,0.294323205947876
-0.0125650409609079,1.0596548318862915,0.0390154719352722,-0.8411107659339905,0.0352107807993888,0.0290664937347173,0.0,0.0,0.0012199878692626,-0.203128695487976
-0.0121923442929983,1.0406711101531982,0.0364838130772113,-0.8437356352806091,0.0359829664230346,0.0154439378529787,0.0,0.0,0.8675398826599121,0.0628560781478881
-0.0117747308686375,1.0222457647323608,0.0412406437098979,-0.8189153075218201,0.0365008078515529,0.0103566013276577,0.0,0.0,0.0728663206100463,0.393744945526123
-0.0113916397094726,1.0039464235305786,0.0384582392871379,-0.8133058547973633,0.0363502465188503,-0.0030112606473267,0.0,0.0,0.5021138191223145,-0.2892423868179321
-0.0110835079103708,0.986023247241974,0.0318079516291618,-0.7965587377548218,0.03537368029356,-0.0195314809679985,0.0,0.0,0.1128692626953125,-0.3322489857673645
-0.0107322689145803,0.9679188132286072,0.0364568904042243,-0.8046073913574219,0.0340532697737216,-0.0264081805944442,0.0,0.0,0.5507941246032715,-0.4209761023521423
-0.0103224758058786,0.9503340125083924,0.042527787387371,-0.7815187573432922,0.0325346663594245,-0.0303721912205219,0.0,0.0,-0.0664798021316528,0.1449394226074218
-0.0098449708893895,0.9320762157440186,0.0495675504207611,-0.8114176392555237,0.0307356752455234,-0.0359798185527324,0.0,0.0,-0.1283546090126037,-0.4756765365600586
-0.0093005178496241,0.9131455421447754,0.0565401837229728,-0.8413165807723999,0.0286555048078298,-0.0416033752262592,0.0,0.0,0.6262285709381104,0.3848758935928345
-0.0087629314512014,0.8940719962120056,0.0564451217651367,-0.8476718068122864,0.0260032545775175,-0.0530450344085693,0.0,0.0,-0.1181554198265075,-0.3713299036026001
-0.0081600192934274,0.8743254542350769,0.0632639974355697,-0.8775712251663208,0.023068631067872,-0.0586923956871032,0.0,0.0,0.0659834146499633,-0.8712568879127502
-0.0075591085478663,0.8546426296234131,0.0615917034447193,-0.8747674822807312,0.0215853210538625,-0.0296662710607051,0.0,0.0,0.4882347583770752,0.0684698820114135
-0.0069272043183445,0.8349014520645142,0.0650903955101966,-0.8773629665374756,0.0197096429765224,-0.0375137478113174,0.0,0.0,0.4627894163131714,-0.0147657990455627
-0.0062124254181981,0.8154991269111633,0.0735067054629325,-0.8622979521751404,0.0177067071199417,-0.0400587581098079,0.0,0.0,-0.0199041962623596,-0.1291237473487854
-0.0054363249801099,0.7954241633415222,0.0799233615398407,-0.8921972513198853,0.015420620329678,-0.0457215569913387,0.0,0.0,0.013123869895935,-0.5802878141403198
-0.0046323775313794,0.775235652923584,0.0818024575710296,-0.8972556591033936,0.0140314577147364,-0.027783278375864,0.0,0.0,0.8615314960479736,-0.3093428611755371
-0.0039022446144372,0.7556877136230469,0.0752660557627677,-0.8687807321548462,0.0118030468001961,-0.0445682667195797,0.0,0.0,0.6560204029083252,-0.7346565127372742
-0.0030436515808105,0.7362536787986755,0.0866526216268539,-0.8637273907661438,0.0110261980444192,-0.0155371250584721,0.0,0.0,0.0436905622482299,-0.5912424921989441
-0.0021092414390295,0.7164377570152283,0.0932186692953109,-0.880703330039978,0.0112378513440489,0.0042330827564001,0.0,0.0,0.2360366582870483,-0.7850627303123474
-0.0011030196910724,0.6965412497520447,0.0990278571844101,-0.8843055367469788,0.012815942056477,0.0315619297325611,0.0,0.0,0.0318500995635986,-0.159754991531372
-7.22885160939768e-05,0.6762472987174988,0.1018691286444664,-0.9019647240638732,0.013996516354382,0.0236114244908094,0.0,0.0,0.85552978515625,-0.6481946706771851
0.0010074615711346,0.6558369994163513,0.1056205257773399,-0.9071503281593324,0.0163277070969343,0.0466237291693687,0.0,0.0,0.7524896860122681,-0.4945813417434692
0.0021923065651208,0.6354663968086243,0.1160972565412521,-0.905384600162506,0.0186803378164768,0.0470526255667209,0.0,0.0,0.9392248392105104,-0.6607222557067871
0.0032105445861816,0.6158927083015442,0.0987609848380088,-0.8699893355369568,0.0217047855257987,0.0604892745614051,0.0,0.0,0.7179279327392578,-0.403088629245758
0.0041164397262036,0.5968706011772156,0.0884471982717514,-0.8454567790031433,0.0238160509616136,0.0422250777482986,0.0,0.0,0.7033274173736572,-0.7580728530883789
0.0049666403792798,0.577957034111023,0.0816831588745117,-0.8406601548194885,0.0271138083189725,0.0659551545977592,0.0,0.0,0.6278926134109497,-0.0667814016342163
0.0059808730147778,0.5592201948165894,0.0976984128355979,-0.8328187465667725,0.0307938382029533,0.0736003592610359,0.0,0.0,0.7226376533508301,-0.6586767435073853
0.0068893432617187,0.5409614443778992,0.0862261578440666,-0.8116032481193542,0.0353614352643489,0.0913517922163009,0.0,0.0,0.462040901184082,0.269420862197876
0.0079126358032226,0.5226250290870667,0.0975262597203254,-0.815074622631073,0.0401091128587722,0.0949535369873046,0.0,0.0,0.8357824087142944,0.6623969078063965
0.0089852334931492,0.5049538016319275,0.1040581315755844,-0.7854745984077454,0.043282400816679,0.0634656175971031,0.0,0.0,0.1244707107543945,-0.2600483894348144
0.0101704597473144,0.4871138334274292,0.1151002272963523,-0.7929924726486206,0.0466621033847332,0.0675941184163093,0.0,0.0,0.3356248140335083,-0.1897554397583007
0.0112828258424997,0.4691664278507232,0.1084430962800979,-0.7977531552314758,0.0494243539869785,0.0552449598908424,0.0,0.0,0.9762012958526612,-0.7017974257469177
0.0124320033937692,0.4519858360290527,0.1106636747717857,-0.7637289762496948,0.0536265671253204,0.084044449031353,0.0,0.0,0.8796439170837402,-0.197850227355957
0.0137117384001612,0.435294508934021,0.1232458502054214,-0.7420128583908081,0.0583005212247371,0.0934789329767227,0.0,0.0,0.7561041116714478,-0.1399614214897155
0.0150309558957815,0.4192480146884918,0.1270806342363357,-0.7133748531341553,0.0630902349948883,0.0957941263914108,0.0,0.0,0.6505169868469238,-0.2563581466674804
0.0162322036921978,0.4036967754364013,0.1158893927931785,-0.6913490295410156,0.0672793984413147,0.083783321082592,0.0,0.0,0.0599455833435058,-0.0534649491310119
0.0174538604915142,0.3878316879272461,0.1180253475904464,-0.7053055167198181,0.0713750571012497,0.0819131731986999,0.0,0.0,0.7335472106933594,-0.1050610542297363
0.0185177810490131,0.3723838329315185,0.1029988899827003,-0.6867403388023376,0.0747417956590652,0.0673345997929573,0.0,0.0,0.564788818359375,0.4672938585281372
0.0196578986942768,0.3570088148117065,0.1102989166975021,-0.6835197806358337,0.0784107223153114,0.0733788684010505,0.0,0.0,0.8173502683639526,0.0508999824523925
0.0207631103694438,0.3419724404811859,0.1069371476769447,-0.66847825050354,0.0819640383124351,0.0710661932826042,0.0,0.0,0.8437674045562744,0.1707189083099365
0.0218288414180278,0.3269329667091369,0.1031809300184249,-0.6686086058616638,0.0853255465626716,0.0672303512692451,0.0,0.0,0.7035070657730103,-0.1364773511886596
0.0227002147585153,0.3121151626110077,0.0845713317394256,-0.6587196588516235,0.0878678932785987,0.0508471615612506,0.0,0.0,0.8815867900848389,0.2780262231826782
0.0234915725886821,0.2980839908123016,0.076682761311531,-0.6237546801567078,0.0902981236577034,0.0486044213175773,0.0,0.0,0.6891651153564453,0.6314325332641602
0.0243741981685161,0.2838380932807922,0.0870812535285949,-0.6332253813743591,0.0914674699306488,0.0233871303498744,0.0,0.0,0.8996696472167969,-0.3811322450637817
0.0251724235713481,0.2703896462917328,0.0787123367190361,-0.5977771282196045,0.0925624743103981,0.021900312975049,0.0,0.0,0.8299944400787354,-0.2019981145858764
0.0257893558591604,0.2570368945598602,0.0612883642315864,-0.5934823155403137,0.092960774898529,0.0079659577459096,0.0,0.0,0.6845686435699463,0.331688642501831
0.0262167938053607,0.2440291792154312,0.0429929122328758,-0.5781034231185913,0.0927150696516037,-0.0049142609350383,0.0,0.0,0.9246280193328856,0.5936901569366455
0.0266267769038677,0.2314443141222,0.0425418652594089,-0.5592326521873474,0.0911837741732597,-0.0306257344782352,0.0,0.0,0.964472770690918,0.423721432685852
0.0267547611147165,0.2196656316518783,0.015268662944436,-0.5233486890792847,0.0887403935194015,-0.0488677322864532,0.0,0.0,0.971845269203186,0.7172389030456543
0.0269318576902151,0.2082640975713729,0.021582257002592,-0.5065137147903442,0.084899291396141,-0.0768220648169517,0.0,0.0,0.7586369514465332,0.3687524795532226
0.0269946102052927,0.1968073397874832,0.0105206053704023,-0.508952796459198,0.0806962698698043,-0.0840604156255722,0.0,0.0,0.9082268476486206,0.5269222259521484
0.0271062850952148,0.1852488815784454,0.0164238959550857,-0.5134352445602417,0.0754981115460395,-0.1039633750915527,0.0,0.0,0.945814847946167,-0.4014648795127868
0.0271029472351074,0.1736115962266922,0.0052770883776247,-0.5169389247894287,0.0699398592114448,-0.1111651808023452,0.0,0.0,0.7284272909164429,-0.5603552460670471
0.0269376747310161,0.1625428795814514,-0.011812032200396,-0.4917306900024414,0.065287210047245,-0.0930527821183204,0.0,0.0,0.9480228424072266,-0.0501366853713989
0.0267520900815725,0.1522504836320877,-0.0141176898032426,-0.4572512507438659,0.0608916096389293,-0.0879119709134101,0.0,0.0,0.8850681781768799,-0.0306193828582763
0.0263282768428325,0.142670139670372,-0.0371672101318836,-0.4255903661251068,0.0557286143302917,-0.103259764611721,0.0,0.0,0.8152470588684082,-0.1593068838119506
0.0256867408752441,0.1329505294561386,-0.0580918006598949,-0.4317701756954193,0.0497375279664993,-0.1198217868804931,0.0,0.0,0.6551412343978882,-0.124049425125122
0.0249893181025981,0.1237479746341705,-0.0637101680040359,-0.4088136851787567,0.0437676720321178,-0.1193968802690506,0.0,0.0,0.540408730506897,0.5961911678314209
0.0241546630859375,0.1146736741065979,-0.0758137851953506,-0.4030982851982116,0.0362135656177997,-0.1510822772979736,0.0,0.0,0.5493416786193848,0.1080732345581054
0.0231859199702739,0.1058773845434188,-0.0888293236494064,-0.3907717168331146,0.028266267850995,-0.1589457392692566,0.0,0.0,0.7579636573791504,-0.0180407166481018
0.0221223831176757,0.097524270415306,-0.0980903953313827,-0.3711146116256714,0.0201102551072835,-0.1631202846765518,0.0,0.0,0.7935264110565186,0.4674631357192993
0.0210786815732717,0.0894493162631988,-0.0964044332504272,-0.3588006198406219,0.0122481128200888,-0.1572432368993759,0.0,0.0,0.8370013236999512,0.2674198150634765
0.019993495196104,0.0812738016247749,-0.1005342230200767,-0.363312691450119,0.0043700006790459,-0.1575623452663421,0.0,0.0,0.887012243270874,-0.5834552049636841
0.0189091674983501,0.0731122344732284,-0.1018123179674148,-0.3627332746982574,-0.0021678293123841,-0.1307568401098251,0.0,0.0,0.9294979572296144,0.3446207046508789
0.0179330818355083,0.0652781799435615,-0.0916595086455345,-0.3481990098953247,-0.0080353897064924,-0.1173509359359741,0.0,0.0,0.8947193622589111,0.1653637886047363
0.0170548446476459,0.0574483498930931,-0.0825148671865463,-0.3480306565761566,-0.0132807455956935,-0.1049070730805397,0.0,0.0,0.9587863683700562,0.1331820487976074
0.0161151885986328,0.0502822026610374,-0.0885068029165268,-0.3185516893863678,-0.0186668969690799,-0.1077230125665664,0.0,0.0,0.9382390975952148,-0.0681260228157043
0.0151613233610987,0.0437774509191513,-0.0899939239025116,-0.2891797125339508,-0.0239867158234119,-0.1063966900110244,0.0,0.0,0.8189547061920166,0.1695089340209961
0.0142945293337106,0.0376965627074241,-0.0818426385521888,-0.270343154668808,-0.0287653692066669,-0.0955733284354209,0.0,0.0,0.7990329265594482,-0.6855062246322632
0.013434219174087,0.031466256827116,-0.0827738642692565,-0.2769694924354553,-0.0319858379662036,-0.0644091814756393,0.0,0.0,0.9666380882263184,0.1997491121292114
0.0124619482085108,0.0254752021282911,-0.0935890600085258,-0.2663517594337463,-0.0355703607201576,-0.071690522134304,0.0,0.0,0.9718582630157472,0.7484924793243408
0.0116259576752781,0.0203552581369876,-0.0786580368876457,-0.2276776731014251,-0.0404495894908905,-0.0975844711065292,0.0,0.0,0.7857410907745361,-0.2544577121734619
0.01072015799582,0.0154864406213164,-0.0854664221405983,-0.2165374010801315,-0.0454999431967735,-0.1010072603821754,0.0,0.0,0.8970074653625488,-0.1842567324638366
0.0096434596925973,0.0113237956538796,-0.1018557101488113,-0.1851949840784073,-0.0512550733983516,-0.1151022911071777,0.0,0.0,0.9025168418884276,0.1977481842041015
0.0086378101259469,0.0076849674805998,-0.09517802298069,-0.1619202494621276,-0.0565791688859462,-0.1064820438623428,0.0,0.0,0.5025780200958252,0.2654190063476562
0.0075517655350267,0.0043997978791594,-0.1029709354043006,-0.1462297886610031,-0.0621495731174945,-0.1114080399274826,1.0,0.0,0.4909018278121948,0.7953875064849854
0.00653076171875,0.0018547034123912,-0.1043321266770362,-0.1132398098707199,-0.0591770224273204,0.0604365691542625,1.0,0.0,0.535968542098999,0.8437685966491699
0.005671405699104,-0.0001887822145363,-0.1010717526078224,-0.0902999266982078,-0.0441794469952583,0.2999967932701111,1.0,0.0,0.4821516275405884,0.9806783199310304
0.004887580871582,-0.0017066621221601,-0.10309449583292,-0.0669222027063369,-0.0197553560137748,0.4885154366493225,1.0,0.0,0.4833618402481079,0.984177589416504
0.0041089057922363,-0.003007533494383,-0.1066738218069076,-0.0576969906687736,0.008723041974008,0.5696218609809875,1.0,1.0,0.6646449565887451,0.974574089050293
0.0034750937484204,-0.0034121538046747,-0.0796670466661453,-0.0184211190789937,0.0238130893558263,0.3005236983299255,1.0,1.0,-0.0275534987449646,0.9983959197998048
0.0028598785866051,-0.003843238344416,-0.0623247139155864,-0.0191888883709907,0.0245707351714372,0.0151167679578065,1.0,1.0,-0.9242566823959352,0.9875099658966064
0.0023777962196618,-0.0040898942388594,-0.0423341542482376,-0.0108891958370804,0.0187743101269006,-0.1159349903464317,1.0,1.0,-0.5170868635177612,0.9490156173706056
0.0020835876930505,-0.0040230895392596,-0.0244269035756587,0.00301588117145,0.0138372341170907,-0.098745048046112,1.0,1.0,-0.3250035643577575,0.7664804458618164
0.0019524574745446,-0.0036233686842024,-0.0099683161824941,0.0177948120981454,0.01072883233428,-0.0621593184769153,1.0,1.0,-0.8350511789321899,0.1323235034942627
0.0018539428710937,-0.0029237412381917,-0.0094472831115126,0.0310919396579265,0.0103265577927231,-0.0080548850819468,1.0,1.0,-0.7456596493721008,0.9177756309509276
0.0018541335593909,-0.001949563040398,-9.77295421762392e-05,0.0432956703007221,0.0104338582605123,0.0021381063852459,1.0,1.0,-0.351595401763916,0.3021368980407715
0.0017751693958416,-0.0011021280661225,-0.0014342045178636,0.0376960672438144,0.0040513463318347,-0.1276544034481048,1.0,1.0,-0.812086820602417,-0.1166141033172607
0.0017042160034179,-0.0003479981387499,-0.0013020758051425,0.0335219353437423,-0.0016695929225534,-0.1144224181771278,1.0,1.0,-0.7603023052215576,0.0727372169494628
0.001688003540039,-0.0001817011798266,-0.0003086104406975,0.0073881293646991,-0.002965647727251,-0.0259194169193506,1.0,1.0,-0.8267218470573425,-0.1717907786369323
0.0016867637168616,-0.0001844906801125,-0.0001255549577763,-0.0001248055195901,-0.0029631061479449,5.125884126755409e-05,1.0,1.0,-0.7632293701171875,-0.0178415179252624
0.0016857146983966,-0.0001857066090451,-0.0001011226195259,-5.342873191693798e-05,-0.0029613070655614,3.628263220889494e-05,1.0,1.0,-0.6082072854042053,0.0531283617019653
0.0016854286659508,-0.0001857066090451,-2.5178102077916265e-05,1.0985542786556834e-07,-0.0029609675984829,7.609557542309631e-06,1.0,1.0,-0.8000020384788513,-0.0659186244010925
0.001685619354248,-0.0001857066090451,1.6618858353467658e-05,,-0.0029612851794809,-5.112780854688026e-06,1.0,1.0,-0.6622196435928345,0.0168021917343139
0.0016858100425451,-0.0001857066090451,1.913411688292399e-05,1.0613288026206646e-08,-0.0029616148676723,-5.780440460512182e-06,1.0,1.0,-0.683081328868866,-0.0094477534294128
0.001685905503109,-0.0001857066090451,7.09453070157906e-06,-3.8250694278652015e-10,-0.002961752237752,-2.2224207896215376e-06,1.0,1.0,-0.5401864647865295,-0.2151203751564026
0.001685905503109,-0.0001857066090451,-1.6473404684802515e-06,-2.6652197115950566e-10,-0.0029617466498166,5.473767714647693e-07,1.0,1.0,-0.7097527980804443,0.0881186723709106
