x_pos,y_pos,x_vel,y_vel,angle,ang_vel,leg_1,leg_2,main_booster,lat_booster
-0.0014934539794921,1.4035204648971558,-0.1513203084468841,-0.3288766741752624,0.001766393892467,0.0348439551889896,0.0,0.0,0.0478863716125488,0.5619561672210693
-0.0028711319901049,1.396476149559021,-0.1384535282850265,-0.3130814433097839,0.0024502624291926,0.0136791691184043,0.0,0.0,-0.3694669604301452,0.8213021755218506
-0.0041291238740086,1.3893214464187622,-0.1244956031441688,-0.3179840445518493,0.0011569032212719,-0.0258692912757396,0.0,0.0,-0.4765118360519409,0.2647615671157837
-0.0053415298461914,1.3820627927780151,-0.1199304088950157,-0.322611927986145,-0.0001330979430349,-0.0258023403584957,0.0,0.0,-0.4809685349464416,0.2193688154220581
-0.0065035820007324,1.374699950218201,-0.1148955076932907,-0.3272382915019989,-0.0014247780200093,-0.0258363485336303,0.0,0.0,0.2105395793914795,0.2679356336593628
-0.007509708404541,1.3678295612335205,-0.0997846871614456,-0.3053444027900696,-0.0022408866789191,-0.0163238830864429,0.0,0.0,-0.6042150259017944,0.4592562913894653
-0.0084568979218602,1.3608551025390625,-0.0938781276345253,-0.3099757730960846,-0.0030663723591715,-0.0165113676339387,0.0,0.0,-0.558811604976654,0.5807929039001465
-0.0092840194702148,1.3537781238555908,-0.0804124623537063,-0.3145393133163452,-0.0053391018882393,-0.0454591140151023,0.0,0.0,-0.6484957933425903,-0.0268527269363403
-0.010044383816421,1.3465971946716309,-0.0737188085913658,-0.3191661536693573,-0.0076274955645203,-0.0457721427083015,0.0,0.0,-0.7741360068321228,0.4612061977386474
-0.0107344631105661,1.339312195777893,-0.0666680708527565,-0.3237928748130798,-0.0099361147731542,-0.0461770221590995,0.0,0.0,-0.9662718772888184,-0.7213001251220703
-0.0113996509462594,1.331924319267273,-0.0653926730155944,-0.3283564746379852,-0.0110432002693414,-0.0221438091248273,0.0,0.0,-0.7272579669952393,0.2668960094451904
-0.0119881629943847,1.3244324922561646,-0.0576965510845184,-0.3329830765724182,-0.0121780466288328,-0.0226991046220064,0.0,0.0,-0.8339315056800842,0.5329262018203735
-0.0124459266662597,1.3168381452560425,-0.0432952232658863,-0.3375406265258789,-0.0146279959008097,-0.0490037724375724,0.0,0.0,-0.924475371837616,-0.6879483461380005
-0.0128694530576467,1.309134602546692,-0.0410610660910606,-0.3423939049243927,-0.0159035641700029,-0.02551388181746,0.0,0.0,-0.9807472229003906,0.1661128997802734
-0.0132081983610987,1.301326870918274,-0.0325439758598804,-0.3470206558704376,-0.0172172766178846,-0.0262764953076839,0.0,0.0,-0.9674458503723145,-0.6375594139099121
-0.0135010723024606,1.2934088706970217,-0.0289620254188776,-0.3519210517406463,-0.0175367705523967,-0.0063905478455126,0.0,0.0,-0.7250638008117676,-0.0976088047027587
-0.0137045858427882,1.2853866815567017,-0.0199921689927577,-0.3565478026866913,-0.0179005563259124,-0.0072762118652462,0.0,0.0,-0.923246681690216,-0.4658348560333252
-0.0138169284909963,1.2772603034973145,-0.0108188036829233,-0.3611744344234466,-0.0183110181242227,-0.0082100024446845,0.0,0.0,-0.8840886354446411,-0.335233211517334
-0.0138361928984522,1.26902973651886,-0.0014574633678421,-0.3658011853694916,-0.0187713596969842,-0.0092076789587736,0.0,0.0,-0.8774074912071228,-0.346783697605133
-0.0137605667114257,1.2606953382492063,0.0080777872353792,-0.3704279065132141,-0.0192844849079847,-0.0102634066715836,0.0,0.0,-0.804629385471344,-0.6090129613876343
-0.0136265754699707,1.2522624731063845,0.0130207631736993,-0.3747957348823547,-0.018899243324995,0.0077054537832736,0.0,0.0,-0.9085609912872314,-0.1805804967880249
-0.0133946416899561,1.243725299835205,0.0228620283305645,-0.3794226050376892,-0.0185728352516889,0.0065285912714898,0.0,0.0,-0.85541832447052,-0.4199736714363098
-0.0130635257810354,1.2350841760635376,0.0328403338789939,-0.384049504995346,-0.0183073244988918,0.0053108213469386,0.0,0.0,-0.8119810819625854,0.1797952651977539
-0.0126319881528615,1.2263387441635132,0.0429447628557682,-0.3886763751506805,-0.0181054715067148,0.0040373681113123,0.0,0.0,-0.6875650882720947,-0.77137690782547
-0.0121743204072117,1.2174935340881348,0.0437068045139312,-0.3930944204330444,-0.016074102371931,0.0406311377882957,0.0,0.0,-0.8827448487281799,-0.0101515650749206
-0.0116144176572561,1.2085230350494385,0.054006140679121,-0.398675262928009,-0.0141117591410875,0.0392470248043537,0.0,0.0,-0.7030139565467834,-0.7243620753288269
-0.0110078807920217,1.1994543075561523,0.0572902373969554,-0.4030322134494781,-0.0107879685238003,0.0664756670594215,0.0,0.0,-0.7171656489372253,0.6814675331115723
-0.010254574008286,1.1902878284454346,0.0731092989444732,-0.4073814451694488,-0.008596614934504,0.0438272170722484,0.0,0.0,-0.7953243851661682,-0.2377663254737854
-0.0093960762023925,1.1810173988342283,0.083707682788372,-0.41200652718544,-0.0064781568944454,0.0423688180744648,0.0,0.0,-0.7193304896354675,-0.5185070633888245
-0.0084740640595555,1.1716413497924805,0.0890531614422798,-0.4166954755783081,-0.0033669571857899,0.0622240379452705,0.0,0.0,-0.8809386491775513,-0.6398519277572632
-0.0074943541549146,1.1621692180633545,0.0936426296830177,-0.4209864437580108,0.0009017048287205,0.0853731781244278,0.0,0.0,-0.7018197774887085,-0.4062751531600952
-0.0064074518159031,1.1525931358337402,0.1044496297836303,-0.4256125390529632,0.0050938334316015,0.0838427245616912,0.0,0.0,-0.7060612440109253,-0.8117888569831848
-0.0052857398986816,1.1429204940795898,0.106146715581417,-0.4299309551715851,0.0110438065603375,0.1189993768930435,0.0,0.0,-0.7674729824066162,0.5418212413787842
-0.0040172575972974,1.133139729499817,0.1218785196542739,-0.4347417950630188,0.0159520413726568,0.0981644988059997,0.0,0.0,-0.8937941789627075,-0.2868834733963012
-0.0026398659683763,1.1232553720474243,0.1328445374965667,-0.439368337392807,0.0207808893173933,0.0965769216418266,0.0,0.0,-0.8409566879272461,-0.9252622723579408
-0.0012243271339684,1.113271951675415,0.1349369883537292,-0.4438101053237915,0.0273135229945182,0.1306526362895965,0.0,0.0,-0.8794922828674316,-0.0123695731163024
0.0003008842468261,1.1031851768493652,0.1459862142801284,-0.4484381377696991,0.033765260130167,0.1290349066257476,0.0,0.0,-0.6932803392410278,-0.7537013292312622
0.0018800735706463,1.092997908592224,0.1500515341758728,-0.4529661238193512,0.0415391586720943,0.1554778665304184,0.0,0.0,-0.7844158411026001,-0.709311842918396
0.0035096169449388,1.082711696624756,0.1536501049995422,-0.4574533998966217,0.0507330670952796,0.1838779598474502,0.0,0.0,-0.7532134652137756,0.6600058078765869
0.0053043365478515,1.0723272562026978,0.171645313501358,-0.4618155062198639,0.0584692358970642,0.1547235399484634,0.0,0.0,-0.8525150418281555,-0.3361383080482483
0.0072098732925951,1.061839580535889,0.1828158646821975,-0.4664447903633117,0.0661224871873855,0.1530649363994598,0.0,0.0,-0.9319435358047484,-0.7531574368476868
0.0091792102903127,1.051242113113403,0.1880832612514495,-0.4714114069938659,0.0748849660158157,0.1752495020627975,0.0,0.0,-0.8096818327903748,-0.3698949217796325
0.0112599376589059,1.040541648864746,0.1992951780557632,-0.4760419726371765,0.0835639536380767,0.173580065369606,0.0,0.0,-0.8855330944061279,-0.3608555793762207
0.0134519580751657,1.0297380685806274,0.2105233669281005,-0.4806723296642303,0.0921593531966209,0.1719077229499817,0.0,0.0,-0.840266227722168,-0.5707277059555054
0.0157078746706247,1.0188180208206177,0.2157823145389557,-0.4859732389450073,0.1018875017762184,0.1945631951093673,0.0,0.0,-0.8441628813743591,-0.6141977906227112
0.0180311203002929,1.007781982421875,0.2214730530977249,-0.4912640154361725,0.1126655116677284,0.2155604064464569,0.0,0.0,-0.5949634909629822,-0.0216091871261596
0.0204660408198833,0.9966434836387634,0.2327347248792648,-0.4958975613117218,0.1233599483966827,0.2138886451721191,0.0,0.0,-0.8299242258071899,-0.43093341588974
0.023012638092041,0.985402286052704,0.2440023422241211,-0.5005308389663696,0.1339709907770156,0.2122209519147873,0.0,0.0,-0.636001467704773,-0.7171107530593872
0.0256017688661813,0.9740508794784546,0.2466054260730743,-0.5056589245796204,0.1462441980838775,0.2454642355442047,0.0,0.0,-0.6726055145263672,-0.7242592573165894
0.0282441135495901,0.9625822901725768,0.2505328953266144,-0.511110246181488,0.1599348932504654,0.2738136947154999,0.0,0.0,-0.3877631425857544,-0.7599655389785767
0.030953025445342,0.9510013461112976,0.2561315596103668,-0.5163687467575073,0.1747022718191146,0.2953474819660187,0.0,0.0,-0.5247858762741089,-0.4612647294998169
0.0337734222412109,0.9393187761306764,0.2674011886119842,-0.5210102200508118,0.1893878281116485,0.2937113046646118,0.0,0.0,0.3704676628112793,-0.7833038568496704
0.0366756431758403,0.9280855059623718,0.2740135788917541,-0.5014104247093201,0.2057014107704162,0.3262717425823211,0.0,0.0,0.5261253118515015,-0.5627346038818359
0.0394973754882812,0.9178261756896972,0.2649856209754944,-0.4584603309631347,0.2230697572231292,0.3473672270774841,0.0,0.0,0.226966381072998,0.1831773519515991
0.0424580574035644,0.9080328941345216,0.2785097956657409,-0.4380107820034027,0.2408703714609146,0.3560127317905426,0.0,0.0,0.4736616611480713,-0.0228080153465271
0.045346450060606,0.8987211585044861,0.271831065416336,-0.4167405962944031,0.2581981420516968,0.3465554118156433,0.0,0.0,0.3035494089126587,0.6351871490478516
0.0483118072152137,0.8902768492698669,0.2807865738868713,-0.3781584799289703,0.2743007242679596,0.3220522999763489,0.0,0.0,0.6106584072113037,0.4891092777252197
0.0513390526175498,0.8827356100082397,0.2865229547023773,-0.3382908999919891,0.2909494042396545,0.3329733610153198,0.0,0.0,-0.2106307744979858,0.7644407749176025
0.05453996732831,0.8751298785209656,0.3057321310043335,-0.3409678637981415,0.3057692050933838,0.2963957190513611,0.0,0.0,0.1314111948013305,0.3303203582763672
0.0576393119990825,0.868168830871582,0.2959490716457367,-0.312394767999649,0.3202740848064422,0.2900978922843933,0.0,0.0,0.3188748359680176,0.4407750368118286
0.0607942566275596,0.8615461587905884,0.3014687597751617,-0.2975110113620758,0.3348957896232605,0.2924341857433319,0.0,0.0,0.1644492149353027,0.7477055788040161
0.06387510150671,0.8555149435997009,0.2957230508327484,-0.2709788382053375,0.3478406965732574,0.2588984966278076,0.0,0.0,0.0235538482666015,0.877510666847229
0.0671068206429481,0.8499123454093933,0.3126537501811981,-0.251580536365509,0.3589054644107818,0.2212949097156524,0.0,0.0,0.4965646266937256,0.7860463857650757
0.07033272087574,0.8450328707695007,0.3136590719223022,-0.2191296964883804,0.3683227002620697,0.1883444637060165,0.0,0.0,0.7915546894073486,0.0530658960342407
0.0735189467668533,0.8406631350517273,0.3097516298294067,-0.1965298503637313,0.3777132332324981,0.1878115236759185,0.0,0.0,0.6060999631881714,0.4413185119628906
0.0764899253845214,0.8369243144989014,0.2888476252555847,-0.1683755069971084,0.3864829242229461,0.1753944456577301,0.0,0.0,0.8104522228240967,0.7134792804718018
0.079288862645626,0.834438681602478,0.273071825504303,-0.1123421043157577,0.3937637507915497,0.1456167548894882,0.0,0.0,0.8725376129150391,0.8701997995376587
0.0822287574410438,0.8323970437049866,0.2887333631515503,-0.0922074317932128,0.3993846774101257,0.1124185100197792,0.0,0.0,0.9324966669082642,0.4815726280212402
0.0849167853593826,0.8316497206687927,0.2634774148464203,-0.0347196608781814,0.4050929844379425,0.1141661033034324,0.0,0.0,0.9687905311584472,0.8445301055908203
0.0874384865164756,0.8315394520759583,0.2487656623125076,-0.0058806580491364,0.4087551236152649,0.0732429847121238,0.0,0.0,0.9690287113189696,0.7635433673858643
0.0896908789873123,0.8324036002159119,0.2236113995313644,0.037934485822916,0.4105110168457031,0.03511793166399,0.0,0.0,0.9587846994400024,0.5737615823745728
0.0918309241533279,0.8342295289039612,0.213427186012268,0.0809800177812576,0.4111311137676239,0.0124020623043179,0.0,0.0,0.953771948814392,0.6324714422225952
0.0935708060860633,0.8372628092765808,0.1750816404819488,0.1351279616355896,0.4099553525447845,-0.0235152896493673,0.0,0.0,0.8539280891418457,0.5137752294540405
0.0952736884355545,0.8411595225334167,0.1721745133399963,0.173736959695816,0.4079170525074005,-0.0407662913203239,0.0,0.0,0.6108318567276001,0.5310146808624268
0.0969354659318924,0.8454772233963013,0.1692285537719726,0.1927687525749206,0.4046463668346405,-0.0654135197401046,0.0,0.0,0.2844953536987304,0.477974534034729
0.0986488312482833,0.8500704169273376,0.1741965562105178,0.2049556374549865,0.4015748202800751,-0.0614308007061481,0.0,0.0,0.3323793411254883,0.5602800846099854
0.1003730744123458,0.8549417853355408,0.176454484462738,0.2176424115896225,0.3972509801387787,-0.0864770486950874,0.0,0.0,-0.3773585557937622,0.4079281091690063
0.1021977439522743,0.8597090840339661,0.1865447908639907,0.2130176573991775,0.3928858637809753,-0.0873016342520713,0.0,0.0,0.1355241537094116,0.2055119276046753
0.1039580330252647,0.8651810884475708,0.1799073815345764,0.2442626804113388,0.3887361586093902,-0.0829941183328628,0.0,0.0,-0.4313610196113586,0.7720305919647217
0.1058600395917892,0.8705841302871704,0.195359319448471,0.2415349930524826,0.383243054151535,-0.1098618730902671,0.0,0.0,-0.4933962821960449,0.6540002822875977
0.1078982353210449,0.8758999109268188,0.2100081890821457,0.237902894616127,0.3766649961471557,-0.1315613389015197,0.0,0.0,-0.602642297744751,0.3997513055801391
0.1100321784615516,0.8811119794845581,0.2196283340454101,0.2332758605480194,0.3700546622276306,-0.1322066336870193,0.0,0.0,-0.0006466507911682,0.3112188577651977
0.1122605353593826,0.8862203359603882,0.2291118800640106,0.2286487072706222,0.3634144067764282,-0.1328048408031463,0.0,0.0,0.3389978408813476,0.2939021587371826
0.1143449768424034,0.8919715285301208,0.2149668186903,0.2572495639324188,0.3565411269664764,-0.1374649107456207,0.0,0.0,-0.3639235496520996,0.3976144790649414
0.1165209785103797,0.897619366645813,0.2241527587175369,0.2526219487190246,0.3496428728103637,-0.137965515255928,0.0,0.0,-0.4807797074317932,0.6154153347015381
0.1188388839364051,0.9031922221183776,0.2397521436214447,0.2495978027582168,0.3412774205207824,-0.1673088073730468,0.0,0.0,-0.4604883193969726,0.3747416734695434
0.1212447136640548,0.9086619019508362,0.2486067116260528,0.2449681907892227,0.3328920304775238,-0.1677077114582061,0.0,0.0,-0.0318675637245178,0.1489752531051635
0.1237370520830154,0.9140281677246094,0.2572815418243408,0.2403384298086166,0.3244892656803131,-0.1680545061826706,0.0,0.0,-0.5894358158111572,0.1306192874908447
0.1263138800859451,0.9192914366722108,0.2657673358917236,0.2357085794210434,0.3160718381404876,-0.1683481782674789,0.0,0.0,-0.3267899751663208,-0.2964308261871338
0.1289732009172439,0.924451470375061,0.2740546762943268,0.2310785949230194,0.3076424598693847,-0.1685876101255417,0.0,0.0,-0.4322669506072998,-0.692096471786499
0.131659597158432,0.9294878840446472,0.2754178345203399,0.2252608984708786,0.3006214201450348,-0.1404199749231338,0.0,0.0,0.4333010911941528,-0.2860914468765259
0.1342550218105316,0.9353755712509156,0.2662379145622253,0.2630421817302704,0.2937181890010834,-0.1380644142627716,0.0,0.0,0.3981963396072387,0.8144967555999756
0.1369377076625824,0.9420529007911682,0.2764336466789245,0.2983922660350799,0.2852978408336639,-0.1684071123600006,0.0,0.0,-0.0099744796752929,0.7346305847167969
0.1397604048252105,0.9486482739448548,0.292151391506195,0.2950309813022613,0.2751431763172149,-0.2030932605266571,0.0,0.0,0.0036436319351196,-0.6580817699432373
0.1424857079982757,0.9555497765541076,0.281164675951004,0.3083269000053406,0.2662955522537231,-0.1769522428512573,0.0,0.0,0.3290804624557495,0.3048393726348877
0.1451629698276519,0.9633793830871582,0.276057481765747,0.3494755625724792,0.2577681541442871,-0.1705475151538849,0.0,0.0,-0.876891016960144,0.5390893220901489
0.1479457914829254,0.971121609210968,0.2876682877540588,0.3457116782665252,0.2482010275125503,-0.1913425773382187,0.0,0.0,0.4932317733764648,0.3606437444686889
0.1505064070224762,0.9797648787498474,0.2659724354743957,0.3857882618904114,0.2381250560283661,-0.2015197724103927,0.0,0.0,-0.7884731292724609,0.5947351455688477
0.1531793624162674,0.9883275032043456,0.2785704433917999,0.3823480010032654,0.226687490940094,-0.2287516593933105,0.0,0.0,-0.9838413000106812,0.5307947397232056
0.1559466421604156,0.9968045949935912,0.2889782786369324,0.378598690032959,0.2142898738384246,-0.2479524612426757,0.0,0.0,-0.8954005837440491,-0.3220683336257934
0.1587685644626617,1.005179762840271,0.2944645881652832,0.3739610910415649,0.2019129693508148,-0.2475381642580032,0.0,0.0,-0.9654498100280762,-0.5212559103965759
0.1616005897521972,1.013438105583191,0.2943870425224304,0.3685270845890045,0.1906519532203674,-0.2252202928066253,0.0,0.0,-0.8327005505561829,-0.8139712810516357
0.1644059121608734,1.0215730667114258,0.2897697389125824,0.362708032131195,0.1813678294420242,-0.1856821328401565,0.0,0.0,-0.72090083360672,0.0140295028686523
0.1672568321228027,1.0296049118041992,0.2943195104598999,0.3580757975578308,0.1721138209104538,-0.185080274939537,0.0,0.0,0.0734007358551025,-0.4829666018486023
0.1701381653547287,1.038241624832153,0.2970147728919983,0.3848587274551391,0.163211390376091,-0.1780487298965454,0.0,0.0,-0.5397371053695679,0.3095813989639282
0.1730585992336273,1.0467755794525146,0.3009151220321655,0.3802270293235779,0.1543453633785247,-0.1773201525211334,0.0,0.0,-0.5107927918434143,0.2005943059921264
0.1760151833295822,1.055206298828125,0.3044853210449219,0.3755953013896942,0.1455189287662506,-0.1765283048152923,0.0,0.0,-0.5321705937385559,0.3966662883758545
0.1790043860673904,1.063534379005432,0.307722806930542,0.3709636628627777,0.1367352455854416,-0.1756736189126968,0.0,0.0,-0.2107706665992736,-0.5759145617485046
0.181987851858139,1.07175874710083,0.3062424659729004,0.3662299513816833,0.1288722604513168,-0.1572595536708831,0.0,0.0,-0.7077381014823914,-0.4873974323272705
0.1849973648786544,1.0798799991607666,0.3088102042675018,0.3615996241569519,0.1210582107305526,-0.1562807559967041,0.0,0.0,-0.7333558797836304,-0.2240827083587646
0.1880297660827636,1.087898015975952,0.3110429644584656,0.3569693565368652,0.1132961735129356,-0.1552407443523407,0.0,0.0,-0.5635852217674255,-0.424538254737854
0.1910815238952636,1.0958126783370972,0.312941700220108,0.3523391485214233,0.1055891513824462,-0.1541403532028198,0.0,0.0,-0.8079186677932739,-0.9430699348449708
0.1940855979919433,1.1036094427108765,0.3064746260643005,0.346931129693985,0.0995710641145706,-0.1203619092702865,0.0,0.0,-0.4853174090385437,-0.8407086730003357
0.1970229148864746,1.1112918853759766,0.2977080345153808,0.3417009115219116,0.0956298932433128,-0.0788233429193496,0.0,0.0,-0.7577142119407654,-0.7311703562736511
0.1999002397060394,1.1188585758209229,0.2898632287979126,0.3364286720752716,0.093521237373352,-0.0421730801463127,0.0,0.0,-0.2722617387771606,0.3755838871002197
0.2027841508388519,1.1263211965560913,0.290452629327774,0.3318031728267669,0.0914791151881218,-0.0408424101769924,0.0,0.0,-0.4351178407669067,0.3120460510253906
0.2056715041399002,1.1336801052093506,0.2907257080078125,0.3271776139736175,0.0895062536001205,-0.0394572094082832,0.0,0.0,-0.5749823451042175,0.284221887588501
0.2085592299699783,1.140934944152832,0.2906882166862488,0.3225521147251129,0.0876052975654602,-0.0380190089344978,0.0,0.0,-0.0521479845046997,-0.6510018706321716
0.2114010751247406,1.148082971572876,0.2849325537681579,0.3177389204502105,0.0868650898337364,-0.0148042412474751,0.0,0.0,-0.424485445022583,-0.9158993363380432
0.2141676843166351,1.1551268100738523,0.2755599319934845,0.3129989504814148,0.0879480019211769,0.0216583535075187,0.0,0.0,-0.2615779638290405,0.6714044809341431
0.2169846594333648,1.162067174911499,0.2820185422897339,0.3084746301174164,0.0876333639025688,-0.0062929475679993,0.0,0.0,-0.156693696975708,-0.754258930683136
0.2197405844926834,1.1688982248306274,0.2745559513568878,0.3035393357276916,0.0886579975485801,0.0204924717545509,0.0,0.0,-0.1575760245323181,0.5199780464172363
