x_pos,y_pos,x_vel,y_vel,angle,ang_vel,leg_1,leg_2,main_booster,lat_booster
-0.0014963150024414,1.403125882148743,-0.151960089802742,-0.346414715051651,0.0020810316782444,0.0410743504762649,0.0,0.0,-0.0331064398345737,0.792494495095663
-0.0028976439498364,1.3948523998260498,-0.1407981216907501,-0.3677114248275757,0.0027378827799111,0.0131390038877725,0.0,0.0,0.6461704870050957,0.8435357141383271
-0.0040583610534667,1.3866783380508425,-0.1156563013792038,-0.3632942140102386,0.0023293544072657,-0.008171116001904,0.0,0.0,-0.3740866532232061,-0.9909360558177182
-0.0052845003083348,1.3780018091201782,-0.1249233037233352,-0.3856291174888611,0.0046034879051148,0.0454869605600833,0.0,0.0,-0.6570672407072777,0.730651728489111
-0.0064133643172681,1.368829369544983,-0.1137512698769569,-0.407662957906723,0.0054602837190032,0.0171375051140785,0.0,0.0,0.8994110099481509,0.72632897450849
-0.0072899819351732,1.360095739364624,-0.087853692471981,-0.3881614804267883,0.0056498628109693,0.003792071249336,0.0,0.0,-0.6604984961578784,0.8398063634760877
-0.0080753322690725,1.3508639335632324,-0.0774586647748947,-0.4103037118911743,0.0045832679606974,-0.0213337987661361,0.0,0.0,-0.5408213353999158,-0.6780263676734879
-0.0088732717558741,1.3411351442337036,-0.0800934806466102,-0.4323922991752624,0.0048744957894086,0.0058251386508345,0.0,0.0,-0.0441072352916351,-0.7260959378398358
-0.0097022056579589,1.330915093421936,-0.0850290581583976,-0.4542300999164581,0.006980862468481,0.0421310141682624,0.0,0.0,-0.0017720233281859,-0.6615841534064838
-0.0105563160032033,1.3202003240585327,-0.0892189070582389,-0.476242184638977,0.0107502304017543,0.0753943547606468,0.0,0.0,0.5292077694460611,-0.9197605701192018
-0.0113717075437307,1.309813380241394,-0.0876746699213981,-0.4617001414299011,0.0168128348886966,0.1212631464004516,0.0,0.0,-0.6213939970639439,0.9812758971524962
-0.0120741846039891,1.2989280223846436,-0.0745366960763931,-0.483843058347702,0.0210564490407705,0.084879845380783,0.0,0.0,-0.7040022998922295,-0.89722579051267
-0.0128058437258005,1.287547588348389,-0.0792264863848686,-0.5059001445770264,0.0270524695515632,0.1199315786361694,0.0,0.0,-0.8692813246685269,-0.835011533134695
-0.0135696409270167,1.2756588459014893,-0.0842932611703872,-0.5285462141036987,0.0348728224635124,0.156421273946762,0.0,0.0,-0.0925649743134373,-0.6049287856261597
-0.0143446922302246,1.2632769346237185,-0.0867015868425369,-0.5505451560020447,0.0439707972109317,0.1819762885570526,0.0,0.0,-0.8713598000379279,0.8953593792796124
-0.0150109287351369,1.2503926753997805,-0.0740605741739273,-0.5728776454925537,0.0513305142521858,0.1472077965736389,0.0,0.0,0.8002005363183675,-0.7605541767438316
-0.015596866607666,1.2384238243103027,-0.0682838633656501,-0.5323055982589722,0.0609217509627342,0.1918422430753708,0.0,0.0,-0.198442622815568,-0.912842832015204
-0.0162135120481252,1.225944995880127,-0.0730964913964271,-0.5551158785820007,0.0722611397504806,0.2268079221248626,0.0,0.0,-0.1479565276486072,-0.6262681997956725
-0.0168481823056936,1.212971329689026,-0.0763261392712593,-0.5772772431373596,0.08500687032938,0.2549376487731933,0.0,0.0,-0.8953632998077274,-0.7970568540935805
-0.0175312049686908,1.199492573738098,-0.083319291472435,-0.599983274936676,0.099914900958538,0.298187106847763,0.0,0.0,-0.0082831036012371,0.8528796715964495
-0.018111228942871,1.1855363845825195,-0.0713010877370834,-0.6212141513824463,0.1131263971328735,0.2642537653446197,0.0,0.0,0.558309991103837,0.9442870701549048
-0.018630027770996,1.171715497970581,-0.0636345371603965,-0.6151923537254333,0.1248391196131706,0.2342753708362579,0.0,0.0,-0.8022925779382335,0.7532195092349545
-0.019055938348174,1.1574105024337769,-0.0528754591941833,-0.6366708874702454,0.13509202003479,0.2050760984420776,0.0,0.0,-0.5981160222717901,0.7940734733232326
-0.0193914417177438,1.1426138877868652,-0.0424158461391925,-0.6584492325782776,0.143946498632431,0.1771056801080703,0.0,0.0,-0.7277367090796747,-0.6162736149654543
-0.0197671893984079,1.1273094415664673,-0.0483235493302345,-0.6812752485275269,0.1546904742717743,0.2148986160755157,0.0,0.0,0.7596214134838375,-0.8860144405527808
-0.0204774849116802,1.1125476360321045,-0.0836170092225074,-0.657439649105072,0.1672833412885666,0.2518572211265564,0.0,0.0,0.8527646438057739,0.9916006318242409
-0.0212241169065237,1.098521709442139,-0.0856255143880844,-0.6246505379676819,0.178262323141098,0.2195796966552734,0.0,0.0,-0.7264294446719415,0.9366437451085052
-0.0218979828059673,1.0840243101119995,-0.077216237783432,-0.6455420255661011,0.1881337612867355,0.197428673505783,0.0,0.0,0.0510659612586059,0.9859512137297252
-0.0226705558598041,1.0697581768035889,-0.0855116546154022,-0.6351202130317688,0.1964347511529922,0.1660198271274566,0.0,0.0,0.5790570983447656,0.6813690165525632
-0.0234872810542583,1.0556875467300415,-0.0888859033584594,-0.6263353824615479,0.2036926299333572,0.1451576352119445,0.0,0.0,0.4258410870604927,-0.8398352819028319
-0.0244863517582416,1.042188286781311,-0.1091467887163162,-0.6012741923332214,0.2130224257707595,0.1865954995155334,0.0,0.0,0.745105706014028,0.8255909020026276
-0.0255944244563579,1.0288581848144531,-0.1185966879129409,-0.5935948491096497,0.220896914601326,0.1574899405241012,0.0,0.0,0.3421661178522825,-0.998941607443092
-0.0269877426326274,1.0159422159194946,-0.1494164317846298,-0.5755840539932251,0.2311083674430847,0.2042292058467865,0.0,0.0,-0.0061921988028881,-0.6663375764987745
-0.0284262653440237,1.0025044679641724,-0.1557368040084839,-0.5991420149803162,0.2431765347719192,0.241363376379013,0.0,0.0,0.3586245892986026,-0.7537981556950066
-0.0300232879817485,0.9893079996109008,-0.1734216213226318,-0.5888461470603943,0.2571510076522827,0.2794895470142364,0.0,0.0,-0.9147475175352368,-0.8003267839064161
-0.0316728577017784,0.9755992293357848,-0.1805114597082138,-0.61208176612854,0.2730535566806793,0.3180511593818664,0.0,0.0,0.7164529301130671,-0.9526058715550229
-0.0335446372628212,0.9620328545570374,-0.2048512250185012,-0.6063575744628906,0.2912113964557647,0.3631569743156433,0.0,0.0,0.2557958810829164,-0.9206150455911752
-0.0356167778372764,0.948795199394226,-0.2269515991210937,-0.5924166440963745,0.3116084039211273,0.4079403281211853,0.0,0.0,0.2191582760344632,-0.6759769986618084
-0.0379599556326866,0.9359216094017028,-0.2555327713489532,-0.5768761038780212,0.3336886763572693,0.4416055083274841,0.0,0.0,0.882009142982483,-0.7700842064529237
-0.0405530929565429,0.9235273599624634,-0.2822814285755157,-0.5563512444496155,0.3577731251716614,0.481688916683197,0.0,0.0,-0.3497891862787055,-0.6028612889437532
-0.0432004928588867,0.9106192588806152,-0.2892015278339386,-0.5800049901008606,0.3836614489555359,0.5177664160728455,0.0,0.0,-0.7046909332275391,0.990610122680664
-0.0457629188895225,0.8972724676132202,-0.2784798741340637,-0.5993630290031433,0.4074406623840332,0.475584328174591,0.0,0.0,-0.8626733422279358,0.9907872676849364
-0.0482431426644325,0.8834787607192993,-0.2681766152381897,-0.6190069913864136,0.4291979670524597,0.435146152973175,0.0,0.0,-0.8078101277351379,0.9912598133087158
-0.050645638257265,0.8692480325698853,-0.2583208680152893,-0.6381154656410217,0.4489001631736755,0.3940443396568298,0.0,0.0,-0.685776948928833,0.9976879358291626
-0.05298538133502,0.8545618057250977,-0.250439703464508,-0.6581182479858398,0.4670167565345764,0.3623320460319519,0.0,0.0,-0.5125497579574585,0.9728672504425048
-0.0552566535770893,0.8394291400909424,-0.2417943477630615,-0.677587628364563,0.4832896888256073,0.3254589438438415,0.0,0.0,-0.438489556312561,0.9932657480239868
-0.0574597343802452,0.823857307434082,-0.2330981492996215,-0.6966273784637451,0.4976024329662323,0.2862548530101776,0.0,0.0,-0.274609625339508,0.9961178302764891
-0.0596213340759277,0.8078457713127136,-0.2276159077882766,-0.7158357501029968,0.510516881942749,0.2582892179489136,0.0,0.0,-0.3655198216438293,0.9396089315414428
-0.0617478378117084,0.7913882732391357,-0.2229424268007278,-0.7353281378746033,0.522190511226654,0.2334725558757782,0.0,0.0,-0.4452150464057922,0.9811508655548096
-0.0638229399919509,0.7744885087013245,-0.2162575274705886,-0.7544923424720764,0.5321771502494812,0.1997322291135788,0.0,0.0,-0.3654334545135498,0.9927860498428344
-0.0658303275704383,0.7571657299995422,-0.2074362933635711,-0.7725495100021362,0.539861798286438,0.1536927372217178,0.0,0.0,-0.1631601452827453,0.941492199897766
-0.0677994713187217,0.7394033670425415,-0.2022627294063568,-0.7915870547294617,0.5460265874862671,0.1232946291565895,0.0,0.0,-0.4339054822921753,0.973512887954712
-0.0697080641984939,0.7212098240852356,-0.1943260580301284,-0.8100103735923767,0.5500438809394836,0.0803453773260116,0.0,0.0,-0.3467247486114502,0.8930149078369141
-0.0715792626142501,0.7025815844535828,-0.1891755312681198,-0.8287618160247803,0.552419900894165,0.0475207269191741,0.0,0.0,0.0460220575332641,0.9326083660125732
-0.0734746009111404,0.6839935183525085,-0.1900683343410492,-0.8263568878173828,0.5530338287353516,0.0122788827866315,0.0,0.0,-0.1124367713928222,0.8089501857757568
-0.0753458961844444,0.6649472117424011,-0.1866475641727447,-0.846297025680542,0.5524702072143555,-0.0112726930528879,0.0,0.0,0.0708587169647216,0.824514627456665
-0.0773998275399208,0.6461766362190247,-0.2036091983318328,-0.8335177898406982,0.550401508808136,-0.0413743928074836,0.0,0.0,-0.4694589376449585,0.8067739009857178
-0.0794145613908767,0.6269726157188416,-0.1980565190315246,-0.8521274328231812,0.5464615821838379,-0.0787988528609275,0.0,0.0,-0.7501665353775024,0.7929949760437012
-0.0813995376229286,0.6073327660560608,-0.1936358213424682,-0.8709188103675842,0.54084712266922,-0.1122893840074539,0.0,0.0,-0.6970949172973633,0.9468817710876464
-0.0833605751395225,0.5872530341148376,-0.1898661702871322,-0.8899539113044739,0.533685564994812,-0.1432308852672577,0.0,0.0,-0.7086026668548584,0.9228558540344238
-0.0852811783552169,0.5667296051979065,-0.1841464638710022,-0.9090588092803956,0.524623453617096,-0.1812426149845123,0.0,0.0,-0.684171199798584,0.9509620666503906
-0.0871810913085937,0.5457607507705688,-0.1807314604520797,-0.9284129738807678,0.5140741467475891,-0.2109862565994262,0.0,0.0,-0.5828790068626404,0.9490466117858888
-0.0890354141592979,0.5243597030639648,-0.1741078794002533,-0.9469555020332336,0.5012967586517334,-0.2555483281612396,0.0,0.0,-0.1305891275405883,0.7568745613098145
-0.0908701866865158,0.5025085806846619,-0.1707529574632644,-0.9665873050689696,0.4870320558547973,-0.2852939963340759,0.0,0.0,0.1398209333419799,0.556464672088623
-0.0928245559334755,0.4805599451065063,-0.1817331463098526,-0.9707306027412416,0.4717719852924347,-0.3052014112472534,0.0,0.0,0.7463390827178955,0.4850571155548095
-0.0952158942818641,0.4588619470596313,-0.2249086797237396,-0.9595955610275269,0.456050843000412,-0.3144226670265198,0.0,0.0,0.4080440998077392,0.4668830633163452
-0.0979497879743576,0.4376632869243622,-0.2592374086380005,-0.9376139044761658,0.4405426979064941,-0.310162603855133,0.0,0.0,0.3782174587249756,0.3328695297241211
-0.1007644683122634,0.4163442254066467,-0.2676062285900116,-0.9432321190834044,0.425463318824768,-0.3015876412391662,0.0,0.0,0.4551014900207519,-0.1257753372192382
-0.1039073914289474,0.3955718278884887,-0.3005309998989105,-0.9191343784332277,0.4105891287326813,-0.2974836230278015,0.0,0.0,0.3815069198608398,-0.1085861921310424
-0.1073210686445236,0.3748011589050293,-0.327253133058548,-0.9191175699234008,0.3954288065433502,-0.3032073080539703,0.0,0.0,0.7396492958068848,-0.1336194276809692
-0.1111402511596679,0.3544662296772003,-0.3673484921455383,-0.8998015522956848,0.3798812925815582,-0.3109501898288727,0.0,0.0,0.4024664163589477,-0.5144281387329102
-0.1152095794677734,0.3343655467033386,-0.3933594226837158,-0.8898187875747681,0.3655013740062713,-0.2875978052616119,0.0,0.0,0.5805306434631348,-0.5380008816719055
-0.1197753921151161,0.3148126602172851,-0.4436878263950348,-0.8657888174057007,0.3519104123115539,-0.271819531917572,0.0,0.0,0.5226478576660156,-0.5260033011436462
-0.1245391815900802,0.2955288887023926,-0.4646297097206116,-0.8542308211326599,0.3395849466323852,-0.2465091198682785,0.0,0.0,0.643510103225708,-0.7836781144142151
-0.1295688599348068,0.2762432992458343,-0.4926365911960602,-0.8547422289848328,0.3287916779518127,-0.2158658057451248,0.0,0.0,0.9361661672592164,-0.8805607557296753
-0.1347475051879882,0.2570010423660278,-0.5093725919723511,-0.8533046245574951,0.3199410736560821,-0.1770114749670028,0.0,0.0,0.74642014503479,-0.888001561164856
-0.140184685587883,0.2377128154039383,-0.5368467569351196,-0.8557544946670532,0.3128016293048858,-0.1427882611751556,0.0,0.0,0.9656863212585448,-0.880346417427063
-0.1460370123386383,0.2192435562610626,-0.5799809098243713,-0.819733738899231,0.3073573708534241,-0.1088849157094955,0.0,0.0,0.5697531700134277,-0.4558984637260437
-0.1520987451076507,0.2014183104038238,-0.6011641025543213,-0.7911826968193054,0.3021767437458038,-0.1036120280623436,0.0,0.0,0.2983746528625488,-0.0487574934959411
-0.1584837883710861,0.183974876999855,-0.6329947710037231,-0.7741308212280273,0.2964820563793182,-0.1138944029808044,0.0,0.0,0.5246782302856445,0.4106662273406982
-0.1651209890842437,0.1664189249277115,-0.6575455069541931,-0.7790204882621765,0.2901111245155334,-0.1274192184209823,0.0,0.0,0.9584898948669434,0.5530914068222046
-0.1719861924648285,0.1497564613819122,-0.6792342066764832,-0.7391232848167419,0.2826160788536072,-0.1499009281396865,0.0,0.0,0.9488513469696044,0.9379708766937256
-0.1791462898254394,0.1335492730140686,-0.7064756751060486,-0.7185043096542358,0.2728267014026642,-0.1957874000072479,0.0,0.0,0.9895431995391846,0.9491395950317384
-0.1865756958723068,0.1180280745029449,-0.7311951518058777,-0.6876863241195679,0.260805070400238,-0.240432932972908,0.0,0.0,0.9437787532806396,0.9785640239715576
-0.1942098587751388,0.1032307967543602,-0.749465823173523,-0.655241847038269,0.2465826123952865,-0.2844487130641937,0.0,0.0,0.9868648052215576,0.9952212572097778
-0.2018775939941406,0.089026391506195,-0.7507903575897217,-0.6287060976028442,0.230338305234909,-0.3248863518238067,0.0,0.0,0.9981380701065063,0.9409375190734864
-0.2095876187086105,0.0749583095312118,-0.7529240846633911,-0.6225222945213318,0.2120427042245865,-0.3659121990203857,0.0,0.0,0.999512791633606,0.5192337036132812
-0.2172963619232177,0.0611568056046962,-0.7518126368522644,-0.6107774972915649,0.1928301900625229,-0.3842509984970093,0.0,1.0,0.977325677871704,0.9999690055847168
-0.2243909388780594,0.0492827743291854,-0.6753815412521362,-0.5242330431938171,0.1563355922698974,-0.7329955697059631,0.0,1.0,0.9972838163375854,0.9928007125854492
-0.2312947809696197,0.0385037288069725,-0.6328977346420288,-0.4739879071712494,0.0999701544642448,-1.1261976957321167,0.0,1.0,0.9962867498397828,0.6395692825317383
-0.2382526397705078,0.0293656922876834,-0.6175738573074341,-0.4027569591999054,0.0236083324998617,-1.5259588956832886,0.0,1.0,0.9803645610809326,-0.3160299062728882
-0.2452214211225509,0.0212450362741947,-0.6174599528312683,-0.3616123497486114,-0.0548613741993904,-1.5694655179977417,0.0,0.0,0.9943366050720216,-0.999437689781189
-0.2520980834960937,0.0140237426385283,-0.6074901819229126,-0.3258771002292633,-0.1343992352485656,-1.5908167362213137,0.0,1.0,0.8029443025588989,-0.8528566956520081
-0.2586847841739654,0.00769061781466,-0.5943411588668823,-0.2886458039283752,-0.1986267417669296,-1.284343957901001,1.0,1.0,0.9463109970092772,0.3829739093780517
-0.264970451593399,0.0026185966562479,-0.5746163129806519,-0.2336737662553787,-0.2531429529190063,-1.0901597738265991,1.0,1.0,0.8632383346557617,0.3858518600463867
-0.2706801295280456,-0.0007230424671433,-0.527146577835083,-0.156770259141922,-0.297993928194046,-0.8968915939331055,1.0,1.0,0.7317227125167847,0.5033128261566162
-0.275974839925766,-0.0029106878209859,-0.4937452673912048,-0.1050234362483024,-0.3350236117839813,-0.7404962778091431,1.0,1.0,0.7344647645950317,0.4246042966842651
-0.2799161970615387,-0.0016621374525129,-0.4052577018737793,0.0541368685662746,-0.3250778317451477,0.1611029952764511,1.0,1.0,0.7344647645950317,0.4246042966842651
