x_pos,y_pos,x_vel,y_vel,angle,ang_vel,leg_1,leg_2,main_booster,lat_booster
-0.0014533043140545,1.4031506776809692,-0.1474360972642898,-0.3453104197978973,0.0018853552173823,0.0371995493769645,0.0,0.0,0.5025364348790065,0.0429568072688444
-0.0027900696732103,1.3955599069595337,-0.1359290331602096,-0.3373699784278869,0.0041123670525848,0.0445449464023113,0.0,0.0,0.3889577492514695,-0.816782569994367
-0.0039962767623364,1.3879987001419067,-0.1248572096228599,-0.3360677063465118,0.0082998126745224,0.0837565585970878,0.0,0.0,-0.888657903137507,0.5149323453154417
-0.0051011084578931,1.37996244430542,-0.1140472292900085,-0.3571860492229461,0.0118344388902187,0.070698894560337,0.0,0.0,0.732760860004031,-0.1924077808762939
-0.0060103414580225,1.372481107711792,-0.0953164249658584,-0.3325511813163757,0.0161853674799203,0.0870265290141105,0.0,0.0,-0.3844485823966757,-0.2649944027184135
-0.0068518640473484,1.3645256757736206,-0.0887239873409271,-0.3536208570003509,0.0207052752375602,0.0904066711664199,0.0,0.0,-0.7638496338200376,-0.9675067631724712
-0.007705402560532,1.3560949563980105,-0.0921144932508468,-0.3748151063919067,0.0273839347064495,0.1335856020450592,0.0,0.0,0.4663325622994776,0.4388521107678581
-0.008376121520996,1.3480573892593384,-0.0746351480484008,-0.3573816418647766,0.0348663739860057,0.149662509560585,0.0,0.0,-0.9955212738511507,-0.8358021921557084
-0.0090489387512207,1.339552402496338,-0.0767267495393753,-0.3782456517219543,0.0442106947302818,0.186903640627861,0.0,0.0,0.2210014247386174,-0.2168999397962219
-0.0096817966550588,1.3313791751861572,-0.0729006677865982,-0.3635572493076324,0.0537269227206707,0.1903421580791473,0.0,0.0,0.123546123454338,-0.5934733911252589
-0.010254574008286,1.3233411312103271,-0.0683564394712448,-0.357680469751358,0.0647065341472625,0.2196123600006103,0.0,0.0,-0.4532148980792616,0.6082990088663921
-0.0107114790007472,1.3148345947265625,-0.0555816069245338,-0.3785187602043152,0.0745145305991172,0.19617760181427,0.0,0.0,0.2103820236817668,-0.7173233928661171
-0.0110941883176565,1.3066320419311523,-0.0499273054301738,-0.3651793897151947,0.0860684216022491,0.2310990542173385,0.0,0.0,0.7354279466744922,-0.9330189235969852
-0.0114408489316701,1.298507571220398,-0.0484850034117698,-0.3619373142719269,0.099786452949047,0.2743859589099884,0.0,0.0,0.2678798503721349,-0.1260217741902957
-0.0116837499663233,1.2908726930618286,-0.0387781634926795,-0.3403644859790802,0.1141929477453231,0.288156121969223,0.0,0.0,0.7944722765403811,0.5242726259067167
-0.0117381094023585,1.283270239830017,-0.0194109324365854,-0.3390094637870788,0.1281079202890396,0.2783247828483581,0.0,0.0,0.0975505283697757,-0.9296621049899424
-0.0117745399475097,1.2760601043701172,-0.0196336731314659,-0.3218982815742492,0.1440570056438446,0.319010853767395,0.0,0.0,0.1409906796071489,0.6459051026613423
-0.0116324424743652,1.2687931060791016,-0.0007911107386462,-0.3245038390159607,0.1590549498796463,0.2999859452247619,0.0,0.0,-0.6162331067438185,-0.8734306631667267
-0.0114940647035837,1.2610501050949097,-0.0027652932330965,-0.3459921479225158,0.175692930817604,0.3327898681163788,0.0,0.0,0.8274914167372767,0.8937436113876327
-0.0114399911835789,1.253753662109375,-0.0093631744384765,-0.3261004984378814,0.1905428767204284,0.2970257401466369,0.0,0.0,-0.5194164731493476,-0.2284220478039346
-0.0113342283293604,1.2459863424301147,-0.0043325298465788,-0.3471931517124176,0.2055733501911163,0.3006365895271301,0.0,0.0,0.6296116990519145,0.5974752344238324
-0.0112083433195948,1.238404393196106,-0.0013065586099401,-0.3389677703380584,0.2196145802736282,0.2808502316474914,0.0,0.0,0.97971698760799,0.8878571880948801
-0.0109406467527151,1.2313838005065918,0.0141842095181345,-0.3139515817165375,0.2323868721723556,0.2554691433906555,0.0,0.0,-0.4168480194983026,0.7391530095456457
-0.0105606075376272,1.22390615940094,0.0269076433032751,-0.3341370820999145,0.2436805069446563,0.2258926928043365,0.0,0.0,0.9703167872864816,-0.4633380256111584
-0.0104837417602539,1.217012643814087,-0.0027888608165085,-0.3081517219543457,0.2543659210205078,0.2137271165847778,0.0,0.0,0.3518011172938498,0.6334025750461474
-0.0105823520570993,1.210435152053833,-0.0190153084695339,-0.2939488589763641,0.2637021541595459,0.186724916100502,0.0,0.0,0.4768621909387744,-0.0321995711798979
-0.01080322265625,1.2043273448944092,-0.0313962623476982,-0.2731655240058899,0.2732296884059906,0.1905511170625686,0.0,0.0,-0.2875016367982574,-0.8047820871563384
-0.0110577587038278,1.197724461555481,-0.0368325673043727,-0.2956276834011078,0.2849085032939911,0.2335763722658157,0.0,0.0,0.8045538638617287,0.719562468003212
-0.0116047859191894,1.1918323040008545,-0.0644511729478836,-0.2638132870197296,0.2949500679969787,0.2008320838212967,0.0,0.0,-0.1046671639225427,0.7410523622280437
-0.0120580671355128,1.1854900121688845,-0.0538176819682121,-0.2836255431175232,0.3037107288837433,0.175213485956192,0.0,0.0,0.392332250450961,-0.9337564654556688
-0.0127423284575343,1.1796822547912598,-0.0788782685995101,-0.2603498101234436,0.3145429790019989,0.21664559841156,0.0,0.0,-0.4908983707427978,0.9933645725250244
-0.0133244516327977,1.1734285354614258,-0.0671110898256301,-0.279894083738327,0.3237830698490143,0.1848017275333404,0.0,0.0,-0.8920481204986572,0.989111065864563
-0.0138106346130371,1.1667436361312866,-0.0559473410248756,-0.2987730205059051,0.3314327895641327,0.1529946476221084,0.0,0.0,-0.8415434956550598,0.9915988445281982
-0.0141957281157374,1.159611463546753,-0.0442588552832603,-0.3183079659938812,0.3374394178390503,0.1201323866844177,0.0,0.0,-0.7266101837158203,0.9702842235565186
-0.0144758224487304,1.1520475149154663,-0.03195171803236,-0.337103009223938,0.3415605127811432,0.0824223309755325,0.0,0.0,-0.9674595594406128,0.9335957765579224
-0.0146563528105616,1.1440551280975342,-0.020249243825674,-0.3557394444942474,0.3438562750816345,0.0459150746464729,0.0,0.0,-0.9866026639938354,0.9120862483978271
-0.0147429462522268,1.1356199979782104,-0.0092859072610735,-0.3750496208667755,0.3445183634757995,0.0132417697459459,0.0,0.0,-0.9581713080406188,0.97072434425354
-0.0147280693054199,1.126759648323059,0.0027449433691799,-0.393489807844162,0.3432008028030395,-0.026351323351264,0.0,0.0,-0.9198811054229736,0.8754520416259766
-0.0146296499297022,1.1174678802490234,0.0125779090449213,-0.412320613861084,0.3403345346450805,-0.057325106114149,0.0,0.0,-0.9868761301040648,0.8323619365692139
-0.0144432066008448,1.1077382564544678,0.0229600276798009,-0.4314118027687073,0.3358162343502044,-0.0903658419847488,0.0,0.0,-0.987393319606781,0.819084644317627
-0.0141862872987985,1.0975686311721802,0.0312263909727334,-0.4507142305374145,0.3300391733646393,-0.1155414432287216,0.0,0.0,-0.99247145652771,0.975242018699646
-0.0138208391144871,1.0869691371917725,0.0442696586251258,-0.4693484604358673,0.3219843804836273,-0.161095917224884,0.0,0.0,-0.9952139854431152,-0.2661459445953369
-0.0134365083649754,1.075896978378296,0.0460765659809112,-0.4904149770736694,0.3140448331832886,-0.1587907373905182,0.0,0.0,-0.9837846159934998,-0.036676287651062
-0.0130346296355128,1.06435227394104,0.0477425530552864,-0.5114811062812805,0.3062138259410858,-0.1566201150417328,0.0,0.0,-0.9255589246749878,-0.5032306909561157
-0.0126558300107717,1.0523101091384888,0.0443009324371814,-0.533872663974762,0.2995843887329101,-0.1325890123844146,0.0,0.0,-0.9402958154678344,0.2989931106567383
-0.0122622493654489,1.0397950410842896,0.0456940494477748,-0.5549368262290955,0.2930488884449005,-0.1307098567485809,0.0,0.0,-0.924272358417511,0.1446750164031982
-0.0118552204221487,1.0268070697784424,0.0469563752412796,-0.5760007500648499,0.2865994870662689,-0.1289874017238617,0.0,0.0,-0.9357075691223145,0.3420181274414062
-0.0114362714812159,1.0133459568023682,0.0480917692184448,-0.5970642566680908,0.2802279889583587,-0.1274290829896927,0.0,0.0,-0.8869463801383972,0.3859453201293945
-0.0110066412016749,0.9994120001792908,0.0491043180227279,-0.6181275248527527,0.2739258706569671,-0.1260422617197036,0.0,0.0,-0.9003300070762634,-0.6049709916114807
-0.0106147769838571,0.9849831461906432,0.0440405122935771,-0.6403869986534119,0.2689551711082458,-0.0994138270616531,0.0,0.0,-0.50803542137146,0.2150881290435791
-0.0102146146818995,0.9700807929039,0.0448200032114982,-0.6614484786987305,0.2640355825424194,-0.098391368985176,0.0,0.0,-0.7447708249092102,0.8986010551452637
-0.0097467424347996,0.9547361135482788,0.053180307149887,-0.680847704410553,0.2575068175792694,-0.1305757015943527,0.0,0.0,-0.6216375827789307,-0.2593441009521484
-0.0092729572206735,0.9389183521270752,0.0537465326488018,-0.701910138130188,0.2510095834732055,-0.1299442201852798,0.0,0.0,-0.1215736865997314,0.2959648370742798
-0.0087944027036428,0.9226272702217102,0.0542132146656513,-0.7229723334312439,0.2445336878299713,-0.1295177787542343,0.0,0.0,-0.3149205446243286,0.2657344341278076
-0.0083121303468942,0.9058631062507628,0.0545854680240154,-0.7440343499183655,0.2380685806274414,-0.1293020993471145,0.0,0.0,-0.4120445251464844,-0.3592626452445984
-0.0078271869570016,0.8886255621910095,0.0548685416579246,-0.7650960087776184,0.2316034585237503,-0.1293025612831115,0.0,0.0,-0.4856712818145752,0.176794171333313
-0.0073404312133789,0.8709146976470947,0.0550677850842475,-0.7861576080322266,0.2251272499561309,-0.1295240074396133,0.0,0.0,0.5418181419372559,0.3736236095428467
-0.0068675996735692,0.8536939024925232,0.0531062185764312,-0.7644900679588318,0.2192243784666061,-0.1180571913719177,0.0,0.0,-0.2823705673217773,0.2170639038085937
-0.0063947676680982,0.8359997868537903,0.0531539991497993,-0.7855506539344788,0.2132877260446548,-0.1187331229448318,0.0,0.0,0.1121504306793212,0.8519127368927002
-0.0060285567305982,0.8186172246932983,0.0442836247384548,-0.7714691758155823,0.2055654674768448,-0.1544452160596847,0.0,0.0,-0.5618239641189575,-0.3308749794960022
-0.0056636808440089,0.8007616996765137,0.0442031100392341,-0.792531430721283,0.1977860778570175,-0.1555877178907394,0.0,0.0,-0.4333035945892334,0.1421678066253662
-0.0053009986877441,0.7824328541755676,0.0440666303038597,-0.8135936856269836,0.1899377554655075,-0.1569665819406509,0.0,0.0,0.1033295392990112,-0.22721529006958
-0.0049253464676439,0.7641629576683044,0.0450807809829711,-0.8110549449920654,0.1823900938034057,-0.1509530246257782,0.0,0.0,-0.0874153971672058,-0.1411811709403991
-0.0045530321076512,0.7454196810722351,0.0448494255542755,-0.8321165442466736,0.1747497022151947,-0.1528080850839615,0.0,0.0,0.4786297082901001,0.1874855756759643
-0.0042400360107421,0.7267347574234009,0.039000179618597,-0.8295479416847229,0.1670369952917099,-0.154254138469696,0.0,0.0,0.3990048170089721,0.9178729057312012
-0.004061222076416,0.7083060145378113,0.0276611857116222,-0.8179910778999329,0.1572618931531906,-0.1955024451017379,0.0,0.0,-0.3081578016281128,-0.0513328313827514
-0.0038870810531079,0.6894044280052185,0.0273316241800785,-0.839055597782135,0.1473585367202758,-0.1980672925710678,0.0,0.0,0.4941674470901489,-0.0540075302124023
-0.0036833763588219,0.670438826084137,0.0300972647964954,-0.8419864773750305,0.1376586109399795,-0.1939980834722519,0.0,0.0,0.8206744194030762,0.1790217161178589
-0.00358457560651,0.652404248714447,0.0196361746639013,-0.8006662130355835,0.1279450058937072,-0.1942721754312515,0.0,0.0,-0.1367414593696594,-0.2396639585494995
-0.0034913062117993,0.6338968276977539,0.0192591659724712,-0.8217306137084961,0.1180686429142952,-0.1975273638963699,0.0,0.0,0.6176464557647705,-0.1108445525169372
-0.0035711289383471,0.6158884167671204,0.0025603105314075,-0.7995768189430237,0.1076024398207664,-0.2093241959810257,0.0,0.0,0.603324294090271,0.1471456289291381
-0.0036918639671057,0.59831303358078,-0.0014748828252777,-0.7804072499275208,0.0970894768834114,-0.2102592438459396,0.0,0.0,-0.1961128711700439,0.0955272912979126
-0.0038183212745934,0.5802648663520813,-0.0018480287399142,-0.8014732003211975,0.0863810554146766,-0.2141685485839843,0.0,0.0,0.6384532451629639,-0.5324555039405823
-0.0039643286727368,0.5626046061515808,-0.0048527652397751,-0.7843700647354126,0.0767352283000946,-0.192916601896286,0.0,0.0,0.5759086608886719,-0.0719449520111084
-0.0041765212081372,0.545025646686554,-0.0111108375713229,-0.7807948589324951,0.0667246133089065,-0.2002123892307281,0.0,0.0,0.5543009042739868,-0.1052331924438476
-0.0043508531525731,0.527438223361969,-0.007384461350739,-0.7812468409538269,0.056784089654684,-0.1988104432821273,0.0,0.0,0.7475967407226562,-0.3482694029808044
-0.0045843124389648,0.5099129676818848,-0.0128929214552044,-0.7785352468490601,0.0464536473155021,-0.2066088914871215,0.0,0.0,0.7477867603302002,-0.8899533152580261
-0.0049422262236475,0.4931748509407043,-0.0268612317740917,-0.7436671853065491,0.0376316420733928,-0.1764401495456695,0.0,0.0,0.4961209297180176,-0.7114157676696777
-0.0053092003799974,0.4770793914794922,-0.0290909800678491,-0.7151817083358765,0.0301175881177186,-0.1502808630466461,0.0,0.0,0.7554194927215576,-0.2673695087432861
-0.0058259009383618,0.461807519197464,-0.0432367622852325,-0.6786031126976013,0.0217900816351175,-0.1665502488613128,0.0,0.0,0.1922029256820678,0.6529026031494141
-0.0064045907929539,0.4464128017425537,-0.0476798489689827,-0.6840907335281372,0.0117416344583034,-0.200969249010086,0.0,0.0,-0.3864696621894836,-0.5667429566383362
-0.007028579711914,0.4305499196052551,-0.0530042760074138,-0.7049735188484192,0.002466543810442,-0.1855017840862274,0.0,0.0,0.8639105558395386,-0.8589255213737488
-0.0078509328886866,0.4151872992515564,-0.0740334317088127,-0.6827914118766785,-0.0056274337694048,-0.1618795394897461,0.0,0.0,0.4441525936126709,-0.5881997346878052
-0.0087710376828908,0.4002436697483063,-0.0845843702554702,-0.66420578956604,-0.0129596097394824,-0.1466434597969055,0.0,0.0,0.3242330551147461,-0.1271865963935852
-0.0096952440217137,0.3856679797172546,-0.0846498757600784,-0.6478986144065857,-0.0206357520073652,-0.1535227596759796,0.0,0.0,0.1078084707260131,-0.4182219505310058
-0.0105541227385401,0.3712024986743927,-0.0780793130397796,-0.6430367827415466,-0.028347598388791,-0.1542370021343231,0.0,0.0,0.918299913406372,-0.7508665919303894
-0.0114318849518895,0.3568537533283233,-0.0812334045767784,-0.6378578543663025,-0.0348106920719146,-0.1292619407176971,0.0,0.0,0.7513829469680786,-0.0993545055389404
-0.0121962549164891,0.3426666557788849,-0.0700288638472557,-0.630699872970581,-0.0411373451352119,-0.1265331655740738,0.0,0.0,0.8573931455612183,-0.8077197670936584
-0.012816047295928,0.3289610743522644,-0.0572555139660835,-0.6092751622200012,-0.0458088256418705,-0.0934298187494278,0.0,0.0,0.848341703414917,-0.8310853242874146
-0.013308716006577,0.3154296576976776,-0.0462153032422065,-0.6014955639839172,-0.0488187782466411,-0.0601992085576057,0.0,0.0,0.8015356063842773,-0.8309207558631897
-0.0138308526948094,0.3026633262634277,-0.0504864677786827,-0.567449152469635,-0.0505221337080001,-0.0340669713914394,0.0,0.0,0.9399547576904296,-0.2078679800033569
-0.0142680164426565,0.290755033493042,-0.0418157801032066,-0.5293217301368713,-0.0523971021175384,-0.0374994874000549,0.0,0.0,-0.2421424388885498,-0.4203821420669555
-0.0147005077451467,0.2783732414245605,-0.0410061106085777,-0.5503818392753601,-0.0546163097023963,-0.0443842783570289,0.0,0.0,0.8889524936676025,-0.7621201872825623
-0.0150423049926757,0.2660636305809021,-0.0334016419947147,-0.547123908996582,-0.0553897880017757,-0.0154694197699427,0.0,0.0,0.8331886529922485,-0.4588748216629028
-0.0154045103117823,0.2541315853595733,-0.0348048582673072,-0.5303670763969421,-0.0567858591675758,-0.0279215965420007,0.0,0.0,0.6725478172302246,-0.6661112308502197
-0.0156688690185546,0.2430384755134582,-0.0262141861021518,-0.493032306432724,-0.0570015832781791,-0.0043145953677594,0.0,0.0,0.4712866544723511,-0.6665019989013672
-0.0159710887819528,0.2322371751070022,-0.0309336688369512,-0.4800324141979217,-0.0562962926924228,0.0141058284789323,0.0,0.0,0.4027413129806518,-0.7330687046051025
-0.0164006240665912,0.2219953685998916,-0.0445873439311981,-0.4551313519477844,-0.0546823069453239,0.0322797819972038,0.0,0.0,-0.4258538484573364,0.2018649578094482
-0.0168193820863962,0.2112800478935241,-0.0431321933865547,-0.4761916100978851,-0.0534360371530056,0.0249254517257213,0.0,0.0,0.0994625091552734,-0.2297091484069824
-0.0172349922358989,0.2008418887853622,-0.0422851666808128,-0.4638923704624176,-0.0527255721390247,0.0142094520851969,0.0,0.0,0.2274814844131469,-0.5775346755981445
-0.0177214629948139,0.1907766610383987,-0.0500154718756675,-0.4472964406013489,-0.0513655617833137,0.0271998979151248,0.0,0.0,0.6913630962371826,0.3888891935348511
-0.0181928630918264,0.1810034811496734,-0.0480183437466621,-0.434331864118576,-0.0505004003643989,0.017303304746747,0.0,0.0,0.2808907032012939,-0.0565091967582702
-0.01871576346457,0.1714621931314468,-0.05235381051898,-0.4240571558475494,-0.050433412194252,0.0013397416332736,0.0,0.0,0.0621359348297119,-0.3069785237312317
-0.0193017963320016,0.1619590073823928,-0.057826928794384,-0.4223881959915161,-0.0511963292956352,-0.0152585981413722,0.0,0.0,-0.2081700563430786,-0.0708711743354797
-0.0198701862245798,0.1519822627305984,-0.0556713230907917,-0.4434482455253601,-0.0523442029953002,-0.0229574106633663,0.0,0.0,0.2944244146347046,0.2795474529266357
-0.020356560125947,0.141961321234703,-0.0473089963197708,-0.4454221129417419,-0.0536570996046066,-0.026257898658514,0.0,0.0,0.5846768617630005,-0.0066717863082885
-0.0206447597593069,0.1325516998767852,-0.0277480985969305,-0.4182420670986175,-0.0547160804271698,-0.0211797766387462,0.0,0.0,0.1955232620239257,-0.4271848201751709
-0.0208975784480571,0.1235110163688659,-0.0237414333969354,-0.4018643200397491,-0.0562433786690235,-0.0305458009243011,0.0,0.0,0.368605375289917,-0.6970941424369812
-0.0210121162235736,0.1150586232542991,-0.0111285159364342,-0.3756740689277649,-0.0565574802458286,-0.006282159127295,0.0,0.0,0.2535334825515747,-0.8988693356513977
-0.0210824962705373,0.1067917644977569,-0.0081724189221858,-0.3673737347126007,-0.0554372482001781,0.0224049314856529,0.0,0.0,0.0955290794372558,-0.8213528394699097
-0.0211684219539165,0.0988763868808746,-0.0109795834869146,-0.351709246635437,-0.0530808269977569,0.047128576785326,0.0,0.0,0.2442764043807983,-0.5591233372688293
-0.0211912151426076,0.0913804396986961,-0.0054804277606308,-0.3330415785312652,-0.0499107502400875,0.0634014680981636,0.0,0.0,0.1615457534790039,-0.6260718703269958
-0.0211574546992778,0.0838899239897728,-0.0007858134922571,-0.3327790200710296,-0.045800894498825,0.0821971744298935,0.0,0.0,0.2918587923049927,-0.5894295573234558
-0.0212252624332904,0.0766619741916656,-0.0115175023674964,-0.3211045563220978,-0.0411245822906494,0.0935261026024818,0.0,0.0,0.2818289995193481,0.2020593881607055
-0.0213473327457904,0.0695653557777404,-0.016060622408986,-0.3153028488159179,-0.0373125746846199,0.0762402266263961,0.0,0.0,0.7315964698791504,0.5842883586883545
-0.0213953014463186,0.0628794282674789,-0.0070111700333654,-0.2971024513244629,-0.0351307578384876,0.0436363965272903,0.0,0.0,0.39607834815979,0.2526469230651855
-0.0213746074587106,0.0563944205641746,0.0001702098961686,-0.2881785035133362,-0.033253576606512,0.0375435575842857,0.0,0.0,0.1704257726669311,-0.0611112713813781
-0.0212209708988666,0.0498131364583969,0.0134382368996739,-0.2924597859382629,-0.0313557013869285,0.0379575490951538,0.0,0.0,0.3543100357055664,-0.2611430883407593
-0.0209370609372854,0.0435948483645916,0.0265131630003452,-0.2763295173645019,-0.0294965617358684,0.0371827892959117,0.0,0.0,0.5165588855743408,-0.4270448088645935
-0.0205744747072458,0.0380120612680912,0.0346897020936012,-0.2480909079313278,-0.0279402192682027,0.0311268176883459,0.0,0.0,-0.0931360125541687,-0.6875734925270081
-0.0202258117496967,0.0319501273334026,0.0324627086520195,-0.2693766057491302,-0.0255716852843761,0.0473705902695655,0.0,0.0,0.4648274183273315,-0.6828331351280212
