x_pos,y_pos,x_vel,y_vel,angle,ang_vel,leg_1,leg_2,main_booster,lat_booster
-0.0015169143443927,1.4029443264007568,-0.1545124500989914,-0.3544893860816955,0.0025257272645831,0.0498793795704841,0.0,0.0,-0.5548775044195453,0.8978907362238127
-0.002950572874397,1.3943071365356443,-0.1446714103221893,-0.3838789165019989,0.0038163452409207,0.0258153714239597,0.0,0.0,0.0708942612174954,-0.6037606181305546
-0.004328632261604,1.3853778839111328,-0.1412437856197357,-0.3968696594238281,0.0072065079584717,0.0678096711635589,0.0,0.0,0.8770158291049757,-0.7769704759912686
-0.0059125898405909,1.376615047454834,-0.1637858748435974,-0.3894933462142944,0.0125392628833651,0.1066650375723838,0.0,0.0,-0.2891885162919096,0.9649675246801396
-0.0073976516723632,1.3671770095825195,-0.1523158252239227,-0.4195094108581543,0.016306810081005,0.0753577202558517,0.0,0.0,-0.565166001878787,0.8091989520959524
-0.0087976455688476,1.3570597171783447,-0.142588660120964,-0.4496918320655823,0.0188616029918193,0.0511004030704498,0.0,0.0,-0.2168658582618496,-0.7733378446949478
-0.0102540012449026,1.346260666847229,-0.150578886270523,-0.4800319373607635,0.0237560793757438,0.0978987142443656,0.0,0.0,-0.3456866725892471,-0.9972296748757415
-0.0117626190185546,1.334782600402832,-0.1580694317817688,-0.5102623701095581,0.0308850817382335,0.1425930857658386,0.0,0.0,0.9442150344165264,-0.7223835317197007
-0.0133672710508108,1.3241064548492432,-0.1698344647884369,-0.4747158885002136,0.0401533469557762,0.1853826940059662,0.0,0.0,0.569978831368579,-0.8353643912225772
-0.0150597570464015,1.3137873411178589,-0.1810351610183715,-0.4589865803718567,0.0518218614161014,0.2333915680646896,0.0,0.0,0.0993084229520575,0.8182846388201719
-0.0166353229433298,1.3033932447433472,-0.1684908866882324,-0.4623727202415466,0.06265290081501,0.2166405022144317,0.0,0.0,-0.2937560697384755,-0.7354944115484611
-0.0182552337646484,1.292314887046814,-0.174980491399765,-0.4929604530334472,0.0755178183317184,0.2573218941688537,0.0,0.0,-0.8783238428207201,-0.716808219359994
-0.0199131965637207,1.2805583477020264,-0.1806354373693466,-0.5233319401741028,0.0902392342686653,0.2944551706314087,0.0,0.0,0.7021455293714567,-0.6112505653774255
-0.0215690620243549,1.2686704397201538,-0.1825801581144333,-0.5294665694236755,0.1071141809225082,0.3375303149223327,0.0,0.0,0.6120379860165346,-0.8174830331304437
-0.0232177730649709,1.2573295831680298,-0.1844657957553863,-0.5055550932884216,0.1266180276870727,0.3901124000549316,0.0,0.0,0.998211184678376,0.9386724908155516
-0.0246868133544921,1.245880126953125,-0.165593534708023,-0.5105623602867126,0.1452754288911819,0.3731817007064819,0.0,0.0,0.7110716395049421,0.9257101274541976
-0.0260492321103811,1.2351319789886477,-0.1540238261222839,-0.4795239865779876,0.1630625277757644,0.355774462223053,0.0,0.0,-0.9918228240247112,-0.6293465612773406
-0.0274426452815532,1.2236950397491455,-0.1587601602077484,-0.5105595588684082,0.1825453490018844,0.3896918296813965,0.0,0.0,-0.6753972716407397,-0.6874449410194402
-0.0288760177791118,1.2115787267684937,-0.1645583808422088,-0.5412471294403076,0.2039071172475814,0.4272741675376892,0.0,0.0,0.053805912082564,0.7854917368901803
-0.0303750038146972,1.1993203163146973,-0.1701577007770538,-0.5477396249771118,0.2243880480527877,0.409656286239624,0.0,0.0,-0.7542678531107823,0.6647326248198635
-0.0318077094852924,1.1864144802093506,-0.1625352054834365,-0.5766403079032898,0.2439678311347961,0.3916308283805847,0.0,0.0,-0.0631952853052972,-0.8526406821616325
-0.0332983955740928,1.172807693481445,-0.170599490404129,-0.6084738969802856,0.2659582495689392,0.4398479461669922,0.0,0.0,0.6160612747860914,0.8151936624319702
-0.0347261428833007,1.159379243850708,-0.1635066270828247,-0.6007241606712341,0.2872489392757416,0.4258519113063812,0.0,0.0,0.7785281545402967,-0.91634799641566
-0.0362316146492958,1.1457579135894775,-0.1737608164548874,-0.6101482510566711,0.3112550377845764,0.4801651537418365,0.0,0.0,-0.2846152212183366,0.737633352821745
-0.0376912131905555,1.1314880847930908,-0.1685618162155151,-0.6392359137535095,0.3348154127597809,0.4712499678134918,0.0,0.0,-0.3488952447946787,-0.943198175968329
-0.0392300598323345,1.116487979888916,-0.1792794167995453,-0.6727914214134216,0.3614706695079803,0.5331048965454102,0.0,0.0,0.536703184170916,0.8329614577907499
-0.0409400947391986,1.1018091440200806,-0.1951983571052551,-0.6587092280387878,0.3871132433414459,0.5128522515296936,0.0,0.0,0.4224225869172597,-0.8333086996335148
-0.0430948249995708,1.087348222732544,-0.2415106296539306,-0.6500340700149536,0.4150107204914093,0.5579502582550049,0.0,0.0,-0.8396314543344867,0.6767485765045418
-0.0452098846435546,1.0722503662109375,-0.2368373870849609,-0.6787105798721313,0.4424884021282196,0.5495539903640747,0.0,0.0,0.8336130403138948,0.7587047306697859
-0.0475218780338764,1.0572373867034912,-0.2553507089614868,-0.6750990748405457,0.4690158367156982,0.5305488705635071,0.0,0.0,0.314675275222442,0.9690407790980752
-0.05005569383502,1.0425302982330322,-0.2759944796562195,-0.6614952683448792,0.4941747188568115,0.5031775236129761,0.0,0.0,-0.0804226259531646,0.9718749619220513
-0.0525265708565712,1.0271964073181152,-0.2684005498886108,-0.6893669962882996,0.5182240009307861,0.4809856414794922,0.0,0.0,-0.2373327254410653,-0.79470767005942
-0.0550585761666297,1.0111479759216309,-0.2764463722705841,-0.7223532199859619,0.544831395149231,0.5321484804153442,0.0,0.0,0.4452596510872946,-0.9665587855651834
-0.0578680038452148,0.99472177028656,-0.306115061044693,-0.7405253052711487,0.5741176009178162,0.5857236981391907,0.0,0.0,0.3745338561508169,0.7504900691256924
-0.0608985908329486,0.9783474206924438,-0.3269543051719665,-0.7383385896682739,0.6024462580680847,0.5665735006332397,0.0,0.0,-0.5659096630066114,0.7476357370814088
-0.063881017267704,0.9613613486289978,-0.320814311504364,-0.7655603885650635,0.6297270655632019,0.5456170439720154,0.0,0.0,-0.7929866670603714,-0.9300523523377132
-0.0669217109680175,0.9436383247375488,-0.3283988237380981,-0.7998428344726562,0.6597341895103455,0.6001430749893188,0.0,0.0,0.9854770553150092,-0.9459721446885904
-0.0705450028181076,0.9263190031051636,-0.3882321715354919,-0.7835484147071838,0.6924740076065063,0.6547960042953491,0.0,0.0,-0.6332936880991553,0.7558621600296821
-0.074131391942501,0.9083936810493468,-0.3831015825271606,-0.8106049299240112,0.7242234945297241,0.6349895596504211,0.0,0.0,-0.8783762563560289,0.8966179835382173
-0.0776655226945877,0.8898751139640808,-0.3760761022567749,-0.8367704153060913,0.7544523477554321,0.6045776605606079,0.0,0.0,0.154666941962883,-0.7059865910983323
-0.081678107380867,0.8711474537849426,-0.4247589111328125,-0.8474953770637512,0.7867308855056763,0.6455701589584351,0.0,0.0,-0.8730289936065674,0.9994492530822754
-0.0856266021728515,0.8518504500389099,-0.4160911440849304,-0.8722342848777771,0.8168290853500366,0.6019644141197205,0.0,0.0,-0.8882337212562561,0.999021053314209
-0.0895107239484787,0.8319754600524902,-0.4075596332550049,-0.8972740173339844,0.8448237180709839,0.5598927736282349,0.0,0.0,-0.8765696287155151,0.9997049570083618
-0.0933360084891319,0.8115300536155701,-0.3996763825416565,-0.921859860420227,0.8706497550010681,0.5165210366249084,0.0,0.0,-0.7771769165992737,0.9999606609344482
-0.0971104651689529,0.7904886603355408,-0.393014520406723,-0.947765290737152,0.8948185443878174,0.4833758771419525,0.0,0.0,-0.79982990026474,0.999908685684204
-0.100828930735588,0.7688660025596619,-0.3857067227363586,-0.9727667570114136,0.916958212852478,0.4427948892116546,0.0,0.0,-0.7616751194000244,0.9985529184341432
-0.104493997991085,0.7466675043106079,-0.3786881566047668,-0.9974021911621094,0.936966836452484,0.400172472000122,0.0,0.0,-0.6913867592811584,0.9993634223937988
-0.1081284508109092,0.7238765954971313,-0.3744076788425445,-1.023046851158142,0.955444872379303,0.3695621788501739,0.0,0.0,-0.6999471783638,0.9991145133972168
-0.1117336302995681,0.7004889845848083,-0.3703498840332031,-1.0488675832748413,0.9724373817443848,0.3398497104644775,0.0,0.0,-0.7656838297843933,0.998199462890625
-0.1152958869934082,0.6765156388282776,-0.3647308647632599,-1.0739212036132812,0.9874934554100036,0.3011215031147003,0.0,0.0,-0.6886205077171326,0.9984464645385742
-0.1188057884573936,0.651983916759491,-0.3578777611255646,-1.0973328351974487,0.9999248385429382,0.2486277818679809,0.0,0.0,-0.7837451100349426,0.9991096258163452
-0.1222818344831466,0.6268654465675354,-0.3533394932746887,-1.1223769187927246,1.0104632377624512,0.2107687890529632,0.0,0.0,-0.7635660171508789,0.998882532119751
-0.1257064789533615,0.6011806726455688,-0.3467300534248352,-1.1461163759231567,1.0184334516525269,0.1594031900167465,0.0,0.0,-0.8693699836730957,0.997972011566162
-0.1290957480669021,0.5749196410179138,-0.3419644236564636,-1.1704717874526978,1.024188756942749,0.1151057332754135,0.0,0.0,-0.8562458753585815,0.9985127449035645
-0.1324328482151031,0.5480989813804626,-0.3352569937705993,-1.1937291622161863,1.0271339416503906,0.0589041896164417,0.0,0.0,-0.7730389833450317,0.9986556768417358
-0.1357336938381195,0.5206786394119263,-0.3306343853473663,-1.219293236732483,1.0281914472579956,0.0211497563868761,0.0,0.0,-0.682511568069458,0.9993270635604858
-0.1389940232038498,0.492695689201355,-0.3251714706420898,-1.2427406311035156,1.026550531387329,-0.0328185409307479,0.0,0.0,-0.6742554306983948,0.9997992515563964
-0.1422080993652343,0.4641541242599487,-0.3190178275108337,-1.2658913135528564,1.0220054388046265,-0.0909028500318527,0.0,0.0,-0.4535740613937378,0.9950627088546752
-0.1453839242458343,0.4350458085536957,-0.3137382864952087,-1.2895408868789673,1.0147700309753418,-0.1447092890739441,0.0,0.0,-0.4097210168838501,0.999305009841919
-0.1485302895307541,0.4053457975387573,-0.3095894455909729,-1.3146382570266724,1.0053915977478027,-0.1875679194927215,0.0,0.0,-0.4835766553878784,0.9990520477294922
-0.1516286879777908,0.3750646710395813,-0.3032578527927398,-1.338991641998291,0.9933636784553528,-0.2405567914247512,0.0,0.0,-0.2946288585662842,0.9964654445648192
-0.1546972244977951,0.344184935092926,-0.2989652752876282,-1.3644710779190063,0.9792280197143556,-0.2827126383781433,0.0,0.0,0.3162506818771362,0.9974277019500732
-0.1580029428005218,0.3132039904594421,-0.321043998003006,-1.367622971534729,0.9625462889671326,-0.3336352109909057,0.0,0.0,0.705568790435791,0.903249979019165
-0.1617772132158279,0.2822037935256958,-0.3662939071655273,-1.367326736450195,0.9435588121414183,-0.3797498345375061,0.0,0.0,0.7693734169006348,0.1184792518615722
-0.1658977568149566,0.2509115040302276,-0.4004970192909241,-1.3803353309631348,0.924356997013092,-0.3840357661247253,0.0,0.0,0.7007330656051636,0.0918120145797729
-0.1705845892429351,0.2193360477685928,-0.4562890529632568,-1.392602801322937,0.904277801513672,-0.4015843272209167,0.0,0.0,0.8475005626678467,-0.3967623710632324
-0.1760129928588867,0.187996044754982,-0.5299978852272034,-1.3821940422058103,0.8839879035949707,-0.4057978987693786,0.0,0.0,0.8646626472473145,-0.2791553139686584
-0.1816425323486328,0.1563969701528549,-0.5498257875442505,-1.3939248323440552,0.8637727499008179,-0.40430349111557,0.0,0.0,0.8806850910186768,-0.3684319257736206
-0.1879956275224685,0.125099167227745,-0.6217062473297119,-1.3805887699127195,0.8433156609535217,-0.4091417789459228,0.0,0.0,0.9225671291351318,-0.2071849107742309
-0.1948380470275879,0.0935477316379547,-0.6696869730949402,-1.391599416732788,0.82193922996521,-0.4275287091732025,0.0,0.0,0.967921018600464,-0.3525179028511047
-0.2023512423038482,0.0620194785296916,-0.7357558012008667,-1.3903183937072754,0.7996170520782471,-0.4464441835880279,0.0,1.0,0.9987620115280152,0.8626431226730347
-0.2102762758731842,0.0312810055911541,-0.7778975963592529,-1.3660051822662354,0.7802041172981262,-0.4059768319129944,0.0,1.0,0.9991023540496826,0.963343381881714
-0.2163139283657074,0.0190574266016483,-0.7231130003929138,-0.797013521194458,0.9969409704208374,3.7656731605529785,0.0,1.0,-0.9896589517593384,-0.3668169975280761
-0.2218603640794754,0.0120284650474786,-0.6565293669700623,-0.5704901218414307,1.273679494857788,5.062826156616211,0.0,1.0,-0.9995766282081604,-0.8992722034454346
-0.2261139452457428,0.008831450715661,-0.1713888347148895,0.1217788681387901,1.457645297050476,0.6563324332237244,0.0,0.0,-0.9995766282081604,-0.8992722034454346
