x_pos,y_pos,x_vel,y_vel,angle,ang_vel,leg_1,leg_2,main_booster,lat_booster
-0.0015357017982751,1.4031015634536743,-0.1558749377727508,-0.3474879562854767,0.0020575469825416,0.0406090728938579,0.0,0.0,-0.6217344231147106,0.7340091204487996
-0.0030241012573242,1.3947800397872925,-0.1495592445135116,-0.3698460757732391,0.0027662999927997,0.0141772907227277,0.0,0.0,0.7820506049811038,-0.8450056603699839
-0.004439353942871,1.3865830898284912,-0.1445430070161819,-0.3643158376216888,0.005749087780714,0.0596613883972168,0.0,0.0,-0.3774139371615008,-0.7093947619165526
-0.0059423446655273,1.3778605461120603,-0.155294269323349,-0.3876977860927582,0.0106925219297409,0.0988775715231895,0.0,0.0,-0.6776444120080098,-0.6414161247746855
-0.0075087547302246,1.3686169385910034,-0.16293366253376,-0.4108806252479553,0.0169169194996356,0.1244992017745971,0.0,0.0,0.9062238022222886,-0.6303165986455811
-0.0089921951293945,1.3597933053970337,-0.1566681265830993,-0.3922761380672455,0.0251463800668716,0.164604514837265,0.0,0.0,0.7393536113300101,-0.7112171756363228
-0.0106020923703908,1.3513563871383667,-0.1709510684013366,-0.375168114900589,0.0350070968270301,0.1972325891256332,0.0,0.0,-0.921680765173178,-0.7837234339762476
-0.0122902868315577,1.342398166656494,-0.1802496016025543,-0.398451417684555,0.0463206879794597,0.2262924164533615,0.0,0.0,-0.9972174647282,0.6469049188071684
-0.0139632225036621,1.332929253578186,-0.1777400970458984,-0.4211902320384979,0.0566615760326385,0.2068370282649994,0.0,0.0,0.7321899490588111,-0.986368592802469
-0.0157947540283203,1.3240797519683838,-0.1958587318658828,-0.3938445150852203,0.0692412853240966,0.2516174018383026,0.0,0.0,0.2270643890137835,0.815596289057853
-0.0175590515136718,1.3153847455978394,-0.1878359615802765,-0.3870088756084442,0.0805580914020538,0.2263570576906204,0.0,0.0,0.2327450148349288,0.6222335780379326
-0.0192889217287302,1.3067699670791626,-0.1835488975048065,-0.3834865689277649,0.0910292416810989,0.20944245159626,0.0,0.0,0.9333720493019098,-0.7073515600592706
-0.0210286136716604,1.298875331878662,-0.1866264939308166,-0.3516856729984283,0.1036040633916854,0.2515194416046142,0.0,0.0,0.8139691828593041,-0.7947933551052258
-0.0228333473205566,1.2910382747650146,-0.1951684653759002,-0.3494001626968384,0.1182178631424903,0.2923025488853454,0.0,0.0,-0.470772397546799,0.7148143327629386
-0.0246171951293945,1.282701015472412,-0.1915653347969055,-0.3716456294059753,0.1313497424125671,0.262661874294281,0.0,0.0,-0.9023117363213482,-0.6139372616342074
-0.026488970965147,1.2738288640975952,-0.2016128599643707,-0.3956518173217773,0.1457625925540924,0.2882830500602722,0.0,0.0,-0.0219684967665985,-0.6013416280203094
-0.0284485816955566,1.2644362449645996,-0.2115743458271026,-0.419048011302948,0.1613685935735702,0.3121485114097595,0.0,0.0,0.2586091784175608,-0.7840206439001507
-0.0304457657039165,1.254955768585205,-0.2172464877367019,-0.4233506619930267,0.1789517253637313,0.351694643497467,0.0,0.0,0.5026162592511867,-0.6050606720864883
-0.0325805656611919,1.246053695678711,-0.2326300889253616,-0.3980768620967865,0.1982236802577972,0.3854742050170898,0.0,0.0,0.3861369843903113,-0.7745821701442772
-0.0349990837275981,1.2372920513153076,-0.2626252770423889,-0.3923297226428985,0.2192001789808273,0.4195676743984222,0.0,0.0,0.8083482641711521,0.8789205412733277
-0.0374369621276855,1.229297399520874,-0.2632355988025665,-0.358323723077774,0.2389343827962875,0.3947198390960693,0.0,0.0,0.8147784421605653,0.9048995989842652
-0.0399645790457725,1.221518874168396,-0.2706077396869659,-0.3487140536308288,0.2571213841438293,0.3637727797031402,0.0,0.0,0.2301329992025251,0.6571741801830717
-0.0425007827579975,1.213870406150818,-0.2704686224460602,-0.3429873287677765,0.2743869721889496,0.3453431725502014,0.0,0.0,-0.7939527694498423,0.9405119539172432
-0.0450161918997764,1.2057263851165771,-0.2664929032325744,-0.3648296296596527,0.289771556854248,0.3077190518379211,0.0,0.0,0.3720447853756261,0.7801334303386636
-0.0478145591914653,1.197803020477295,-0.2932396531105041,-0.3548727631568908,0.3036264479160309,0.2771227657794952,0.0,0.0,0.171579488876731,0.8208579610440209
-0.0508729927241802,1.1900336742401123,-0.3177438974380493,-0.3478352129459381,0.3159557580947876,0.2465864866971969,0.0,0.0,-0.4480230198591879,-0.920267969747009
-0.0540642738342285,1.1817166805267334,-0.3329626619815826,-0.3727281391620636,0.3303596079349518,0.2880764007568359,0.0,0.0,0.5804130360049395,-0.9387936745547892
-0.0577811226248741,1.1739054918289185,-0.3873250782489776,-0.3508221805095672,0.3467161655426025,0.3271311819553375,0.0,0.0,-0.9282649758997288,-0.7601545209231441
-0.0616332069039344,1.1655449867248535,-0.4027135372161865,-0.3759041726589203,0.365157812833786,0.3688328862190246,0.0,0.0,-0.5995065774589532,0.6132068569200806
-0.0655073150992393,1.1566892862319946,-0.4038286805152893,-0.3978680670261383,0.3825724422931671,0.3482921719551086,0.0,0.0,-0.0898920364399116,-0.8820933782541566
-0.0695130378007888,1.1472876071929932,-0.4186782836914062,-0.4228364527225494,0.4019129276275635,0.3868092894554138,0.0,0.0,-0.7508458909769173,-0.8751912102192052
-0.0736564621329307,1.1373189687728882,-0.4343593120574951,-0.4488775134086609,0.4234695136547088,0.4311325550079345,0.0,0.0,0.1426197962080131,-0.8645636581437302
-0.0782212242484092,1.1275172233581543,-0.4780498147010803,-0.4422972500324249,0.4469459056854248,0.4695285856723785,0.0,0.0,-0.9661813202376026,0.9074297897568262
-0.0827958136796951,1.1172335147857666,-0.4773967862129211,-0.4635864794254303,0.4688809514045715,0.4387010037899017,0.0,0.0,0.8369016401705569,-0.9485699356478174
-0.0878046005964279,1.107332468032837,-0.5225178003311157,-0.4475558400154114,0.492958664894104,0.4815543293952942,0.0,0.0,0.0929156801047841,0.6338900289346294
-0.0930670723319053,1.0976256132125854,-0.5465453863143921,-0.4388577044010162,0.5158231258392334,0.4572892189025879,0.0,0.0,-0.2539297232069017,-0.9184443497699178
-0.0984647721052169,1.0873440504074097,-0.5616542100906372,-0.4654528200626373,0.5408236384391785,0.5000120401382446,0.0,0.0,0.995817996470155,-0.7548904044315818
-0.1044183745980262,1.077728271484375,-0.618459939956665,-0.4368705451488495,0.5676180124282837,0.5358871221542358,0.0,0.0,0.2849244523881957,-0.7070303060038324
-0.1108759865164756,1.0683622360229492,-0.6697644591331482,-0.4267593324184418,0.5959407091140747,0.5664541721343994,0.0,0.0,-0.1358886178285745,-0.624739427401156
-0.1174468994140625,1.0584447383880615,-0.6817327737808228,-0.4522415995597839,0.62559974193573,0.5931808948516846,0.0,0.0,0.4935040004573929,0.7129045724559504
-0.1245490089058876,1.048829436302185,-0.7329593300819397,-0.4385973513126373,0.6535688042640686,0.5593814849853516,0.0,0.0,-0.9703094959259032,0.9690687656402588
-0.1316533982753753,1.0387797355651855,-0.7307218313217163,-0.457252949476242,0.6790157556533813,0.5089391469955444,0.0,0.0,-0.9705015420913696,0.9992084503173828
-0.138757899403572,1.028289556503296,-0.7283785343170166,-0.4760779142379761,0.701941192150116,0.4585083127021789,0.0,0.0,-0.998355507850647,0.9811743497848512
-0.1458686888217926,1.0173652172088623,-0.7267367243766785,-0.4945164620876312,0.7223376631736755,0.4079297184944153,0.0,0.0,-0.9898919463157654,0.9764482975006104
-0.1529959738254547,1.005982756614685,-0.7265843152999878,-0.5141677260398865,0.7407094240188599,0.3674363493919372,0.0,0.0,-0.9911677241325378,0.9871654510498048
-0.1601323187351226,0.9941554069519044,-0.7255038619041443,-0.5329927206039429,0.7566899657249451,0.3196110129356384,0.0,0.0,-0.9867989420890808,0.9798858165740968
-0.1672798097133636,0.9818886518478394,-0.7246437072753906,-0.551494836807251,0.7702078223228455,0.2703568935394287,0.0,0.0,-0.9826070666313172,0.9830009937286376
-0.1744619309902191,0.969171404838562,-0.7266335487365723,-0.5707020163536072,0.781836986541748,0.2325828820466995,0.0,0.0,-0.9849323630332948,0.9830869436264038
-0.181680291891098,0.9559999704360962,-0.7288541197776794,-0.5900786519050598,0.7916333675384521,0.1959281861782074,0.0,0.0,-0.9819881916046144,0.9793767929077148
-0.1889202147722244,0.9423810839653016,-0.7293514013290405,-0.6089363098144531,0.7991946935653687,0.151227056980133,0.0,0.0,-0.9845260381698608,0.937950611114502
-0.1961716711521148,0.9283339977264404,-0.7285289168357849,-0.6266459226608276,0.8040070533752441,0.0962456241250038,0.0,0.0,-0.9185296297073364,0.9310603141784668
-0.2034550160169601,0.9138368964195251,-0.7302733659744263,-0.6456539034843445,0.8067611455917358,0.0550823137164115,0.0,0.0,-0.8160159587860107,0.8827120065689087
-0.2107545435428619,0.8988989591598511,-0.7301238775253296,-0.6640295386314392,0.8070050477981567,0.0048780008219182,0.0,0.0,-0.918022632598877,0.8871574401855469
-0.2180848568677902,0.8835160732269287,-0.731652021408081,-0.6827231645584106,0.8050405979156494,-0.0392894223332405,0.0,0.0,-0.8829483985900879,0.8925822973251343
-0.2254285812377929,0.8676987886428833,-0.7310873866081238,-0.7007197737693787,0.8003726005554199,-0.0933606773614883,0.0,0.0,-0.8997306823730469,0.7524151802062988
-0.2328113615512848,0.8514072299003601,-0.733822226524353,-0.7210308313369751,0.7940737009048462,-0.1259779036045074,0.0,0.0,-0.7372702360153198,0.4796160459518432
-0.2402688562870025,0.8345910310745239,-0.74111008644104,-0.7442556619644165,0.787553071975708,-0.1304120421409607,0.0,0.0,-0.8472196459770203,0.7859835624694824
-0.2477505654096603,0.8173313140869141,-0.7417576909065247,-0.76283198595047,0.7786136269569397,-0.178789347410202,0.0,0.0,-0.7842893004417419,0.3984203338623047
-0.255307525396347,0.7995473742485046,-0.7490435242652893,-0.786057710647583,0.7694231867790222,-0.1838089972734451,0.0,0.0,-0.4031956195831299,0.2774468660354614
-0.262939989566803,0.7812389731407166,-0.756328284740448,-0.8092831969261169,0.7599676847457886,-0.1891097426414489,0.0,0.0,-0.6506413817405701,0.3772631883621216
-0.2706479132175445,0.7624059915542603,-0.7636111974716187,-0.8325083255767822,0.75023353099823,-0.1946834772825241,0.0,0.0,-0.6247084140777588,0.3781348466873169
-0.2784315049648285,0.7430486083030701,-0.7708911299705505,-0.8557332754135132,0.7402074337005615,-0.2005217373371124,0.0,0.0,-0.7254790663719177,0.3180838823318481
-0.2862908244132995,0.7231666445732117,-0.7781673669815063,-0.8789580464363098,0.7298766374588013,-0.2066156417131424,0.0,0.0,-0.742682933807373,0.2254990339279174
-0.2942259311676025,0.7027601003646851,-0.7854387760162354,-0.9021828174591064,0.7192288637161255,-0.2129561007022857,0.0,0.0,-0.7590600252151489,0.1140720844268798
-0.302236944437027,0.6818291544914246,-0.7927044630050659,-0.9254075884819032,0.7082521915435791,-0.219533771276474,0.0,0.0,-0.8653270602226257,0.1070673465728759
-0.3103240430355072,0.6603736281394958,-0.7999634742736816,-0.9486324191093444,0.6969352960586548,-0.2263391315937042,0.0,0.0,-0.945186734199524,-0.3186586499214172
-0.3184872567653656,0.6383936405181885,-0.8072148561477661,-0.971857488155365,0.6852671504020691,-0.2333626300096511,0.0,0.0,-0.9222410321235656,-0.3765938282012939
-0.3267265856266022,0.6158892512321472,-0.8144572377204895,-0.9950829744338988,0.6732375025749207,-0.2405946999788284,0.0,0.0,-0.9630256295204164,-0.6152210235595703
-0.335080623626709,0.592823326587677,-0.8265577554702759,-1.0204923152923584,0.662112295627594,-0.222504585981369,0.0,0.0,-0.9548263549804688,-0.7268355488777161
-0.3435606062412262,0.5691702961921692,-0.8402503728866577,-1.0472569465637207,0.6524498462677002,-0.1932486444711685,0.0,0.0,-0.9722697734832764,-0.7672176957130432
-0.3521720767021179,0.5449321866035461,-0.8545873761177063,-1.0739279985427856,0.6443213820457458,-0.1625696271657943,0.0,0.0,-0.9675784707069396,-0.8146480321884155
-0.3609077036380768,0.5201160311698914,-0.8680035471916199,-1.1001745462417605,0.6374751925468445,-0.1369243562221527,0.0,0.0,-0.978217363357544,-0.8582292795181274
-0.3697876036167145,0.4947097301483154,-0.8839061856269836,-1.1271635293960571,0.6324707865715027,-0.100087746977806,0.0,0.0,-0.9831913709640504,-0.8224348425865173
-0.3787878453731537,0.4687279760837555,-0.8968791961669922,-1.1532127857208252,0.6286197900772095,-0.0770203322172164,0.0,0.0,-0.9881762266159058,-0.8810209035873413
-0.3879188597202301,0.4421510696411133,-0.911259949207306,-1.1803066730499268,0.6263771057128906,-0.0448535643517971,0.0,0.0,-0.9944221377372742,-0.6889110803604126
-0.3971602916717529,0.4150005578994751,-0.9230454564094543,-1.2061614990234375,0.6250426769256592,-0.0266884863376617,0.0,0.0,-0.9953858256340028,-0.7764047384262085
-0.4065247476100921,0.3872620761394501,-0.9364603757858276,-1.232828140258789,0.6250568628311157,0.0002833344624377,0.0,0.0,-0.9946974515914916,-0.6624453663825989
-0.4160085320472717,0.3589563369750976,-0.9492112994194032,-1.25843346118927,0.626073956489563,0.0203421469777822,0.0,0.0,-0.9931765794754028,-0.2498499155044555
-0.4255667328834533,0.3301243782043457,-0.9562841653823853,-1.2816473245620728,0.626641571521759,0.0113526759669184,0.0,0.0,-0.9951754212379456,-0.2195422649383545
-0.4351990818977356,0.3007659912109375,-0.9633294343948364,-1.3048608303070068,0.6267538666725159,0.0022463253699243,0.0,0.0,-0.9944011569023132,0.2015105485916137
-0.4449053704738617,0.270881175994873,-0.9703445434570312,-1.3280739784240725,0.6264053583145142,-0.0069698342122137,0.0,0.0,-0.9953938126564026,0.1071382761001586
-0.4546853005886078,0.2404699921607971,-0.9773265719413756,-1.351287007331848,0.6255909204483032,-0.0162886288017034,0.0,0.0,-0.9924264550209044,-0.1393497586250305
-0.4645386338233948,0.2095323204994201,-0.984272301197052,-1.3744996786117554,0.6243057250976562,-0.0257036983966827,0.0,1.0,0.4797127246856689,0.9999954700469972
-0.4681665897369385,0.2062053829431533,-0.4793108105659485,-0.2640875279903412,0.715949296951294,1.6903197765350342,0.0,1.0,-0.9928814172744752,0.7216157913208008
-0.4707874357700348,0.2103982120752334,-0.3681997656822204,0.0780868902802467,0.8434876799583435,2.456960201263428,0.0,1.0,-0.9996248483657836,-0.706877589225769
-0.4736882150173187,0.213473305106163,-0.3709130883216858,0.0498941168189048,0.9689853191375732,2.4787826538085938,0.0,1.0,-0.999861180782318,-0.8285368084907532
-0.4767546653747558,0.2156740725040435,-0.3732215464115143,0.0213069729506969,1.0949138402938845,2.51414155960083,0.0,0.0,-0.9997696280479432,0.590341329574585
-0.4799993932247162,0.2174315303564071,-0.3755002617835998,0.0024233062285929,1.2179696559906006,2.4634878635406494,0.0,0.0,-0.9996639490127563,0.2001285552978515
-0.4834318161010742,0.2187315821647644,-0.3798562884330749,-0.0214478559792041,1.3408023118972778,2.4585964679718018,0.0,0.0,-0.9997424483299256,0.6209685802459717
-0.4870449602603912,0.2196277230978012,-0.3827827572822571,-0.0401067808270454,1.4611049890518188,2.4078688621521,0.0,0.0,-0.9995562434196472,0.841498851776123
-0.4908482134342193,0.2201066613197326,-0.3872334063053131,-0.0579608120024204,1.578679442405701,2.353206157684326,0.0,0.0,-0.999144732952118,0.8199201822280884
-0.4948427081108093,0.2201488614082336,-0.3926826119422912,-0.0754717215895652,1.6934504508972168,2.297038555145264,0.0,0.0,-0.9985718131065368,0.6135444641113281
-0.4990246295928955,0.2197206318378448,-0.3987384438514709,-0.0937060862779617,1.8057297468185425,2.2471089363098145,0.0,0.0,-0.9983503818511964,0.9208271503448486
-0.5033890008926392,0.218842938542366,-0.4056436419486999,-0.1096371486783027,1.9146904945373533,2.1806318759918213,0.0,0.0,-0.9983602166175842,0.9153127670288086
-0.5079325437545776,0.2174719423055648,-0.4133921265602112,-0.1272598057985305,2.020961284637451,2.126714944839477,0.0,0.0,-0.9975679516792296,0.9089808464050292
-0.5126662254333496,0.2156081944704055,-0.4236971437931061,-0.1440730839967727,2.124105930328369,2.0640978813171387,0.0,0.0,-0.9968228340148926,0.6821572780609131
-0.5175648331642151,0.2132053673267364,-0.4323306977748871,-0.1631103456020355,2.225058555603028,2.020193576812744,0.0,0.0,-0.9959449768066406,0.8872709274291992
-0.5226297378540039,0.2102516442537307,-0.4422702193260193,-0.1823150962591171,2.323754072189331,1.9749784469604488,0.0,0.0,-0.9964956045150756,0.8816993236541748
-0.5278686285018921,0.2067650705575943,-0.4546280801296234,-0.2002127021551132,2.4195289611816406,1.916501760482788,0.0,0.0,-0.994245946407318,0.8436548709869385
-0.5332634449005127,0.2027152925729751,-0.4659312665462494,-0.2196775078773498,2.5129716396331787,1.8698055744171145,0.0,0.0,-0.993563175201416,0.5611162185668945
-0.5387896299362183,0.1980757862329483,-0.4752736687660217,-0.2405522018671035,2.604733467102051,1.8361446857452397,0.0,0.0,-0.991509199142456,0.7148568630218506
-0.5444511771202087,0.192858412861824,-0.4863151609897613,-0.2607384920120239,2.694397211074829,1.79413640499115,0.0,0.0,-0.9895704984664916,0.1779354810714721
-0.5501944422721863,0.1870191395282745,-0.4915390908718109,-0.283342033624649,2.7834246158599854,1.7813924551010132,0.0,0.0,-0.9868563413619996,-0.1709933280944824
-0.5560115575790405,0.180556446313858,-0.4966945052146911,-0.3059312701225281,2.8718156814575195,1.7686386108398438,0.0,0.0,-0.9860956072807312,-0.498712420463562
-0.5588395595550537,0.182204321026802,-0.287381112575531,0.0606313571333885,2.8723063468933105,0.0743290856480598,0.0,0.0,-0.9860956072807312,-0.498712420463562
