x_pos,y_pos,x_vel,y_vel,angle,ang_vel,leg_1,leg_2,main_booster,lat_booster
-0.0015870094066485,1.4029442071914673,-0.1607048213481903,-0.3544810116291046,0.0018003883305937,0.0355170480906963,0.0,0.0,-0.356497049331665,0.9865491390228271
-0.0031537055037915,1.394306778907776,-0.1562917530536651,-0.3838848769664764,0.0014229328371584,-0.0075491429306566,0.0,0.0,-0.091235339641571,0.6440451145172119
-0.0047224997542798,1.3849841356277466,-0.1549085080623626,-0.4143391847610473,-0.000523529946804,-0.0389325432479381,0.0,0.0,0.4199047088623047,0.5281565189361572
-0.0064239501953125,1.3756237030029297,-0.1668252497911453,-0.4160205125808716,-0.0038133540656417,-0.0658029168844223,0.0,0.0,0.7406923770904541,0.6771637201309204
-0.0079862596467137,1.3666149377822876,-0.1519011557102203,-0.4004121720790863,-0.0080916760489344,-0.0855740532279014,0.0,0.0,0.6050360202789307,-0.0012270808219909
-0.0094748493283987,1.357715725898743,-0.145166590809822,-0.3955441117286682,-0.0117461085319519,-0.0730954855680465,0.0,0.0,0.492438793182373,0.2950723171234131
-0.0110417362302541,1.3489192724227903,-0.1528812795877456,-0.3909872472286224,-0.0155117763206362,-0.075320266187191,0.0,0.0,0.112979769706726,0.449550986289978
-0.0125651359558105,1.3400940895080566,-0.1490090787410736,-0.3922683000564575,-0.0188105050474405,-0.065980352461338,0.0,0.0,0.5968668460845947,0.4305481910705566
-0.0141489980742335,1.3318023681640625,-0.154981181025505,-0.3685749173164367,-0.0221780650317668,-0.0673572346568107,0.0,0.0,0.2632365226745605,-0.1025075912475586
-0.015785027295351,1.3236631155014038,-0.1601842045783996,-0.3617946803569793,-0.0255608037114143,-0.0676608681678772,0.0,0.0,-0.3739086389541626,0.7889062166213989
-0.0174138061702251,1.314841866493225,-0.157643049955368,-0.392154723405838,-0.0307426135987043,-0.1036455035209655,0.0,0.0,-0.0483714342117309,0.5373830795288086
-0.0190589912235736,1.30533766746521,-0.1580640077590942,-0.4225548803806305,-0.0371256247162818,-0.1276715248823166,0.0,0.0,-0.0851112604141235,0.3406577110290527
-0.0207676887512207,1.2951538562774658,-0.1643996089696884,-0.4527885317802429,-0.0435194447636604,-0.1278883814811706,0.0,0.0,-0.2603485584259033,0.8391492366790771
-0.0224660877138376,1.2842779159545898,-0.1614966988563537,-0.4836379885673523,-0.0517807938158512,-0.1652422249317169,0.0,0.0,0.1219674348831176,0.9405742883682252
-0.0240110401064157,1.2735565900802612,-0.144273966550827,-0.4768804311752319,-0.0619017407298088,-0.2024374902248382,0.0,0.0,-0.3167668581008911,0.530914306640625
-0.0255694389343261,1.2621458768844604,-0.1443658769130706,-0.5076590776443481,-0.0732789561152458,-0.2275649309158325,0.0,0.0,0.3531578779220581,0.374713659286499
-0.0270263664424419,1.2510923147201538,-0.1347481459379196,-0.4918380677700043,-0.084134317934513,-0.2171268165111541,0.0,0.0,-0.6301170587539673,0.0466504096984863
-0.0285453796386718,1.2393600940704346,-0.1409580707550048,-0.5220873951911926,-0.0949982851743698,-0.217298537492752,0.0,0.0,-0.2788997888565063,-0.0476493835449218
-0.0301260948181152,1.2269490957260132,-0.1471333354711532,-0.5523262023925781,-0.1058694124221801,-0.2174421846866607,0.0,0.0,0.0223149061203002,0.0597119331359863
-0.03178071975708,1.2143899202346802,-0.154299646615982,-0.5590160489082336,-0.1169806718826294,-0.2222449779510498,0.0,0.0,-0.3348679542541504,0.3888159990310669
-0.0334962829947471,1.201151967048645,-0.1603984534740448,-0.5892623066902161,-0.1280979663133621,-0.2223657369613647,0.0,0.0,0.4498364925384521,-0.6561442613601685
-0.0352633483707904,1.187817096710205,-0.1668795794248581,-0.5935336947441101,-0.1378911286592483,-0.1958809196949005,0.0,0.0,0.621290922164917,-0.0855723619461059
-0.0368907935917377,1.1745706796646118,-0.1535188853740692,-0.5896081924438477,-0.1470979005098343,-0.1841521114110946,0.0,0.0,0.8911527395248413,-0.9228021502494812
-0.0385109893977642,1.1611613035202026,-0.1548075079917907,-0.5966931581497192,-0.154313176870346,-0.1443186700344085,0.0,0.0,0.8823535442352295,-0.7718719840049744
-0.0403117164969444,1.1482160091400146,-0.174016922712326,-0.5759826898574829,-0.1603744029998779,-0.1212351098656654,0.0,0.0,0.9494147300720216,0.1855072975158691
-0.042210292071104,1.1358413696289062,-0.1830023378133773,-0.5507428050041199,-0.1672355085611343,-0.1372220814228058,0.0,0.0,0.8645988702774048,0.2151707410812378
-0.0440260879695415,1.1239986419677734,-0.1747396886348724,-0.5271254777908325,-0.1740816831588745,-0.1369234174489975,0.0,0.0,0.6674762964248657,-0.0343434810638427
-0.0458846092224121,1.1127413511276243,-0.1784096658229828,-0.5012155771255493,-0.1815427988767624,-0.149223044514656,0.0,0.0,0.2305905818939209,0.5725356340408325
-0.0477555282413959,1.101677417755127,-0.1783043593168258,-0.4928315579891205,-0.1903547942638397,-0.1762398183345794,0.0,0.0,-0.5859226584434509,0.716759204864502
-0.04962844774127,1.089916467666626,-0.1771447360515594,-0.5240510702133179,-0.2005618065595626,-0.2041406631469726,0.0,0.0,0.7792118787765503,0.3410307168960571
-0.0513543114066123,1.0788109302520752,-0.1625571995973587,-0.4949784278869629,-0.2106800973415374,-0.2023662030696869,0.0,0.0,-0.4890420436859131,-0.6392004489898682
-0.0531900413334369,1.0670404434204102,-0.1749810725450515,-0.5243781805038452,-0.2193536460399627,-0.1734710931777954,0.0,0.0,0.4775924682617187,-0.1902759671211242
-0.0549942031502723,1.0556646585464478,-0.1715028434991836,-0.5069419741630554,-0.228373035788536,-0.1803881824016571,0.0,0.0,-0.5825681686401367,-0.2181097269058227
-0.0568496696650981,1.0436097383499146,-0.1766433417797088,-0.5371772050857544,-0.2373965978622436,-0.1804718226194381,0.0,0.0,0.7557034492492676,-0.2738525867462158
-0.0585816390812397,1.031841516494751,-0.1643829345703125,-0.5244811773300171,-0.2463443428277969,-0.178955540060997,0.0,0.0,-0.908520758152008,-0.797465980052948
-0.0604203231632709,1.0194220542907717,-0.1766242086887359,-0.5532098412513733,-0.2537290453910827,-0.1476942598819732,0.0,0.0,0.9328396320343018,-0.1486161351203918
-0.0622024536132812,1.007108211517334,-0.1708320081233978,-0.5485794544219971,-0.2612598836421966,-0.1506166756153106,0.0,0.0,-0.0487775802612304,-0.476148247718811
-0.0640303641557693,0.9941149353981018,-0.1754311323165893,-0.5788127183914185,-0.2687948048114776,-0.1506984978914261,0.0,0.0,0.1477882862091064,-0.8012425899505615
-0.0658368095755577,0.9813348650932312,-0.1748551130294799,-0.569078266620636,-0.274723082780838,-0.1185653060674667,0.0,0.0,-0.7428736686706543,-0.7252601981163025
-0.067738153040409,0.9678980708122252,-0.1857204139232635,-0.5980284214019775,-0.2792534232139587,-0.090607114136219,0.0,0.0,0.862905740737915,-0.5314522981643677
-0.0696005821228027,0.955121636390686,-0.1825362890958786,-0.5685540437698364,-0.2830716073513031,-0.076363518834114,0.0,0.0,0.5210504531860352,-0.8275795578956604
-0.0713085159659385,0.942331850528717,-0.1688906550407409,-0.5688115358352661,-0.285035103559494,-0.0392696373164653,0.0,0.0,0.5490236282348633,-0.7311826944351196
-0.072931483387947,0.9292592406272888,-0.16199292242527,-0.5810595750808716,-0.2853448390960693,-0.0061945808120071,0.0,0.0,0.1766350269317627,-0.5722159743309021
-0.0744519233703613,0.9160334467887878,-0.1530012786388397,-0.5876284241676331,-0.2843632996082306,0.0196309257298707,0.0,0.0,-0.4489768743515014,-0.663135290145874
-0.0760602951049804,0.9021434783935548,-0.1631742417812347,-0.616877555847168,-0.2819575071334839,0.0481157787144184,0.0,0.0,-0.708895742893219,-0.8446993827819824
-0.0777598395943641,0.8875910639762878,-0.1738239377737045,-0.6460368037223816,-0.277982085943222,0.0795084312558174,0.0,0.0,-0.7730211615562439,-0.6752511858940125
-0.0795340538024902,0.8723748326301575,-0.1824922114610672,-0.6753218770027161,-0.2727851271629333,0.1039386242628097,0.0,0.0,0.024021029472351,-0.0580282807350158
-0.0812617316842079,0.8572533130645752,-0.1775137186050415,-0.6711816787719727,-0.267916589975357,0.0973709523677825,0.0,0.0,-0.8765363693237305,-0.5536976456642151
-0.0830626487731933,0.8414782285690308,-0.1861894279718399,-0.7000181674957275,-0.2616816461086273,0.1246989145874977,0.0,0.0,-0.3073102831840515,0.3093986511230469
-0.0848836898803711,0.8250234723091125,-0.1882059127092361,-0.7302500605583191,-0.2554538547992706,0.124555692076683,0.0,0.0,0.4586825370788574,0.1592593193054199
-0.0864721313118934,0.8085728883743286,-0.1655190885066986,-0.7299941778182983,-0.2486480176448822,0.1361167877912521,0.0,0.0,0.2467838525772094,0.5424473285675049
-0.0879421234130859,0.7922561764717102,-0.1525111347436905,-0.7242677211761475,-0.2430397421121597,0.1121654883027076,0.0,0.0,0.161803126335144,0.1800370216369629
-0.0892737358808517,0.7756869792938232,-0.139019027352333,-0.7354453802108765,-0.237085074186325,0.1190932989120483,0.0,0.0,0.0864293575286865,-0.0704585313796997
-0.0904885306954383,0.7592024803161621,-0.1273411214351654,-0.7317165732383728,-0.2311307042837143,0.1190870851278305,0.0,0.0,-0.0837661027908325,0.520343542098999
-0.0916589722037315,0.7420186400413513,-0.121621549129486,-0.7630177140235901,-0.2264975011348724,0.0926640778779983,0.0,0.0,0.3661637306213379,-0.0477102398872375
-0.0928211212158203,0.7247509360313416,-0.1204186454415321,-0.7668086290359497,-0.2222415804862976,0.0851185768842697,0.0,0.0,0.5064592361450195,0.3281435966491699
-0.0937384590506553,0.7078384160995483,-0.0963170751929283,-0.7509837746620178,-0.217601865530014,0.0927942395210266,0.0,0.0,-0.0250730514526367,0.1744728088378906
-0.0946515053510665,0.6902461051940918,-0.0958830490708351,-0.7812143564224243,-0.2129758894443512,0.0925192683935165,0.0,0.0,0.6091355085372925,0.1965305805206298
-0.0953164100646972,0.6731266379356384,-0.071392647922039,-0.7601702213287354,-0.2080280780792236,0.0989558547735214,0.0,0.0,0.7598717212677002,-0.2343829870223999
-0.0958771705627441,0.6565808653831482,-0.0605865716934204,-0.734737753868103,-0.2034714370965957,0.0911329016089439,0.0,0.0,0.3730217218399048,-0.1386197805404663
-0.096320055425167,0.6397945284843445,-0.0489908531308174,-0.7454212307929993,-0.1987349390983581,0.094729945063591,0.0,0.0,0.4107507467269897,-0.695060133934021
-0.0967737212777137,0.6232571005821228,-0.0512876212596893,-0.7342169284820557,-0.1927811652421951,0.1190754324197769,0.0,0.0,0.2632824182510376,-0.499962568283081
-0.0970386490225792,0.6065950989723206,-0.0328363515436649,-0.7397237420082092,-0.1864096969366073,0.1274295151233673,0.0,0.0,0.1834108829498291,-0.1640403270721435
-0.0971823707222938,0.5898959636688232,-0.0207685679197311,-0.7413920760154724,-0.179980382323265,0.1285863071680069,0.0,0.0,0.7639718055725098,-0.1243494749069213
-0.0972147956490516,0.573146641254425,-0.0096712987869977,-0.7436479330062866,-0.1735338121652603,0.1289315074682235,0.0,0.0,0.2361183166503906,0.0619978904724121
-0.0972327217459678,0.5563951134681702,-0.00778349628672,-0.7438270449638367,-0.1675381511449813,0.1199135929346084,0.0,0.0,0.4386124610900879,-0.6818274855613708
-0.0971262007951736,0.5400823354721069,0.0032852832227945,-0.7241983413696289,-0.1601577252149582,0.1476083248853683,0.0,0.0,0.5051771402359009,-0.1113272309303283
-0.0968682318925857,0.523466944694519,0.0180820189416408,-0.7376548051834106,-0.152455985546112,0.1540346890687942,0.0,0.0,0.7675133943557739,0.1919794082641601
-0.0964055061340332,0.5075196027755737,0.038456417620182,-0.7079876065254211,-0.1446461379528045,0.1561967730522155,0.0,0.0,0.5080423355102539,-0.0953472852706909
-0.0959252342581749,0.4915529489517212,0.0406171195209026,-0.7089308500289917,-0.1372603178024292,0.1477166414260864,0.0,0.0,0.7192339897155762,-0.1664360165596008
-0.0954006165266037,0.47597336769104,0.0455170534551143,-0.6918007731437683,-0.1303441524505615,0.1383232176303863,0.0,0.0,0.7995691299438477,-0.5482367277145386
-0.0947504043579101,0.46072518825531,0.0568958595395088,-0.6770082116127014,-0.1222620382905006,0.1616424173116684,0.0,0.0,0.2085421085357666,-0.2125521898269653
-0.0940712913870811,0.4457347393035888,0.060251485556364,-0.6656345129013062,-0.1146453469991684,0.1523339599370956,0.0,0.0,0.7530999183654785,-0.2592669129371643
-0.093195341527462,0.4309647679328918,0.0795903950929641,-0.6558524966239929,-0.106698453426361,0.1589379757642746,0.0,0.0,0.7438696622848511,0.1710684299468994
-0.0922596901655197,0.4161368012428283,0.0857582464814186,-0.658482015132904,-0.0989474803209304,0.1550193130970001,0.0,0.0,0.8863077163696289,-0.1577889919281005
-0.0911570563912391,0.4011720716953277,0.1021202802658081,-0.6645815968513489,-0.0908695384860038,0.1615588068962097,0.0,0.0,0.7829052209854126,-0.2274507880210876
-0.0900002494454383,0.3860799074172973,0.107714831829071,-0.670300304889679,-0.0829823538661003,0.157743901014328,0.0,0.0,0.7671401500701904,-0.2289019227027893
-0.0887256637215614,0.3715777993202209,0.119571067392826,-0.6441214680671692,-0.0751703828573226,0.1562397181987762,0.0,0.0,0.8498995304107666,-0.5402936935424805
-0.0872717872262001,0.3577622771263122,0.1361659914255142,-0.6135883331298828,-0.0660440921783447,0.1825257241725921,0.0,0.0,0.4322689771652221,0.0613948106765747
-0.0858088508248329,0.3443377912044525,0.1375621557235717,-0.5962816476821899,-0.0574032068252563,0.1728177368640899,0.0,0.0,0.4767212867736816,-0.2574092149734497
-0.0843835845589637,0.3306874930858612,0.1343612819910049,-0.6063902974128723,-0.0493334122002124,0.1613958030939102,0.0,0.0,0.7451956272125244,-0.2008508443832397
-0.0828126892447471,0.3176058232784271,0.1487683206796646,-0.5811575055122375,-0.0411033928394317,0.1646002978086471,0.0,0.0,0.5439062118530273,0.4136148691177368
-0.0812511444091796,0.3046567440032959,0.1483083963394165,-0.5753209590911865,-0.0333490371704101,0.1550871431827545,0.0,0.0,0.456477403640747,-0.0537421107292175
-0.0796537399291992,0.2919265031814575,0.1521530896425247,-0.5656381249427795,-0.0258566252887249,0.1498479843139648,0.0,0.0,0.5225555896759033,0.0359797477722168
-0.0779855698347091,0.2794836759567261,0.1593250781297683,-0.5529060959815979,-0.0184543635696172,0.148045152425766,0.0,0.0,0.3062523603439331,-0.4596173763275146
-0.0761737823486328,0.2670494019985199,0.1733923405408859,-0.5525588393211365,-0.0107731306925416,0.1536250412464141,0.0,0.0,0.7496087551116943,-0.230692446231842
-0.0742661505937576,0.2544790506362915,0.182908833026886,-0.5586443543434143,-0.0030164190102368,0.1551339477300644,0.0,0.0,0.6979124546051025,0.1674637794494629
-0.0721941962838172,0.2418497204780578,0.1989336013793945,-0.5613094568252563,0.0051397602073848,0.1631235778331756,0.0,0.0,0.9039802551269532,-0.764025092124939
-0.0699333176016807,0.2295291572809219,0.2159105092287063,-0.5476444959640503,0.0151859782636165,0.2009243220090866,0.0,0.0,0.826552152633667,-0.8157697319984436
-0.0675053596496582,0.2171801924705505,0.2306722849607467,-0.5490086674690247,0.027148937806487,0.2392594516277313,0.0,0.0,0.7988221645355225,-0.3971825838088989
-0.0650361999869346,0.2053791135549545,0.2348813116550445,-0.524748682975769,0.0390392988920211,0.2378071993589401,0.0,0.0,0.7886393070220947,-0.356845498085022
-0.0624954216182231,0.1941327154636383,0.2419415712356567,-0.5001991391181946,0.0510396361351013,0.2400067299604416,0.0,0.0,0.8965924978256226,-0.5597178936004639
-0.0598152168095111,0.1833658963441848,0.2543621361255646,-0.4790477156639099,0.0645384490489959,0.2699760794639587,0.0,0.0,0.7762506008148193,-0.6407579183578491
-0.0570200905203819,0.1724465936422348,0.2643305659294128,-0.4860249161720276,0.0795555114746093,0.3003411889076233,0.0,0.0,0.832319974899292,-0.5007448196411133
-0.0542993545532226,0.1616812050342559,0.2561453282833099,-0.4793833792209625,0.0953400209546089,0.3156904578208923,0.0,0.0,0.957300901412964,0.053411841392517
-0.0515041351318359,0.1517796367406845,0.263193666934967,-0.4411918520927429,0.1115395277738571,0.3239901661872864,0.0,0.0,0.8438160419464111,-0.2455189228057861
-0.0487332344055175,0.1421437114477157,0.2609610855579376,-0.429544448852539,0.1275688856840133,0.320587545633316,0.0,0.0,0.8102176189422607,-0.0871722698211669
-0.0461359024047851,0.1331015229225158,0.2443200349807739,-0.4032596945762634,0.1429168283939361,0.3069592118263244,0.0,0.0,0.4068306684494018,-0.0283735394477844
-0.0434770584106445,0.1242804154753685,0.2502178847789764,-0.3936245143413543,0.1585558801889419,0.3127806782722473,0.0,0.0,0.6266510486602783,0.7271336317062378
-0.040862750262022,0.1158813089132309,0.2474350184202194,-0.3748486936092376,0.1725691854953766,0.2802661657333374,0.0,0.0,0.4221162796020508,0.0964829921722412
-0.0383558273315429,0.1077385544776916,0.237106055021286,-0.3635381460189819,0.1861993074417114,0.272602379322052,0.0,0.0,0.5725917816162109,-0.2960449457168579
-0.0358863845467567,0.0996100306510925,0.2335629910230636,-0.3630057573318481,0.1996650099754333,0.2693141102790832,0.0,0.0,0.1137014627456665,-0.1138609647750854
-0.0335004813969135,0.0913762152194976,0.2256472408771515,-0.3677492141723633,0.212710902094841,0.260917603969574,0.0,0.0,0.7074787616729736,-0.4958587884902954
-0.0313069336116313,0.0832085683941841,0.2072236835956573,-0.3648034632205963,0.2249802052974701,0.245385929942131,0.0,0.0,0.801976203918457,-0.0849623680114746
-0.0291013717651367,0.0755473226308822,0.2079848051071167,-0.3424692153930664,0.2377254366874694,0.2549044787883758,0.0,0.0,0.6028717756271362,-0.1041726469993591
-0.0268480293452739,0.0677507519721984,0.2125965058803558,-0.3486253023147583,0.2506862878799438,0.2592162191867828,0.0,0.0,0.8826422691345215,-0.0121034979820251
-0.0245757102966308,0.0606009811162948,0.2138381898403167,-0.320114254951477,0.2643506526947021,0.2732872068881988,0.0,0.0,0.5997474193572998,-0.1467238068580627
-0.0224467273801565,0.0538524724543094,0.1997270882129669,-0.3023696541786194,0.2778502404689789,0.26999232172966,0.0,0.0,0.588550329208374,-0.4023778438568115
-0.0203364379703998,0.0476676560938358,0.1973395049571991,-0.2775460481643677,0.2919208407402038,0.2814117670059204,0.0,0.0,0.5124883651733398,0.1640053987503051
-0.0182374957948923,0.0415974222123622,0.1960286051034927,-0.2726332545280456,0.3062495291233063,0.2865740656852722,0.0,0.0,0.7143189907073975,0.0017751455307006
-0.0163263324648141,0.0360576957464218,0.1774027645587921,-0.2491669505834579,0.3204773068428039,0.2845553457736969,0.0,0.0,0.1004779338836669,-0.2247878313064575
-0.0144673343747854,0.0306060165166854,0.1721365302801132,-0.2454081624746322,0.3348243534564972,0.2869402170181274,0.0,1.0,0.9931824207305908,0.9997348785400392
-0.0126017574220895,0.0263282153755426,0.186824157834053,-0.1911617368459701,0.3314249813556671,-0.0725684463977813,0.0,1.0,0.9937081336975098,0.9608259201049804
-0.0111991884186863,0.0231703612953424,0.1636693179607391,-0.1352027058601379,0.3069973587989807,-0.4886739253997803,0.0,1.0,0.9717308282852172,-0.809264063835144
-0.0102842329069972,0.0207557305693626,0.1283191889524459,-0.1000312268733978,0.2689573168754577,-0.760956883430481,0.0,1.0,0.7918522357940674,-0.6970718502998352
-0.0096536632627248,0.0188452824950218,0.1062856540083885,-0.0776026472449302,0.2248255014419555,-0.8827805519104004,0.0,1.0,0.5630285739898682,-0.8921002149581909
-0.0091755865141749,0.0169982053339481,0.0894330292940139,-0.0763308033347129,0.1827378720045089,-0.8419046401977539,0.0,1.0,0.501289963722229,-0.9218546748161316
-0.008675861172378,0.0149581525474786,0.0888569802045822,-0.086352951824665,0.1438041478395462,-0.7787066698074341,0.0,1.0,0.4203083515167236,-0.6992723941802979
-0.0082245822995901,0.0131413312628865,0.0826322212815284,-0.077560044825077,0.1064423844218254,-0.7472653388977051,0.0,0.0,-0.8216429352760315,-0.9276705384254456
-0.0077694891951978,0.0106598949059844,0.0814633816480636,-0.1081144288182258,0.0707833692431449,-0.7132094502449036,0.0,0.0,0.1761436462402343,-0.9546017646789552
-0.0072766304947435,0.0078340983018279,0.0834660977125167,-0.1243278309702873,0.0369677990674972,-0.6763388514518738,0.0,0.0,0.6617079973220825,-0.9673923254013062
