x_pos,y_pos,x_vel,y_vel,angle,ang_vel,leg_1,leg_2,main_booster,lat_booster
-0.0014705657958984,1.4034942388534546,-0.1494781672954559,-0.3300374448299408,0.0021656323224306,0.042749248445034,0.0,0.0,-0.2182166831505545,-0.4236253331891688
-0.0028872489929199,1.3959615230560305,-0.14424729347229,-0.3347966074943542,0.0047130496241152,0.0509538426995277,0.0,0.0,-0.0642352669116013,0.3388154065045413
-0.0042493818327784,1.3882980346679688,-0.1392254680395126,-0.3406073153018951,0.0077029112726449,0.0598027184605598,0.0,0.0,0.0772130647018982,0.3629575870125433
-0.0056364061310887,1.3809922933578491,-0.1417986005544662,-0.3247188031673431,0.0107713006436824,0.061373084783554,0.0,0.0,-0.0576673439953976,-0.721349906907564
-0.0070121763274073,1.3735580444335938,-0.1422828137874603,-0.3304503262042999,0.0154210804030299,0.0930043458938598,0.0,0.0,-0.7344560610613298,0.3350817020888311
-0.0083317756652832,1.3659940958023071,-0.1371324807405471,-0.3362372517585754,0.0205360874533653,0.1023097485303878,0.0,0.0,-0.5312864847590324,-0.0197821246398829
-0.0095947263762354,1.3583005666732788,-0.1319457590579986,-0.3420259356498718,0.0261242166161537,0.1117726191878318,0.0,0.0,0.0127782278645549,-0.4313280976469618
-0.010719490237534,1.3510756492614746,-0.1190454810857772,-0.3212332129478454,0.0326282829046249,0.1300932765007019,0.0,0.0,0.6314366427842393,0.4058180299011941
-0.0118256565183401,1.3449596166610718,-0.117626741528511,-0.2719939351081848,0.0395609550178051,0.1386661678552627,0.0,0.0,0.1152425354786805,0.1668946737146555
-0.012894058600068,1.3394489288330078,-0.1143411621451377,-0.2451315373182296,0.0469831228256225,0.1484567523002624,0.0,0.0,0.3266026272096725,-0.1005048846736663
-0.0138577464967966,1.3345293998718262,-0.1046996340155601,-0.2189317047595977,0.0552310347557067,0.1649729758501052,0.0,0.0,0.7511765698810748,-0.194428759622086
-0.0147191043943166,1.3303256034851074,-0.0953427702188491,-0.1871953904628753,0.0643363818526268,0.1821240037679672,0.0,0.0,-0.2271334362638382,-0.1791956421197009
-0.0155222890898585,1.3259931802749634,-0.0900042504072189,-0.1929955929517746,0.0739495828747749,0.192281574010849,0.0,0.0,0.0862015489366414,0.0235833814203916
-0.0162386894226074,1.3218867778778076,-0.0820608884096145,-0.1830533891916275,0.0842899456620216,0.2068256884813308,0.0,0.0,0.5652612112431799,0.4394809546416657
-0.0168287269771099,1.3188365697860718,-0.0705781728029251,-0.1362564414739608,0.0957769155502319,0.2297603189945221,0.0,0.0,0.0744481196664961,0.649979068183753
-0.0172465331852436,1.3159582614898682,-0.0526627674698829,-0.1286577433347702,0.1065951287746429,0.2163836508989334,0.0,0.0,0.6199957818846538,-0.4755545608489147
-0.0175600051879882,1.3142249584197998,-0.0433858484029769,-0.07794139534235,0.1185739040374755,0.2395973950624466,0.0,0.0,-0.4404745770030784,-0.2985895059533021
-0.0178141593933105,1.312363862991333,-0.0379738099873065,-0.0837555006146431,0.1310810893774032,0.250166118144989,0.0,0.0,-0.5843344630317946,0.8780595998171972
-0.0179300308227539,1.3103994131088257,-0.0226073358207941,-0.0883125439286232,0.1420836895704269,0.2200716286897659,0.0,0.0,-0.7844155326333173,0.929635909039128
-0.017923355102539,1.3083202838897705,-0.0092646554112434,-0.0933841243386268,0.1520157605409622,0.1986592710018158,0.0,0.0,0.938818951348846,-0.1996348720444682
-0.0178424827754497,1.3074557781219482,-0.0030735239852219,-0.039602443575859,0.163185566663742,0.2234160602092743,0.0,0.0,0.6433895624319839,-0.8989968528620723
-0.0178299900144338,1.307096242904663,-0.012243865057826,-0.0175180435180664,0.1767168641090393,0.2706501185894012,0.0,0.0,0.2204972692623201,-0.6058671014452218
-0.017771054059267,1.3072190284729004,-0.0094939600676298,0.003547016531229,0.1921900808811187,0.3094917237758636,0.0,0.0,0.340321187219655,-0.7723079613413422
-0.0176971442997455,1.3075814247131348,-0.0101114232093095,0.0137470616027712,0.209847554564476,0.3531811237335205,0.0,0.0,0.6364946132146283,-0.1226879287994964
-0.0178340915590524,1.3087104558944702,-0.0310435891151428,0.047623299062252,0.2273994088172912,0.3510685563087463,0.0,0.0,0.0426827973651517,0.1079991447811978
-0.0180981643497943,1.310312271118164,-0.0438096188008785,0.0684056207537651,0.2450768947601318,0.3535498678684234,0.0,0.0,-0.9108872357981376,-0.4234588022506609
-0.0183022506535053,1.3117899894714355,-0.0382871776819229,0.0625836923718452,0.2633078098297119,0.3646184206008911,0.0,0.0,-0.7961529118798558,0.7888216269301263
-0.0184010509401559,1.313170313835144,-0.0269755721092224,0.0581758134067058,0.2808361649513244,0.3505669236183166,0.0,0.0,0.7206281720524685,-0.3861074329931836
-0.0187940597534179,1.3155328035354614,-0.0562460124492645,0.1016334667801857,0.2982925176620483,0.3491266667842865,0.0,0.0,0.618712976511079,0.4961264862755893
-0.0192872043699026,1.3184467554092407,-0.0666229352355003,0.1258673518896103,0.3162117004394531,0.3583835959434509,0.0,0.0,0.0238359161258026,0.254668822144575
-0.019872760400176,1.321990728378296,-0.0763463750481605,0.1535147279500961,0.3347436189651489,0.3706381022930145,0.0,0.0,-0.907935380935669,0.9922106266021729
-0.020333195105195,1.3254390954971311,-0.0625672936439514,0.1493240892887115,0.3520747125148773,0.346621960401535,0.0,0.0,-0.8452723026275635,0.9775943756103516
-0.0206735618412494,1.3288061618804932,-0.0493637733161449,0.1458096504211425,0.3682253360748291,0.323012501001358,0.0,0.0,-0.7702854871749878,0.7429032325744629
-0.0209037773311138,1.3320707082748413,-0.0374993160367012,0.1412912011146545,0.3835789859294891,0.3070731461048126,0.0,0.0,-0.6227626800537109,0.9729881286621094
-0.021001910790801,1.3352564573287964,-0.022795271128416,0.1380316764116287,0.3974304497241974,0.2770297229290008,0.0,0.0,-0.7614811062812805,0.9748319387435912
-0.0209694858640432,1.3383694887161257,-0.0082359509542584,0.1350889354944229,0.4097573161125183,0.246536523103714,0.0,0.0,-0.7228237390518188,0.952164888381958
-0.0208101272583007,1.3413950204849243,0.0057360143400728,0.1314786374568939,0.4207642376422882,0.220138669013977,0.0,0.0,-0.8197653889656067,0.9587581157684326
-0.020519733428955,1.3443505764007568,0.0203235056251287,0.1287241876125335,0.4302045404911041,0.1888062804937362,0.0,0.0,-0.8103069067001343,0.1790283918380737
-0.0201692581176757,1.3471800088882446,0.025857975706458,0.1229126378893852,0.4402038156986236,0.1999856531620025,0.0,0.0,-0.6708396077156067,0.9128726720809937
-0.019691277295351,1.3499324321746826,0.0399537421762943,0.1198459938168525,0.4487672746181488,0.1712692826986313,0.0,0.0,-0.5014839768409729,0.8485156297683716
-0.0191062930971384,1.3526008129119873,0.0515299513936042,0.1163292750716209,0.4564193189144134,0.1530411690473556,0.0,0.0,-0.5924796462059021,0.4790712594985962
-0.0184612274169921,1.3551428318023682,0.057054229080677,0.110519178211689,0.4646255373954773,0.1641246378421783,0.0,0.0,-0.706868588924408,0.2111539840698242
-0.0177562721073627,1.3575589656829834,0.0625748485326767,0.1047081872820854,0.4733837246894836,0.1751636713743209,0.0,0.0,-0.565798282623291,0.7291011810302734
-0.0169320106506347,1.359892964363098,0.0756527781486511,0.1014039292931556,0.4809116721153259,0.1505596190690994,0.0,0.0,-0.7560924887657166,-0.3969959616661072
-0.0160480495542287,1.3621010780334473,0.0811624303460121,0.0955933034420013,0.4889862239360809,0.1614908277988433,0.0,0.0,-0.5633265972137451,0.88330078125
-0.0150360111147165,1.3642274141311646,0.0952928438782692,0.0923885405063629,0.4956167638301849,0.1326105445623397,0.0,0.0,-0.7954196333885193,0.0017397403717041
-0.0139643670991063,1.366227626800537,0.1007882580161094,0.0865785777568817,0.5027870535850525,0.1434057056903839,0.0,0.0,-0.7899659276008606,0.7629134654998779
-0.0127936359494924,1.3681437969207764,0.1114219278097152,0.083070121705532,0.5091707706451416,0.1276739686727523,0.0,0.0,-0.7341668605804443,0.9605586528778076
-0.011515331454575,1.3699836730957031,0.1231299042701721,0.0800104662775993,0.5144897699356079,0.1063801497220993,0.0,0.0,-0.8253294229507446,0.5928606986999512
-0.0101384166628122,1.3717284202575684,0.1336058676242828,0.0760016590356826,0.519127607345581,0.0927567258477211,0.0,0.0,-0.5767500996589661,0.9532763957977296
-0.0086224554106593,1.373415231704712,0.1492632329463958,0.0740662664175033,0.5217871069908142,0.0531892254948616,0.0,0.0,-0.7848390340805054,0.967277765274048
-0.0069905281998217,1.3750314712524414,0.1620355546474456,0.0713993981480598,0.5230979919433594,0.0262182410806417,0.0,0.0,-0.8377030491828918,0.9875476360321044
-0.0052191736176609,1.3765846490859983,0.1776996999979019,0.069245845079422,0.522453248500824,-0.0128945456817746,0.0,0.0,-0.4678535461425781,0.9927728176116944
-0.0033250809647142,1.3780770301818848,0.1914122551679611,0.0670955330133438,0.5201811194419861,-0.0454429127275943,0.0,0.0,-0.707647979259491,0.8341505527496338
-0.0013011932605877,1.379500389099121,0.2058928459882736,0.0645973309874534,0.5162044763565063,-0.0795332938432693,0.0,0.0,-0.6433082222938538,0.8399593830108643
0.0008299827459268,1.3808348178863523,0.2175067961215973,0.0609588399529457,0.5112248063087463,-0.099593847990036,0.0,0.0,-0.5391793251037598,0.9874309301376344
0.0030934333335608,1.3821159601211548,0.2324733734130859,0.0592081770300865,0.5042955279350281,-0.1385852247476577,0.0,0.0,-0.6881742477416992,0.1302061080932617
0.0054141045548021,1.383270263671875,0.2378113567829132,0.0534004494547843,0.4978354871273041,-0.1292013674974441,0.0,0.0,-0.7750043869018555,0.0908600091934204
0.0077918050810694,1.3842978477478027,0.2431243658065796,0.0475937873125076,0.4918347299098968,-0.1200159937143325,0.0,0.0,-0.6951470375061035,0.9982196092605592
0.0102833751589059,1.3852543830871582,0.2557811141014099,0.0448601767420768,0.4844330549240112,-0.1480330675840377,0.0,0.0,-0.6055298447608948,0.9622066020965576
0.0129060745239257,1.386134147644043,0.2704836428165436,0.0419480986893177,0.4752859771251678,-0.1829413920640945,0.0,0.0,-0.6319194436073303,0.9877628087997437
0.0156399719417095,1.3869359493255615,0.2828340232372284,0.0388408862054348,0.464828610420227,-0.2091466933488845,0.0,0.0,-0.428248643875122,0.8307750225067139
0.0184995643794536,1.387662410736084,0.2969875931739807,0.0359234772622585,0.452689915895462,-0.2427745312452316,0.0,0.0,-0.5726309418678284,0.1175317764282226
0.0214137081056833,1.3882626295089722,0.3021434545516968,0.0301125850528478,0.44094979763031,-0.2348022758960724,0.0,0.0,-0.3237450122833252,0.3172556161880493
0.0243819244205951,1.3887364864349363,0.307256132364273,0.0243032220751047,0.4295936822891235,-0.2271222621202469,0.0,0.0,-0.5352599620819092,-0.9352878928184508
0.0273234359920024,1.3890289068222046,0.302116721868515,0.0154044209048151,0.4209504127502441,-0.1728653013706207,0.0,0.0,-0.6624782085418701,0.983710527420044
0.0303874015808105,1.3892533779144287,0.3160613179206848,0.0128264296799898,0.4105283319950104,-0.2084423005580902,0.0,0.0,-0.2608264684677124,-0.9999534487724304
0.0334449782967567,1.3892992734909058,0.3134636878967285,0.004250316414982,0.402246743440628,-0.1656315177679062,0.0,0.0,-0.3512017130851745,-0.9999983310699464
0.0364821441471576,1.3891839981079102,0.3093228042125702,-0.003554422641173,0.396243005990982,-0.1200747489929199,0.0,0.0,-0.3273353576660156,0.9999998807907104
0.0396325103938579,1.388974666595459,0.3219978809356689,-0.0073732095770537,0.3887985646724701,-0.148888885974884,0.0,0.0,-0.1735146045684814,0.9999070167541504
0.0428932197391986,1.388679265975952,0.3344427049160003,-0.0108709307387471,0.3798770606517792,-0.1784292310476303,0.0,0.0,-0.0686476230621337,-1.0
0.0461331382393837,1.3882161378860474,0.330315351486206,-0.0189239867031574,0.3731654286384582,-0.1342325955629348,0.0,0.0,-0.1525478959083557,-0.671836256980896
0.0493595115840435,1.3875961303710938,0.3271759152412414,-0.0263783670961856,0.3683579564094543,-0.096149206161499,0.0,0.0,-0.3192951679229736,-0.8861780762672424
0.0525757782161235,1.3868141174316406,0.3244569897651672,-0.0340279936790466,0.3653625547885895,-0.0599077716469764,0.0,0.0,-0.3997019529342651,0.9965901374816896
0.0559085831046104,1.3859354257583618,0.3377659916877746,-0.0379158183932304,0.3606306910514831,-0.0946373492479324,0.0,0.0,-0.183694839477539,0.99997878074646
0.0593700408935546,1.3849642276763916,0.3526439070701599,-0.0415459871292114,0.3537890613079071,-0.1368325501680374,0.0,0.0,0.1743595600128173,0.9468870162963868
0.0628381744027137,1.3842201232910156,0.3550215065479278,-0.0310793481767177,0.3451520204544067,-0.1727408319711685,0.0,0.0,0.3366862535476684,0.9988079071044922
0.0661945343017578,1.3842973709106443,0.3457467257976532,0.0058269128203392,0.3345672488212585,-0.2116957455873489,0.0,0.0,0.3062278032302856,0.6264631748199463
0.0694895759224891,1.3852249383926392,0.3406900465488434,0.0437722168862819,0.3229016661643982,-0.2333113849163055,0.0,0.0,0.0703164339065551,0.9998894929885864
0.072643756866455,1.386783003807068,0.3285213708877563,0.0721189454197883,0.3092856407165527,-0.2723207771778106,0.0,0.0,0.0835165977478027,-0.9999992847442628
0.0755976662039756,1.388431429862976,0.3065049052238464,0.0755853280425071,0.297792911529541,-0.2298554182052612,0.0,0.0,-0.1249340772628784,-0.9989482164382936
0.07851342856884,1.3899273872375488,0.3008936643600464,0.068357303738594,0.2881881296634674,-0.1920957267284393,0.0,0.0,0.1038777828216552,-0.9741800427436828
0.0812007933855056,1.3917797803878784,0.2761694490909576,0.0837750062346458,0.2805545926094055,-0.1526706665754318,0.0,0.0,0.0367145538330078,0.9999409914016724
0.0838350281119346,1.3941354751586914,0.2728765606880188,0.1064747869968414,0.2708577513694763,-0.1939374506473541,0.0,0.0,-0.117071509361267,0.9999430179595948
0.0865698829293251,1.396397829055786,0.2849963903427124,0.1026394143700599,0.2590853869915008,-0.2354472577571869,0.0,0.0,-0.5415174961090088,-0.9212456345558168
0.0892693549394607,1.3985074758529663,0.2800413966178894,0.0955158621072769,0.2487931847572326,-0.2058442533016204,0.0,0.0,-0.3589507341384887,-0.9969710111618042
0.0919196158647537,1.4004504680633545,0.2733650505542755,0.0877398326992988,0.2403022944927215,-0.169817566871643,0.0,0.0,-0.0486433506011962,-0.9974069595336914
0.094526007771492,1.4022325277328491,0.2674852609634399,0.0803067535161972,0.2333499491214752,-0.1390461772680282,0.0,0.0,-0.4503655433654785,-0.9999987483024596
0.0970913916826248,1.4038633108139038,0.2620845437049866,0.0733526274561882,0.2277233451604843,-0.1125320345163345,0.0,0.0,-0.3779849410057068,0.9705379009246826
0.0997639670968055,1.4053888320922852,0.2754035294055938,0.0690335482358932,0.2194680720567703,-0.165105864405632,0.0,0.0,-0.3382692337036133,-0.473843514919281
0.1024476066231727,1.4067842960357666,0.2767838835716247,0.0632473975419998,0.2109602391719818,-0.1701562404632568,0.0,0.0,-0.4432535171508789,-0.9995165467262268
0.1050651520490646,1.4080333709716797,0.2685819864273071,0.0564761497080326,0.2040755152702331,-0.1376944333314895,0.0,0.0,-0.4760744571685791,-0.9990875124931335
0.1076262444257736,1.4091367721557615,0.2616618573665619,0.0497920513153076,0.1984772384166717,-0.1119656935334205,0.0,0.0,-0.1656500697135925,-0.9999999403953552
0.1101264953613281,1.4100795984268188,0.2542533278465271,0.0424642376601696,0.1942306905984878,-0.0849309861660003,0.0,0.0,-0.3504993915557861,-0.998199224472046
0.1125424355268478,1.410863995552063,0.2439949512481689,0.0351716764271259,0.1918139010667801,-0.0483357235789299,0.0,0.0,-0.0520605444908142,0.9796485900878906
0.1150397285819053,1.4115540981292725,0.2547437250614166,0.0313136354088783,0.1867717504501342,-0.1008427143096923,0.0,0.0,-0.0588557124137878,-0.9971031546592712
0.1174500435590744,1.4120900630950928,0.2443656921386718,0.024243839085102,0.1834126263856887,-0.0671823322772979,0.0,0.0,-0.1279543042182922,0.8531014919281006
0.1199021339416503,1.412517547607422,0.2503311038017273,0.0196221768856048,0.1782747060060501,-0.1027588620781898,0.0,0.0,-0.4889922142028808,-0.9079163074493408
0.1222805976867675,1.4128022193908691,0.2418656051158905,0.0131296701729297,0.1742558181285858,-0.0803781226277351,0.0,0.0,-0.545987606048584,-0.9915542602539062
0.1245589256286621,1.4129407405853271,0.2301369160413742,0.0064246011897921,0.1719428151845932,-0.0462600663304328,0.0,0.0,-0.4633188247680664,-0.9935465455055236
0.1267302483320236,0.0,0.2176543027162552,-0.0003220821963623,0.1714188903570175,-0.0104784732684493,0.0,0.0,-0.3466318845748901,-0.920622169971466
0.1288065016269683,1.412769794464111,0.2067124396562576,-0.0073174340650439,0.1723304539918899,0.0182308983057737,0.0,0.0,-0.2679439187049866,0.7857722043991089
0.130908578634262,1.4124900102615356,0.2110652029514312,-0.0123415887355804,0.1714691221714019,-0.0172266364097595,0.0,0.0,-0.5190643072128296,-0.988787055015564
0.1328887939453125,1.412051558494568,0.196926474571228,-0.0196132268756628,0.1725685596466064,0.0219883862882852,0.0,0.0,-0.3110947608947754,0.3240730762481689
0.1348407715559005,1.4114816188812256,0.1946337819099426,-0.0253908708691597,0.1731374412775039,0.011377933435142,0.0,0.0,-0.5853774547576904,0.5856297016143799
0.1368131637573242,1.4107885360717771,0.1985003352165222,-0.0306561980396509,0.1718731075525283,-0.0252867229282856,0.0,0.0,-0.1886353492736816,-0.9093360900878906
0.1386983841657638,1.4099570512771606,0.188959538936615,-0.0369057767093181,0.1714329123497009,-0.0088036945089697,0.0,0.0,-0.7191333770751953,-0.9959198236465454
0.1404675543308258,1.4089813232421875,0.1758529394865036,-0.0434876270592212,0.172493427991867,0.021210242062807,0.0,0.0,-0.446610689163208,-0.8681274652481079
0.142147347331047,1.407870531082153,0.1661805212497711,-0.0495761036872863,0.1742994040250778,0.0361196435987949,0.0,0.0,-0.4215787649154663,-0.6351744532585144
0.1437457054853439,1.4066170454025269,0.1575083434581756,-0.055987499654293,0.1766319274902343,0.0466503165662288,0.0,0.0,-0.1977593898773193,-0.9778825044631958
0.1452258080244064,1.4052212238311768,0.1443147510290146,-0.0624871514737606,0.180348202586174,0.0743253231048584,0.0,0.0,-0.5910934805870056,0.2777841091156006
0.1466645300388336,1.403693675994873,0.1407617628574371,-0.0682644173502922,0.1834623962640762,0.0622842721641063,0.0,0.0,-0.5130873918533325,-0.6797881126403809
0.1480148285627365,1.4020187854766846,0.1313611567020416,-0.0749005377292633,0.1871504634618759,0.0737616270780563,0.0,0.0,-0.608273446559906,-0.6557022929191589
0.1492593735456466,1.4001960754394531,0.1198284998536109,-0.081600122153759,0.1918043941259384,0.0930786356329917,0.0,0.0,-0.4881176352500915,-0.5926313400268555
0.1504028290510177,1.398224115371704,0.1088979467749595,-0.0883526355028152,0.1972799003124237,0.1095100045204162,0.0,0.0,-0.7043408751487732,0.3679556846618652
0.1514994651079177,1.39612078666687,0.1048460230231285,-0.0941299423575401,0.2021265774965286,0.0969336181879043,0.0,0.0,-0.2573356628417969,-0.463890790939331
0.1525481194257736,1.3938859701156616,0.1006905883550643,-0.0999063700437545,0.2063389718532562,0.0842478796839714,0.0,0.0,-0.3996565341949463,-0.4834232330322265
0.15354785323143,1.3915194272994995,0.096439316868782,-0.1056820228695869,0.2099120467901229,0.0714612826704979,0.0,0.0,-0.3948073387145996,0.0962028503417968
0.154497817158699,1.389020919799805,0.092099443078041,-0.1114569902420044,0.2128411382436752,0.0585817620158195,0.0,0.0,-0.5738688707351685,-0.3888868689537048
0.1553972214460373,1.3863904476165771,0.0876777321100235,-0.1172313913702964,0.2151219546794891,0.0456166006624698,0.0,0.0,-0.3305284976959228,-0.5064045786857605
0.1562110930681228,1.3836113214492798,0.0788657814264297,-0.1238901913166046,0.2176662236452102,0.0508855581283569,0.0,0.0,0.1377515792846679,-0.4073175191879272
0.1569469422101974,1.3813446760177612,0.0714082270860672,-0.1010625809431076,0.2198671698570251,0.0440190732479095,0.0,0.0,-0.6000397205352783,-0.6850600838661194
