x_pos,y_pos,x_vel,y_vel,angle,ang_vel,leg_1,leg_2,main_booster,lat_booster
-0.0015338897937908,1.403210997581482,-0.1554647386074066,-0.3426328301429748,0.0018552812980487,0.0366040132939815,0.0,0.0,0.6935262602217296,-0.8779568589980746
-0.0030880928970873,1.3958163261413574,-0.159185528755188,-0.3286589980125427,0.0055789933539927,0.0744821280241012,0.0,0.0,0.9972980475210806,0.8187544804703595
-0.0044135092757642,1.3887362480163574,-0.1351597756147384,-0.3146824836730957,0.0081678507849574,0.0517819412052631,0.0,0.0,-0.3106463177715164,0.938578558113531
-0.0056872367858886,1.3812401294708252,-0.128546193242073,-0.3331678509712219,0.0093317851424217,0.023280918598175,0.0,0.0,0.725546362691831,0.621267190458259
-0.0067797661758959,1.374356746673584,-0.109638012945652,-0.3059313893318176,0.0097101619467139,0.0075683309696614,0.0,0.0,0.70504361041101,-0.8946519555483308
-0.0077959061600267,1.367900252342224,-0.1041326522827148,-0.2869714498519897,0.0121904211118817,0.0496097356081008,0.0,0.0,-0.7098480491155965,-0.7282935926895713
-0.0088762287050485,1.3610292673110962,-0.1121024712920188,-0.3054178059101105,0.0162172317504882,0.0805436223745346,0.0,0.0,-0.8096064798644205,0.8650065461465068
-0.0098752975463867,1.353749394416809,-0.1018582731485366,-0.3235709965229034,0.0181542169302701,0.0387432165443897,0.0,0.0,0.9223032729702892,-0.5512980191208319
-0.0109528545290231,1.3475208282470703,-0.1108191385865211,-0.2768703699111938,0.0211817752569913,0.0605566501617431,0.0,0.0,0.1904919238516278,-0.8315265088975308
-0.0121093746274709,1.3416664600372314,-0.1204083189368248,-0.2602652013301849,0.0258927252143621,0.0942275077104568,0.0,0.0,-0.6249925016678266,0.7809130665279598
-0.013196182437241,1.335402011871338,-0.1116825938224792,-0.278473436832428,0.028866721317172,0.0594853088259696,0.0,0.0,0.1864814285951417,0.617640534584265
-0.0141881946474313,1.329296350479126,-0.1011014357209205,-0.2714053690433502,0.0307417716830968,0.0375044010579586,0.0,0.0,0.2277022293792556,0.7538184427710299
-0.0150258066132664,1.3235678672790527,-0.084301546216011,-0.2546108067035675,0.031278409063816,0.0107335858047008,0.0,0.0,0.1294874490000011,-0.5656495052054058
-0.0158606525510549,1.3177849054336548,-0.0852766036987304,-0.257062703371048,0.0330487973988056,0.0354111343622207,0.0,0.0,0.5004311266366546,-0.9491383898032691
-0.016646385192871,1.312723994255066,-0.0824375078082084,-0.2250132411718368,0.036874059587717,0.0765122547745704,0.0,0.0,-0.9149358098156724,-0.6921762201057845
-0.0174722671508789,1.3072391748428345,-0.087598517537117,-0.2439036965370178,0.0418281592428684,0.0990909859538078,0.0,0.0,-0.1221808375955897,0.8619331655171509
-0.0182098392397165,1.3013561964035034,-0.0766336172819137,-0.2615460455417633,0.0446767769753932,0.056977529078722,0.0,0.0,0.055530568008802,0.821423218782531
-0.0187807083129882,1.2954227924346924,-0.0583553425967693,-0.263739138841629,0.0459300614893436,0.025067925453186,0.0,0.0,0.0986218409348622,-0.9834317970754476
-0.0193699840456247,1.2898850440979004,-0.0621411427855491,-0.2462253719568252,0.0491094402968883,0.0635931119322776,0.0,0.0,-0.5687357405582465,0.7717957881461706
-0.019898796454072,1.2839370965957642,-0.0547297224402427,-0.2644138634204864,0.0509393066167831,0.0366004481911659,0.0,0.0,-0.9662020746624308,-0.5287337221978933
-0.0204521175473928,1.277576923370361,-0.0579888522624969,-0.2827626764774322,0.0535717383027076,0.0526533313095569,0.0,0.0,0.7517133946656651,0.6894079446857688
-0.0209531784057617,1.2715075016021729,-0.0513843707740306,-0.269797146320343,0.0548319779336452,0.0252071171998977,0.0,0.0,-0.5815149188184672,-0.5938637220248069
-0.0214809421449899,1.2650206089019775,-0.0549546256661415,-0.2883909940719604,0.0569807179272174,0.0429788865149021,0.0,0.0,0.6865048767949573,0.7025446239307249
-0.0218828208744525,1.2586009502410889,-0.041073240339756,-0.2853552401065826,0.0578560978174209,0.0175094790756702,0.0,0.0,-0.0701224624763512,-0.96321469776026
-0.0223675724118948,1.2517621517181396,-0.051692247390747,-0.3040787875652313,0.0610484518110752,0.0638525635004043,0.0,0.0,0.5213127659735435,-0.9219607538855392
-0.0231036189943552,1.2454434633255005,-0.0784484297037124,-0.2810369729995727,0.065839022397995,0.0958113893866539,0.0,0.0,-0.5821649257733199,0.9938183551191412
-0.0237483978271484,1.238725185394287,-0.0672449767589569,-0.2987085282802582,0.0685724094510078,0.0546676628291606,0.0,0.0,0.624696372653369,0.5828906716104543
-0.0245282165706157,1.2328046560287476,-0.0791482031345367,-0.2631949484348297,0.0697301477193832,0.023154679685831,0.0,0.0,-0.3970487979719805,-0.5033291152839634
-0.0253429412841796,1.2264695167541504,-0.0837951004505157,-0.2816735208034515,0.0720289871096611,0.0459768511354923,0.0,0.0,0.4538269569089534,0.8655577954631748
-0.0261268615722656,1.2203644514083862,-0.0788569003343582,-0.2713557183742523,0.0724964067339897,0.0093480674549937,0.0,0.0,0.5351365268396964,0.7606260656907929
-0.0268743522465229,1.215039849281311,-0.0736303180456161,-0.2365920096635818,0.0713908374309539,-0.022111676633358,0.0,0.0,-0.9769370555877686,0.7981443405151367
-0.0275517459958791,1.2093029022216797,-0.0651329606771469,-0.2548505365848541,0.0688071548938751,-0.0516736730933189,0.0,0.0,-0.8764930963516235,0.8570910692214966
-0.0281558986753225,1.2031667232513428,-0.0562064945697784,-0.2725376486778259,0.0646477565169334,-0.0831880196928978,0.0,0.0,-0.7381764650344849,0.805219292640686
-0.0286870952695608,1.196615219116211,-0.0473620742559433,-0.2909358143806457,0.0589499063789844,-0.1139570102095604,0.0,0.0,-0.8601381778717041,0.7887015342712402
-0.0291384700685739,1.189658284187317,-0.0376207120716571,-0.308929830789566,0.0515270717442035,-0.1484566926956176,0.0,0.0,-0.8796529769897461,0.3634872436523437
-0.0295734405517578,1.1822881698608398,-0.0358651429414749,-0.3273147046566009,0.0439864620566368,-0.1508121788501739,0.0,0.0,-0.9968876242637634,-0.0869138240814209
-0.0299917217344045,1.1745052337646484,-0.034074991941452,-0.3456997573375702,0.0363228358328342,-0.1532725095748901,0.0,0.0,-0.9552124738693236,0.2810307741165161
-0.0303932186216115,1.166309475898743,-0.0322525948286056,-0.3640850782394409,0.0285311136394739,-0.1558343172073364,0.0,0.0,-0.9510707259178162,-0.562101423740387
-0.0308249481022357,1.1577049493789673,-0.0363553948700428,-0.382306307554245,0.0217967517673969,-0.134687140583992,0.0,0.0,-0.9848846793174744,-0.2874404191970825
-0.0312393195927143,1.1486876010894775,-0.0344750992953777,-0.4006906449794769,0.0149246752262115,-0.1374415457248687,0.0,0.0,-0.9263705015182496,-0.2053606510162353
-0.0316360481083393,1.1392570734024048,-0.0325688906013965,-0.4190751910209656,0.0079103363677859,-0.140286698937416,0.0,0.0,-0.9154095649719238,-0.2348005175590515
-0.0320149436593055,1.1294137239456177,-0.0306386705487966,-0.4374600350856781,0.0007493797456845,-0.1432189047336578,0.0,0.0,-0.9810587763786316,-0.8075751662254333
-0.0324295051395893,1.1191483736038208,-0.0354107692837715,-0.4562453329563141,-0.0052155549637973,-0.1192985624074935,0.0,0.0,-0.9451004266738892,-0.7852967381477356
-0.0328778252005577,1.108468770980835,-0.0399501398205757,-0.4746780097484588,-0.0100312000140547,-0.0963129997253418,0.0,0.0,-0.8981652855873108,-0.5221688747406006
-0.0333518981933593,1.0973702669143677,-0.0434970334172248,-0.4932990670204162,-0.0138972206041216,-0.0773203372955322,0.0,0.0,-0.7910202145576477,-0.9240673780441284
-0.0338752754032611,1.0858503580093384,-0.0499712936580181,-0.5120214819908142,-0.0162285212427377,-0.0466259345412254,0.0,0.0,-0.932592749595642,0.1081397533416748
-0.034380055963993,1.0739169120788574,-0.0479465723037719,-0.5304028987884521,-0.0187254566699266,-0.0499389432370662,0.0,0.0,-0.8398580551147461,-0.6982717514038086
-0.0349315628409385,1.0615792274475098,-0.054124005138874,-0.5483484864234924,-0.0197430476546287,-0.0203517340123653,0.0,0.0,-0.7621361017227173,-0.4903789162635803
-0.0354642868041992,1.0488282442092896,-0.0520719699561595,-0.5667296051979065,-0.0209326613694429,-0.0237919650971889,0.0,0.0,-0.7903295755386353,0.2329238653182983
-0.0359782204031944,1.0356637239456177,-0.0500082783401012,-0.5851107239723206,-0.0222971942275762,-0.0272907502949237,0.0,0.0,-0.8978150486946106,-0.3978108167648315
-0.0364731773734092,1.022085666656494,-0.0479341857135295,-0.6034919023513794,-0.0238394476473331,-0.0308448914438486,0.0,0.0,-0.9354220628738404,-0.8138882517814636
-0.03701963275671,1.0081021785736084,-0.054693691432476,-0.6214912533760071,-0.0237881559878587,0.0010258088586851,0.0,0.0,-0.9582251310348512,-0.446297287940979
-0.0375470146536827,0.9937050938606262,-0.0526023730635643,-0.6398723125457764,-0.0239196177572011,-0.0026296013966202,0.0,0.0,-0.8508208394050598,-0.2650397419929504
-0.0380552299320697,0.978894591331482,-0.0505041405558586,-0.6582534909248352,-0.0242361817508935,-0.0063312239944934,0.0,0.0,-0.8141072392463684,-0.8762060403823853
-0.0385966300964355,0.9636690616607666,-0.0549508035182952,-0.6766756176948547,-0.0234288852661848,0.0161459669470787,0.0,0.0,-0.6264355182647705,-0.5969434380531311
-0.0391735062003135,0.9480292797088624,-0.0597119219601154,-0.6950676441192627,-0.0214355625212192,0.039866778999567,0.0,0.0,-0.3907204866409302,0.2200970649719238
-0.039731215685606,0.931976079940796,-0.057599376887083,-0.7134491205215454,-0.0196334235370159,0.0360428690910339,0.0,0.0,-0.0029469728469848,0.0428736209869384
-0.0402698516845703,0.9155094623565674,-0.0554840974509716,-0.7318304777145386,-0.0180242527276277,0.0321832671761512,0.0,0.0,-0.0552572011947631,-0.0747997164726257
-0.0407891273498535,0.8986293077468872,-0.0533670596778392,-0.7502117156982422,-0.0166097376495599,0.02829035744071,0.0,0.0,0.4528132677078247,-0.4957709312438965
-0.0413448326289653,0.8823736906051636,-0.0564819201827049,-0.7224627733230591,-0.0157012157142162,0.0181700158864259,0.0,0.0,0.3337965011596679,-0.4716954231262207
-0.0418352112174034,0.8661518096923828,-0.0499551072716712,-0.7209568619728088,-0.014799197204411,0.0180405192077159,0.0,0.0,0.1923549175262451,0.5003819465637207
-0.0423382744193077,0.8502792716026306,-0.0498413033783435,-0.7054506540298462,-0.0152602400630712,-0.0092209242284297,0.0,0.0,-0.2220019102096557,0.348994493484497
-0.0428222641348838,0.8339931964874268,-0.0477267727255821,-0.7238317131996155,-0.0159215163439512,-0.0132255870848894,0.0,0.0,0.0405551195144653,-0.4492868185043335
-0.0432661995291709,0.8178723454475403,-0.0435847714543342,-0.7164944410324097,-0.0167155396193265,-0.0158804915845394,0.0,0.0,-0.4615646600723266,-0.5358096957206726
-0.0437329299747943,0.8013349175453186,-0.0467318221926689,-0.7349932789802551,-0.0166605599224567,0.0010995080228894,0.0,0.0,-0.2123610973358154,-0.3213981389999389
-0.0441807731986045,0.7843840718269348,-0.0446289107203483,-0.7533743977546692,-0.0168090220540761,-0.0029691224917769,0.0,0.0,0.095365285873413,-0.3822933435440063
-0.0445858016610145,0.7678702473640442,-0.0402196869254112,-0.7339494824409485,-0.0170960314571857,-0.0057400385849177,0.0,0.0,-0.0447002053260803,-0.5843133330345154
-0.0450120940804481,0.7509369850158691,-0.0431472733616828,-0.7525835037231445,-0.0165850240737199,0.0102202743291854,0.0,0.0,0.2183287143707275,-0.5072546601295471
-0.0454275123775005,0.7345407605171204,-0.0429218560457229,-0.7287088632583618,-0.0152239678427577,0.0272210929542779,0.0,0.0,-0.3089601993560791,0.429877758026123
-0.0458243377506732,0.7177309393882751,-0.0408473499119281,-0.7470899820327759,-0.0140695068985223,0.0230893045663833,0.0,0.0,0.0237959623336792,0.221279501914978
-0.0462534911930561,0.7011381983757019,-0.0436137504875659,-0.7374496459960938,-0.0133855091407895,0.0136799439787864,0.0,0.0,-0.2587215900421142,0.1987380981445312
-0.0466642379760742,0.6841319799423218,-0.0415590777993202,-0.7558306455612183,-0.0129092605784535,0.0095248781144618,0.0,0.0,-0.0627059936523437,-0.4520319104194641
-0.0470567718148231,0.6667120456695557,-0.0395157821476459,-0.774211585521698,-0.0126412454992532,0.0053599942475557,0.0,0.0,-0.3839755058288574,0.4488919973373413
-0.0474310889840126,0.6488787531852722,-0.0374848246574401,-0.7925925850868225,-0.0125819183886051,0.0011865238193422,0.0,0.0,0.3198609352111816,0.1137237548828125
-0.0478102676570415,0.6311008930206299,-0.037640243768692,-0.7901245951652527,-0.0128562608733773,-0.0054869074374437,0.0,0.0,0.7834110260009766,0.3260908126831054
-0.0480936057865619,0.6134346723556519,-0.028188694268465,-0.7851744890213013,-0.0130004435777664,-0.0028835933189839,0.0,0.0,0.7532776594161987,0.0799852609634399
-0.0483880043029785,0.5958956480026245,-0.0289273653179407,-0.7795158624649048,-0.0135093973949551,-0.0101789562031626,0.0,0.0,0.762423038482666,-0.1381092667579651
-0.0486623756587505,0.5792123675346375,-0.0266607590019702,-0.7414848208427429,-0.0142695056274533,-0.0152025446295738,0.0,0.0,0.4408057928085327,-0.3263429403305053
-0.0488392822444438,0.5631811618804932,-0.017036797478795,-0.7125057578086853,-0.0149168018251657,-0.0129455495625734,0.0,0.0,-0.0490473508834838,0.86916184425354
-0.0489428527653217,0.5467439293861389,-0.0080709569156169,-0.7305683493614197,-0.0171801634132862,-0.0452671833336353,0.0,0.0,0.4941211938858032,0.4127388000488281
-0.0491413101553916,0.5303455591201782,-0.0167908333241939,-0.7288552522659302,-0.0201949905604124,-0.0602965727448463,0.0,0.0,0.7044508457183838,-0.5720610618591309
-0.0493069663643837,0.5147619247436523,-0.0145716918632388,-0.6926348805427551,-0.0221657324582338,-0.0394148528575897,0.0,0.0,-0.1647951602935791,-0.0546937584877014
-0.0494561195373535,0.4987647831439972,-0.0126984091475605,-0.7110164165496826,-0.0243466012179851,-0.0436177030205726,0.0,0.0,0.6355032920837402,0.0978904962539672
-0.0496267303824424,0.483362466096878,-0.0143832694739103,-0.6845943927764893,-0.0269886162132024,-0.0528400614857673,0.0,0.0,0.3157494068145752,-0.3456671237945556
-0.0497756004333496,0.4683821499347687,-0.0119600305333733,-0.6658472418785095,-0.0298846494406461,-0.0579206347465515,0.0,0.0,-0.2295548915863037,-0.4438865184783935
-0.0499086380004882,0.4529885053634643,-0.0101590622216463,-0.6842291951179504,-0.0329904332756996,-0.0621154829859733,0.0,0.0,0.935842990875244,0.0116233825683593
-0.0499850288033485,0.4377813637256622,-0.0044144950807094,-0.6759451627731323,-0.0361772701144218,-0.0637366846203804,0.0,0.0,0.7892181873321533,-0.271196186542511
-0.0499299056828022,0.4228092133998871,0.0084805572405457,-0.6655070781707764,-0.0391086153686046,-0.0586270503699779,0.0,0.0,0.7451262474060059,-0.65601646900177
-0.0497200973331928,0.4083206951618194,0.0224416591227054,-0.6439730525016785,-0.0405438691377639,-0.0287052746862173,0.0,0.0,0.8202806711196899,-0.5618103742599487
-0.0493586547672748,0.3940584361553192,0.036225140094757,-0.6338809132575989,-0.0406189151108264,-0.0015010593924671,0.0,0.0,0.691973090171814,-0.6767476797103882
-0.0490110404789447,0.3805443942546844,0.0336927436292171,-0.6005954146385193,-0.0395693108439445,0.0209921170026063,0.0,0.0,0.1393532752990722,-0.5847693681716919
-0.0486510284245014,0.3674067258834839,0.0339296087622642,-0.5838412642478943,-0.0375244915485382,0.040896289050579,0.0,0.0,0.1789588928222656,-0.6355587840080261
-0.0482103340327739,0.3545688688755035,0.0407780148088932,-0.5704914927482605,-0.0342725329101085,0.0650391951203346,0.0,0.0,-0.3036457300186157,0.2553790807723999
-0.0477561950683593,0.3413176834583282,0.0423359423875808,-0.5888736844062805,-0.0312270186841487,0.0609100572764873,0.0,0.0,0.4199304580688476,0.1170988082885742
-0.0473202690482139,0.328311413526535,0.0409240536391735,-0.5780027508735657,-0.0285962484776973,0.0526153370738029,0.0,0.0,0.7371788024902344,0.2691714763641357
-0.0467567443847656,0.3162481784820556,0.0534860715270042,-0.5360914468765259,-0.0257589109241962,0.0567466020584106,0.0,0.0,-0.3470860123634338,-0.1026070713996887
-0.0461807250976562,0.3037715554237366,0.0549348406493663,-0.5544732809066772,-0.023125858977437,0.0526609309017658,0.0,0.0,0.3771699666976928,-0.272193431854248
-0.0456809997558593,0.2918795049190521,0.0479966774582862,-0.5285070538520813,-0.0211760662496089,0.0389957353472709,0.0,0.0,0.7801663875579834,-0.3148077726364136
-0.0450599677860736,0.28069868683815,0.0598996579647064,-0.496897429227829,-0.0189949572086334,0.0436222478747367,0.0,0.0,-0.2636573314666748,-0.5534687042236328
-0.0444751754403114,0.2691097557544708,0.0552527830004692,-0.5150251388549805,-0.0158165656030178,0.0635679513216018,0.0,0.0,0.3310221433639526,-0.0565801858901977
-0.0439367294311523,0.2580137848854065,0.0511469915509223,-0.4931279420852661,-0.0131469219923019,0.0533928498625755,0.0,0.0,-0.0553576946258544,-0.3477054834365845
-0.0433876998722553,0.2465043812990188,0.0523953549563884,-0.5115095973014832,-0.0106764994561672,0.0494084171950817,0.0,0.0,0.5572265386581421,-0.7424550652503967
-0.0430027022957801,0.2354353815317154,0.0349289551377296,-0.4919326603412628,-0.0071502993814647,0.0705241113901138,0.0,0.0,0.7295033931732178,0.5583194494247437
-0.0427285209298133,0.224775418639183,0.0256297495216131,-0.4737676978111267,-0.0053823082707822,0.0353599265217781,0.0,0.0,0.5724935531616211,0.7412259578704834
-0.0422715172171592,0.2147309333086013,0.045385405421257,-0.4464218914508819,-0.0050763161852955,0.0061199250631034,0.0,0.0,-0.0350222587585449,-0.1332931518554687
-0.0418057441711425,0.2042728960514068,0.0464609377086162,-0.4648027420043945,-0.0049638682976365,0.0022489842958748,0.0,0.0,0.508713960647583,-0.5810772776603699
-0.0412305817008018,0.1944501549005508,0.056087352335453,-0.4365645945072174,-0.0035533544141799,0.0282099898904562,0.0,0.0,0.1647682189941406,-0.3130896091461181
-0.0406617149710655,0.1850345283746719,0.0557327643036842,-0.4184686541557312,-0.0024074993561953,0.0229170359671115,0.0,0.0,0.2673077583312988,-0.7495538592338562
-0.0400194153189659,0.1761970371007919,0.0615894198417663,-0.3927729427814483,0.0001938817295012,0.0520278289914131,0.0,0.0,-0.0683382749557495,-0.8704903721809387
-0.0394302383065223,0.1669462770223617,0.0549380555748939,-0.4111518859863281,0.0041209566406905,0.0785414353013038,0.0,0.0,0.6300654411315918,-0.5228147506713867
-0.0388867370784282,0.1584954559803009,0.0495279878377914,-0.3756134212017059,0.0088833607733249,0.0952478498220443,0.0,0.0,-0.0255541205406188,-0.8672680258750916
-0.0383987426757812,0.1496382355690002,0.0425871983170509,-0.3937025368213653,0.0150150507688522,0.1226338520646095,0.0,0.0,0.0229305028915405,-0.3844380974769592
-0.0378593429923057,0.1407948136329651,0.0476788319647312,-0.3931159675121307,0.0211988482624292,0.1236759275197982,0.0,0.0,0.2467271089553833,0.2023067474365234
-0.0374167449772357,0.1322350651025772,0.0386136323213577,-0.3805252611637115,0.0267798285931348,0.1116194352507591,0.0,0.0,0.4967807531356811,0.1570712327957153
-0.0370977409183979,0.1239566206932067,0.0269596986472606,-0.3680267333984375,0.0316499844193458,0.0974033623933792,0.0,0.0,0.2333705425262451,-0.5548911690711975
-0.0368491187691688,0.1158926114439964,0.0190247632563114,-0.3585341274738312,0.037419393658638,0.115388199687004,0.0,0.0,0.2398405075073242,0.5728442668914795
-0.0365445129573345,0.1080180704593658,0.0259036775678396,-0.3501001000404358,0.0419242866337299,0.0900977104902267,0.0,0.0,0.1086061000823974,0.6935442686080933
-0.0360917076468467,0.1000950410962104,0.0421734638512134,-0.3522234559059143,0.0449941419064998,0.0613969638943672,0.0,0.0,0.6598736047744751,0.8189742565155029
-0.0354934707283973,0.0928032249212265,0.0583408884704113,-0.3241269290447235,0.0464648269116878,0.0294135157018899,0.0,0.0,0.3241903781890869,-0.6025180816650391
-0.0349479690194129,0.0860705226659774,0.051969040185213,-0.2993137240409851,0.0490222834050655,0.0511490106582641,0.0,0.0,-0.0846093893051147,0.6470174789428711
