x_pos,y_pos,x_vel,y_vel,angle,ang_vel,leg_1,leg_2,main_booster,lat_booster
-0.0015245437389239,1.4029203653335571,-0.1549726277589798,-0.3555421829223633,0.0022572444286197,0.0445628575980663,0.0,0.0,0.8382408416504894,-0.9524698044915852
-0.0030618668533861,1.3950049877166748,-0.1584590524435043,-0.3518010079860687,0.0069397608749568,0.0936598107218742,0.0,0.0,0.1142634147513943,0.9361933524383298
-0.0044218064285814,1.3867892026901243,-0.1393645256757736,-0.3651703298091888,0.0102727273479104,0.0666656047105789,0.0,0.0,-0.7120801242574921,0.6917362641271166
-0.0057385442778468,1.3778678178787231,-0.1344330757856369,-0.3965297043323517,0.0129880970343947,0.0543125085532665,0.0,0.0,-0.9347846495448324,0.8809460084054266
-0.0069719315506517,1.3682467937469482,-0.1244232878088951,-0.4276068806648254,0.0140669308602809,0.0215784106403589,0.0,0.0,-0.4191061737506762,0.9423502550219174
-0.0081145288422703,1.3579224348068235,-0.1135275959968566,-0.4588525891304016,0.0133356377482414,-0.0146268410608172,0.0,0.0,-0.4038250687703986,0.9093573581795744
-0.0091885570436716,1.346895694732666,-0.1053876876831054,-0.4900681674480438,0.0113494135439395,-0.0397284030914306,0.0,0.0,-0.0958440425840385,0.6541996062618584
-0.010198307223618,1.3351677656173706,-0.0978145450353622,-0.52121502161026,0.0082237776368856,-0.0625188499689102,0.0,0.0,0.8639127080294333,0.6008381154785293
-0.0111829759553074,1.3241592645645142,-0.0945403724908828,-0.4892552196979522,0.0043424922041594,-0.0776326954364776,0.0,0.0,-0.1507660669871384,-0.9425809162628036
-0.0122417453676462,1.3124518394470217,-0.1043187752366066,-0.5203253626823425,0.0028051901608705,-0.0307488180696964,0.0,0.0,0.2129111010895366,0.8501685170785882
-0.0131614683195948,1.3006963729858398,-0.0892507657408714,-0.5224604606628418,0.000113740832603,-0.0538342483341693,0.0,0.0,-0.5731292787559004,-0.6000336654560221
-0.0141223911195993,1.2882356643676758,-0.0949074476957321,-0.5538131594657898,-0.0010561634553596,-0.0234000775963068,0.0,0.0,0.1025132712276575,0.9630956130151582
-0.0149028776213526,1.275775671005249,-0.0753978639841079,-0.5537794828414917,-0.0036689958069473,-0.0522613637149333,0.0,0.0,0.9069601160828804,-0.9631407427045288
-0.0156683921813964,1.2632173299789429,-0.0764759480953216,-0.5581459403038025,-0.0037469461094588,-0.0015591721748933,0.0,0.0,-0.97563719122443,0.8452626479266032
-0.0163506511598825,1.2499631643295288,-0.066518060863018,-0.5890768766403198,-0.005430603865534,-0.033676590770483,0.0,0.0,0.2086491119883959,-0.9239874099364916
-0.0170098301023244,1.2363202571868896,-0.0665868744254112,-0.6063525676727295,-0.0047739730216562,0.0131339207291603,0.0,0.0,-0.2913258055821479,-0.6145605549648514
-0.0177050586789846,1.2219805717468262,-0.0716016143560409,-0.6373143792152405,-0.0027186898514628,0.0411092862486839,0.0,0.0,0.160402897881529,0.6497492140232064
-0.0182344429194927,1.2073253393173218,-0.0543426088988781,-0.6513382196426392,-0.0013328226050361,0.0277198906987905,0.0,0.0,0.030418129947153,0.7463292817863133
-0.0186322219669818,1.1927238702774048,-0.0401873104274272,-0.6489561796188354,-0.0009306265856139,0.008044833317399,0.0,0.0,0.3130179052428088,0.6008834197682545
-0.019050408154726,1.1780925989151,-0.0413350947201252,-0.6502799987792969,-0.0014115850208327,-0.0096200853586196,0.0,0.0,0.9864721374176436,-0.7116779885217466
-0.0193557739257812,1.1641181707382202,-0.032360590994358,-0.62108314037323,0.0003838201228063,0.0359116643667221,0.0,0.0,-0.404575884356398,-0.7277986476017229
-0.0197151191532611,1.1494355201721191,-0.0396277531981468,-0.6525688171386719,0.0040373322553932,0.0730766505002975,0.0,0.0,0.2916144106346283,-0.8562358928158258
-0.0200250633060932,1.134686827659607,-0.036955215036869,-0.6555251479148865,0.0099344318732619,0.1179527416825294,0.0,0.0,-0.7647185739027611,0.8586033529927273
-0.0202561374753713,1.1192259788513184,-0.0275819506496191,-0.687187135219574,0.014358109794557,0.0884814485907554,0.0,0.0,0.4829630336793038,0.6913571420022241
-0.0205779075622558,1.1039278507232666,-0.03542410582304,-0.6799516081809998,0.0175678934901952,0.0642012804746627,0.0,0.0,-0.8546878029156246,-0.620340751568283
-0.0209568981081247,1.0879061222076416,-0.0431230589747428,-0.7121458053588867,0.022731089964509,0.1032638400793075,0.0,0.0,-0.5822806342262166,0.8431405287735811
-0.0212648399174213,1.0711883306503296,-0.03473936393857,-0.7430774569511414,0.0266214814037084,0.0778078734874725,0.0,0.0,0.9859916602590092,0.7224973822326645
-0.021707534790039,1.0552574396133425,-0.0467425212264061,-0.7080883383750916,0.0290675330907106,0.0489211603999137,0.0,0.0,0.8178726971911647,-0.6090975319925949
-0.0223727226257324,1.039896845817566,-0.0702317208051681,-0.6827682256698608,0.0327236205339431,0.0731218233704567,0.0,0.0,0.4809502668744814,0.958269054292173
-0.0229933746159076,1.024486780166626,-0.0642067119479179,-0.6849380731582642,0.0348462238907814,0.0424520671367645,0.0,0.0,0.9205553303238492,0.7541422247135674
-0.0235604289919137,1.0098612308502195,-0.0577732324600219,-0.6500518918037415,0.0359055623412132,0.0211867187172174,0.0,0.0,-0.905387918236197,0.9437782648070164
-0.0240572933107614,0.9945297837257384,-0.0494851469993591,-0.6813925504684448,0.0357053726911544,-0.0040040290914475,0.0,0.0,0.3014656331688716,-0.8299399558305112
-0.0247113220393657,0.979441463947296,-0.0671682655811309,-0.6706365346908569,0.0374447144567966,0.0347870327532291,0.0,0.0,0.2067020154771974,-0.8256306976756629
-0.0254884716123342,0.964030146598816,-0.0814542174339294,-0.6850484609603882,0.0411390885710716,0.0738873332738876,0.0,0.0,0.7129177045944215,-0.9630100428670724
-0.0263442043215036,0.9488883018493652,-0.0916205197572708,-0.6731463074684143,0.0471162572503089,0.1195433884859085,0.0,0.0,-0.3598325443170085,-0.6982716018384336
-0.0272480007261037,0.9330446720123292,-0.0981264561414718,-0.7044196724891663,0.0547680631279945,0.1530360281467437,0.0,0.0,-0.7560365880533004,0.6225393924512307
-0.0280990600585937,0.916498839855194,-0.0919600576162338,-0.7356418371200562,0.061549786478281,0.1356342136859893,0.0,0.0,0.0594675241210096,0.9764686972701806
-0.0288681983947753,0.8999977111816406,-0.0821050032973289,-0.7336048483848572,0.0666753426194191,0.102511428296566,0.0,0.0,-0.4131133766847672,0.6509535683799904
-0.0295839309692382,0.8828049898147583,-0.0758119821548461,-0.7643097639083862,0.0708711594343185,0.083916500210762,0.0,0.0,0.5439303804726283,-0.644209293502419
-0.0303562171757221,0.865757405757904,-0.0830890983343124,-0.7579599618911743,0.0766776502132415,0.1161297932267189,0.0,0.0,-0.3983605518079722,-0.9042246461198232
-0.0312068946659564,0.8480046391487122,-0.0933291614055633,-0.7894566059112549,0.0848503112792968,0.1634532064199447,0.0,0.0,-0.2529171705245971,0.9543952941894532
-0.0319610610604286,0.8295581936836243,-0.0815809741616249,-0.8202043771743774,0.0909614115953445,0.1222223788499832,0.0,0.0,0.8460662364959717,0.9743356704711914
-0.0325431823730468,0.8109480738639832,-0.0628283321857452,-0.8274036049842834,0.0955319926142692,0.0914117097854614,0.0,0.0,0.9636280536651612,0.7592031955718994
-0.0329922661185264,0.7925979495048523,-0.0484786964952945,-0.8157969117164612,0.0990736708045005,0.0708340406417846,0.0,0.0,0.8195265531539917,0.986518621444702
-0.0334389694035053,0.7740206122398376,-0.0463556945323944,-0.8257697224617004,0.1007438823580741,0.0334040150046348,0.0,0.0,0.9280505180358888,0.9162728786468506
-0.0337876304984092,0.7553319334983826,-0.0349626988172531,-0.8306098580360413,0.1008416265249252,0.0019549918361008,0.0,0.0,0.8566005229949951,0.964223861694336
-0.0340291038155555,0.7367068529129028,-0.0225506648421287,-0.827678382396698,0.0992597192525863,-0.031638141721487,0.0,0.0,0.8970293998718262,0.9458930492401124
-0.0344284996390342,0.7188066840171814,-0.0362867638468742,-0.795317530632019,0.0956373661756515,-0.0724472180008888,0.0,0.0,0.6617114543914795,0.7821133136749268
-0.0349835380911827,0.7013813853263855,-0.0500648505985736,-0.7741219401359558,0.0902488604187965,-0.1077700704336166,0.0,0.0,-0.0773131847381591,0.5967913866043091
-0.0354878418147563,0.6832569241523743,-0.0438817217946052,,0.0837571322917938,-0.1298342645168304,0.0,0.0,0.7334601879119873,0.5522727966308594
-0.0358333587646484,0.6653501987457275,-0.0273398198187351,-0.7954651117324829,0.076617307960987,-0.1427968442440033,0.0,0.0,0.1420727968215942,0.7508658170700073
-0.0361991897225379,0.6475087404251099,-0.0278194732964038,-0.7925359606742859,0.0679315701127052,-0.1737149804830551,0.0,0.0,0.7587361335754395,-0.3267964124679565
-0.0364765152335166,0.6296839714050293,-0.019452104344964,-0.7918526530265808,0.0597504638135433,-0.1636218577623367,0.0,0.0,0.5880591869354248,0.1262894868850708
-0.0367918014526367,0.6123045682907104,-0.0232145525515079,-0.7721108794212341,0.0515241846442222,-0.16452556848526,0.0,0.0,0.5440480709075928,-0.8389906883239746
-0.0370368957519531,0.5949081182479858,-0.0180240310728549,-0.7729682922363281,0.0451144091784954,-0.1281955540180206,0.0,0.0,0.4931820631027221,-0.0446175932884216
-0.0373832695186138,0.5774403214454651,-0.0276270397007465,-0.7761468887329102,0.0381956472992897,-0.1383751332759857,0.0,0.0,0.7216465473175049,-0.0323044657707214
-0.0376591682434082,0.5605196952819824,-0.0209170188754796,-0.7518750429153442,0.0315962843596935,-0.1319871246814727,0.0,0.0,0.4980132579803467,0.5928329229354858
-0.0377678871154785,0.5438234806060791,-0.0031438502483069,-0.7419097423553467,0.0239687953144311,-0.1525498926639557,0.0,0.0,0.633873462677002,-0.6659747958183289
-0.0378646850585937,0.5276527404785156,-0.0032905377447605,-0.7186129689216614,0.0176626667380332,-0.1261225938796997,0.0,0.0,0.2445307970046997,-0.1761710047721862
-0.0380255691707134,0.511664628982544,-0.0092327389866113,-0.7105150818824768,0.0108894417062401,-0.1354645937681198,0.0,0.0,-0.1009417176246643,-0.0613478422164917
-0.0381830222904682,0.4949731528759002,-0.008657731115818,-0.7418088316917419,0.0038937870413064,-0.1399131715297699,0.0,0.0,0.7845953702926636,-0.5079822540283203
-0.0384952537715435,0.4787164628505707,-0.0245776623487472,-0.7225171327590942,-0.0026669253129512,-0.1312140822410583,0.0,0.0,0.6236088275909424,-0.2160754203796386
-0.0386815071105957,0.4625182151794433,-0.0122851859778165,-0.7199487686157227,-0.008927141316235,-0.1252044439315796,0.0,0.0,0.9143939018249512,-0.6908791661262512
-0.038883589208126,0.4466830193996429,-0.0150455432012677,-0.7038253545761108,-0.0140196215361356,-0.1018498316407203,0.0,0.0,0.7918850183486938,-0.6970201730728149
-0.0391225814819335,0.4307920336723327,-0.01986550912261,-0.7063101530075073,-0.0180002674460411,-0.0796126499772071,0.0,0.0,0.8526729345321655,0.1066606044769287
-0.0394855514168739,0.4151950180530548,-0.0312996618449687,-0.6932665705680847,-0.0229338183999061,-0.0986710637807846,0.0,0.0,0.8108747005462646,-0.158395767211914
-0.0398007407784462,0.4003003239631653,-0.0262993723154068,-0.6620747447013855,-0.0280837956815958,-0.102999672293663,0.0,0.0,0.9107265472412108,-0.6541225910186768
-0.040053654462099,0.3851991891860962,-0.0213181637227535,-0.6712404489517212,-0.0320104584097862,-0.0785329788923263,0.0,0.0,0.950920820236206,-0.4174443483352661
-0.0402398109436035,0.3709042370319366,-0.0144369574263691,-0.6354277729988098,-0.0361406989395618,-0.0826051384210586,0.0,0.0,0.8772432804107666,-0.5418530106544495
-0.0405606254935264,0.3567179441452026,-0.0282860808074474,-0.6305968165397644,-0.0398823544383049,-0.0748332217335701,0.0,0.0,0.8574246168136597,-0.2423312067985534
-0.0409517288208007,0.3429752886295318,-0.0344640389084816,-0.6109177470207214,-0.0444750636816024,-0.0918540656566619,0.0,0.0,0.2536618709564209,-0.5304113030433655
-0.0413359627127647,0.3292388021945953,-0.0345109403133392,-0.610632598400116,-0.0483415536582469,-0.0773296952247619,0.0,0.0,0.7454532384872437,-0.7856436371803284
-0.0418858528137207,0.3161594867706299,-0.0519627034664154,-0.5813997387886047,-0.0513308234512805,-0.0597857236862182,0.0,0.0,0.943253755569458,-0.9054207801818848
-0.0423752777278423,0.3033923208713531,-0.0475085191428661,-0.567482054233551,-0.0527391619980335,-0.0281668361276388,0.0,0.0,0.8001244068145752,-0.3595395088195801
-0.0428767204284668,0.2905625700950622,-0.0481327101588249,-0.5702825784683228,-0.0547257401049137,-0.0397314503788948,0.0,0.0,0.7653896808624268,0.1655739545822143
-0.0432845130562782,0.2775434851646423,-0.0386897698044776,-0.5787056684494019,-0.0567914731800556,-0.0413148924708366,0.0,0.0,0.9350391626358032,0.0967400074005127
-0.0437046997249126,0.2644192576408386,-0.0393262282013893,-0.5834041237831116,-0.059450164437294,-0.0531736835837364,0.0,0.0,0.9777544736862184,-0.2743884325027466
-0.0440764427185058,0.2520140707492828,-0.0340057760477066,-0.5514694452285767,-0.0625828653573989,-0.0626543313264846,0.0,0.0,0.8723385334014893,-0.9295066595077516
-0.0443611145019531,0.2402961105108261,-0.0269106142222881,-0.5208651423454285,-0.0641226917505264,-0.0307965874671936,0.0,0.0,0.7191742658615112,-0.4699659347534179
-0.0447059646248817,0.2291588634252548,-0.0319344773888587,-0.4950991570949554,-0.066640630364418,-0.0503585636615753,0.0,0.0,0.7539653778076172,-0.9291099905967712
-0.0452521331608295,0.2178573906421661,-0.0532494001090526,-0.5023481249809265,-0.0679914876818656,-0.0270173288881778,0.0,0.0,0.5952222347259521,-0.2924122214317322
-0.0457056984305381,0.2069906592369079,-0.0437255799770355,-0.4830423593521118,-0.0696086883544921,-0.0323439575731754,0.0,0.0,0.5928289890289307,-0.5377596616744995
-0.0462659820914268,0.1962658911943435,-0.0547447092831134,-0.4767160713672638,-0.070877157151699,-0.0253693703562021,0.0,0.0,0.6059293746948242,0.195938229560852
-0.04683094099164,0.1858290284872055,-0.0545106455683708,-0.4639555513858795,-0.07284577190876,-0.0393723510205745,0.0,0.0,0.2589513063430786,-0.4863702058792114
-0.0473646149039268,0.1754868626594543,-0.0508650727570056,-0.4597774446010589,-0.0753132700920105,-0.0493500232696533,0.0,0.0,0.4863622188568115,-0.6465221643447876
-0.0478224754333496,0.1652202159166336,-0.0443108305335044,-0.456369549036026,-0.0767763629555702,-0.0292619168758392,0.0,0.0,0.692378044128418,-0.7353718280792236
-0.0482836738228797,0.1547709107398986,-0.0457119084894657,-0.4644365608692169,-0.0771843940019607,-0.0081607121974229,0.0,0.0,0.7475845813751221,0.3421816825866699
-0.0486125946044921,0.1442436277866363,-0.0324701853096485,-0.4679012894630432,-0.0776030570268631,-0.0083730462938547,0.0,0.0,0.8629374504089355,0.5751825571060181
-0.0486681945621967,0.1339496672153473,-0.0039954748935997,-0.4575878977775574,-0.0791465118527412,-0.0308692902326583,0.0,0.0,0.8726519346237183,-0.7764274477958679
-0.0485766418278217,0.1236016377806663,0.0092461230233311,-0.4599180519580841,-0.0792409181594848,-0.0018880810821428,0.0,0.0,0.976938009262085,-0.7489600777626038
-0.0484784133732318,0.1139076352119445,0.0088950153440237,-0.4307970106601715,-0.07832982391119,0.0182222537696361,0.0,0.0,0.9556319713592528,-0.5950208902359009
-0.0483162887394428,0.1048582196235656,0.0144682098180055,-0.402103990316391,-0.0765958800911903,0.0346786230802536,0.0,0.0,0.7881370782852173,-0.8249204158782959
-0.0480143539607524,0.09617879986763,0.0269697718322277,-0.3855933547019958,-0.0734080225229263,0.0637573823332786,0.0,0.0,0.6511536836624146,-0.7715307474136353
-0.047637652605772,0.087270364165306,0.0331700779497623,-0.3957140743732452,-0.0689518004655838,0.0891243070363998,0.0,0.0,0.9137709140777588,-0.823540449142456
-0.0473503097891807,0.0785526856780052,0.0231917034834623,-0.3872063755989074,-0.0634710639715194,0.1096147075295448,0.0,0.0,0.9774917364120485,0.0885164737701416
-0.0468949303030967,0.0706681311130523,0.0400038287043571,-0.3502025306224823,-0.057998914271593,0.1094430834054946,0.0,0.0,0.7501401901245117,-0.6456199884414673
-0.0464808456599712,0.0629896521568298,0.0351221188902854,-0.3410338759422302,-0.0517844706773757,0.1242887377738952,0.0,0.0,0.8375217914581299,0.6151914596557617
-0.0461190231144428,0.0559465996921062,0.0320084020495414,-0.3128862977027893,-0.0476595237851142,0.0824988335371017,0.0,0.0,0.7111150026321411,-0.1086037755012512
-0.0456314086914062,0.0492764823138713,0.0446529537439346,-0.2963234782218933,-0.0435973443090915,0.0812437385320663,0.0,0.0,0.8260045051574707,-0.1476324200630188
-0.045165441930294,0.0431493856012821,0.0432491078972816,-0.272223562002182,-0.0402893163263797,0.0661603882908821,0.0,0.0,0.6776242256164551,0.2683238983154297
-0.0447514541447162,0.0374632440507411,0.0389247387647628,-0.2526527047157287,-0.0378509424626827,0.0487674698233604,0.0,0.0,0.1302182674407959,0.3317513465881347
-0.0443404205143451,0.0315849892795085,0.0392024964094162,-0.2612095475196838,-0.0359728373587131,0.0375623814761638,0.0,0.0,0.6051771640777588,0.0256617069244384
-0.0440203659236431,0.0258849002420902,0.0311143156141042,-0.2533137500286102,-0.0351010784506797,0.0174353383481502,0.0,0.0,0.6669363975524902,-0.2348318099975586
-0.0438323989510536,0.0202812999486923,0.0191099382936954,-0.2490589767694473,-0.0354140065610408,-0.006258619017899,0.0,0.0,0.8014634847640991,0.5859246253967285
-0.0434455871582031,0.0151428319513797,0.0403322726488113,-0.2284129709005355,-0.0370454899966716,-0.0326298475265502,0.0,0.0,0.7997143268585205,-0.3110661506652832
-0.0429760925471782,0.0098994709551334,0.048781618475914,-0.2330849319696426,-0.0388507470488548,-0.0361054129898548,0.0,0.0,0.8658050298690796,0.2820229530334472
-0.0423083305358886,0.0052342154085636,0.0683227926492691,-0.2073853313922882,-0.0403814204037189,-0.0306134782731533,0.0,0.0,0.7176908254623413,-0.0912932157516479
-0.0416308417916297,0.0010759329888969,0.0699026361107826,-0.1848725229501724,-0.042505394667387,-0.0424793139100074,1.0,0.0,0.9370368719100952,0.1399416923522949
-0.0407134070992469,-0.0019141936209052,0.0845056101679802,-0.1330649256706237,-0.0341946259140968,0.1676861643791198,1.0,0.0,0.8319268226623535,-0.902236819267273
-0.0396634116768837,-0.004256262909621,0.083094447851181,-0.1037473976612091,-0.0125265028327703,0.4334146976470947,1.0,0.0,0.3086322546005249,-0.3312535285949707
-0.0387655273079872,-0.0053905509412288,0.0762801840901374,-0.0504074282944202,0.0006782016716897,0.2639369964599609,1.0,1.0,0.6391887664794922,-0.5454597473144531
-0.0380118377506732,-0.0051406407728791,0.0692503899335861,0.0109874214977025,0.0062865694053471,0.1116187125444412,1.0,1.0,-0.635861873626709,-0.7960617542266846
-0.0374759659171104,-0.004676260985434,0.0540941543877124,0.0206339564174413,0.0057941586710512,-0.0098392385989427,1.0,1.0,-0.4591482877731323,-0.8966829776763916
-0.0371433272957801,-0.0039736293256282,0.0357208475470542,0.0312286652624607,0.0033757365308701,-0.0483564771711826,1.0,1.0,-0.2767919301986694,-0.7557622194290161
-0.0368883125483989,-0.0030974054243415,0.0266170464456081,0.0389441885054111,0.0022828222718089,-0.0218544732779264,1.0,1.0,-0.3102014660835266,-0.4782798886299133
-0.0366292968392372,-0.0020871425513178,0.0266801416873931,0.0449027940630912,0.001513953320682,-0.0153746772557497,1.0,1.0,-0.3776880502700805,-0.3137279152870178
-0.0363632217049598,-0.0009999537141993,0.026796381920576,0.0483181029558181,0.0013235487276688,-0.003806619439274,1.0,1.0,-0.5096631050109863,-0.3830652832984924
-0.0360968597233295,-0.0006469035288318,0.0268112812191247,0.0156906992197036,0.0011584734311327,-0.0033014700748026,1.0,1.0,-0.4798917770385742,-0.3855211734771728
-0.0358617790043354,-0.0006493353866972,0.0235053543001413,-0.0001092091260943,0.0011571059003472,-2.638082878547721e-05,1.0,1.0,-0.6387017965316772,-0.2096284031867981
-0.0356930717825889,-0.0006518387817777,0.0168687738478183,-0.000111161818495,0.0011557054240256,-2.685989602468908e-05,1.0,1.0,-0.6110445261001587,0.0964128971099853
-0.0355910286307334,-0.0006518387817777,0.0102074686437845,,0.0011556997196748,-1.6868133911884797e-07,1.0,1.0,-0.6033468842506409,0.0958905220031738
