x_pos,y_pos,x_vel,y_vel,angle,ang_vel,leg_1,leg_2,main_booster,lat_booster
-0.0014962196582928,1.4032995700836182,-0.1515618562698364,-0.3386958837509155,0.0017324582440778,0.034172486513853,0.0,0.0,0.2348821646842338,0.5239630049831392
-0.0028814314864575,1.395891785621643,-0.1392658203840255,-0.329230785369873,0.0024625901132822,0.0146048991009593,0.0,0.0,0.2027341316013209,-0.5303194292310989
-0.0041738511063158,1.3885960578918457,-0.1312538981437683,-0.3242597281932831,0.0044573708437383,0.0398995503783226,0.0,0.0,-0.8551985318293591,-0.7790604770110698
-0.0055101392790675,1.380972146987915,-0.1374910324811935,-0.3388506770133972,0.0082784593105316,0.0764288157224655,0.0,0.0,0.106537075386528,0.631608116913857
-0.0066733360290527,1.3736824989318848,-0.1190542429685592,-0.3240041136741638,0.0109790116548538,0.0540159940719604,0.0,0.0,-0.0071880178300287,-0.8700919155682529
-0.0078588481992483,1.3660657405853271,-0.1226140111684799,-0.3385595977306366,0.0149953849613666,0.0803347080945968,0.0,0.0,-0.0001229345098454,0.7509476995059532
-0.0089563373476266,1.3581254482269287,-0.1123537793755531,-0.3529321849346161,0.0175652746111154,0.0514027848839759,0.0,0.0,-0.3672640708850803,0.5955436157147467
-0.0099637983366847,1.3498634099960327,-0.1018389835953712,-0.3672150373458862,0.0186514537781476,0.0217254366725683,0.0,0.0,-0.8508619046491801,-0.7736188891137983
-0.0110012050718069,1.341283082962036,-0.1064095869660377,-0.3813840448856354,0.0212883353233337,0.0527425780892372,0.0,0.0,0.709450682040943,0.9788733459733998
-0.0119458194822072,1.3335133790969849,-0.0951598435640335,-0.3453280329704284,0.0219716932624578,0.0136687131598591,0.0,0.0,-0.4540469523066102,0.5556689888380395
-0.0128072742372751,1.3254204988479614,-0.0855559557676315,-0.3596734702587127,0.0213878080248832,-0.0116787943989038,0.0,0.0,-0.6030116676091992,-0.5441373534563531
-0.013672923669219,1.317000389099121,-0.086928978562355,-0.3742322325706482,0.0217475444078445,0.0071954438462853,0.0,0.0,0.1040498099243385,0.545048097890126
-0.01437549572438,1.308963656425476,-0.0696922689676284,-0.3571837842464447,0.0211957991123199,-0.0110361594706773,0.0,0.0,-0.1934286841032351,-0.5261348723280102
-0.0150801660493016,1.3005954027175903,-0.0708395689725875,-0.3719182312488556,0.021561836823821,0.0073214219883084,0.0,0.0,-0.7267662623894109,-0.9396060609675736
-0.0158069618046283,1.2919104099273682,-0.0744875445961952,-0.3860316276550293,0.023348119109869,0.0357289239764213,0.0,0.0,0.4779352913645551,-0.6592992452464015
-0.0164492614567279,1.2832932472229004,-0.067577451467514,-0.3830361664295196,0.0266604796051979,0.0662533789873123,0.0,0.0,0.116080829822678,0.9713397475390706
-0.016884421929717,1.2752364873886108,-0.0449107326567173,-0.3581035435199737,0.0280344057828187,0.0274808313697576,0.0,0.0,0.9420730436768956,-0.5266320043984404
-0.0171605106443166,0.0,-0.0305882953107357,-0.3431788086891174,0.0309889540076255,0.0590963475406169,0.0,0.0,-0.2314448329757261,0.6432988998166727
-0.0173416137695312,1.259480118751526,-0.0195942632853984,-0.3572046458721161,0.0324541367590427,0.0293062087148427,0.0,0.0,-0.4432470705588718,0.7636891658079685
-0.0174341201782226,1.2511208057403564,-0.0093993786722421,-0.3715229630470276,0.0326033309102058,0.0029839379712939,0.0,0.0,0.3487049565625861,-0.6106972821778962
-0.0174440387636423,1.2433645725250244,-0.0025895826984196,-0.3447605669498443,0.0341921262443065,0.0317787043750286,0.0,0.0,0.9608291645640376,-0.7327647984414022
-0.0174777992069721,1.2360639572143557,-0.0064821802079677,-0.3245414793491363,0.0372709147632122,0.0615812726318836,0.0,0.0,0.6951623239535234,0.9632674497078052
-0.0172695163637399,1.2292871475219729,0.019439872354269,-0.3012285828590393,0.0386393219232559,0.027370486408472,0.0,0.0,-0.9235908958850624,-0.6398911657270935
-0.0170684810727834,1.2221755981445312,0.0175818614661693,-0.3161388635635376,0.041132990270853,0.0498780235648155,0.0,0.0,-0.0284984469560969,0.6707276175108172
-0.0167895313352346,1.2147433757781982,0.026407565921545,-0.330360472202301,0.0426050201058387,0.0294435266405344,0.0,0.0,0.4169410454288489,-0.5181696161956261
-0.0166737549006938,1.2078611850738523,0.0093701444566249,-0.3059369325637817,0.0447785966098308,0.0434713773429393,0.0,0.0,-0.3778751864602649,-0.6298876598469272
-0.0165698044002056,1.2006548643112185,0.0069369934499263,-0.3203920423984527,0.0481968261301517,0.0683644860982894,0.0,0.0,-0.2927002262252416,-0.845972705085648
-0.0165095329284667,1.1931266784667969,0.000498741690535,-0.3347751796245575,0.0536625906825065,0.109315201640129,0.0,0.0,-0.4888302710315975,0.5529769281344474
-0.0163770671933889,1.1852810382843018,0.0085902977734804,-0.3488649725914001,0.0582664981484413,0.0920781716704368,0.0,0.0,-0.6162184454273045,0.5461338702551545
-0.0161646846681833,1.177112340927124,0.0176464188843965,-0.3631986379623413,0.0618232674896717,0.0711351633071899,0.0,0.0,-0.4637483419996757,-0.8409473836116742
-0.0159787181764841,1.1686224937438965,0.0133644845336675,-0.3775559961795807,0.0670016556978225,0.103567935526371,0.0,0.0,-0.9852580428123474,0.9757640361785888
-0.0156869888305664,1.159808874130249,0.0256477836519479,-0.3918778598308563,0.0704919919371604,0.0698068216443061,0.0,0.0,-0.9847849011421204,0.6377055644989014
-0.0153136253356933,1.1506810188293457,0.0349156036972999,-0.4058004915714264,0.0728877186775207,0.0479144603013992,0.0,0.0,-0.9687097072601318,0.941346287727356
-0.0148348808288574,1.1412267684936523,0.0471418462693691,-0.4202180802822113,0.0736125037074089,0.0144953997805714,0.0,0.0,-0.9292073249816896,0.0787550210952758
-0.0143176075071096,1.1314477920532229,0.0509934723377227,-0.4346619546413421,0.0743404552340507,0.01455910038203,0.0,0.0,-0.8258567452430725,0.1746065616607666
-0.0137618063017725,1.121343731880188,0.0548460967838764,-0.4491057693958282,0.0750718340277671,0.0146273747086524,0.0,0.0,-0.9667981266975404,-0.0582948923110961
-0.013167381286621,1.110914707183838,0.0586981177330017,-0.4635496139526367,0.0758068114519119,0.0146995885297656,0.0,0.0,-0.8939632177352905,0.2141231298446655
-0.0125344274565577,1.1001607179641724,0.0625479072332382,-0.4779934585094452,0.0765455737709999,0.0147752193734049,0.0,0.0,-0.9512127041816713,-0.4402809739112854
-0.0118629457429051,1.0890817642211914,0.0663938075304031,-0.492437332868576,0.07728823274374,0.0148535128682851,0.0,0.0,-0.9279122352600098,-0.100735604763031
-0.0111530302092432,1.0776777267456057,0.0702341198921203,-0.5068811774253845,0.0780349299311637,0.0149340312927961,0.0,0.0,-0.7962578535079956,0.3256597518920898
-0.0104046817868947,1.065948724746704,0.074067123234272,-0.5213250517845154,0.0787857249379158,0.0150161441415548,0.0,0.0,-0.9533944129943848,-0.0068380236625671
-0.0096181873232126,1.0538949966430664,0.077891044318676,-0.5357688069343567,0.0795406997203826,0.0150993643328547,0.0,0.0,-0.6883995532989502,-0.0781242251396179
-0.0087935449555516,1.0415160655975342,0.0817040503025055,-0.5502126812934875,0.080299861729145,0.0151831712573766,0.0,0.0,-0.7324100136756897,0.3625345230102539
-0.0079307556152343,1.028812289237976,0.0855042561888694,-0.5646565556526184,0.0810632035136222,0.0152670536190271,0.0,0.0,-0.5800408124923706,-0.3600714206695556
-0.0070301056839525,1.0157833099365234,0.0892897099256515,-0.5791004300117493,0.0818307325243949,0.0153505550697445,0.0,0.0,-0.8473778963088989,-0.2030898928642273
-0.0060916901566088,1.0024296045303345,0.0930583551526069,-0.5935442447662354,0.0826023966073989,0.0154332127422094,0.0,0.0,-0.7905535697937012,-0.4402111768722534
-0.0051157949492335,0.98875093460083,0.0968080833554267,-0.6079881191253662,0.0833781212568283,0.0155147118493914,0.0,0.0,-0.9029973149299622,-0.2645186185836792
-0.0041026114486157,0.9747472405433656,0.1005366891622543,-0.6224319338798523,0.0841578468680381,0.0155944926664233,0.0,0.0,-0.7810022830963135,0.1174876689910888
-0.0030522346496582,0.9604185223579408,0.1042418703436851,-0.6368758082389832,0.0849414691329002,0.0156722851097583,0.0,0.0,-0.7949972748756409,-0.2597849369049072
-0.001965045928955,0.9457647800445556,0.1079211831092834,-0.651319682598114,0.0857288390398025,0.0157477613538503,0.0,0.0,-0.6997354030609131,0.0638957023620605
-0.0008414268377237,0.9307860732078552,0.1115721315145492,-0.6657635569572449,0.0865198820829391,0.0158206410706043,0.0,0.0,-0.879223108291626,-0.1505261659622192
0.0003185272216796,0.915482461452484,0.1151920109987258,-0.680207371711731,0.0873143970966339,0.0158903561532497,0.0,0.0,-0.7375754117965698,-0.2127124667167663
0.0015144348144531,0.8998539447784424,0.1187780275940895,-0.6946513056755066,0.0881122350692749,0.0159568302333354,0.0,0.0,-0.8042807579040527,0.2214081287384033
0.0027458190452307,0.8839003443717957,0.1223272085189819,-0.7090951800346375,0.0889132171869278,0.0160198472440242,0.0,0.0,-0.5847222805023193,0.7740297317504883
0.0040884972549974,0.8676291108131409,0.1354038119316101,-0.7231005430221558,0.0877940505743026,-0.0223834216594696,0.0,0.0,-0.1088871359825134,-0.9431989192962646
0.0053801536560058,0.8510172963142395,0.1280842721462249,-0.7383648753166199,0.0888565108180046,0.0212495066225528,0.0,0.0,-0.8273157477378845,-0.164021611213684
0.0067058564163744,0.8340804576873779,0.131503626704216,-0.7528087496757507,0.0899215713143348,0.0213010665029287,0.0,0.0,-0.5011006593704224,-0.6323806643486023
0.008026790805161,0.8168162107467651,0.1300367265939712,-0.7674286365509033,0.0919595211744308,0.0407588258385658,0.0,0.0,-0.8610116243362427,0.1363475322723388
0.0093809124082326,0.7992269396781921,0.1333516091108322,-0.7818728089332581,0.0939996391534805,0.0408024154603481,0.0,0.0,-0.5823475122451782,0.191500186920166
0.0107675548642873,0.7813126444816589,0.1366082727909088,-0.796316921710968,0.0960417613387107,0.040842093527317,0.0,0.0,-0.5449665188789368,0.7948818206787109
0.0122545240446925,0.7630764842033386,0.1483712196350097,-0.8105188012123108,0.0963688343763351,0.0065412772819399,0.0,0.0,-0.5338650345802307,-0.5918371677398682
0.0137182231992483,0.7445104122161865,0.1446553021669387,-0.825266420841217,0.0980726033449173,0.0340752527117729,0.0,0.0,-0.4055172204971313,-0.0555331707000732
0.0152126308530569,0.7256194949150085,0.1477108895778656,-0.8397104144096375,0.099777765572071,0.0341035984456539,0.0,0.0,-0.233908474445343,-0.0205653309822082
0.0167366974055767,0.7064036130905151,0.1506898999214172,-0.8541545271873474,0.1014842018485069,0.034128550440073,0.0,0.0,-0.1976228952407837,-0.7898744344711304
0.018228817731142,0.6868476271629333,0.1459247469902038,-0.8693798780441284,0.1047483086585998,0.0652822256088256,0.0,0.0,0.6323907375335693,-0.9505610466003418
0.0194761268794536,0.6678052544593811,0.1197163090109825,-0.8466892242431641,0.1097326576709747,0.0996870249509811,0.0,0.0,0.7089903354644775,0.5534405708312988
0.0207203868776559,0.6497753858566284,0.1204573139548301,-0.8016175627708435,0.1136745363473892,0.0788376182317733,0.0,0.0,0.3064377307891845,0.9123983383178712
0.0221114158630371,0.631779670715332,0.1369121819734573,-0.799980103969574,0.1158531829714775,0.0435729064047336,0.0,0.0,-0.3824046850204468,-0.4502862691879272
0.0235276222229003,0.6134589910507202,0.1394270211458206,-0.8144243955612183,0.1180325150489807,0.043586503714323,0.0,0.0,0.2423422336578369,0.0145659446716308
0.0248557087033987,0.5953309535980225,0.1309429109096527,-0.8058332800865173,0.1198850870132446,0.037051647901535,0.0,0.0,0.492578387260437,0.5315120220184326
0.0260863304138183,0.5777828693389893,0.1224897876381874,-0.779964029788971,0.1204543560743331,0.0113854194059968,0.0,0.0,-0.3735012412071228,0.3500541448593139
0.0273385997861623,0.5599097013473511,0.1246542334556579,-0.7944079041481018,0.1210242584347724,0.0113980332389473,0.0,0.0,0.8732962608337402,0.5401933193206787
0.028383444994688,0.543123185634613,0.1054490581154823,-0.7459937334060669,0.1200688332319259,-0.0191087778657674,0.0,0.0,0.1811082363128662,0.1835947036743164
0.0294500347226858,0.5266358256340027,0.1073751226067543,-0.7327134609222412,0.119357131421566,-0.0142340287566185,0.0,0.0,0.7137315273284912,0.1565092802047729
0.0304512027651071,0.5104213953018188,0.1009925603866577,-0.7205695509910583,0.1184845194220542,-0.0174523908644914,0.0,0.0,-0.0597512125968933,0.597987174987793
0.0315212234854698,0.4938850998878479,0.1092121824622154,-0.7347717881202698,0.1162873208522796,-0.0439436584711074,0.0,0.0,0.4619650840759277,-0.798015296459198
0.032477855682373,0.4774470329284668,0.0963107869029045,-0.7305300235748291,0.1156414300203323,-0.0129180951043963,0.0,0.0,-0.1252031326293945,-0.1009169220924377
0.0334473624825477,0.4606840014457702,0.0976021587848663,-0.7449738383293152,0.1149970144033432,-0.0128881353884935,0.0,0.0,0.7342753410339355,0.0904579162597656
0.0344133377075195,0.4448864459991455,0.0968589931726455,-0.702093243598938,0.1147430464625358,-0.005079579539597,0.0,0.0,0.4319071769714355,-0.233496606349945
0.0352111831307411,0.4298028349876404,0.0804938822984695,-0.6703293919563293,0.114041231572628,-0.0140365911647677,0.0,0.0,0.0237032175064086,0.2875717878341675
0.035913847386837,0.4146864712238312,0.0713421776890754,-0.6717594861984253,0.1129709929227829,-0.0214046128094196,0.0,0.0,0.362043023109436,-0.2931843400001526
0.0365820899605751,0.4002220034599304,0.0677406415343284,-0.6427954435348511,0.1120574623346328,-0.0182706676423549,0.0,0.0,-0.0103718042373657,-0.3154435157775879
0.0372544303536415,0.3854325115680694,0.0681480914354324,-0.6572392582893372,0.1111472323536872,-0.0182042345404624,0.0,0.0,0.6619805097579956,0.1742303371429443
0.0377985015511512,0.3713254630565643,0.0555819571018219,-0.6268950700759888,0.1099857315421104,-0.0232302956283092,0.0,0.0,0.6884963512420654,0.3955692052841186
0.0382523536682128,0.3579568862915039,0.0466085039079189,-0.5940679311752319,0.1087719425559043,-0.024275729432702,0.0,0.0,0.7882523536682129,0.0678286552429199
0.0387300476431846,0.345217764377594,0.0485503450036048,-0.5661264657974243,0.107999563217163,-0.0154475588351488,0.0,0.0,0.8102787733078003,0.3545379638671875
0.039189625531435,0.3327171802520752,0.0466080941259861,-0.5555334091186523,0.1073527038097381,-0.0129372552037239,0.0,0.0,0.4334425926208496,-0.2120670676231384
0.0396862998604774,0.3204255700111389,0.0499367900192737,-0.5462735295295715,0.1070841252803802,-0.0053716218098998,0.0,0.0,0.674044132232666,0.1056592464447021
0.040261935442686,0.3086958825588226,0.0571309849619865,-0.521351158618927,0.1075117364525795,0.0085523556917905,0.0,0.0,0.6032485961914062,0.0745685100555419
0.0409215912222862,0.2972337603569031,0.0649001449346542,-0.509505033493042,0.1085723116993904,0.0212113969027996,0.0,0.0,0.3094799518585205,0.5972900390625
0.0415472015738487,0.2863457798957824,0.0626978799700737,-0.4839000701904297,0.108437955379486,-0.0026872737798839,0.0,0.0,0.5305891036987305,-0.4232366681098938
0.0421120636165142,0.2761854231357574,0.0564862601459026,-0.4515721201896667,0.1084446310997009,0.0001333870750386,0.0,0.0,0.4181737899780273,-0.2882838249206543
0.042706299573183,0.2665713131427765,0.0589107573032379,-0.4273312985897064,0.10895486921072,0.010204498656094,0.0,0.0,0.1604082584381103,-0.6303293704986572
0.0432884208858013,0.2569723129272461,0.0563074573874473,-0.4267617762088775,0.110851801931858,0.0379386469721794,0.0,0.0,0.1655123233795166,0.5918463468551636
0.0438180938363075,0.2475832104682922,0.0523006729781627,-0.4173427820205688,0.1115105003118515,0.0131739135831594,0.0,0.0,0.8876063823699951,-0.3571075201034546
0.044313907623291,0.2393547594547271,0.048457283526659,-0.3657940328121185,0.1126274317502975,0.02233861759305,0.0,0.0,0.5875551700592041,-0.7853495478630066
0.0446400642395019,0.2316016107797622,0.0299418531358242,-0.3447887301445007,0.1152798607945442,0.0530486218631267,0.0,0.0,-0.0032395720481872,0.6964714527130127
0.044985581189394,0.2235373854637146,0.0329841002821922,-0.3585314750671386,0.1168390959501266,0.0311849117279052,0.0,0.0,0.5855783224105835,0.7283718585968018
0.0453762039542198,0.2161757498979568,0.038768284022808,-0.3272064924240112,0.1171321272850036,0.0058606220409274,0.0,0.0,0.5105693340301514,-0.632746696472168
0.0455572120845317,0.2094975560903549,0.0166322328150272,-0.2969257235527038,0.1185850203037262,0.0290580000728368,0.0,0.0,0.6841555833816528,0.4203650951385498
0.0455362312495708,0.2036162912845611,-0.0031737263780087,-0.2614738643169403,0.1196616515517234,0.0215323325246572,0.0,0.0,-0.7992832064628601,-0.0718941092491149
0.0454861633479595,0.1974100917577743,-0.0061015216633677,-0.2759178876876831,0.1207526698708534,0.021820368245244,0.0,0.0,0.4595295190811157,0.8558056354522705
0.0452935211360454,0.1916622221469879,-0.0185082349926233,-0.2554009854793548,0.1200040504336357,-0.0149724688380956,0.0,0.0,-0.4035483598709106,0.4489492177963257
0.0450694076716899,0.1855894178152084,-0.0216782540082931,-0.2698449790477752,0.1192708760499954,-0.0146631151437759,0.0,0.0,0.4975605010986328,0.5536459684371948
0.0448813438415527,0.180191308259964,-0.0172275099903345,-0.2397885471582412,0.1176969707012176,-0.0314781181514263,0.0,0.0,-0.2290188074111938,0.469666838645935
0.0446596145629882,0.1744683384895324,-0.0206124782562255,-0.2542326748371124,0.1161395832896232,-0.0311473812907934,0.0,0.0,0.2120921611785888,0.2495471239089965
0.0444439873099327,0.1692727953195572,-0.0205043181777,-0.2308298945426941,0.1150915473699569,-0.0209608040750026,0.0,0.0,-0.3087066411972046,0.2801715135574341
0.0441927909851074,0.1637523770332336,-0.0240783579647541,-0.2452739179134369,0.1140610799193382,-0.0206092931330204,0.0,0.0,-0.1897430419921875,0.2931207418441772
0.0439051613211631,0.157907024025917,-0.0277377553284168,-0.2597179710865021,0.11304871737957,-0.0202474296092987,0.0,0.0,0.0895987749099731,0.3426573276519775
0.0435873046517372,0.1523148566484451,-0.0310224294662475,-0.2484799176454544,0.112287700176239,-0.0152203049510717,0.0,0.0,0.0480259656906127,0.5244370698928833
0.0432092659175396,0.1471811830997467,-0.0359961576759815,-0.2280289083719253,0.1104886904358863,-0.0359803810715675,0.0,0.0,-0.3262135982513428,0.3297836780548095
0.04279251024127,0.1417226344347,-0.0398780480027198,-0.2424731254577636,0.1087093502283096,-0.0355868339538574,0.0,0.0,-0.0448687076568603,0.10284423828125
0.0423365607857704,0.1359390765428543,-0.0438238680362701,-0.2569173574447632,0.1069502159953117,-0.0351823829114437,0.0,0.0,-0.0603380799293518,0.1024117469787597
0.0418408401310443,0.1298306584358215,-0.0478289611637592,-0.2713616192340851,0.1052118837833404,-0.0347663685679435,0.0,0.0,0.0801632404327392,0.6676900386810303
0.0412273406982421,0.1238910257816314,-0.0581767261028289,-0.263765424489975,0.1020595580339431,-0.0630465522408485,0.0,0.0,-0.1880081892013549,0.1418371200561523
0.0405729301273822,0.1176265329122543,-0.0622874125838279,-0.2782102227210998,0.0989291742444038,-0.0626077726483345,0.0,0.0,-0.1436925530433654,0.5852344036102295
0.0399252884089946,0.1110433191061019,-0.0604054555296897,-0.292303591966629,0.0946046113967895,-0.0864911824464798,0.0,0.0,0.2895154953002929,0.8122823238372803
0.0393890365958213,0.1045728996396064,-0.0477667227387428,-0.2872194945812225,0.0888070911169052,-0.1159505471587181,0.0,0.0,0.3523602485656738,0.3515987396240234
0.0388405807316303,0.0986246913671493,-0.0493953190743923,-0.2640498280525207,0.0834024250507354,-0.1080932021141052,0.0,0.0,0.1896368265151977,-0.1652060747146606
0.0382192619144916,0.093222364783287,-0.0567959547042846,-0.2398133873939514,0.0781057029962539,-0.1059342250227928,0.0,0.0,-0.1614001989364624,-0.2381094694137573
0.0375548377633094,0.0874955281615257,-0.0611079260706901,-0.2542596757411957,0.0728342235088348,-0.1054297536611557,0.0,0.0,0.0523157119750976,0.3793545961380005
0.0368810668587684,0.0820391252636909,-0.0623700805008411,-0.2422719299793243,0.0678777918219566,-0.0991286784410476,0.0,0.0,0.382030725479126,0.2014743089675903
