x_pos,y_pos,x_vel,y_vel,angle,ang_vel,leg_1,leg_2,main_booster,lat_booster
-0.001510715461336,1.4034298658370972,-0.1535824984312057,-0.3328954875469208,0.0022469123359769,0.0443585254251956,0.0,0.0,-0.3259715669871625,-0.9110203086419112
-0.0030697821639478,1.395763874053955,-0.1602730453014373,-0.3407226502895355,0.0065663503482937,0.086397498846054,0.0,0.0,-0.3879787890373156,-0.8056850229033597
-0.0046566962264478,1.38789701461792,-0.1647930443286895,-0.3496800661087036,0.0126066915690898,0.1208177953958511,0.0,0.0,0.8032001470203298,-0.907713267491364
-0.0064400671981275,1.3806471824645996,-0.1864853352308273,-0.3223052322864532,0.0206538923084735,0.1609591543674469,0.0,0.0,0.0729345690631955,-0.973621448154944
-0.0081789968535304,1.373842716217041,-0.184448629617691,-0.3025940060615539,0.0310971718281507,0.2088851481676101,0.0,0.0,-0.0079161903509858,0.6247458939037601
-0.0098237991333007,1.3668473958969116,-0.1739777773618698,-0.3111325800418854,0.0405015721917152,0.1881050616502761,0.0,0.0,0.1514714044788772,0.8788223256005231
-0.011396026238799,1.360265016555786,-0.1654447168111801,-0.2927877008914947,0.0486357547342777,0.1626987904310226,0.0,0.0,-0.8968234059393212,0.7092175311768774
-0.012856769375503,1.3534964323043823,-0.1530106216669082,-0.3010696172714233,0.0554957538843154,0.1372126191854477,0.0,0.0,0.1270783577135301,0.6859946351947053
-0.0142590524628758,1.347400426864624,-0.1462540328502655,-0.2711705565452575,0.0614608228206634,0.1193121224641799,0.0,0.0,-0.8353736895512074,-0.8072898998274964
-0.0156756397336721,1.341110110282898,-0.1497704684734344,-0.2799318134784698,0.0695051252841949,0.1609007120132446,0.0,0.0,0.4401425022543059,-0.9037735200272
-0.0170610435307025,1.3354041576385498,-0.1490422338247299,-0.2541134655475616,0.0799171477556228,0.2082596719264984,0.0,0.0,0.0313761517698214,-0.8261455719352182
-0.0184294693171978,1.3299957513809204,-0.149491474032402,-0.2410978972911834,0.0924600288271904,0.2508807480335235,0.0,0.0,0.7150095145888702,0.9570915743072854
-0.0195796974003314,1.3255161046981812,-0.1264370679855346,-0.1998421400785446,0.1038000285625457,0.2268207371234893,0.0,0.0,0.6680005372054403,0.6623877671154977
-0.0205765720456838,1.3213926553726196,-0.1104192584753036,-0.1840433627367019,0.1144753322005271,0.2135252207517624,0.0,0.0,0.3628659768279363,0.8906284740040856
-0.0213843341916799,1.318134069442749,-0.0903139561414718,-0.1455835551023483,0.1239776164293289,0.190062865614891,0.0,0.0,-0.85732309019744,0.7659468352421361
-0.0220516212284564,1.3146870136260986,-0.0749313682317733,-0.1539060175418853,0.1321496069431305,0.1634545922279358,0.0,0.0,0.1099291739770167,-0.6528916436776884
-0.0226715095341205,1.3119198083877563,-0.0720822811126709,-0.1239078715443611,0.1422244161367416,0.201514646410942,0.0,0.0,-0.7085389839273295,-0.7615696526034975
-0.0232622139155864,1.3089443445205688,-0.0707826763391494,-0.133404791355133,0.1539272516965866,0.2340776622295379,0.0,0.0,0.0433826251363753,0.9076029600581592
-0.0237126350402832,1.3065699338912964,-0.0553659982979297,-0.1066270396113395,0.1642702221870422,0.2068779170513153,0.0,0.0,0.3155436107788922,-0.9951972948397104
-0.0243093483150005,1.3046326637268066,-0.0723891407251358,-0.087563008069992,0.1770327687263488,0.2552737891674042,0.0,0.0,0.045973042405456,0.6650659133395055
-0.0247678756713867,1.303249478340149,-0.0577659085392952,-0.0629405453801155,0.1890138387680053,0.239642858505249,0.0,0.0,0.7620920371158368,0.8166823058473589
-0.0251550674438476,1.3023871183395386,-0.0494709648191928,-0.0397283174097538,0.1998452395200729,0.2166473865509033,0.0,0.0,0.0358357483420606,0.771327235803931
-0.025373077020049,1.3018798828125,-0.0315021611750125,-0.0238807816058397,0.2096301466226577,0.1957156658172607,0.0,0.0,0.4142838526096886,0.738715773423125
-0.0254372600466012,1.3016033172607422,-0.0151834217831492,-0.0135528575628995,0.2184961587190628,0.1773361414670944,0.0,0.0,-0.2919805942832627,-0.6323905394308091
-0.0254741664975881,1.3011165857315063,-0.0144335804507136,-0.0232630688697099,0.2293873578310012,0.2178436070680618,0.0,0.0,-0.925883282640284,-0.8557515068484406
-0.0255009643733501,1.3003934621810913,-0.015961293131113,-0.0342625565826892,0.2428687363862991,0.2696272432804107,0.0,0.0,0.6669406503622142,0.7779339709068008
-0.0255504604429006,1.3005750179290771,-0.01709078066051,0.0060158586129546,0.2552343010902405,0.247310608625412,0.0,0.0,-0.9844670793851102,-0.8871839562051897
-0.0255920402705669,1.3005428314208984,-0.0188256222754716,-0.0040584374219179,0.2702248096466064,0.2998095154762268,0.0,0.0,-0.1208920569300324,-0.636754549750163
-0.0256005283445119,1.3003015518188477,-0.017415665090084,-0.0138744302093982,0.287228524684906,0.3400745689868927,0.0,0.0,0.8672177856968757,0.7427486071853738
-0.0256391521543264,1.3006749153137207,-0.0192784033715724,0.0134789664298295,0.303116500377655,0.3177600502967834,0.0,0.0,0.6322400268941422,-0.6124558639606297
-0.0258611682802438,1.3020505905151367,-0.0391889438033103,0.0574955902993679,0.3207365274429321,0.3523999750614166,0.0,0.0,-0.7865025462644994,0.7605315065136599
-0.0259369853883981,1.303257703781128,-0.023616949096322,0.0500114895403385,0.337454080581665,0.334351509809494,0.0,0.0,0.2112361918131726,-0.7742379757597027
-0.0262351036071777,1.305050492286682,-0.047609731554985,0.0754048004746437,0.3561277389526367,0.3734728991985321,0.0,0.0,0.0882988368874826,-0.92186793859518
-0.0266315452754497,1.3069182634353638,-0.0595386214554309,0.0779320150613784,0.3771507143974304,0.4204602837562561,0.0,0.0,-0.5748678491099117,0.696374640991373
-0.0268787387758493,1.308631181716919,-0.0434790700674057,0.0710456445813179,0.397138237953186,0.3997505009174347,0.0,0.0,-0.5011758188782129,-0.7071668274810596
-0.0270791053771972,1.3101310729980469,-0.0403460450470447,0.0608167760074138,0.4189745485782623,0.4367265105247497,0.0,0.0,0.9402616732300476,-0.7972256566290892
-0.0274853706359863,1.3121154308319092,-0.0626023188233375,0.0814805552363395,0.442836582660675,0.4772409498691559,0.0,0.0,-0.958937700958164,0.9984663825467756
-0.0277201645076274,1.3139742612838743,-0.0435961075127124,0.0761023387312889,0.4649081826210022,0.4414318203926086,0.0,0.0,0.3261807346659653,-0.9941114050275116
-0.028265094384551,1.3164876699447632,-0.0766102820634841,0.1041036546230316,0.489467591047287,0.4911883771419525,0.0,0.0,-0.8401335356667117,-0.7358225164423253
-0.0287599563598632,1.3187791109085083,-0.0729967728257179,0.0932493284344673,0.5159313678741455,0.5292764902114868,0.0,0.0,-0.1188521505132076,0.7062805864168769
-0.029118537902832,1.32092547416687,-0.0583134479820728,0.0866680890321731,0.541583240032196,0.5130378007888794,0.0,0.0,-0.2337566018104553,0.9998825788497924
-0.0292963981628417,1.3229576349258425,-0.0380736552178859,0.0819910988211631,0.5650992393493652,0.4703214764595032,0.0,0.0,-0.6917003989219666,0.871269941329956
-0.0293042175471782,1.3248594999313354,-0.0193033181130886,0.0765207186341285,0.5868887305259705,0.4357899725437164,0.0,0.0,-0.4013475179672241,0.9652712345123292
-0.0291377063840627,1.3266457319259644,4.362686013337225e-05,0.0718816518783569,0.606683611869812,0.3958977162837982,0.0,0.0,-0.2392857670783996,0.9795775413513184
-0.028807258233428,1.3282958269119265,0.0179373975843191,0.0662212297320365,0.6249417662620544,0.3651632666587829,0.0,0.0,-0.6110839247703552,0.9573941230773926
-0.0283062942326068,1.3298200368881226,0.0366464033722877,0.0611820220947265,0.6413946151733398,0.329057514667511,0.0,0.0,-0.462553858757019,0.5906939506530762
-0.0276615135371685,1.3311986923217771,0.051999382674694,0.0549671836197376,0.6568454504013062,0.309016466140747,0.0,0.0,-0.4757633805274963,0.9859771728515624
-0.0268695838749408,1.332453370094299,0.0679519101977348,0.0499107018113136,0.670929491519928,0.2816804647445678,0.0,0.0,-0.3612184524536133,0.677776575088501
-0.0259454734623432,1.3335615396499634,0.0819054469466209,0.0436228550970554,0.6842434406280518,0.2662786543369293,0.0,0.0,-0.2851388454437256,0.9721144437789916
-0.0248607639223337,1.3345468044281006,0.099358782172203,0.0387854054570198,0.6958932280540466,0.232995867729187,0.0,0.0,0.2154723405838012,0.7907900810241699
-0.0238029472529888,1.3359997272491455,0.0977537035942077,0.0600669868290424,0.7062597274780273,0.2073303163051605,0.0,0.0,-0.3933371305465698,0.8286263942718506
-0.0225998871028423,1.3373228311538696,0.113322876393795,0.0548122152686119,0.7153404951095581,0.1816136986017227,0.0,0.0,0.048598289489746,0.3587419986724853
-0.0214258190244436,1.3388434648513794,0.1099527105689048,0.0632350593805313,0.7251151204109192,0.1954928189516067,0.0,0.0,-0.3438626527786255,0.1378146409988403
-0.0201480872929096,1.340173840522766,0.1201111674308776,0.0545652955770492,0.7352548241615295,0.2027941048145294,0.0,0.0,-0.3423249721527099,0.756159782409668
-0.0187113769352436,1.3413848876953125,0.1373771280050277,0.0500023365020751,0.7436569929122925,0.1680435091257095,0.0,0.0,-0.6973647475242615,0.1114957332611084
-0.0171708110719919,1.3424053192138672,0.1475569009780883,0.0413348264992237,0.7524061799049377,0.1749838292598724,0.0,0.0,0.1188651323318481,0.3891701698303222
-0.0158487316220998,1.3438913822174072,0.1252927929162979,0.0617021545767784,0.7617866396903992,0.1876092106103897,0.0,0.0,-0.2028477191925048,0.719174861907959
-0.0143750188872218,1.3452593088150024,0.1417299211025238,0.0571807846426963,0.7695081830024719,0.1544309258460998,0.0,0.0,0.2147208452224731,0.1769384145736694
-0.0131792072206735,1.3471457958221436,0.1135768741369247,0.0799315348267555,0.7777978181838989,0.1657927483320236,0.0,0.0,-0.58492112159729,0.0569736957550048
-0.0118796350434422,1.3488413095474243,0.1237871646881103,0.0712662488222122,0.7863887548446655,0.1718191653490066,0.0,0.0,-0.6245488524436951,0.0526299476623535
-0.0104763032868504,1.350345492362976,0.1340024918317794,0.0626013427972793,0.7952674031257629,0.1775728613138198,0.0,0.0,-0.2046041488647461,0.1414964199066162
-0.0089693069458007,1.351658821105957,0.144221693277359,0.0539369061589241,0.8044191598892212,0.1830349564552307,0.0,0.0,-0.7969576716423035,0.2528935670852661
-0.0073589324019849,1.352780818939209,0.1544435918331146,0.0452730171382427,0.8138284683227539,0.1881859600543975,0.0,0.0,0.09461510181427,0.3619160652160644
-0.005929946899414,1.3541467189788818,0.1361692398786544,0.0559236668050289,0.8235509395599365,0.194449782371521,0.0,0.0,-0.0874960422515869,0.3665330410003662
-0.0043978691101074,1.3553215265274048,0.1463931053876876,0.0472610704600811,0.8334968686103821,0.1989184916019439,0.0,0.0,0.0182315111160278,0.3061988353729248
-0.0030838013626635,1.3565871715545654,0.1247627511620521,0.0513366647064685,0.8432947397232056,0.1959578245878219,0.0,0.0,-0.3537462949752807,-0.1865836381912231
-0.0016669273609295,1.3576610088348389,0.134982943534851,0.042676243931055,0.8532779216766357,0.1996632665395736,0.0,0.0,0.0218267440795898,0.5719709396362305
-0.0002142906159861,1.358830451965332,0.1393556296825409,0.047429833561182,0.8621862530708313,0.1781664341688156,0.0,0.0,-0.5335160493850708,0.6189517974853516
0.0013692856300622,0.0,0.1533991396427154,0.0422442406415939,0.8697425127029419,0.1511255204677581,0.0,0.0,-0.2628833651542663,0.109076976776123
0.0030551911331713,1.3607133626937866,0.1636000573635101,0.033589981496334,0.8774192929267883,0.1535359621047973,0.0,0.0,0.1737357378005981,0.4793694019317627
0.004431533627212,1.361751675605774,0.1328227072954177,0.0422469712793827,0.8848913908004761,0.1494415402412414,0.0,0.0,0.1532666683197021,0.3120790719985962
0.0055871964432299,1.3630342483520508,0.1106848716735839,0.0529962852597236,0.8925356268882751,0.152884379029274,0.0,0.0,0.0819247961044311,0.6161487102508545
0.006380558013916,1.364592671394348,0.0754216909408569,0.0660074055194854,0.8987075686454773,0.1234399676322937,0.0,0.0,-0.8494917154312134,0.6527140140533447
0.0073101045563817,1.3660225868225098,0.0901252180337905,0.0611698478460311,0.9032096862792968,0.0900420099496841,0.0,0.0,-0.5263702273368835,0.3281863927841186
0.0083409305661916,1.3672583103179932,0.1002657860517501,0.0525255985558033,0.9077081680297852,0.0899696797132492,0.0,0.0,0.0982402563095092,0.2223706245422363
0.0093301776796579,1.3685522079467771,0.0960125774145126,0.0550145879387855,0.912385642528534,0.0935506969690322,0.0,0.0,-0.1910072565078735,0.5133471488952637
0.0104454038664698,1.369692087173462,0.1093543395400047,0.0487915016710758,0.9158881902694702,0.0700511634349823,0.0,0.0,-0.769145131111145,0.4824193716049194
0.0116608617827296,1.370636820793152,0.1194368749856948,0.0401529781520366,0.9193075299263,0.0683871358633041,0.0,0.0,-0.7732225656509399,0.3082458972930908
0.0129761695861816,0.0,0.1294954717159271,0.0315162725746631,0.9226171374320984,0.0661924481391906,0.0,0.0,-0.1339843273162841,0.4912556409835815
0.0143908504396677,1.3719393014907837,0.1395274102687835,0.0228813849389553,0.9257907271385192,0.0634721741080284,0.0,0.0,-0.4439016580581665,0.3105316162109375
0.015904426574707,1.3722965717315674,0.1495296657085418,0.0142483003437519,0.9288024306297302,0.0602342784404754,0.0,0.0,-0.2355587482452392,0.4968726634979248
0.0175165180116891,1.3724572658538818,0.1594990044832229,0.005616997834295,0.9316268563270568,0.0564892664551734,0.0,0.0,0.1569019556045532,0.4837607145309448
0.0188608169555664,1.3726966381072998,0.1330541521310806,0.009396243840456,0.933911144733429,0.0456860139966011,0.0,0.0,-0.1008692383766174,0.2698006629943847
0.02030267752707,1.3727389574050903,0.1429466605186462,0.0007684671436436,0.93595951795578,0.0409674271941185,0.0,0.0,0.2530261278152466,0.2519756555557251
0.0214089397341012,1.3730448484420776,0.1095812544226646,0.0126470969989895,0.9377068281173706,0.0349465757608413,0.0,0.0,-0.2722551226615906,0.6009635925292969
0.0226424224674701,1.3732166290283203,0.1234339028596878,0.0077131674624979,0.9375693202018738,-0.0027507289778441,0.0,0.0,-0.7465589642524719,0.1065678596496582
0.0239715576171875,1.3731908798217771,0.1331789642572403,-0.0009098021546378,0.9371292591094972,-0.0088016437366604,0.0,0.0,-0.7209495902061462,0.4006521701812744
0.0253955833613872,1.3729671239852903,0.1428648680448532,-0.0095314178615808,0.9363663792610168,-0.0152576938271522,0.0,0.0,-0.4272432327270508,0.36475670337677
0.026913832873106,1.3725451231002808,0.1524857580661773,-0.0181517656892538,0.9352614879608154,-0.0220974888652563,0.0,0.0,-0.6536850929260254,0.3413610458374023
0.0285253524780273,1.371924877166748,0.1620352119207382,-0.0267709475010633,0.933796525001526,-0.0292992386966943,0.0,0.0,-0.1333276629447937,0.4449106454849243
0.03022937849164,0.0,0.1715062409639358,-0.035389058291912,0.9319544434547424,-0.0368411429226398,0.0,0.0,-0.8067852854728699,0.2215579748153686
0.0320247635245323,1.3700886964797974,0.1808912009000778,-0.0440061874687671,0.9297193884849548,-0.0447014532983303,0.0,0.0,-0.5165709257125854,0.0252772569656372
0.0339105613529682,1.3688724040985107,0.1901817619800567,-0.0526224449276924,0.9270764589309692,-0.0528588183224201,0.0,0.0,0.0272048711776733,0.2274763584136963
0.0357607826590538,1.3677154779434204,0.1867222487926483,-0.049929741770029,0.92430180311203,-0.0554921813309192,0.0,0.0,-0.58705073595047,0.1072845458984375
0.0376992225646972,1.3663593530654907,0.1957959830760955,-0.0585444718599319,0.9210927486419678,-0.0641812533140182,0.0,0.0,-0.4872139692306518,0.1645197868347168
0.0397241599857807,1.3648040294647217,0.2047456800937652,-0.0671586170792579,0.9174374341964722,-0.0731063410639762,0.0,0.0,-0.259950041770935,-0.1115659475326538
0.0418343544006347,1.3630497455596924,0.2135597765445709,-0.0757722854614257,0.913325011730194,-0.0822487249970436,0.0,0.0,-0.6366453766822815,0.0663495063781738
0.0440281853079795,1.3610960245132446,0.2222257107496261,-0.0843855664134025,0.9087454676628112,-0.0915904715657234,0.0,0.0,-0.7744637131690979,-0.0175087451934814
0.0463039390742778,1.3589431047439575,0.2307300120592117,-0.0929985716938972,0.903689742088318,-0.1011145263910293,0.0,0.0,-0.1161620020866394,-0.1368641853332519
0.048659611493349,1.356590986251831,0.2390580475330352,-0.1016113832592964,0.8981494903564453,-0.1108046919107437,0.0,0.0,-0.8190457820892334,-0.3026578426361084
0.05109329149127,1.3540393114089966,0.2471942007541656,-0.1102241203188896,0.8921172022819519,-0.120645597577095,0.0,0.0,-0.4611791372299194,-0.256893515586853
0.0536027923226356,1.3512884378433228,0.2551217675209045,-0.1188368871808052,0.8855860829353333,-0.1306227743625641,0.0,0.0,-0.4496589303016662,-0.2552944421768188
0.0561857223510742,1.3483383655548096,0.2628230452537536,-0.1274497658014297,0.8785499930381775,-0.1407223641872406,0.0,0.0,-0.7361424565315247,-0.3313397765159607
0.0588395111262798,1.345188856124878,0.270279198884964,-0.1360628604888916,0.8710034489631653,-0.1509314328432083,0.0,0.0,-0.2374883890151977,-0.3729329109191894
0.061561394482851,1.3418402671813965,0.2774704098701477,-0.1446762681007385,0.862941563129425,-0.1612376272678375,0.0,0.0,-0.4598032236099243,-0.5483331680297852
0.0643263831734657,1.338246464729309,0.2814262509346008,-0.1559154987335205,0.8554975390434265,-0.1488804072141647,0.0,0.0,-0.2860900163650512,-0.5004999041557312
0.0671324729919433,1.3344230651855469,0.2853443026542663,-0.1663208305835724,0.8483926653862,-0.1420970857143402,0.0,0.0,-0.3985057473182678,-0.6109886765480042
0.0699626952409744,1.3303489685058594,0.2871776819229126,-0.1779453009366989,0.8422011733055115,-0.1238301768898963,0.0,0.0,-0.1974365711212158,-0.6651495695114136
0.0728182792663574,1.326036810874939,0.2893390357494354,-0.1888443976640701,0.8366246223449707,-0.1115312576293945,0.0,0.0,-0.2366071343421936,-0.5374411344528198
0.075701430439949,1.3214852809906006,0.2917384803295135,-0.1997700780630111,0.8315862417221069,-0.1007679253816604,0.0,0.0,-0.4717298746109009,-0.292052149772644
0.0786320716142654,1.3167341947555542,0.2968748807907104,-0.2083818912506103,0.826015055179596,-0.1114241853356361,0.0,0.0,0.004940390586853,-0.6866800785064697
0.0812437087297439,1.312263250350952,0.2642877101898193,-0.1964556127786636,0.8214730024337769,-0.0908407941460609,0.0,0.0,-0.5208025574684143,0.1028434038162231
0.0838942527770996,1.3075928688049316,0.2685595154762268,-0.2050673365592956,0.8163960576057434,-0.1015388593077659,0.0,0.0,-0.3602445125579834,-0.0612789988517761
0.0865788459777832,1.3027231693267822,0.2723680734634399,-0.2136794924736023,0.8107837438583374,-0.1122465878725051,0.0,0.0,0.2597594261169433,-0.0143688917160034
0.0889408141374588,1.2979532480239868,0.2408176958560943,-0.2087721824645996,0.8041831254959106,-0.1320120692253112,0.0,0.0,-0.4713313579559326,-0.1958305239677429
0.0913269966840744,1.2929842472076416,0.2436442077159881,-0.217385783791542,0.7970471382141113,-0.1427198350429535,0.0,0.0,-0.2958232760429382,0.1797747611999511
0.093731977045536,1.287816286087036,0.2459553480148315,-0.2260000854730606,0.7893761992454529,-0.1534187793731689,0.0,0.0,-0.5399413704872131,0.1176100969314575
0.09615059196949,1.2824491262435913,0.2477383613586425,-0.2346151620149612,0.7811710834503174,-0.164103627204895,0.0,0.0,-0.2411864399909973,-0.2575892806053161
0.0985774025321006,1.2768833637237549,0.2489831894636154,-0.2432310730218887,0.7724326252937317,-0.1747694462537765,0.0,0.0,-0.0573205947875976,0.2089720964431762
0.1010067015886306,1.2711188793182373,0.2496828287839889,-0.251847892999649,0.7631620168685913,-0.1854118406772613,0.0,0.0,-0.215539813041687,-0.2764826416969299
0.1034330353140831,1.265155792236328,0.2498334348201751,-0.2604657113552093,0.7533606886863708,-0.1960267722606659,0.0,0.0,0.1844249963760376,-0.2913274765014648
0.1055993065237999,1.259550929069519,0.2240494489669799,-0.2445049434900283,0.7433554530143738,-0.2001043260097503,0.0,0.0,-0.7080764174461365,-0.118408203125
