x_pos,y_pos,x_vel,y_vel,angle,ang_vel,leg_1,leg_2,main_booster,lat_booster
-0.0015402793651446,1.4033105373382568,-0.1558369696140289,-0.3382050693035126,0.0016218859236687,0.0319827757775783,0.0,0.0,-0.1994398236274719,0.8209528923034668
-0.0030206679366528,1.3954062461853027,-0.1477092802524566,-0.351300299167633,0.0012884818715974,-0.0066678426228463,0.0,0.0,-0.1004708409309387,0.590247392654419
-0.0044479370117187,1.387183427810669,-0.1408009082078933,-0.3654630780220032,-0.0006110214162617,-0.0379936508834362,0.0,0.0,0.1324313879013061,0.3713740110397339
-0.0059534073807299,1.3791602849960327,-0.1480949521064758,-0.3565868735313415,-0.0030323315877467,-0.0484307445585727,0.0,0.0,0.2912153005599975,-0.4917453527450561
-0.0073467255569994,1.371587157249451,-0.1372428834438324,-0.3365888297557831,-0.0050906473770737,-0.0411704219877719,0.0,0.0,-0.064720332622528,0.3788690567016601
-0.0087236408144235,1.3637001514434814,-0.1355026811361313,-0.3505479991436004,-0.0072582745924592,-0.0433564074337482,0.0,0.0,-0.1017447710037231,-0.3338683843612671
-0.010077953338623,1.3554991483688354,-0.1331358850002288,-0.3645005822181701,-0.0095232734456658,-0.0453042909502983,0.0,0.0,-0.1705396771430969,0.2191289663314819
-0.0114032747223973,1.3469841480255127,-0.1301572024822235,-0.3784555494785309,-0.0118744391947984,-0.0470276400446891,0.0,0.0,-0.0677339434623718,0.4712338447570801
-0.0126936910673975,1.3381555080413818,-0.1265840828418731,-0.3924107849597931,-0.0143001908436417,-0.048519592732191,0.0,0.0,0.2365320920944214,0.4115902185440063
-0.0139361377805471,1.3298282623291016,-0.1217143759131431,-0.3701252341270447,-0.0167916864156723,-0.0498348139226436,0.0,0.0,-0.4491101503372192,0.8829474449157715
-0.0150524135679006,1.32118558883667,-0.1070388555526733,-0.3841708302497864,-0.0213340260088443,-0.090855173766613,0.0,0.0,-0.5624614357948303,-0.1172781586647033
-0.0161168090999126,1.3122295141220093,-0.1018011718988418,-0.3981240093708038,-0.0259146075695753,-0.091620422899723,0.0,0.0,-0.6711066365242004,0.0206204652786254
-0.0171238891780376,1.302959680557251,-0.0960580483078956,-0.4120804667472839,-0.0305230170488357,-0.0921764597296714,0.0,0.0,-0.4582419991493225,-0.3102875351905823
-0.0180689804255962,1.293376088142395,-0.0898335874080658,-0.4260371625423431,-0.0351471826434135,-0.0924915298819542,0.0,0.0,-0.8977117538452148,0.0418990850448608
-0.0189472194761037,1.2834789752960205,-0.0831534266471862,-0.4399939477443695,-0.0397756062448024,-0.092576764523983,0.0,0.0,-0.9748773574829102,-0.4054769277572632
-0.019754409790039,1.2732679843902588,-0.0760430693626403,-0.4539507627487182,-0.0443969890475273,-0.0924358367919921,0.0,0.0,-0.9547963738441468,-0.3735949993133545
-0.0204861648380756,1.262743353843689,-0.0685278549790382,-0.467907577753067,-0.0490002334117889,-0.0920734256505966,0.0,0.0,-0.8226948976516724,-0.7811828851699829
-0.0211859699338674,0.0,-0.0665570497512817,-0.4819664359092712,-0.0523908473551273,-0.0678181648254394,0.0,0.0,-0.9108542203903198,-0.7211079001426697
-0.0218503959476947,0.0,-0.0642719790339469,-0.4954105019569397,-0.0545396469533443,-0.0429795198142528,0.0,0.0,-0.9268326163291932,-0.6482385993003845
-0.0224865917116403,1.229302167892456,-0.0629716962575912,-0.5091152191162109,-0.0551788099110126,-0.0127844717353582,0.0,0.0,-0.8072311282157898,-0.1619352102279663
-0.0230333320796489,1.2175335884094238,-0.0540910176932811,-0.5230701565742493,-0.0557595714926719,-0.0116162430495023,0.0,0.0,-0.8019779920578003,-0.8541558980941772
-0.0235540382564067,1.205451726913452,-0.0532337613403797,-0.5369313955307007,-0.0546074546873569,0.0230442900210618,0.0,0.0,-0.8261634111404419,-0.5137947201728821
-0.0240115169435739,1.1930577754974363,-0.0477988012135028,-0.5507727861404419,-0.0525776445865631,0.0405999645590782,0.0,0.0,-0.6709205508232117,-0.1352043747901916
-0.0243712421506643,1.180349588394165,-0.0381230451166629,-0.5647279620170593,-0.050462532788515,0.0423063561320304,0.0,0.0,-0.5712409615516663,-0.3549772500991821
-0.024631118401885,1.1673275232315063,-0.028218176215887,-0.5786830186843872,-0.0482538379728794,0.0441780127584934,0.0,0.0,-0.963456392288208,-0.3397659063339233
-0.0247894283384084,1.1539701223373413,-0.0181703455746173,-0.5935906767845154,-0.0459438301622867,0.0462005622684955,0.0,0.0,-0.929724931716919,-0.4489327669143677
-0.024843405932188,1.1402987241744995,-0.0078518101945519,-0.6075437068939209,-0.0435242801904678,0.0483911409974098,0.0,0.0,-0.9302531480789183,-0.4770852923393249
-0.0247912406921386,1.1263134479522705,0.0026473016478121,-0.6214967370033264,-0.040987528860569,0.0507352873682975,0.0,0.0,-0.944867730140686,-0.5064012408256531
-0.0246797557920217,1.112021565437317,0.0072116018272936,-0.6350969672203064,-0.0370999425649642,0.0777518823742866,0.0,0.0,-0.94723379611969,-0.0464322566986084
-0.0244586952030658,1.0974156856536863,0.0180304776877164,-0.6490508913993835,-0.0330809541046619,0.0803798586130142,0.0,0.0,-0.7853697538375854,-0.5271273851394653
-0.0241669658571481,1.0825040340423584,0.0239350348711013,-0.6626290082931519,-0.0279074404388666,0.1034700870513916,0.0,0.0,-0.8762896656990051,0.1806213855743408
-0.0237627979367971,1.0672789812088013,0.0350248590111732,-0.6765839457511902,-0.0225899033248424,0.1063510626554489,0.0,0.0,-0.9108968377113342,-0.0668867826461792
-0.0232451446354389,1.0517401695251465,0.0462340489029884,-0.6905390620231628,-0.0171225257217884,0.1093476042151451,0.0,0.0,-0.8132595419883728,-0.0479493141174316
-0.0226126667112112,1.0358879566192627,0.0575529038906097,-0.704494297504425,-0.0114998817443847,0.112452745437622,0.0,0.0,-0.5102385878562927,-0.0358723402023315
-0.0218643192201852,1.0197221040725708,0.0689724311232566,-0.7184497117996216,-0.0057168891653418,0.1156598180532455,0.0,0.0,-0.6822709441184998,0.0208610296249389
-0.0209992416203022,1.00324285030365,0.0804843381047248,-0.7324054837226868,0.0002312372525921,0.1189623922109603,0.0,0.0,-0.8950561881065369,0.1888409852981567
-0.0200165752321481,0.9864499568939208,0.0920809358358383,-0.746361494064331,0.0063489559106528,0.1223544105887413,0.0,0.0,-0.6780047416687012,0.456530213356018
-0.0189151763916015,0.969343602657318,0.1037551164627075,-0.7603177428245544,0.0126404520124197,0.1258300542831421,0.0,0.0,-0.8657009601593018,0.0181100368499755
-0.0176946632564067,0.9519240260124208,0.1155002862215042,-0.7742742896080017,0.019109645858407,0.1293836683034896,0.0,0.0,-0.7396723628044128,0.4485408067703247
-0.0163542740046978,0.934191107749939,0.1273103505373001,-0.7882311344146729,0.025760157033801,0.1330100148916244,0.0,0.0,-0.4089504480361938,0.9092998504638672
-0.0148342130705714,0.9161546230316162,0.1465925276279449,-0.8017202019691467,0.0311067420989274,0.1069316864013671,0.0,0.0,-0.7187568545341492,-0.5535852909088135
-0.0132278446108102,0.8978018760681152,0.1541503220796585,-0.8158223628997803,0.0375167317688465,0.1281997412443161,0.0,0.0,-0.8538427352905273,-0.842800498008728
-0.0115554807707667,0.8791236877441406,0.1591323912143707,-0.8303688764572144,0.0455248169600963,0.1601614654064178,0.0,0.0,-0.6699654459953308,0.3032834529876709
-0.0097609516233205,0.8601325154304504,0.171149343252182,-0.8443280458450317,0.0537263788282871,0.1640311926603317,0.0,0.0,-0.6712345480918884,0.4254112243652344
-0.0078439712524414,0.8408284783363342,0.1832066029310226,-0.8582876324653625,0.0621239468455314,0.1679513156414032,0.0,0.0,-0.7949532866477966,-0.5284283757209778
-0.0058423997834324,0.8212026953697205,0.1904849261045456,-0.8726872801780701,0.0716926530003547,0.1913742870092392,0.0,0.0,-0.4778298139572143,0.18803071975708
-0.0037176131736487,0.8012644052505493,0.2026112824678421,-0.8866491913795471,0.0814618542790412,0.1953838169574737,0.0,0.0,-0.1173586845397949,0.0416212081909179
-0.0014693259727209,0.7810136675834656,0.2147667706012725,-0.9006115794181824,0.091433510184288,0.1994332522153854,0.0,0.0,0.034164547920227,-0.0345327854156494
0.0007751464727334,0.7611761689186096,0.2145625799894333,-0.8823038935661316,0.1012252867221832,0.1958357244729995,0.0,0.0,-0.1046779155731201,-0.2627186775207519
0.0031435012351721,0.7410262823104858,0.2267665117979049,-0.8962666988372803,0.1112230792641639,0.1999557763338089,0.0,0.0,-0.4274370670318603,0.6738933324813843
0.0057017328217625,0.720574676990509,0.2472264468669891,-0.9096248149871826,0.1197637766599655,0.1708140671253204,0.0,0.0,0.4342411756515503,-0.1698565483093261
0.0082584377378225,0.700753927230835,0.2470973432064056,-0.8816348910331726,0.1282822489738464,0.1703694462776184,0.0,0.0,0.1172307729721069,0.2566593885421753
0.0109745021909475,0.6810819506645203,0.2624946236610412,-0.8751175999641418,0.1373529285192489,0.1814137995243072,0.0,0.0,0.440134048461914,-0.2771643400192261
0.0137227056547999,0.6621314287185669,0.2655048966407776,-0.843136727809906,0.1466479003429412,0.1858994364738464,0.0,0.0,-0.306388258934021,-0.6311930418014526
0.0165588371455669,0.6428579688072205,0.2731357216835022,-0.8576636910438538,0.1571064293384552,0.2091706544160843,0.0,0.0,0.7947479486465454,0.1523767709732055
0.0193370822817087,0.6240065693855286,0.2676379382610321,-0.8389558792114258,0.167298138141632,0.2038343250751495,0.0,0.0,0.7268251180648804,0.6317000389099121
0.0222545620054006,0.6061195135116577,0.2823778688907623,-0.7960609793663025,0.1766921579837799,0.187880128622055,0.0,0.0,-0.1306595206260681,0.0503946542739868
0.0252969749271869,0.5879202485084534,0.2946639955043793,-0.8100244998931885,0.1863010674715042,0.1921783983707428,0.0,0.0,0.0339316129684448,-0.5545273423194885
0.0283761974424123,0.5701764822006226,0.296976625919342,-0.7900279760360718,0.1973126381635666,0.2202311009168625,0.0,0.0,0.2879655361175537,-0.2009925842285156
0.0314019210636615,0.5530044436454773,0.2917032837867737,-0.7646873593330383,0.2082655429840088,0.2190582454204559,0.0,0.0,-0.0977177619934082,0.7993428707122803
0.0346202850341796,0.5355348587036133,0.3125037550926208,-0.7777683138847351,0.2176958471536636,0.1886060237884521,0.0,0.0,0.2911229133605957,-0.3447339534759521
0.0377684608101844,0.5185306072235107,0.3056419193744659,-0.7571264505386353,0.2269804775714874,0.1856927126646042,0.0,0.0,0.5902514457702637,-0.1124626994132995
0.0410449020564556,0.5019819140434265,0.3177398443222046,-0.7370548248291016,0.2370321154594421,0.2010326832532882,0.0,0.0,0.1657764911651611,0.0834816694259643
0.0443603508174419,0.4857577979564667,0.3213712871074676,-0.7227445244789124,0.247377872467041,0.206915333867073,0.0,0.0,0.1593928337097168,-0.3000414371490478
0.0477364547550678,0.4696329236030578,0.3272218108177185,-0.7184426784515381,0.2579663097858429,0.2117688208818435,0.0,0.0,0.6723535060882568,0.3537672758102417
0.0509627349674701,0.4540160298347473,0.3126255571842193,-0.69587641954422,0.2681923806667328,0.2045213431119918,0.0,0.0,0.4376198053359985,0.1062344312667846
0.0541335120797157,0.4391719698905945,0.306803286075592,-0.6616566777229309,0.2787220478057861,0.2105931490659713,0.0,0.0,0.4195214509963989,0.9008687734603882
0.0575061812996864,0.424430251121521,0.3284960091114044,-0.6568803191184998,0.287728875875473,0.1801363825798034,0.0,0.0,0.4614491462707519,-0.4668003916740417
0.0608107559382915,0.4104729890823364,0.3213960826396942,-0.622139573097229,0.2970630228519439,0.1866833567619323,0.0,0.0,-0.2069270014762878,0.7871488332748413
0.0642890930175781,0.3962232172489166,0.3398850262165069,-0.6349632740020752,0.3052663803100586,0.1640670597553253,0.0,0.0,-0.6159060001373291,0.0811696052551269
0.0678899735212326,0.3816612660884857,0.3519649505615234,-0.6489270925521851,0.3136855959892273,0.1683844625949859,0.0,0.0,0.3720037937164306,-0.1524900197982788
0.0714781731367111,0.3675363957881927,0.3503797948360443,-0.6296161413192749,0.3224382698535919,0.175053209066391,0.0,0.0,0.8134491443634033,0.0072652101516723
0.0747602432966232,0.3543510735034942,0.3202314972877502,-0.5878126621246338,0.3307514786720276,0.1662643253803253,0.0,0.0,0.1625761985778808,0.3713150024414062
0.0780807510018348,0.3414553105831146,0.3236607909202575,-0.5750876069068909,0.3395177125930786,0.1753246486186981,0.0,0.0,0.09019136428833,0.444047212600708
0.081415370106697,0.3286014497280121,0.3249852657318115,-0.5733009576797485,0.3483940064907074,0.1775259673595428,0.0,0.0,0.6839475631713867,0.7229907512664795
0.0848836898803711,0.3159633874893188,0.339441180229187,-0.5635010004043579,0.3561624586582184,0.1553691178560257,0.0,0.0,0.8338574171066284,0.3086143732070923
0.0883076637983322,0.303524374961853,0.3349849283695221,-0.554700493812561,0.3639796376228332,0.1563435494899749,0.0,0.0,0.8856841325759888,0.4739335775375366
0.0915197357535362,0.2920371294021606,0.3136624693870544,-0.5124791264533997,0.3719624280929565,0.1596559733152389,0.0,0.0,0.8027505874633789,0.414661169052124
0.0946084037423133,0.2815293967723846,0.3007601201534271,-0.4691410958766937,0.3805577456951141,0.171906366944313,0.0,0.0,0.5326454639434814,0.3027913570404053
0.097436711192131,0.2717076539993286,0.2750105857849121,-0.4386310577392578,0.3888787031173706,0.1664189994335174,0.0,0.0,0.626640796661377,0.5506501197814941
0.1001734733581543,0.2619680166244507,0.2670809328556061,-0.4346948862075805,0.3959309458732605,0.1410441100597381,0.0,0.0,0.734724760055542,0.2381771802902221
0.1027457267045974,0.2530892491340637,0.2502683997154236,-0.396566092967987,0.4033832550048828,0.1490458846092224,0.0,0.0,0.737750768661499,0.7575082778930664
0.1051434502005577,0.2446995824575424,0.234314277768135,-0.3744350671768188,0.4092410206794739,0.1171560436487197,0.0,0.0,0.3779170513153076,0.5539758205413818
0.1074244529008865,0.2367738336324691,0.223649263381958,-0.3535545170307159,0.414041519165039,0.0960098579525947,0.0,0.0,0.765632152557373,0.560492753982544
0.1095455139875412,0.2295824438333511,0.2085917890071869,-0.3206501305103302,0.4178383946418762,0.0759374573826789,0.0,0.0,0.6837713718414307,0.3982038497924804
0.1116199493408203,0.2229455113410949,0.2033678591251373,-0.2961902022361755,0.4222427904605865,0.0880877822637558,0.0,0.0,0.911186695098877,0.7486164569854736
0.1137264221906662,0.2165853083133697,0.2077640742063522,-0.2835433781147003,0.4253621399402618,0.0623873062431812,0.0,0.0,0.6628804206848145,0.3141340017318725
0.1158610358834266,0.2105237990617752,0.2100123167037964,-0.2704450786113739,0.4291051924228668,0.0748612061142921,0.0,0.0,0.8292922973632812,0.6049578189849854
0.1180435195565223,0.2051503807306289,0.2153743505477905,-0.2396988868713379,0.4322257936000824,0.06241225451231,0.0,0.0,0.968482494354248,0.3458220958709717
0.1202877014875412,0.2002086043357849,0.2206700593233108,-0.2207914739847183,0.4363013505935669,0.0815111696720123,0.0,0.0,0.7400757074356079,-0.4974774122238159
0.1222983375191688,0.1960260719060897,0.1971794962882995,-0.1871032267808914,0.4405332505702972,0.0846379101276397,0.0,0.0,0.8679807186126709,-0.0616589188575744
0.1240795105695724,0.1927168667316436,0.1739344596862793,-0.1483974754810333,0.4451080858707428,0.0914964973926544,0.0,0.0,0.8372485637664795,-0.3258436918258667
0.1257694214582443,0.1901888698339462,0.1640591472387313,-0.1139333322644233,0.4505016803741455,0.1078720837831497,0.0,0.0,0.2529793977737427,0.2266026735305786
0.1275215148925781,0.1877326071262359,0.1698199808597564,-0.1109205037355423,0.4564242362976074,0.118451252579689,0.0,0.0,0.3136680126190185,-0.9020204544067384
0.1290888786315918,0.1854284852743148,0.1495193839073181,-0.104789450764656,0.4643796980381012,0.1591084152460098,0.0,0.0,0.0865594148635864,-0.6593726873397827
0.1305072754621505,0.1835879832506179,0.1331861466169357,-0.0847151279449462,0.4739366471767425,0.1911389380693435,0.0,0.0,-0.7514278888702393,0.2062827348709106
0.1320206671953201,0.1814356446266174,0.1425922214984893,-0.0986813083291053,0.4836591482162475,0.194450631737709,0.0,0.0,-0.5518240332603455,-0.6174328327178955
0.1335735321044922,0.1789361089468002,0.1450535804033279,-0.1147220581769943,0.4951017498970032,0.2288513481616974,0.0,0.0,-0.5899364948272705,-0.2822568416595459
0.1352169066667556,0.1761250793933868,0.1540257036685943,-0.128691092133522,0.5067031383514404,0.2320275604724884,0.0,0.0,-0.6694785356521606,0.125360369682312
0.1369483917951584,0.1730027049779892,0.162763237953186,-0.1426603347063064,0.5184598565101624,0.2351338863372802,0.0,0.0,-0.0741215944290161,-0.369547963142395
0.1387653350830078,0.169569045305252,0.1712549179792404,-0.1566297560930252,0.5303683280944824,0.2381684333086013,0.0,0.0,-0.2772043347358703,0.3117575645446777
0.1406652480363845,0.1658240407705307,0.1794893890619278,-0.1705993264913559,0.5424247980117798,0.2411293536424636,0.0,0.0,0.2457262277603149,0.928286075592041
0.1423856765031814,0.1623279452323913,0.1632120609283447,-0.1589647084474563,0.5526238083839417,0.2039807289838791,0.0,0.0,-0.3054401874542236,0.7715120315551758
0.1442226469516754,0.1585539728403091,0.175856128334999,-0.1709824204444885,0.561731219291687,0.1821497976779937,0.0,0.0,-0.0515522956848144,0.5634346008300781
0.1461765319108963,0.1545117050409317,0.1887076497077942,-0.1824812144041061,0.5695532560348511,0.1564404070377349,0.0,0.0,0.0561890602111816,-0.4916749596595764
0.1481080055236816,0.1504869610071182,0.1862235963344574,-0.1818573325872421,0.577688992023468,0.1627146452665329,0.0,0.0,-0.016168475151062,0.6970236301422119
0.1501623094081878,0.1462092995643615,0.2000117748975753,-0.1924858391284942,0.584088146686554,0.1279835402965545,0.0,0.0,-0.2703585624694824,-0.2415754795074463
0.1522819548845291,0.1416190713644027,0.2064628154039383,-0.2064474374055862,0.5906111598014832,0.1304606646299362,0.0,0.0,0.1632659435272216,0.6819841861724854
0.1542634069919586,0.137610986828804,0.1937126219272613,-0.1801285147666931,0.5958899259567261,0.1055754274129867,0.0,0.0,-0.5133488774299622,0.1370543241500854
0.1563034951686859,0.1332902014255523,0.1994897425174713,-0.1940888911485672,0.601283848285675,0.1078778952360153,0.0,0.0,-0.2798770666122436,0.3191215991973877
0.1583985388278961,0.1286565661430359,0.2049177885055542,-0.2080491632223129,0.6067884564399719,0.1100915893912315,0.0,0.0,0.6175198554992676,0.5711413621902466
0.1601922959089279,0.1247569173574447,0.1756221204996109,-0.1750658303499221,0.611307680606842,0.0903849005699157,0.0,0.0,-0.2865718603134155,0.8438642024993896
0.162096306681633,0.1206047162413597,0.1882867515087127,-0.1855354905128479,0.6138673424720764,0.0511936619877815,0.0,0.0,-0.1412463784217834,0.6232461929321289
0.164075568318367,0.1161735653877258,0.1966234445571899,-0.1975567042827606,0.615447998046875,0.0316136851906776,0.0,0.0,-0.2287601232528686,0.436261773109436
0.1660952568054199,0.1114291995763778,0.2005863189697265,-0.2115143984556198,0.6171213388442993,0.0334669351577758,0.0,0.0,0.5222892761230469,0.4103022813796997
0.1678347587585449,0.106989748775959,0.1725719571113586,-0.197960078716278,0.6187910437583923,0.0333936028182506,0.0,0.0,0.167323350906372,0.9338417053222656
0.1694656312465667,0.1027779653668403,0.163302481174469,-0.1870860904455185,0.618522584438324,-0.005368610844016,0.0,0.0,0.0041210651397705,0.7305587530136108
0.1711220741271972,0.0986435711383819,0.1670812219381332,-0.1830695420503616,0.616786777973175,-0.0347160622477531,0.0,0.0,-0.1681530475616455,0.9146759510040284
0.1728692054748535,0.0942707881331443,0.1779914796352386,-0.1928000152111053,0.6128183007240295,-0.0793695971369743,0.0,0.0,-0.3854391574859619,0.0987782478332519
0.1746374070644378,0.0895847901701927,0.1800490170717239,-0.2067575007677078,0.6089200973510742,-0.0779635608196258,0.0,0.0,0.0257319211959838,0.6522029638290405
0.1763931214809417,0.0848999321460723,0.1798999458551406,-0.2062146812677383,0.6037248373031616,-0.1039048880338668,0.0,0.0,-0.0426628589630126,0.2574158906936645
0.1781621873378753,0.0799019411206245,0.1811986416578292,-0.220172494649887,0.5985913276672363,-0.1026703864336013,0.0,0.0,-0.0340781807899475,0.5409023761749268
