x_pos,y_pos,x_vel,y_vel,angle,ang_vel,leg_1,leg_2,main_booster,lat_booster
-0.0015250205760821,1.4035193920135498,-0.1544767469167709,-0.3289204239845276,0.0017742427298799,0.0349993743002414,0.0,0.0,-0.3388280631304705,0.9616952076749614
-0.0029690742958337,1.396032452583313,-0.1440719217061996,-0.3327585756778717,0.001438086037524,-0.0067231329157948,0.0,0.0,0.8923289720389198,0.8797966718948987
-0.0041771889664232,1.3891280889511108,-0.1190610527992248,-0.3068625628948211,-0.0002897618396673,-0.034560177475214,0.0,0.0,0.4490956445931655,0.5560010341022452
-0.0054549216292798,1.3827738761901855,-0.1246262416243553,-0.2824056446552276,-0.0034053393173962,-0.0623173490166664,0.0,0.0,-0.1397284957040396,0.5051310372350257
-0.0066843987442553,1.3763163089752195,-0.1185747757554054,-0.2870220243930816,-0.0077380752190947,-0.0866625756025314,0.0,0.0,-0.3372858110731449,-0.5203249059444313
-0.007945155724883,1.369753360748291,-0.1225008368492126,-0.2917032241821289,-0.0112811215221881,-0.0708672925829887,0.0,0.0,0.1088947372415862,-0.5393849561745884
-0.0092601776123046,1.3636680841445925,-0.1289499849081039,-0.2704831957817077,-0.0137970754876732,-0.0503234341740608,0.0,0.0,0.2402635168777389,0.8259726168981958
-0.0103739742189645,1.3582046031951904,-0.1073049157857894,-0.2428674548864364,-0.0178281795233488,-0.0806296318769455,0.0,0.0,-0.4525357341582594,0.6872465008690583
-0.0114330295473337,1.3526421785354614,-0.1004743427038192,-0.2472894340753555,-0.0232022758573293,-0.107491597533226,0.0,0.0,-0.7770845454435855,-0.7965449144049896
-0.0125526431947946,1.34698224067688,-0.1081258431077003,-0.2516161203384399,-0.0270064081996679,-0.0760897174477577,0.0,0.0,-0.4749674219820701,0.9034190273799196
-0.013588523492217,1.341214895248413,-0.097656525671482,-0.2564425766468048,-0.0328701399266719,-0.1172856092453002,0.0,0.0,0.7818601689265325,0.9378654789569332
-0.0144437793642282,1.336187720298767,-0.0778479278087616,-0.2236260622739792,-0.0404622666537761,-0.1518564075231552,0.0,0.0,0.1006636476305076,0.6882504059664195
-0.0151237491518259,1.3317484855651855,-0.0590377375483512,-0.1975562423467636,-0.0493170693516731,-0.1771126389503479,0.0,0.0,0.7133676590914064,-0.9933710548294628
-0.0157792083919048,1.3277477025985718,-0.0586881153285503,-0.1780598014593124,-0.056104514747858,-0.1357612907886505,0.0,0.0,0.643303298704041,0.9135736115734866
-0.0161545760929584,1.324860453605652,-0.0290738493204116,-0.1286530494689941,-0.0644835382699966,-0.1675962954759597,0.0,0.0,0.7878946396047628,0.7454139914722615
-0.0163162238895893,1.3223239183425903,-0.0064962012693285,-0.1131840497255325,-0.0740712657570838,-0.1917722076177597,0.0,0.0,-0.0713095162701735,-0.7611473049299352
-0.0165176391601562,1.3196971416473389,-0.0116242496296763,-0.1171815618872642,-0.0825060009956359,-0.1687096953392028,0.0,0.0,0.8318585071580065,-0.5278120547256476
-0.016552448272705,1.3175673484802246,0.0034790735226124,-0.0950605496764183,-0.0894177034497261,-0.1382467597723007,0.0,0.0,-0.5119306551415626,-0.6969291055325233
-0.0166255943477153,1.3153455257415771,-0.0015039972495287,-0.0991043969988823,-0.0951825231313705,-0.1153066307306289,0.0,0.0,-0.2015329065505022,-0.7491342753211034
-0.0167574882507324,1.313028335571289,-0.0090749775990843,-0.1032586097717285,-0.0992747694253921,-0.0818521827459335,0.0,0.0,-0.3029474520459732,-0.9932574781380918
-0.016942024230957,1.3106224536895752,-0.0158768408000469,-0.1070971712470054,-0.1018242388963699,-0.0509942062199115,0.0,0.0,-0.8193082460255277,-0.8138873338921968
-0.0171803478151559,1.308116793632507,-0.0228422898799181,-0.1114361658692359,-0.1028047278523445,-0.0196115300059318,0.0,0.0,0.5482496562274732,-0.8031221889868425
-0.0172849651426076,1.3062551021575928,-0.0112931793555617,-0.0826852545142173,-0.1019839569926261,0.0164169743657112,0.0,0.0,-0.5722855222138414,-0.7705673404564104
-0.0174332614988088,0.0,-0.0170066580176353,-0.0872815921902656,-0.0998286604881286,0.0431099385023117,0.0,0.0,-0.2242598989212421,-0.9292108186165968
-0.0176607128232717,1.302232265472412,-0.0271942615509033,-0.0910781249403953,-0.0954026877880096,0.088526926934719,0.0,0.0,0.5903178713109976,-0.8737480543946838
-0.0180377960205078,1.3010993003845217,-0.0436795800924301,-0.049983087927103,-0.0894803777337074,0.118446409702301,0.0,0.0,-0.8640641950104677,-0.5593649637425706
-0.018445586785674,1.2998713254928589,-0.0478690415620803,-0.0541709698736667,-0.0824678167700767,0.1402512788772583,0.0,0.0,0.3229513018892735,-0.6684458269141946
-0.0189536102116107,1.299554705619812,-0.0590172708034515,-0.0136375091969966,-0.0743346437811851,0.1626636832952499,0.0,0.0,-0.3881778841557279,0.7697772037314893
-0.0193995479494333,1.2991349697113037,-0.0515848994255065,-0.0183259155601263,-0.0674178004264831,0.1383369266986847,0.0,0.0,0.3300272274878266,0.9299956816232946
-0.0197504051029682,1.2991890907287598,-0.0401688627898693,0.0026269962545484,-0.0623834617435932,0.1006868332624435,0.0,0.0,0.182015314568475,-0.8579185749223545
-0.0200996398925781,1.300060153007507,-0.0417423546314239,0.0389786399900913,-0.0556458905339241,0.1347511857748031,0.0,0.0,-0.5898088812828064,0.9664466381072998
-0.0203663818538188,1.300815463066101,-0.0317759178578853,0.0337465330958366,-0.0505988709628582,0.100940428674221,0.0,0.0,-0.297991394996643,0.9228267669677734
-0.0205528251826763,1.301469802856445,-0.0221365112811326,0.029194327071309,-0.0471481941640377,0.0690137892961502,0.0,0.0,-0.2081228494644165,0.8438205718994141
-0.0206621177494525,1.3020071983337402,-0.0128944562748074,0.0239493958652019,-0.0452121198177337,0.0387215986847877,0.0,0.0,-0.4167114496231079,0.8299374580383301
-0.0206856727600097,1.3024369478225708,-0.0025837020948529,0.01910269446671,-0.0449823215603828,0.0045957574620842,0.0,0.0,-0.689918041229248,-0.6019434928894043
-0.0207361225038766,1.3027691841125488,-0.0064433170482516,0.0148085365071892,-0.0435995757579803,0.0276548471301794,0.0,0.0,-0.8254214525222778,-0.011916697025299
-0.0207668300718069,1.3029963970184326,-0.0044600781984627,0.0101401899009943,-0.0422244220972061,0.027503004297614,0.0,0.0,-0.732056736946106,0.2883023023605346
-0.0207771304994821,1.3031187057495115,-0.0024123226758092,0.0054718512110412,-0.0408551506698131,0.0273852460086345,0.0,0.0,-0.8365300297737122,-0.3300588130950928
-0.0207663532346487,1.3031359910964966,-0.0003014745307154,0.0008035209029912,-0.0394899696111679,0.0273037366569042,0.0,0.0,-0.4679892063140869,0.5406873226165771
-0.0206891056150198,1.3030463457107544,0.0074892863631248,-0.0039821462705731,-0.0392529740929603,0.0047399722971022,0.0,0.0,-0.8560216426849365,-0.2838526964187622
-0.0205895416438579,1.3028514385223389,0.0097216414287686,-0.0086503094062209,-0.0390161052346229,0.004737242590636,0.0,0.0,-0.930915594100952,-0.4813342094421386
-0.0204668994992971,1.3025516271591189,0.0120122041553258,-0.0133184669539332,-0.0387772656977176,0.0047769462689757,0.0,0.0,-0.9026612639427184,-0.7732927203178406
-0.0203723907470703,1.3021410703659058,0.0079025281593203,-0.018199959769845,-0.0372453071177005,0.0306393057107925,0.0,0.0,-0.7509623169898987,0.4345293045043945
-0.0202537532895803,1.3016257286071775,0.0103039788082242,-0.0228682979941368,-0.0357068255543708,0.0307695567607879,0.0,0.0,-0.8669699430465698,0.3658128976821899
-0.0201105121523141,1.3010053634643557,0.0127579569816589,-0.0275366269052028,-0.0341594405472278,0.0309478137642145,0.0,0.0,-0.6569751501083374,0.7383003234863281
-0.0198794361203908,1.3002692461013794,0.0231312029063701,-0.0327189676463604,-0.0341822393238544,-0.0004558883665595,0.0,0.0,-0.9158608317375184,-0.6526281237602234
-0.0196692459285259,1.299426794052124,0.0198556873947381,-0.0374130718410015,-0.0330248735845088,0.0231471601873636,0.0,0.0,-0.7145651578903198,0.2698866128921509
-0.0194327346980571,1.298479437828064,0.0224547386169433,-0.0420812964439392,-0.0318509377539157,0.023479102179408,0.0,0.0,-0.8639023303985596,-0.2634062170982361
-0.0191696174442768,1.29742693901062,0.0250977724790573,-0.0467495173215866,-0.0306576807051897,0.023865170776844,0.0,0.0,-0.9277971386909484,-0.4577195644378662
-0.0188795085996389,1.2962695360183716,0.0277825091034173,-0.0514177419245243,-0.0294423457235097,0.0243066139519214,0.0,0.0,-0.8733322620391846,-0.8020545840263367
-0.0186101906001567,1.2950090169906616,0.0244420748203992,-0.0559765473008155,-0.0269869063049554,0.0491087809205055,0.0,0.0,-0.6699255704879761,-0.1364405155181884
-0.0183131210505962,1.293643593788147,0.0272031761705875,-0.0606451518833637,-0.0245036892592906,0.0496642813086509,0.0,0.0,-0.942964494228363,0.7517521381378174
-0.0179174430668354,1.292166233062744,0.0388092398643493,-0.0656438246369361,-0.0237567201256752,0.0149393426254391,0.0,0.0,-0.9692434072494508,-0.7563944458961487
-0.01755266264081,1.2905930280685425,0.0341797471046447,-0.0698835775256156,-0.021479208022356,0.0455502532422542,0.0,0.0,-0.8244748115539551,0.1941583156585693
-0.0171587951481342,1.288914918899536,0.0370372422039508,-0.0745521113276481,-0.0191650539636611,0.0462833084166049,0.0,0.0,-0.8224349021911621,0.2525110244750976
-0.0167357437312603,1.287131905555725,0.03992186114192,-0.0792206525802612,-0.0168112143874168,0.0470767244696617,0.0,0.0,-0.8296018242835999,0.1037856340408325
-0.0162831302732229,1.2852437496185305,0.0428310520946979,-0.083889216184616,-0.0144146736711263,0.0479308553040027,0.0,0.0,-0.7819950580596924,-0.1651365756988525
-0.0158007629215717,1.2832505702972412,0.0457622185349464,-0.0885578021407127,-0.0119723789393901,0.0488459803164005,0.0,0.0,-0.8532012701034546,0.7308864593505859
-0.0152233121916651,1.2811589241027832,0.056876253336668,-0.0929568707942962,-0.0111147901043295,0.0171517133712768,0.0,0.0,-0.7783452868461609,-0.6987510323524475
-0.0146779064089059,1.2789695262908936,0.0520329996943473,-0.0972961038351059,-0.0086398934945464,0.0494980849325656,0.0,0.0,-0.8241456747055054,0.9322259426116944
-0.0140221593901515,1.2766658067703247,0.0650528073310852,-0.1023822054266929,-0.0081217493861913,0.0103628654032945,0.0,0.0,-0.8737289905548096,-0.7091435790061951
-0.013401317410171,1.274261713027954,0.0598338730633258,-0.1068422496318817,-0.0059006013907492,0.0444227196276187,0.0,0.0,-0.7552250623703003,0.3392772674560547
-0.0127497669309377,1.2717524766921997,0.0628348141908645,-0.1115107983350753,-0.0036185008939355,0.0456421375274658,0.0,0.0,-0.9195912480354308,0.8774914741516113
-0.0119955064728856,1.2691391706466677,0.0748959928750991,-0.1161432266235351,-0.0030856665689498,0.0106565151363611,0.0,0.0,-0.9441409111022948,0.4893267154693603
-0.0112103465944528,1.2664209604263306,0.0779054388403892,-0.1208113804459571,-0.0024859118275344,0.0119952214881777,0.0,0.0,-0.8760520219802856,-0.2319724559783935
-0.0103943822905421,1.2635977268218994,0.0809148102998733,-0.1254795491695404,-0.0018162837950512,0.0133925769478082,0.0,0.0,-0.8117982149124146,-0.427992582321167
-0.0095476154237985,1.260669469833374,0.0839211717247963,-0.1301477402448654,-0.0010738958371803,0.0148478848859667,0.0,0.0,-0.8261551856994629,-0.1703578233718872
-0.0086701391264796,1.2576360702514648,0.0869215130805969,-0.1348159462213516,-0.000255882681813,0.0163601171225309,0.0,0.0,-0.9221222996711732,0.649580717086792
-0.0077081681229174,1.2545050382614136,0.0966527462005615,-0.1391511261463165,-0.0007091829320415,-0.0090660732239484,0.0,0.0,-0.8531401753425598,-0.8330233097076416
-0.0067918775603175,1.251265525817871,0.0900677889585495,-0.1439763754606247,0.0008340274798683,0.0308640897274017,0.0,0.0,-0.8297858238220215,0.5602319240570068
-0.0058075906708836,1.2479233741760254,0.097746193408966,-0.1485381424427032,0.0015169393736869,0.0136581901460886,0.0,0.0,-0.8502810001373291,-0.7558333277702332
-0.0048496248200535,1.24447762966156,0.0935698449611663,-0.1531504094600677,0.0037125810049474,0.0439129471778869,0.0,0.0,-0.8153831958770752,-0.8339325785636902
-0.0039416314102709,1.2409359216690063,0.0864394158124923,-0.1574292033910751,0.008010265417397,0.0859534442424774,0.0,0.0,-0.6403904557228088,0.7881451845169067
-0.0029338835738599,1.2372901439666748,0.0981181412935257,-0.1620520651340484,0.0106411166489124,0.0526171438395977,0.0,0.0,-0.6938171982765198,0.1624032258987426
-0.0018963813781738,1.233539342880249,0.1009873747825622,-0.1667208969593048,0.0133662186563014,0.0545021481812,0.0,0.0,-0.7742506861686707,0.5096447467803955
-0.0007845878717489,1.2296792268753052,0.1094606146216392,-0.1715791672468185,0.0150603288784623,0.0338821448385715,0.0,0.0,-0.8126194477081299,0.6095196008682251
0.0004018783511128,1.2257089614868164,0.1180017963051796,-0.1764602959156036,0.0157053191214799,0.0128996428102254,0.0,0.0,-0.570174515247345,-0.3049232363700866
0.0016171454917639,1.221633791923523,0.1207631379365921,-0.1811286062002182,0.0164517071098089,0.0149279162287712,0.0,0.0,-0.7463829517364502,-0.8190897703170776
0.0028042793273925,1.2174603939056396,0.1164212226867675,-0.1855108737945556,0.0187136214226484,0.045238371938467,0.0,0.0,-0.1404870748519897,0.4979686737060547
0.0040191649459302,1.213181972503662,0.1190916895866394,-0.1901796162128448,0.0210814457386732,0.0473565533757209,0.0,0.0,-0.6200804710388184,0.863190770149231
0.0053151128813624,1.2087916135787964,0.1284513473510742,-0.1951496452093124,0.0222101584076881,0.0225742813199758,0.0,0.0,-0.6754812598228455,0.4488363265991211
0.0066378591582179,1.2042961120605469,0.1310148239135742,-0.1998181194067001,0.0234490633010864,0.0247781015932559,0.0,0.0,-0.1001708507537841,-0.1736205220222473
0.0079866405576467,1.1996955871582031,0.1335185766220092,-0.2044866234064102,0.0248002298176288,0.0270231813192367,0.0,0.0,-0.387073278427124,-0.3096915483474731
0.0093610761687159,1.194990158081055,0.1359582543373108,-0.2091551572084427,0.0262656509876251,0.0293085016310215,0.0,0.0,-0.3997073173522949,0.9071626663208008
0.0108306882902979,1.1901872158050537,0.1471474766731262,-0.2134634554386139,0.0260783713310956,-0.0037453204859048,0.0,0.0,-0.3695135116577148,-0.8000773787498474
0.0122702596709132,1.1852773427963257,0.1426539272069931,-0.2182435691356659,0.0273700393736362,0.0258332602679729,0.0,0.0,-0.6575527191162109,-0.4049692153930664
0.0137332919985055,1.180262327194214,0.1448744833469391,-0.2229121327400207,0.0287817232310771,0.028233727440238,0.0,0.0,-0.9272232055664062,-0.2143993377685547
0.0152189256623387,1.175142526626587,0.1470127552747726,-0.2275807559490203,0.0303152687847614,0.03067072853446,0.0,0.0,-0.7292342782020569,-0.4960386753082275
0.0167263038456439,1.1699175834655762,0.1490639448165893,-0.2322494238615036,0.0319724455475807,0.0331435091793537,0.0,0.0,-0.6705030798912048,-0.0499303936958313
0.018254566937685,1.1645878553390503,0.1510232388973236,-0.2369181513786316,0.0337550267577171,0.0356512479484081,0.0,0.0,-0.7326326370239258,-0.5829508900642395
0.0197561271488666,1.1591551303863523,0.1470368802547454,-0.2415298521518707,0.0368345901370048,0.0615914240479469,0.0,0.0,-0.7634550333023071,-0.1475564837455749
0.0212766639888286,1.15361750125885,0.1487976312637329,-0.24619922041893,0.0400429368019104,0.0641669332981109,0.0,0.0,-0.8681483268737793,0.037298560142517
0.0228149406611919,1.147975206375122,0.1504516452550888,-0.2508686780929565,0.0433817021548748,0.0667752772569656,0.0,0.0,-0.2808446884155273,0.228592038154602
0.02437000349164,1.1422277688980105,0.1519939750432968,-0.2555382549762726,0.0468524880707263,0.0694157928228378,0.0,0.0,-0.7097516655921936,-0.112863540649414
0.0259407050907611,1.136375904083252,0.1534196585416793,-0.2602079510688782,0.0504568926990032,0.0720878392457962,0.0,0.0,-0.7022194266319275,0.080055832862854
0.0275257118046283,1.1304190158843994,0.1547237336635589,-0.2648777663707733,0.0541964247822761,0.074790708720684,0.0,0.0,-0.5817862749099731,0.1822291612625122
0.0291238781064748,1.1243575811386108,0.1559013277292251,-0.2695477306842804,0.0580726414918899,0.0775239095091819,0.0,0.0,-0.3676598072052002,0.5810446739196777
0.030770206823945,1.118199586868286,0.1614971607923507,-0.273805171251297,0.0611683428287506,0.0619142055511474,0.0,0.0,-0.3647055625915527,-0.2556794881820678
0.0324270240962505,1.111937165260315,0.1624074876308441,-0.2784748375415802,0.064403660595417,0.0647062286734581,0.0,0.0,-0.4020491242408752,0.0958961248397827
0.034092903137207,1.105569839477539,0.1631773710250854,-0.2831446528434753,0.0677799582481384,0.0675262212753295,0.0,0.0,-0.5382405519485474,-0.0249696373939514
0.0357665047049522,1.099097728729248,0.1638024449348449,-0.28781458735466,0.0712986886501312,0.070374459028244,0.0,0.0,-0.6516535878181458,0.0098387002944946
0.0374463088810443,1.092520833015442,0.1642785966396331,-0.2924846708774566,0.0749611780047416,0.07324980199337,0.0,0.0,-0.5274925827980042,-0.3152666091918945
0.0391307845711708,1.0858392715454102,0.1646019220352172,-0.2971548736095428,0.078768752515316,0.0761516243219375,0.0,0.0,-0.4557585716247558,0.2849128246307373
0.0408183112740516,1.0790531635284424,0.1647688597440719,-0.3018252253532409,0.0827227234840393,0.0790791288018226,0.0,0.0,-0.6424875855445862,-0.2486780881881714
0.0425075516104698,1.07216215133667,0.1647761166095733,-0.3064957559108734,0.0868242979049682,0.0820316150784492,0.0,0.0,-0.3142169713973999,-0.5428406596183777
0.0441584587097168,1.0651569366455078,0.1598251163959503,-0.3116563260555267,0.0920475870370864,0.104465827345848,0.0,0.0,-0.3446506261825561,-0.5770308971405029
0.0457729324698448,1.05804705619812,0.1551463454961776,-0.3163960576057434,0.0982923358678817,0.1248948723077774,0.0,0.0,-0.4356366395950317,0.5706120729446411
0.0474268905818462,1.0508438348770142,0.1600529253482818,-0.3205020725727081,0.1035920828580856,0.1059950962662696,0.0,0.0,-0.3086804747581482,-0.0863929390907287
0.0490757934749126,1.0435364246368408,0.1593963503837585,-0.3251738846302032,0.1090440154075622,0.1090382784605026,0.0,0.0,-0.2128520011901855,0.1616221666336059
0.0507178306579589,1.036124348640442,0.1585695892572403,-0.3298459351062774,0.114649087190628,0.1121015101671218,0.0,0.0,0.3381786346435547,-0.0637381672859191
0.0522701255977153,1.0295922756195068,0.1494556814432144,-0.2907619476318359,0.120381198823452,0.114642322063446,0.0,0.0,-0.3380735516548157,0.731906533241272
0.0538748726248741,1.022973895072937,0.1561782509088516,-0.2945095002651214,0.1246573030948638,0.0855219364166259,0.0,0.0,-0.2305671572685241,-0.3333454132080078
0.0554677955806255,1.0162509679794312,0.1548380553722381,-0.2991808652877807,0.129089206457138,0.0886377915740013,0.0,0.0,-0.5147016048431396,0.1073390245437622
0.057047177106142,1.0094232559204102,0.1533274948596954,-0.303852379322052,0.13367760181427,0.0917682498693466,0.0,0.0,-0.0077022314071655,-0.1978565454483032
0.0586112961173057,1.0024912357330322,0.1516478061676025,-0.3085240721702575,0.1384231895208358,0.0949116200208664,0.0,0.0,-0.4901531934738159,0.1452836990356445
0.0601584427058696,0.9954549074172974,0.149800643324852,-0.3131959140300751,0.1433264762163162,0.0980661585927009,0.0,0.0,0.1622177362442016,-0.1741312742233276
0.0616515167057514,0.9888749718666076,0.1441525071859359,-0.292941153049469,0.1484724730253219,0.1029195562005043,0.0,0.0,-0.159433364868164,-0.0675095915794372
0.0631243735551834,0.9821907877922058,0.1419772803783416,-0.2976135015487671,0.153777003288269,0.1060906052589416,0.0,0.0,-0.3990989923477173,0.0056684017181396
0.0645754784345626,0.9754024147987366,0.1396422535181045,-0.3022860288619995,0.1592403352260589,0.1092667356133461,0.0,0.0,-0.268619179725647,0.0564860105514526
0.0660032257437706,0.9685096144676208,0.1371508240699768,-0.3069587647914886,0.1648626178503036,0.1124456748366355,0.0,0.0,0.0106827020645141,0.5467236042022705
0.0674610137939453,0.961810290813446,0.1410257667303085,-0.2982848584651947,0.1696168929338455,0.0950855910778045,0.0,0.0,-0.5279391407966614,0.6974976062774658
