x_pos,y_pos,x_vel,y_vel,angle,ang_vel,leg_1,leg_2,main_booster,lat_booster
-0.001473331474699,1.4033491611480713,-0.149256631731987,-0.336481362581253,0.0017195772379636,0.033917237073183,0.0,0.0,-0.3884369134902954,0.9522711038589478
-0.0028189658187329,1.395521879196167,-0.1341715455055236,-0.3478788733482361,0.001332463696599,-0.007742341607809,0.0,0.0,-0.2381832003593444,0.1423265933990478
-0.0041220663115382,1.3874188661575315,-0.1299004852771759,-0.3601333498954773,0.0009282141691073,-0.0080858115106821,0.0,0.0,-0.206699252128601,0.6014102697372437
-0.0053491592407226,1.379038691520691,-0.121303416788578,-0.3724520802497864,-0.0004476748872548,-0.0275203548371791,0.0,0.0,-0.4217827320098877,-0.2715852260589599
-0.0065423967316746,1.370383381843567,-0.1179182901978492,-0.3846831321716308,-0.0018379427492618,-0.027808029204607,0.0,0.0,-0.1060136556625366,0.2516635656356811
-0.0077066421508789,1.36145281791687,-0.1150023117661476,-0.3969141542911529,-0.0032417015172541,-0.0280780438333749,0.0,0.0,0.2520359754562378,-0.1842216253280639
-0.0088623045012354,1.3529036045074463,-0.1140542477369308,-0.3799662292003631,-0.0047387764789164,-0.0299442112445831,0.0,0.0,-0.3684695959091186,0.5672235488891602
-0.0099429134279489,1.3440805673599243,-0.1051237806677818,-0.3921514451503753,-0.0076466328464448,-0.0581624619662761,0.0,0.0,-0.5544700622558594,-0.1437258124351501
-0.0110092163085937,1.3349823951721191,-0.1036800742149353,-0.4043802320957184,-0.0105614215135574,-0.0583011806011199,0.0,0.0,-0.535984992980957,0.8367929458618164
-0.0120002748444676,1.3256133794784546,-0.0944830998778343,-0.4164381325244903,-0.0151372626423835,-0.0915251225233078,0.0,0.0,-0.1582571268081665,-0.2213156819343567
-0.0129870418459177,1.315969467163086,-0.0940542370080947,-0.428670734167099,-0.0197151899337768,-0.0915662795305252,0.0,0.0,-0.4108904600143432,-0.0820788145065307
-0.0139746665954589,1.3060506582260132,-0.0941379517316818,-0.4409033060073852,-0.0242937933653593,-0.0915803089737892,0.0,0.0,-0.1461751461029052,0.3923436403274536
-0.0149682043120265,1.2958569526672363,-0.09473118185997,-0.453136146068573,-0.0288702175021171,-0.0915368050336837,0.0,0.0,0.176661729812622,0.3494455814361572
-0.0159162525087595,1.2857654094696045,-0.0904161483049392,-0.4486037194728851,-0.0332097820937633,-0.0867993384599685,0.0,0.0,-0.4350087642669678,-0.316204309463501
-0.0168801303952932,1.2753989696502686,-0.0920114144682884,-0.4608395397663116,-0.0375421345233917,-0.086654707789421,0.0,0.0,-0.274884283542633,-0.5160276293754578
-0.0178981777280569,1.2647531032562256,-0.0982846468687057,-0.473235547542572,-0.0410271361470222,-0.0697063580155372,0.0,0.0,-0.565220057964325,-0.9133527874946594
-0.0189970023930072,1.253846287727356,-0.1077848821878433,-0.4848047792911529,-0.0430993847548961,-0.0414487458765506,0.0,0.0,-0.757656991481781,-0.6959008574485779
-0.0201679226011037,1.2426611185073853,-0.116083025932312,-0.4971480071544647,-0.0441022552549839,-0.0200591050088405,0.0,0.0,-0.5900203585624695,-0.1790701150894165
-0.0213734619319438,1.231200933456421,-0.1195507422089576,-0.5093793272972107,-0.0450873076915741,-0.0197030939161777,0.0,0.0,-0.5604797005653381,0.8347764015197754
-0.0225605964660644,1.2194609642028809,-0.1162855997681617,-0.5218441486358643,-0.0474882125854492,-0.0480222515761852,0.0,0.0,0.0627970695495605,-0.5315399765968323
-0.0237184520810842,1.2081711292266846,-0.1146100312471389,-0.5018106698989868,-0.0486485585570335,-0.0232092253863811,0.0,0.0,0.1775106191635131,0.0676548480987548
-0.0248991958796978,1.197077751159668,-0.1169694513082504,-0.4930746257305145,-0.0497447736561298,-0.0219262316823005,0.0,0.0,0.1102887392044067,-0.5484665632247925
-0.0260589607059955,1.1862525939941406,-0.1161671727895736,-0.4811115860939026,-0.0495506152510643,0.0038834339939057,0.0,0.0,-0.8604516386985779,0.585971474647522
-0.0272210128605365,1.1751418113708496,-0.1151150614023208,-0.4938488602638244,-0.050627700984478,-0.0215437654405832,0.0,0.0,-0.864158034324646,-0.7799397706985474
-0.0285161025822162,1.1637638807296753,-0.1303944885730743,-0.5056595802307129,-0.0497516319155693,0.0175226852297782,0.0,0.0,-0.9371808171272278,0.7351357936859131
-0.0298277847468853,1.1520897150039673,-0.130971759557724,-0.5188537836074829,-0.049947801977396,-0.0039231078699231,0.0,0.0,0.4611480236053467,-0.3853164911270141
-0.03116693533957,1.1411027908325195,-0.1337718665599823,-0.4883154332637787,-0.0500898249447345,-0.0028404868207871,0.0,0.0,-0.6436203718185425,0.2130411863327026
-0.0325716957449913,1.129840612411499,-0.1403727829456329,-0.5005444884300232,-0.0501913763582706,-0.0020310573745518,0.0,0.0,-0.7192237377166748,0.2305150032043457
-0.0340445525944232,0.0,-0.1472252160310745,-0.5127736330032349,-0.050250619649887,-0.0011851803865283,0.0,0.0,-0.3060241937637329,0.5201311111450195
-0.0355481132864952,1.1064857244491575,-0.1493397653102874,-0.5252565145492554,-0.0512651205062866,-0.0202899612486362,0.0,0.0,-0.2903903126716614,0.2133392095565796
-0.0371243469417095,1.094393253326416,-0.1566436439752578,-0.537485659122467,-0.0522339455783367,-0.0193763133138418,0.0,0.0,-0.1484838724136352,0.0116454362869262
-0.0387751571834087,1.0820252895355225,-0.1641491055488586,-0.5497147440910339,-0.0531554967164993,-0.0184310022741556,0.0,0.0,-0.97295081615448,-0.1438997387886047
-0.0405024513602256,1.0693823099136353,-0.1718412488698959,-0.5619438290596008,-0.0540282800793647,-0.0174557287245988,0.0,0.0,-0.9890310764312744,-0.1174142956733703
-0.0423078536987304,1.0564639568328855,-0.1797060221433639,-0.574172854423523,-0.0548508502542972,-0.0164515562355518,0.0,0.0,-0.9980387091636658,0.4796509742736816
-0.0441929809749126,1.0432705879211426,-0.1877302527427673,-0.5864018797874451,-0.0556218326091766,-0.0154198007658123,0.0,0.0,-0.9109138250350952,-0.0205533504486084
-0.0461592674255371,1.029801845550537,-0.1959016472101211,-0.5986309051513672,-0.0563399083912372,-0.0143615398555994,0.0,0.0,-0.7976040840148926,0.4380689859390259
-0.0482080467045307,1.016058087348938,-0.2042087018489837,-0.6108599305152893,-0.0570037998259067,-0.0132777914404869,0.0,0.0,-0.9471696019172668,-0.3444997668266296
-0.0503406524658203,1.0020391941070557,-0.2126407176256179,-0.6230888962745667,-0.0576122663915157,-0.012169437482953,0.0,0.0,-0.9568082690238952,0.4113736152648926
-0.0525580421090126,0.9877449870109558,-0.2211878299713134,-0.635317862033844,-0.0581641271710395,-0.0110373329371213,0.0,0.0,-0.9247010350227356,-0.6617016792297363
-0.054911233484745,0.9731809496879578,-0.2360888719558715,-0.6472667455673218,-0.057402916252613,0.0152241010218858,0.0,0.0,-0.7742440700531006,0.4209294319152832
-0.0573513023555278,0.9583415389060974,-0.2448391020298004,-0.6594958901405334,-0.0565828271210193,0.0164017267525196,0.0,0.0,-0.8761717081069946,0.177064299583435
-0.0598792061209678,0.9432269334793092,-0.2536787390708923,-0.6717248558998108,-0.0557027794420719,0.017601178959012,0.0,0.0,-0.5651807188987732,0.1665701866149902
-0.0624957084655761,0.9278371930122375,-0.2626004815101623,-0.6839538812637329,-0.054761666804552,0.0188219472765922,0.0,0.0,-0.8230183720588684,-0.2146381139755249
-0.0652015656232833,0.912172257900238,-0.2715975344181061,-0.696182906627655,-0.0537584871053695,0.0200633741915226,0.0,0.0,-0.9881163239479064,0.4956386089324951
-0.0679974555969238,0.8962320685386658,-0.2806636691093445,-0.7084119319915771,-0.0526922084391117,0.0213255025446414,0.0,0.0,-0.6802322864532471,0.6805931329727173
-0.0708263367414474,0.8800051808357239,-0.2825537323951721,-0.721204400062561,-0.0530208721756935,-0.0065732463262975,0.0,0.0,-0.5001235604286194,0.3553476333618164
-0.0737463980913162,0.863503098487854,-0.291741132736206,-0.7334333062171936,-0.053284466266632,-0.0052717379294335,0.0,0.0,-0.4795550107955932,0.6801726818084717
-0.0767141357064247,0.8467297554016113,-0.2954699397087097,-0.7455329298973083,-0.0545816086232662,-0.0259427092969417,0.0,0.0,-0.8897238373756409,0.7894562482833862
-0.0797252655029296,0.8296840786933899,-0.2986303567886352,-0.757675051689148,-0.0570354238152504,-0.0490763001143932,0.0,0.0,-0.932281732559204,0.9635381698608398
-0.082755759358406,0.8123544454574585,-0.2987572252750397,-0.7703785300254822,-0.0612722337245941,-0.0847363919019699,0.0,0.0,-0.8744322657585144,0.8614047765731812
-0.0857949256896972,0.7947419881820679,-0.2975602149963379,-0.7830515503883362,-0.0675633996725082,-0.125823363661766,0.0,0.0,-0.9641709327697754,0.6835548877716064
-0.0888784378767013,0.7768544554710388,-0.3008250594139099,-0.7953577041625977,-0.075014591217041,-0.1490241289138794,0.0,0.0,-0.5567352771759033,0.9775569438934326
-0.0919648185372352,0.758677065372467,-0.2988583445549011,-0.8084054589271545,-0.0846969559788703,-0.1936473995447158,0.0,0.0,0.1116703748703002,0.9249064922332764
-0.095023825764656,0.7410271167755127,-0.2943373322486877,-0.7851419448852539,-0.0961478948593139,-0.2290190905332565,0.0,0.0,-0.3035008907318115,0.9439761638641356
-0.0980843529105186,0.723086953163147,-0.2922217547893524,-0.7982872128486633,-0.1098751723766326,-0.2745455205440521,0.0,0.0,0.4985640048980713,0.6287350654602051
-0.1012372970581054,0.7055160999298096,-0.3000701069831848,-0.7821139097213745,-0.1249866411089897,-0.3022297322750091,0.0,0.0,-0.0600729584693908,0.900871515274048
-0.1044019684195518,0.6876661777496338,-0.2992878258228302,-0.794855535030365,-0.1421002298593521,-0.342272013425827,0.0,0.0,0.6933579444885254,0.5267863273620605
-0.1073723807930946,0.6705326437950134,-0.2793326377868652,-0.7632740139961243,-0.1597782671451568,-0.3535605072975158,0.0,0.0,-0.0289654731750488,0.303452730178833
-0.1104372963309288,0.6531280875205994,-0.2889192402362823,-0.7755280137062073,-0.1773810088634491,-0.3520545661449432,0.0,0.0,0.6858943700790405,0.041683554649353
-0.113531969487667,0.6366565823554993,-0.291660875082016,-0.7342929840087891,-0.195267379283905,-0.3577273786067962,0.0,0.0,0.5021204948425293,0.5734108686447144
-0.1165630370378494,0.6203769445419312,-0.2843916118144989,-0.7261185050010681,-0.2141149193048477,-0.3769512474536896,0.0,0.0,0.5361380577087402,0.3102071285247803
-0.1196412071585655,0.6048122644424438,-0.2888417541980743,-0.6946312189102173,-0.2333167642354965,-0.3840371370315552,0.0,0.0,0.1000798940658569,0.1437000036239624
-0.122654341161251,0.5894507765769958,-0.2828879952430725,-0.6857620477676392,-0.2520607113838196,-0.3748792111873626,0.0,0.0,0.7175873517990112,-0.6778324842453003
-0.1256292313337326,0.5747547149658203,-0.2806225419044494,-0.6561482548713684,-0.2692961692810058,-0.3447095453739166,0.0,0.0,0.0154752731323242,0.4026488065719604
-0.1286289244890213,0.5601413249969482,-0.2832701206207275,-0.652647852897644,-0.286431223154068,-0.3427011966705322,0.0,0.0,0.6256438493728638,0.8557151556015015
-0.1316244155168533,0.5461228489875793,-0.2811347842216491,-0.6267738342285156,-0.3054311871528625,-0.3799992799758911,0.0,0.0,0.5669171810150146,-0.881367564201355
-0.1345129013061523,0.5330250263214111,-0.272374540567398,-0.5856845378875732,-0.3225168287754059,-0.3417132794857025,0.0,0.0,0.642238974571228,-0.7049758434295654
-0.1373740136623382,0.5200445055961609,-0.2713470160961151,-0.5802749395370483,-0.3379122316837311,-0.3079079985618591,0.0,0.0,0.4946935176849365,-0.2304463386535644
-0.1400507986545562,0.5078722834587097,-0.2531849145889282,-0.5444595813751221,-0.3531152606010437,-0.3040610253810882,0.0,0.0,0.1869914531707763,-0.9070194363594056
-0.1428465843200683,0.4959797859191894,-0.2669779360294342,-0.5317081212997437,-0.3664047420024872,-0.2657902836799621,0.0,0.0,-0.4122443795204162,-0.916185200214386
-0.1458138525485992,0.4838618040084839,-0.2863136231899261,-0.541283905506134,-0.3774390816688537,-0.2206861674785614,0.0,0.0,0.1249674558639526,-0.3429919481277466
-0.1487004309892654,0.4720490574836731,-0.2784576117992401,-0.5277483463287354,-0.3882966637611389,-0.2171519547700882,0.0,0.0,0.4646532535552978,-0.9043325781822203
-0.1515813767910003,0.461124449968338,-0.2796363532543182,-0.4878695607185364,-0.3973239362239837,-0.1805453598499298,0.0,0.0,0.14054536819458,-0.7107903361320496
-0.1544013023376464,0.4504753649234772,-0.2750647664070129,-0.4752433598041534,-0.4047462344169616,-0.1484462469816208,0.0,0.0,0.3234035968780517,-0.7897408604621887
-0.157279297709465,0.4400323629379272,-0.2824531197547912,-0.465677410364151,-0.4104947745800018,-0.1149701923131942,0.0,0.0,0.6847245693206787,-0.5970145463943481
-0.1600959748029709,0.4297474026679992,-0.2777189314365387,-0.4582597315311432,-0.414752721786499,-0.0851596370339393,0.0,0.0,0.087989330291748,-0.0969555377960205
-0.1629362106323242,0.4195065796375274,-0.2800682485103607,-0.456316739320755,-0.4190260469913482,-0.0854663848876953,0.0,0.0,0.4559887647628784,-0.4325414896011352
-0.165593147277832,0.409952700138092,-0.2617882192134857,-0.4257847368717193,-0.4232524037361145,-0.084526740014553,0.0,0.0,0.7227200269699097,-0.1762884259223938
-0.1679187715053558,0.4012352228164673,-0.229093313217163,-0.3884872496128082,-0.4270114302635193,-0.0751805454492569,0.0,0.0,0.3724232912063598,0.3703736066818237
-0.1701419800519943,0.3932273685932159,-0.218531996011734,-0.3570627868175506,-0.431120216846466,-0.0821757018566131,0.0,0.0,0.6080197095870972,-0.2274342775344848
-0.1724384278059005,0.3854622840881347,-0.2254085838794708,-0.3464212119579315,-0.4357299506664276,-0.0921949595212936,0.0,0.0,0.5374130010604858,0.0686581134796142
-0.1744836866855621,0.3783983290195465,-0.200529009103775,-0.3151984810829162,-0.4400844871997833,-0.0870910286903381,0.0,0.0,0.8627734184265137,0.2772181034088135
-0.1764488220214843,0.3720126748085022,-0.1921161115169525,-0.2851972281932831,-0.4448859095573425,-0.0960283726453781,0.0,0.0,0.8134936094284058,-0.9198827147483826
-0.1783104836940765,0.3664519190788269,-0.1835123300552368,-0.2479896694421768,-0.4477852284908294,-0.0579863078892231,0.0,0.0,0.9174015522003174,-0.5782456398010254
-0.1799661666154861,0.3617545366287231,-0.164069727063179,-0.2092560082674026,-0.4494322538375854,-0.0329412370920181,0.0,0.0,0.9777954816818236,-0.4484796524047851
-0.1813171356916427,0.3576544821262359,-0.1341085135936737,-0.1825436800718307,-0.4505150318145752,-0.0216554906219244,0.0,0.0,0.9541997909545898,-0.8982092142105103
-0.1826213896274566,0.3538433909416199,-0.1312649548053741,-0.1691113263368606,-0.4495974779129028,0.0183513518422842,0.0,0.0,0.9801287651062012,-0.6948112845420837
-0.1837495863437652,0.3503615856170654,-0.1153211370110511,-0.1539446860551834,-0.446864366531372,0.0546622760593891,0.0,0.0,0.9533131122589112,-0.8978130221366882
-0.1845675408840179,0.3474391400814056,-0.0863933339715004,-0.1284251809120178,-0.4418300092220306,0.1006869301199913,0.0,0.0,0.79815673828125,-0.910761296749115
-0.1852059364318847,0.3447550535202026,-0.0705084577202797,-0.1172052472829818,-0.434563398361206,0.1453320086002349,0.0,0.0,0.650637149810791,-0.8647618889808655
-0.1856825798749923,0.3428698778152466,-0.0560851283371448,-0.0812071859836578,-0.4254161417484283,0.1829454004764557,0.0,0.0,-0.0839468836784362,-0.989018440246582
-0.186312198638916,0.3407626450061798,-0.073304459452629,-0.0905699953436851,-0.4142280519008636,0.2237611263990402,0.0,0.0,-0.0957635641098022,-0.958518087863922
-0.1870825737714767,0.3384208977222442,-0.0889868885278701,-0.100631833076477,-0.4013778269290924,0.25700443983078,0.0,0.0,-0.3156834840774536,-0.7986401319503784
-0.1879896223545074,0.3358286619186401,-0.1040735393762588,-0.1114939823746681,-0.3870824575424194,0.2859074473381042,0.0,0.0,-0.2906745672225952,-0.2003345489501953
-0.1889822036027908,0.3329634964466095,-0.1127789467573165,-0.1237365007400512,-0.3727067708969116,0.2875140011310577,0.0,0.0,0.1754646301269531,-0.8523842096328735
-0.1898307800292968,0.3306911289691925,-0.1002309173345565,-0.0970696881413459,-0.3564521968364715,0.3250916004180908,0.0,0.0,-0.1273361444473266,-0.902265965938568
-0.1908317506313324,0.3281853199005127,-0.1174924150109291,-0.1071639060974121,-0.3381946980953216,0.3651499152183532,0.0,0.0,-0.3405572175979614,-0.6491674780845642
-0.191971868276596,0.3254447281360626,-0.1331334561109542,-0.1174468025565147,-0.3182483911514282,0.3989263474941253,0.0,0.0,-0.1762511730194091,-0.1792748570442199
-0.1931932419538498,0.3224336504936218,-0.1414578855037689,-0.129705548286438,-0.2982235252857208,0.4004975259304046,0.0,0.0,-0.1582840681076049,-0.4545850753784179
-0.1944948136806488,0.3191522657871246,-0.149668201804161,-0.1419648826122284,-0.2781206965446472,0.402057409286499,0.0,0.0,0.5160224437713623,0.0722274780273437
-0.1957596838474273,0.3166229128837585,-0.145848348736763,-0.108854129910469,-0.2582916617393493,0.396580696105957,0.0,0.0,0.0694299936294555,-0.6660818457603455
-0.1970887184143066,0.3143160045146942,-0.1537563055753708,-0.0989981517195701,-0.2370595037937164,0.4246428906917572,0.0,0.0,-0.2797108888626098,-0.4873894453048706
-0.1984942406415939,0.3117395639419555,-0.1615812331438064,-0.111262522637844,-0.2157518118619918,0.4261539876461029,0.0,0.0,0.1429102420806884,-0.1538573503494262
-0.1999988555908203,0.3094578981399536,-0.1711955070495605,-0.098516933619976,-0.1948510855436325,0.4180147051811218,0.0,0.0,0.2567340135574341,0.0121874809265136
-0.2013922184705734,0.3076877295970917,-0.1606017649173736,-0.0760199278593063,-0.1735042780637741,0.4269367754459381,0.0,0.0,-0.094594120979309,0.207539677619934
-0.2028577774763107,0.3056482374668121,-0.1679670363664627,-0.0882856696844101,-0.1520852893590927,0.4283796846866607,0.0,0.0,-0.0627064108848571,0.4266388416290283
-0.2043938636779785,0.3033394813537597,-0.1751619279384613,-0.1005519554018974,-0.1305955648422241,0.4297948479652405,0.0,0.0,-0.1081255674362182,0.6635725498199463
-0.2059483081102371,0.3007567524909973,-0.1758441179990768,-0.1131258383393287,-0.1103091910481453,0.4057276844978332,0.0,0.0,0.09022057056427,0.8170462846755981
-0.2073340415954589,0.2987252175807953,-0.1574965268373489,-0.0890019014477729,-0.0915321260690689,0.375541627407074,0.0,0.0,0.0471619367599487,0.5296629667282104
-0.2086563110351562,0.2969585359096527,-0.1502743363380432,-0.077511079609394,-0.0736547112464904,0.3575482964515686,0.0,0.0,0.1443769931793213,0.455089807510376
-0.2100052386522293,0.2957674264907837,-0.1530073285102844,-0.0521426685154438,-0.0557362176477909,0.3583700954914093,0.0,0.0,-0.1262635588645935,0.4349263906478882
-0.211415484547615,0.2943054437637329,-0.1592139303684234,-0.0643984973430633,-0.0377555564045906,0.359613299369812,0.0,0.0,-0.065849483013153,0.6463500261306763
-0.2128268778324127,0.2925657033920288,-0.1579324454069137,-0.0769808739423751,-0.0211731921881437,0.3316471576690674,0.0,0.0,-0.1111190319061279,0.8423978090286255
-0.2142419815063476,0.2905539870262146,-0.1570148169994354,-0.0892630815505981,-0.0058680558577179,0.3061030209064483,0.0,0.0,-0.2168276309967041,0.50539231300354
-0.2156800776720047,0.2882684469223022,-0.1585737615823745,-0.1015864089131355,0.0087017444893717,0.2913960814476013,0.0,0.0,-0.2940531969070434,0.627434253692627
-0.2171224057674408,0.2857106328010559,-0.1578233242034912,-0.1138146966695785,0.0221214424818754,0.2683941423892975,0.0,0.0,-0.4808202981948852,0.9920415878295898
-0.2185322791337967,0.282880574464798,-0.1525465548038482,-0.1259889155626297,0.0335336290299892,0.2282438725233078,0.0,0.0,-0.8098065257072449,0.9063910245895386
-0.2199016064405441,0.279772937297821,-0.1463157832622528,-0.1383519768714904,0.0428006649017334,0.1853407472372055,0.0,0.0,-0.9086065292358398,0.9916774034500122
-0.2212242186069488,0.2764013707637787,-0.1393587589263916,-0.1500660628080368,0.0498197190463542,0.1403809487819671,0.0,0.0,-0.9610639810562134,0.9969913959503174
-0.222506433725357,0.2727707922458648,-0.1332730948925018,-0.1615322381258011,0.0548127107322216,0.0998600646853447,0.0,0.0,-0.954277276992798,0.998364806175232
