x_pos,y_pos,x_vel,y_vel,angle,ang_vel,leg_1,leg_2,main_booster,lat_booster
-0.0015040397411212,1.4035398960113523,-0.1522424072027206,-0.3280135989189148,0.0016476564342156,0.0324929878115654,0.0,0.0,0.744805157963524,0.1183966933267848
-0.0029343604110181,1.3968288898468018,-0.1448127329349517,-0.2982667088508606,0.0034076864831149,0.0352048650383949,0.0,0.0,-0.7308680098963265,0.8641137030654281
-0.0042618750594556,1.3900268077850342,-0.1323155462741851,-0.3023152947425842,0.002972355345264,-0.0087073966860771,0.0,0.0,-0.9626129777052724,-0.924360620825598
-0.0056565282866358,1.3831366300582886,-0.1411326229572296,-0.3062345087528229,0.0046215150505304,0.0329862907528877,0.0,0.0,0.0934156884462629,-0.8302528829451973
-0.0069993017241358,1.3768121004104614,-0.1375595182180404,-0.2811057269573211,0.0078657744452357,0.0648912861943245,0.0,0.0,0.3778781818634176,-0.7419018706176365
-0.0082565303891897,1.371082067489624,-0.1305925995111465,-0.2546991109848022,0.0126893604174256,0.096480444073677,0.0,0.0,-0.5545423970476877,0.5634517175526743
-0.0094511983916163,1.3652684688568115,-0.1231575831770896,-0.2584215402603149,0.0163388680666685,0.0729968398809433,0.0,0.0,-0.3621877339571064,0.6548720601853305
-0.0105617521330714,1.3593735694885254,-0.1130105257034301,-0.2620103657245636,0.018274312838912,0.0387124121189117,0.0,0.0,-0.8980308244477166,-0.7879586336050433
-0.0117157939821481,1.3534011840820312,-0.1188763976097107,-0.2654902040958404,0.0217074900865554,0.0686697661876678,0.0,0.0,0.1025166718383578,-0.3953788608983677
-0.012861156836152,1.3480710983276367,-0.117904208600521,-0.236946627497673,0.0250457227230072,0.0667708590626716,0.0,0.0,-0.8881703391879234,0.3575968214699779
-0.0139866825193166,1.3426563739776611,-0.1158347576856613,-0.2407167255878448,0.0282961074262857,0.0650134235620498,0.0,0.0,-0.0748129978145384,-0.9252550744036312
-0.0151567459106445,1.3371526002883911,-0.1218411922454834,-0.2447152882814407,0.0330809652805328,0.0957057997584343,0.0,0.0,-0.925504071287044,0.1166271191299325
-0.0163070671260356,1.3315643072128296,-0.1197901591658592,-0.2484803944826126,0.0377834700047969,0.0940588414669036,0.0,0.0,0.9547546912050486,-0.4528566159702571
-0.0173720363527536,1.3265260457992554,-0.111557200551033,-0.2240562736988067,0.0427939370274543,0.1002181991934776,0.0,0.0,-0.8485237039494977,0.8978770632017472
-0.0183302871882915,1.321418046951294,-0.0985947698354721,-0.2271017134189605,0.0455298870801925,0.0547240860760211,0.0,0.0,0.6210328832850895,0.8023920113131504
-0.0190997123718261,1.316665530204773,-0.0782504677772522,-0.2112616598606109,0.0468223169445991,0.0258510503917932,0.0,0.0,-0.0570803963367121,0.3726876220928145
-0.0198495872318744,1.3118282556533811,-0.0762286558747291,-0.2150286585092544,0.0480494499206543,0.0245448909699916,0.0,0.0,-0.2269753311322393,-0.3466105388646785
-0.0205800049006938,1.3069062232971191,-0.074220024049282,-0.218790978193283,0.0492156632244586,0.0233262684196233,0.0,0.0,-0.932022794468342,0.6258588737217602
-0.0212339404970407,1.3019099235534668,-0.0650520548224449,-0.2220561802387237,0.0488809272646904,-0.0066951080225408,0.0,0.0,0.4835453085010934,-0.5613345297796144
-0.0220158584415912,1.2975807189941406,-0.0787428244948387,-0.1924207359552383,0.049422051757574,0.0108229974284768,0.0,0.0,0.8570096405812535,-0.099871891589056
-0.0226771347224712,1.2944438457489014,-0.0673040002584457,-0.1394672989845276,0.0505854599177837,0.0232706032693386,0.0,0.0,-0.6239252811245848,0.0194609870313537
-0.0233194343745708,1.2912218570709229,-0.0653602927923202,-0.1432380527257919,0.0517073683440685,0.0224400050938129,0.0,0.0,0.5857013117936163,-0.5963675074876955
-0.0238821990787982,1.2887040376663208,-0.0589115396142005,-0.1119922026991844,0.0543037429451942,0.0519324354827404,0.0,0.0,-0.4182318990355032,0.7251302195151981
-0.024362277239561,1.2860987186431885,-0.0489665232598781,-0.1158299818634986,0.0552605837583541,0.0191385578364133,0.0,0.0,0.2667189262313736,0.3271719270827741
-0.0249596592038869,1.2841386795043943,-0.0601762533187866,-0.0871263518929481,0.0556892342865467,0.0085737043991684,0.0,0.0,0.0299828129331103,-0.3614998264844483
-0.0256530754268169,1.2827223539352417,-0.0693313851952552,-0.062948927283287,0.0556789599359035,-0.0002055262157227,0.0,0.0,0.6583639862753301,0.9513040533659824
-0.0262896530330181,1.282326102256775,-0.0617250017821788,-0.0175432041287422,0.0537675060331821,-0.0382289066910743,0.0,0.0,0.723353774376049,0.067042561592208
-0.0270906444638967,1.2831237316131592,-0.0775247365236282,0.0355377085506916,0.0512193366885185,-0.0509634725749492,0.0,0.0,-0.1926976777111542,0.3394368063527379
-0.0278740879148244,1.283836841583252,-0.0757586732506752,0.0317755490541458,0.048671368509531,-0.0509596243500709,0.0,0.0,0.4585277477058986,0.3166869684110245
-0.0286795608699321,1.2851086854934692,-0.0778848603367805,0.056618221104145,0.04604422301054,-0.0525428056716918,0.0,0.0,0.3368333620211201,0.7346693377693069
-0.0294246673583984,1.2873361110687256,-0.0704103857278823,0.0991211757063865,0.0419916436076164,-0.0810518190264701,0.0,0.0,-0.1367815732955932,-0.9065207839012146
-0.0302337650209665,1.2894688844680786,-0.0788946002721786,0.0948387160897255,0.0399959832429885,-0.0399132519960403,0.0,0.0,-0.2323660850524902,-0.4488537907600403
-0.0310264583677053,1.2915170192718506,-0.0772803872823715,0.0910766869783401,0.0380266346037387,-0.0393868386745452,0.0,0.0,-0.1075128316879272,-0.4759833812713623
-0.0318032279610633,1.293480396270752,-0.0757108181715011,0.0873146280646324,0.0360902585089206,-0.0387275032699108,0.0,0.0,-0.031785249710083,-0.5049072504043579
-0.0326032638549804,1.295358180999756,-0.0790660753846168,0.0834819823503494,0.0351705811917781,-0.0183936953544616,0.0,0.0,-0.0325530171394348,-0.5132669806480408
-0.0334274284541606,1.297153353691101,-0.0825430154800415,0.0797751322388649,0.0352867729961872,0.0023241410963237,0.0,0.0,0.066999077796936,-0.4120436906814575
-0.0342643745243549,1.2993035316467283,-0.0837762653827667,0.0955664739012718,0.0353774912655353,0.0018142057815566,0.0,0.0,-0.210760235786438,-0.2381835579872131
-0.0350870117545127,1.301369309425354,-0.0824156999588012,0.0918046683073043,0.0355277024209499,0.0030041532590985,0.0,0.0,0.0053342580795288,0.3048164844512939
-0.0359381660819053,1.3041176795959473,-0.0852159932255745,0.1221491247415542,0.0356331542134285,0.0021088286302983,0.0,0.0,-0.0506188869476318,0.0814412832260131
-0.0367761626839637,1.306781530380249,-0.0839796513319015,0.118387296795845,0.0358110927045345,0.0035587556194514,0.0,0.0,-0.2264901399612426,-0.3429526090621948
-0.0376015678048133,1.3093607425689695,-0.0828106328845024,0.1146254315972328,0.0360678918659687,0.0051362505182623,0.0,0.0,-0.1736811399459839,-0.3145432472229004
-0.0384152419865131,1.3118553161621094,-0.08171246945858,0.1108635514974594,0.0364098586142063,0.0068393275141716,0.0,0.0,-0.1228094696998596,-0.5211987495422363
-0.039252184331417,1.3142576217651367,-0.0850121825933456,0.1067403256893158,0.037713386118412,0.0260707344859838,0.0,0.0,-0.0574030876159668,0.0742756128311157
-0.0400786399841308,1.316575527191162,-0.0840663835406303,0.1029782518744468,0.0391142927110195,0.0280178990215063,0.0,0.0,-0.015581727027893,0.0047172307968139
-0.040895365178585,1.318808674812317,-0.0832020342350006,0.0992161259055137,0.0406184457242488,0.0300831608474254,0.0,0.0,-0.0232577323913574,0.149104356765747
-0.0417033210396766,1.3209574222564695,-0.0824225693941116,0.0954539477825164,0.0422316193580627,0.0322636440396308,0.0,0.0,-0.1312668919563293,0.3516856431961059
-0.0425031669437885,1.323021650314331,-0.0817312747240066,0.091691717505455,0.0439594350755214,0.034556321799755,0.0,0.0,-0.1188139915466308,0.2334530353546142
-0.0432957634329795,1.3250013589859009,-0.0811313241720199,0.0879294052720069,0.0458073280751705,0.0369580052793026,0.0,0.0,-0.0599322915077209,0.2956762313842773
-0.044081974774599,1.3268965482711792,-0.0806256681680679,0.0841670334339141,0.0477805957198143,0.039465382695198,0.0,0.0,-0.1441811323165893,0.1027772426605224
-0.0448628440499305,1.328707218170166,-0.0802170187234878,0.0804045647382736,0.0498843342065811,0.0420750901103019,0.0,0.0,-0.3534172773361206,0.1495583057403564
-0.0456393249332904,1.3304334878921509,-0.0799078196287155,0.0766420140862464,0.0521235316991806,0.0447836816310882,0.0,0.0,-0.351732850074768,0.163609504699707
-0.0464121811091899,1.332075119018555,-0.0797001868486404,0.0728793665766716,0.0545029081404209,0.0475876815617084,0.0,0.0,-0.3659617304801941,0.1926370859146118
-0.047182559967041,1.3336323499679563,-0.0795958861708641,0.0691166147589683,0.0570270828902721,0.0504834726452827,0.0,0.0,-0.3617387413978576,0.358625054359436
-0.0479515083134174,1.3351051807403564,-0.0795963034033775,0.0653537586331367,0.0597004555165767,0.0534675605595111,0.0,0.0,-0.1598147749900818,0.0660383701324462
-0.0487198829650878,1.3364934921264648,-0.0797024145722389,0.061590775847435,0.0625272616744041,0.0565363392233848,0.0,0.0,-0.3142192363739013,0.4560874700546264
-0.0494889244437217,1.33779776096344,-0.07991474121809,0.0578276664018631,0.0655115693807601,0.0596863143146038,0.0,0.0,-0.349653959274292,0.1452270746231079
-0.0502594001591205,1.339017391204834,-0.0802333801984787,0.0540644191205501,0.0686572641134262,0.0629138797521591,0.0,0.0,-0.3012269139289856,0.4600884914398193
-0.0510326400399208,1.3401527404785156,-0.0806579366326332,0.0503010265529155,0.0719680562615394,0.0662155896425247,0.0,0.0,-0.2368584871292114,0.4498933553695678
-0.0518093109130859,1.3412038087844849,-0.0811876207590103,0.0465374737977981,0.0754474401473999,0.0695879906415939,0.0,0.0,-0.3272885084152221,0.307489275932312
-0.0525906570255756,1.342170476913452,-0.0818211585283279,0.0427737608551979,0.0790988281369209,0.0730276778340339,0.0,0.0,-0.3560997247695923,0.7710552215576172
-0.053311251103878,1.3430540561676023,-0.0742403119802475,0.0391509383916854,0.0812609270215034,0.0432417690753936,0.0,0.0,-0.4233512878417969,0.5497639179229736
-0.0540023818612098,1.3438605070114136,-0.0705562904477119,0.0357604660093784,0.082687571644783,0.0285330507904291,0.0,0.0,-0.3368841409683227,-0.1553294062614441
-0.0547010414302349,1.3445825576782229,-0.071489930152893,0.0319974198937416,0.0842953324317932,0.0321549288928508,0.0,0.0,-0.4606361389160156,0.5668869018554688
-0.0553617477416992,0.0,-0.0666943043470382,0.0285999663174152,0.0849130079150199,0.0123536633327603,0.0,0.0,-0.4825518131256103,-0.1621872186660766
-0.0560318008065223,1.345786690711975,-0.067814752459526,0.024836990982294,0.08571707457304,0.0160813182592391,0.0,0.0,-0.5250931978225708,0.1796519756317138
-0.0567119605839252,1.3462622165679932,-0.0690237507224083,0.0210739653557539,0.0867099538445472,0.0198574736714363,0.0,0.0,-0.4373636245727539,0.4049322605133056
-0.0574031844735145,1.3466533422470093,-0.0703178197145462,0.0173108782619237,0.087893895804882,0.0236792061477899,0.0,0.0,-0.375902771949768,0.7216200828552246
-0.0580410957336425,1.3469598293304443,-0.0635320991277694,0.0136426426470279,0.0876399129629135,-0.0050796777941286,0.0,0.0,-0.464726448059082,0.4337384700775146
-0.0586915016174316,1.3471821546554563,-0.0649852380156517,0.0098795881494879,0.0875811576843261,-0.0011747510870918,0.0,0.0,-0.404629647731781,0.6949903964996338
-0.0593088157474994,1.347322940826416,-0.0606940314173698,0.0063218316063284,0.0865520760416984,-0.0205816440284252,0.0,0.0,-0.648080050945282,0.2697590589523315
-0.0599401481449604,1.347379446029663,-0.0622909888625144,0.0025586851406842,0.0857219025492668,-0.0166036784648895,0.0,0.0,-0.3099849820137024,0.2843964099884033
-0.0605860725045204,1.3473515510559082,-0.0639540702104568,-0.0012044288450852,0.0850922688841819,-0.0125926779583096,0.0,0.0,-0.6022217869758606,0.3257627487182617
-0.0612471587955951,1.3472392559051514,-0.0656795054674148,-0.004967519082129,0.0846647173166275,-0.0085509112104773,0.0,0.0,-0.6186456084251404,0.5612950325012207
-0.0618743896484375,1.3470488786697388,-0.0612320378422737,-0.0083780148997902,0.083185963332653,-0.0295753385871648,0.0,0.0,-0.7417410612106323,-0.1529216170310974
-0.0625179260969162,1.3467741012573242,-0.0630709752440452,-0.0121412416920065,0.0819120481610298,-0.0254781730473041,0.0,0.0,-0.8434111475944519,0.0727910995483398
-0.0631783455610275,1.3464148044586182,-0.0649613514542579,-0.0159044060856103,0.0808442384004592,-0.0213562697172164,0.0,0.0,-0.846572756767273,-0.1220791339874267
-0.0638561248779296,1.3459712266921997,-0.0668997466564178,-0.019667524844408,0.0799836739897728,-0.0172114335000515,0.0,0.0,-0.7854301929473877,0.4041069746017456
-0.0645515471696853,1.3454433679580688,-0.068882904946804,-0.0234305988997221,0.0793314054608345,-0.0130453454330563,0.0,0.0,-0.6630638837814331,0.4474978446960449
-0.0652650818228721,1.3448309898376465,-0.070907711982727,-0.0271936412900686,0.0788884237408638,-0.0088597079738974,0.0,0.0,-0.7171322703361511,0.3224425315856933
-0.0659971237182617,1.3441342115402222,-0.0729712173342704,-0.0309566631913185,0.0786556378006935,-0.0046560312621295,0.0,0.0,-0.8954340219497681,0.1604396104812622
-0.0667480453848838,1.343353033065796,-0.075070634484291,-0.0347196720540523,0.0786338523030281,-0.0004358956066425,0.0,0.0,-0.7798336744308472,0.7597712278366089
-0.0674547180533409,0.0,-0.0692132860422134,-0.0377605929970741,0.0772071704268455,-0.0285338051617145,0.0,0.0,-0.905272364616394,0.6257195472717285
-0.0681396499276161,1.3415707349777222,-0.0662238076329231,-0.0412602871656417,0.0749563723802566,-0.0450158156454563,0.0,0.0,-0.9247868657112122,0.1827949285507202
-0.0688444152474403,1.3405553102493286,-0.0684156790375709,-0.0450236648321151,0.0729186534881591,-0.0407541617751121,0.0,0.0,-0.934117555618286,0.3153774738311767
-0.0695691108703613,1.3394556045532229,-0.0706338509917259,-0.0487869344651699,0.0710945799946785,-0.0364811532199382,0.0,0.0,-0.90483421087265,0.853410005569458
-0.0702370628714561,1.3382799625396729,-0.0632000118494033,-0.0520837865769863,0.0675392299890518,-0.0711068958044052,0.0,0.0,-0.9526414275169371,0.3281333446502685
-0.0709254294633865,1.3370201587677002,-0.0654647573828697,-0.0558476820588111,0.0641985014081001,-0.0668145567178726,0.0,0.0,-0.923156201839447,0.4791059494018554
-0.0716344863176345,0.0,-0.0677501484751701,-0.0596113875508308,0.061072789132595,-0.0625141859054565,0.0,0.0,-0.9604461789131165,-0.0156487822532653
-0.0723645240068435,1.3342472314834597,-0.0700545534491539,-0.0633749291300773,0.0581624470651149,-0.0582068264484405,0.0,0.0,-0.945564031600952,0.6313445568084717
-0.0730539336800575,1.3327348232269287,-0.0646504610776901,-0.0670540183782577,0.0539213195443153,-0.0848225429654121,0.0,0.0,-0.9537915587425232,0.2709721326828003
-0.0737645179033279,1.331138253211975,-0.0669883638620376,-0.0708181038498878,0.0498961210250854,-0.0805039852857589,0.0,0.0,-0.9620263576507568,0.4108492136001587
-0.0744964629411697,1.329457402229309,-0.0693410858511924,-0.0745819807052612,0.0460870452225208,-0.0761812999844551,0.0,0.0,-0.9867458939552308,-0.2260746955871582
-0.0752498656511306,1.3276921510696411,-0.0717074126005172,-0.0783456489443779,0.0424942709505558,-0.0718554407358169,0.0,0.0,-0.9937841296195984,0.0622851848602294
-0.0760250091552734,1.3258424997329712,-0.0740862339735031,-0.0821091085672378,0.0391179248690605,-0.0675272494554519,0.0,0.0,-0.9571748971939088,0.0791085958480835
-0.0768217071890831,1.323908448219299,-0.0764765068888664,-0.0858723893761634,0.0359580479562282,-0.0631976872682571,0.0,0.0,-0.9911531805992126,0.5574212074279785
-0.0775901824235916,1.321899652481079,-0.0725841075181961,-0.0891881808638572,0.0317490696907043,-0.0841794535517692,0.0,0.0,-0.878002941608429,-0.6076388955116272
-0.0784305557608604,1.3198037147521973,-0.0812578797340393,-0.093093954026699,0.0290119927376508,-0.0547415316104888,0.0,0.0,-0.9878641366958618,0.4707286357879638
-0.0792927742004394,1.317623496055603,-0.0836771130561828,-0.0968567207455635,0.0264913346618413,-0.0504131540656089,0.0,0.0,-0.9951086640357972,-0.1079701781272888
-0.0801772102713584,1.3153587579727173,-0.0861044079065322,-0.1006193459033966,0.0241869892925024,-0.0460870265960693,0.0,0.0,-0.9811246991157532,0.6885746717453003
-0.0810341835021972,1.3130162954330444,-0.0823191851377487,-0.1040598601102829,0.0208505690097808,-0.0667283236980438,0.0,0.0,-0.9974350929260254,0.0255481004714965
-0.0819134712219238,1.31058931350708,-0.0847605317831039,-0.1078227907419204,0.0177301112562418,-0.0624094121158123,0.0,0.0,-0.9840701818466188,0.514971137046814
-0.0827757865190506,1.308077335357666,-0.0823044031858444,-0.1116038337349891,0.013843604363501,-0.0777302831411361,0.0,0.0,-0.9935729503631592,0.0170183181762695
-0.0836605057120323,1.305480718612671,-0.0847574099898338,-0.1153669506311416,0.0101724723353981,-0.0734224542975425,0.0,0.0,-0.996692717075348,-0.4754045605659485
-0.0845677405595779,1.3027998208999634,-0.0872154533863067,-0.1191298738121986,0.0067163747735321,-0.0691218078136444,0.0,0.0,-0.9892132878303528,0.3926055431365967
-0.0854972824454307,1.300034523010254,-0.0896780341863632,-0.1228926256299018,0.0034748862963169,-0.0648294314742088,0.0,0.0,-0.9984018206596376,0.4779702425003052
-0.0864493399858474,1.2971848249435425,-0.0921446904540062,-0.126655176281929,0.0004475656605791,-0.0605464950203895,0.0,0.0,-0.9969264268875122,0.6232320070266724
-0.0873628631234169,1.2942553758621216,-0.0869359076023101,-0.1302000135183334,-0.0039040339179337,-0.0870320573449134,0.0,0.0,-0.9873998165130616,0.5200115442276001
-0.088259220123291,1.291245698928833,-0.0844408646225929,-0.1337838023900985,-0.0090373968705534,-0.102666899561882,0.0,0.0,-0.9928224086761476,-0.0130257606506347
-0.0891782790422439,1.2881518602371216,-0.0869172662496566,-0.1375474482774734,-0.0139583842828869,-0.0984197854995727,0.0,0.0,-0.999563694000244,-0.8070383667945862
-0.0901757255196571,1.2849746942520142,-0.0963933914899826,-0.1412425488233566,-0.0172662269324064,-0.0661570057272911,0.0,0.0,-0.9993431568145752,0.5589876174926758
-0.0911520943045616,1.2817174196243286,-0.0933845117688179,-0.1448190957307815,-0.021461334079504,-0.0839021354913711,0.0,0.0,-0.9985299110412598,0.477786660194397
-0.0921510681509971,1.2783757448196411,-0.0958672985434532,-0.14858178794384,-0.0254465453326702,-0.0797044113278389,0.0,0.0,-0.9995099306106568,-0.7241765856742859
-0.0932224243879318,1.2749477624893188,-0.1045840233564376,-0.1523990929126739,-0.027975670993328,-0.0505824498832225,0.0,0.0,-0.991858959197998,-0.0935361981391906
-0.0943166762590408,1.2714351415634155,-0.1070693880319595,-0.15616075694561,-0.0302970018237829,-0.0464265905320644,0.0,0.0,-0.9968282580375672,0.0961751937866211
-0.0954336151480674,1.2678380012512207,-0.1095555648207664,-0.1599223017692566,-0.0324117355048656,-0.0422946810722351,0.0,0.0,-0.9988730549812316,0.5729525089263916
-0.0965297669172287,1.2641535997390747,-0.1065599545836448,-0.1638169139623642,-0.0354201532900333,-0.0601683855056762,0.0,0.0,-0.9983504414558412,0.1200411319732666
-0.0976486206054687,1.2603845596313477,-0.1090468615293502,-0.1675786972045898,-0.0382247157394886,-0.0560913495719432,0.0,0.0,-0.9957844614982604,-0.0705640912055969
-0.0987902656197547,1.2565311193466189,-0.1115336865186691,-0.1713403016328811,-0.0408270210027694,-0.0520456731319427,0.0,0.0,-0.9900081157684326,-0.1744943261146545
-0.0999547988176345,1.252592921257019,-0.1140201091766357,-0.1751018017530441,-0.0432287193834781,-0.0480341650545597,0.0,0.0,-0.9776055812835692,0.3198717832565307
-0.1011421233415603,1.2485698461532593,-0.1165058016777038,-0.1788631826639175,-0.0454317070543766,-0.0440598987042903,0.0,0.0,-0.9942642450332642,0.0072100162506103
-0.1023523360490799,1.244462251663208,-0.1189904808998107,-0.1826244294643402,-0.0474380180239677,-0.0401262044906616,0.0,0.0,-0.9892627596855164,0.4840624332427978
