x_pos,y_pos,x_vel,y_vel,angle,ang_vel,leg_1,leg_2,main_booster,lat_booster
-0.0015449523925781,1.4029219150543213,-0.1566983461380005,-0.3554783761501312,0.0019730189815163,0.0389352962374687,0.0,0.0,0.0941020250320434,0.9309396743774414
-0.0029987334273755,1.394698143005371,-0.1456509679555893,-0.3654981255531311,0.0022487961687147,0.005516602192074,0.0,0.0,-0.1756874918937683,0.8100219964981079
-0.004396915435791,1.3857656717300415,-0.138304203748703,-0.3970004022121429,0.000753442000132,-0.0299098342657089,0.0,0.0,0.2610573768615722,0.5168066024780273
-0.0058762552216649,1.376700758934021,-0.1453357487916946,-0.4028830528259277,-0.0018139210296794,-0.0513524785637855,0.0,0.0,0.2036689519882202,0.6914547681808472
-0.0072175026871263,1.367647647857666,-0.130500853061676,-0.4023677408695221,-0.0054079322144389,-0.0718868225812912,0.0,0.0,0.2097859382629394,0.7874679565429688
-0.0084033962339162,1.3584860563278198,-0.1136881560087204,-0.4072070717811584,-0.0102517325431108,-0.0968849211931228,0.0,0.0,-0.4100505113601684,-0.0016224980354309
-0.0096127511933445,1.3486223220825195,-0.116222932934761,-0.438438355922699,-0.0149139193817973,-0.0932522267103195,0.0,0.0,0.7420713901519775,0.1607991456985473
-0.0106782913208007,1.3390754461288452,-0.1027735844254493,-0.4243402779102325,-0.0186459254473447,-0.0746470838785171,0.0,0.0,-0.3507213592529297,0.1443288326263427
-0.0117678642272949,1.3288261890411377,-0.105370819568634,-0.4555774927139282,-0.0222007613629102,-0.0711032599210739,0.0,0.0,-0.0343229174613952,-0.1183865070343017
-0.0128819467499852,1.317874312400818,-0.1079944819211959,-0.4868029654026031,-0.0255796555429697,-0.0675839856266975,0.0,0.0,0.6765928268432617,-0.6694087982177734
-0.0139631275087594,1.3071234226226809,-0.1064414530992508,-0.4778511226177215,-0.0272332988679409,-0.0330755338072776,0.0,0.0,-0.3645458221435547,0.0881295204162597
-0.0150692937895655,1.2956697940826416,-0.1091193929314613,-0.5090868473052979,-0.0287171825766563,-0.0296806897968053,0.0,0.0,0.6933095455169678,0.1014301776885986
-0.0160467140376567,1.2845823764801023,-0.0970460548996925,-0.4927800893783569,-0.0294018387794494,-0.0136944456025958,0.0,0.0,-0.8853412866592407,-0.388185441493988
-0.0170495994389057,1.272792100906372,-0.0997684299945831,-0.5240166783332825,-0.0299224536865949,-0.0104131270200014,0.0,0.0,0.1439675092697143,-0.410161554813385
-0.0179635994136333,1.2611509561538696,-0.0915003642439842,-0.5173879265785217,-0.0298214461654424,0.0020203334279358,0.0,0.0,-0.3220982551574707,-0.1779768466949463
-0.018903637304902,1.248806715011597,-0.0942606925964355,-0.548622727394104,-0.0295632574707269,0.0051642740145325,0.0,0.0,0.0933701992034912,-0.4547634720802307
-0.0197619441896677,1.236604928970337,-0.0866785421967506,-0.5422932505607605,-0.0287230219691991,0.0168062131851911,0.0,0.0,-0.3240377902984619,0.4492003917694092
-0.0206466671079397,1.2237001657485962,-0.0894718319177627,-0.573527991771698,-0.0277336575090885,0.0197890605777502,0.0,0.0,-0.5640150308609009,-0.0076156258583068
-0.0215579029172658,1.210092544555664,-0.0922784283757209,-0.6047542095184326,-0.0265990663319826,0.0226938966661691,0.0,0.0,-0.8799073696136475,-0.2923531532287597
-0.0224960334599018,1.1957825422286987,-0.0950982347130775,-0.6359809637069702,-0.0253241341561079,0.0255010835826396,0.0,0.0,-0.01252281665802,-0.3223100304603576
-0.0234610550105571,1.1807698011398315,-0.0979300662875175,-0.6672093868255615,-0.023913824930787,0.0282087475061416,0.0,0.0,0.6701862812042236,-0.0337436199188232
-0.0244306568056345,1.1657246351242063,-0.0985735058784484,-0.66864413022995,-0.0223183203488588,0.0319129712879657,0.0,0.0,-0.1090295314788818,-0.3768672347068786
-0.0254274364560842,1.1499768495559692,-0.1014263480901718,-0.6998779773712158,-0.0205983780324459,0.034401886165142,0.0,0.0,0.4160614013671875,-0.3748602867126465
-0.0263862609863281,1.1339259147644043,-0.0980303883552551,-0.7133494019508362,-0.0184818338602781,0.0423346795141696,0.0,0.0,0.6359890699386597,-0.3812041282653808
-0.0275015830993652,1.1181319952011108,-0.1131255999207496,-0.7019364237785339,-0.0169051773846149,0.0315360352396965,0.0,0.0,0.1266510486602783,0.5116102695465088
-0.0287053100764751,1.102338433265686,-0.1208316311240196,-0.7019320130348206,-0.0164527911692857,0.0090478966012597,0.0,0.0,-0.3448061943054199,0.0290538072586059
-0.0299367904663085,1.0858421325683594,-0.1237093806266784,-0.7331583499908447,-0.0159011222422122,0.0110334502533078,0.0,0.0,0.7116152048110962,-0.3043453097343445
-0.03131790086627,1.0699288845062256,-0.1381328403949737,-0.7072548270225525,-0.0158837717026472,0.0003471005475148,0.0,0.0,-0.3561638593673706,0.3358159065246582
-0.032727051526308,1.0533130168914795,-0.1410206258296966,-0.7384812235832214,-0.0157819464802742,0.002036710968241,0.0,0.0,0.175615906715393,-0.3968505859375
-0.0341738685965538,1.036515235900879,-0.1447880864143371,-0.746565580368042,-0.0156726036220788,0.0021865779999643,0.0,0.0,-0.4170374870300293,-0.4989868402481079
-0.0356489196419715,1.019014835357666,-0.1476832330226898,-0.7777918577194214,-0.0154947377741336,0.0035573430359363,0.0,0.0,0.725059986114502,-0.1567566394805908
-0.0372264869511127,1.0015002489089966,-0.1576121598482132,-0.7784366011619568,-0.0156324990093708,-0.0027553057298064,0.0,0.0,0.7459232807159424,0.0309542417526245
-0.0389064773917198,0.9845554232597352,-0.1675008684396743,-0.7531079649925232,-0.0161224380135536,-0.0097989942878484,0.0,0.0,-0.9241865873336792,0.0826529264450073
-0.0406149849295616,0.9669079184532166,-0.1704023480415344,-0.7843343615531921,-0.0165697336196899,-0.0089457873255014,0.0,0.0,0.3677597045898437,-0.7145711779594421
-0.0423851981759071,0.9493393301963806,-0.178060233592987,-0.780819833278656,-0.0155385211110115,0.0206243824213743,0.0,0.0,0.6883804798126221,0.0021450519561767
-0.0441534034907817,0.932226836681366,-0.1779885292053222,-0.7605418562889099,-0.0143971610814332,0.0228273030370473,0.0,0.0,-0.1055608987808227,0.113832950592041
-0.0459506995975971,0.9144118428230286,-0.1808911114931106,-0.7917683720588684,-0.0132410395890474,0.0231223497539758,0.0,0.0,-0.7327607274055481,-0.0858594179153442
-0.0477767959237098,0.8958941698074341,-0.1837929189205169,-0.8229948878288269,-0.012079850770533,0.023224014788866,0.0,0.0,0.7271926403045654,0.1567155122756958
-0.0496624931693077,0.877996027469635,-0.1895473152399063,-0.7954687476158142,-0.0111137721687555,0.0193216763436794,0.0,0.0,0.1246113777160644,0.1224446296691894
-0.051553439348936,0.8600155115127563,-0.1901512891054153,-0.7991253733634949,-0.010073403827846,0.0208071433007717,0.0,0.0,0.838538408279419,0.6196436882019043
-0.0535432808101177,0.8426384925842285,-0.1984313726425171,-0.7723159790039062,-0.0106210643425583,-0.0109533388167619,0.0,0.0,0.4407072067260742,0.4113878011703491
-0.0554499626159668,0.8252419233322144,-0.1905803382396698,-0.7731830477714539,-0.0107057010754942,-0.0016929926350712,0.0,0.0,0.019883394241333,0.8554384708404541
-0.0572453513741493,0.8074214458465576,-0.1776883602142334,-0.7920351624488831,-0.0125338369980454,-0.0365629307925701,0.0,0.0,-0.0144058465957641,-0.3799507617950439
-0.0590702071785926,0.7888984680175781,-0.1805737018585205,-0.8232619166374207,-0.0144171183928847,-0.0376656055450439,0.0,0.0,0.950251579284668,0.9380104541778564
-0.0608984008431434,0.7701827883720398,-0.1788505762815475,-0.8318493366241455,-0.0183277111500501,-0.0782119929790496,0.0,0.0,0.9343640804290771,0.1577602624893188
-0.062695026397705,0.7513501048088074,-0.1758813560009002,-0.8370619416236877,-0.022064920514822,-0.0747440829873085,0.0,0.0,0.8916571140289307,0.6416178941726685
-0.0643842667341232,0.7325746417045593,-0.1639542281627655,-0.8345432281494141,-0.0269701182842254,-0.0981040522456169,0.0,0.0,0.9705777168273926,-0.4320586919784546
-0.0662101730704307,0.7145937085151672,-0.1769043952226638,-0.7992672324180603,-0.0325909405946731,-0.1124166995286941,0.0,0.0,0.8000903129577637,-0.4750154614448547
-0.0681821852922439,0.697205126285553,-0.1907289922237396,-0.7729794383049011,-0.0389857105910778,-0.1278951615095138,0.0,0.0,0.130784273147583,0.6386561393737793
-0.070135973393917,0.6796327233314514,-0.1874875128269195,-0.7812235951423645,-0.0467885360121727,-0.1560561954975128,0.0,0.0,0.0309604406356811,-0.5940021276473999
-0.0720491409301757,0.6618883609771729,-0.1846234500408172,-0.7888584733009338,-0.0534013919532299,-0.1322572827339172,0.0,0.0,0.771430253982544,-0.1567064523696899
-0.0740113258361816,0.6446303725242615,-0.1891082227230072,-0.7672955393791199,-0.0604336187243461,-0.1406444013118744,0.0,0.0,-0.4859744310379028,0.1358879804611206
-0.0760030746459961,0.6266704797744751,-0.1919249445199966,-0.7985268831253052,-0.0676086470484733,-0.1435008943080902,0.0,0.0,0.9887585639953612,-0.2206078767776489
-0.0779557228088378,0.6094454526901245,-0.18787382543087,-0.7659068703651428,-0.0749176144599914,-0.1461795568466186,0.0,0.0,0.6627061367034912,0.3354759216308594
-0.0797514915466308,0.5922358632087708,-0.172738566994667,-0.7652310729026794,-0.0816932842135429,-0.1355135440826416,0.0,0.0,0.9436138868331908,-0.3358030915260315
-0.0816435813903808,0.5751668810844421,-0.1816698163747787,-0.7590476870536804,-0.0891577154397964,-0.1492884308099746,0.0,0.0,0.9370741844177246,-0.7084920406341553
-0.0834186524152755,0.558790385723114,-0.1715189218521118,-0.7282142043113708,-0.0950957015156745,-0.1187597662210464,0.0,0.0,0.8748139142990112,0.2155356407165527
-0.0849944129586219,0.5428324937820435,-0.152135819196701,-0.7095975875854492,-0.1004940122365951,-0.1079664975404739,0.0,0.0,0.6376461982727051,-0.1575531959533691
-0.0864438042044639,0.5273794531822205,-0.1396496295928955,-0.6871673464775085,-0.1057420298457145,-0.1049601808190345,0.0,0.0,0.3916912078857422,-0.3658127188682556
-0.0879160910844802,0.5122219920158386,-0.1414503753185272,-0.6740864515304565,-0.1114863976836204,-0.114886999130249,0.0,0.0,0.0640739202499389,-0.0481832027435302
-0.0893580466508865,0.49671271443367,-0.1383601129055023,-0.6897491812705994,-0.1172847375273704,-0.115966759622097,0.0,0.0,0.7553995847702026,-0.6876204609870911
-0.0909100547432899,0.4816450774669647,-0.1502689272165298,-0.6700661778450012,-0.1221868619322776,-0.0980424731969833,0.0,0.0,0.3514207601547241,0.454493761062622
-0.0923388451337814,0.4664869308471679,-0.1381925046443939,-0.6740869879722595,-0.1268412619829177,-0.0930879563093185,0.0,0.0,0.9225105047225952,-0.2264201641082763
-0.0936784744262695,0.4516829252243042,-0.1291863024234771,-0.6583698391914368,-0.131594568490982,-0.0950662046670913,0.0,0.0,0.5014643669128418,-0.1779970526695251
-0.0949913039803505,0.4367173612117767,-0.1263155788183212,-0.665583610534668,-0.1365465968847274,-0.0990404561161995,0.0,0.0,0.672255277633667,-0.7253853678703308
-0.0964431762695312,0.4219789505004883,-0.1411521881818771,-0.6554149389266968,-0.1405677646398544,-0.0804233029484748,0.0,0.0,0.6373593807220459,-0.2951489686965942
-0.0977827087044715,0.4077938497066498,-0.1297739148139953,-0.6308495998382568,-0.1447330266237259,-0.0833051204681396,0.0,0.0,0.3830294609069824,-0.0387327075004577
-0.0990461334586143,0.393255352973938,-0.1222390681505203,-0.6465601325035095,-0.1488279700279235,-0.0818987563252449,0.0,0.0,0.9377477169036864,-0.8221642971038818
-0.1002170592546463,0.3795162737369537,-0.1144562140107154,-0.6108882427215576,-0.1514530777931213,-0.0525022968649864,0.0,0.0,0.936626434326172,-0.5047537684440613
-0.1014855355024337,0.3659312725067138,-0.1246213093400001,-0.6040071249008179,-0.1536791026592254,-0.0445200912654399,0.0,0.0,0.5462861061096191,0.2302877902984619
-0.1027680411934852,0.3526034355163574,-0.1253583431243896,-0.5926502346992493,-0.1565639823675155,-0.0576977021992206,0.0,0.0,0.6313509941101074,-0.0845094323158264
-0.1039501205086708,0.3394770622253418,-0.1152077764272689,-0.5837147831916809,-0.1595738530158996,-0.0601970739662647,0.0,0.0,0.2079551219940185,-0.5260711908340454
-0.1052014380693435,0.3266033828258514,-0.1226942762732505,-0.5724223852157593,-0.162007138133049,-0.0486654192209243,0.0,0.0,-0.2517189979553222,0.4175705909729004
-0.1064771637320518,0.3130278885364532,-0.1248713359236717,-0.6036530137062073,-0.1647135466337204,-0.0541281811892986,0.0,0.0,0.8967328071594238,-0.225826621055603
-0.1077414527535438,0.2994243800640106,-0.123259425163269,-0.6049529314041138,-0.1678757518529892,-0.0632441043853759,0.0,0.0,0.7996103763580322,-0.7157553434371948
-0.1089468970894813,0.2856292426586151,-0.1187240108847618,-0.6133266091346741,-0.1697081178426742,-0.0366475507616996,0.0,0.0,0.9983272552490234,-0.3085029721260071
-0.110143281519413,0.2717487812042236,-0.1173462644219398,-0.6171700358390808,-0.1720007210969925,-0.0458521917462348,0.0,0.0,0.9660232067108154,-0.2485153675079345
-0.1112095862627029,0.2585640251636505,-0.1040096059441566,-0.5862954258918762,-0.1746259480714798,-0.0525045692920684,0.0,0.0,0.9829035997390748,-0.3969631195068359
-0.1120319366455078,0.2460986226797104,-0.079778715968132,-0.5543072819709778,-0.1770964115858078,-0.0494091846048831,0.0,0.0,0.8940327167510986,-0.6848351955413818
-0.1128982529044151,0.2343726456165313,-0.0849087536334991,-0.5213600993156433,-0.1788212656974792,-0.0344970487058162,0.0,0.0,0.90171217918396,-0.0192672610282897
-0.113862320780754,0.2225473225116729,-0.0937051475048065,-0.5258958339691162,-0.1815302073955536,-0.0541788451373577,0.0,0.0,0.8990586996078491,0.1746073961257934
-0.1146347075700759,0.2113482803106308,-0.074456974864006,-0.498078852891922,-0.1843224912881851,-0.0558457858860492,0.0,0.0,0.5637035369873047,-0.0900617837905883
-0.1154184341430664,0.2002770453691482,-0.0748541131615638,-0.4924953281879425,-0.1878587901592254,-0.0707258880138397,0.0,0.0,0.7009140253067017,-0.2108675837516784
-0.1161430329084396,0.1895483583211898,-0.0683842599391937,-0.4773545265197754,-0.1919589936733245,-0.0820041745901107,0.0,0.0,0.952461838722229,-0.8934095501899719
-0.116808608174324,0.1793638318777084,-0.0639219135046005,-0.4529860317707062,-0.1945974677801132,-0.0527695827186107,0.0,0.0,0.8218833208084106,-0.9118000864982604
-0.1173293143510818,0.1694119721651077,-0.0511478967964649,-0.442429631948471,-0.1955326497554779,-0.0187039114534854,0.0,0.0,0.5683038234710693,-0.844096302986145
-0.117840863764286,0.1592403203248977,-0.0516345128417015,-0.4520092606544494,-0.1950507164001464,0.0096389390528202,0.0,0.0,0.8773577213287354,-0.5767022371292114
-0.1182092651724815,0.1490166038274765,-0.0384756848216056,-0.4541735053062439,-0.1934161931276321,0.0326906852424144,0.0,0.0,0.9436485767364502,0.2772431373596191
-0.1182880401611328,0.1390302032232284,-0.0099877174943685,-0.4435675740242004,-0.1912949532270431,0.0424250811338424,0.0,0.0,0.9661867618560792,-0.4018467664718628
-0.1181225776672363,0.1289859414100647,0.0139910206198692,-0.4460839927196502,-0.1887222081422805,0.0514546148478984,0.0,0.0,0.9670233726501464,-0.7269253134727478
-0.1178585067391395,0.119581252336502,0.0227284673601388,-0.4175219237804413,-0.1850224435329437,0.0739951655268669,0.0,0.0,0.9398260116577148,-0.5934053659439087
-0.1174428015947341,0.1107947677373886,0.0369098559021949,-0.3899345695972442,-0.1803421527147293,0.0936058387160301,0.0,0.0,0.851679801940918,-0.8843424916267395
-0.116812989115715,0.1023907959461212,0.0565804727375507,-0.372746467590332,-0.1739289909601211,0.1282633244991302,0.0,0.0,0.8874202966690063,0.1269340515136718
-0.1160070449113845,0.0938065871596336,0.0739890784025192,-0.3807614743709564,-0.1673061549663543,0.1324563324451446,0.0,0.0,0.894190788269043,-0.2695391178131103
-999.0,0.0853996127843856,0.0783436447381973,-0.3729791343212127,-0.1612870395183563,0.12038254737854,0.0,0.0,0.8519492149353027,-0.5751103758811951
-0.1141074150800705,0.07771647721529,0.0984774157404899,-0.3407156765460968,-0.154162123799324,0.1424979865550995,0.0,0.0,0.6230502128601074,-0.2375143766403198
-0.1129853278398513,0.0701660215854644,0.1055046766996383,-0.3348948061466217,-0.1474712789058685,0.1338169574737548,0.0,0.0,0.8733711242675781,0.3629593849182129
-0.1118660941720008,0.0632836893200874,0.1062057763338089,-0.3053289949893951,-0.1417626738548278,0.1141720190644264,0.0,0.0,0.5380028486251831,-0.5100050568580627
-0.1106030493974685,0.0566571317613124,0.1196605116128921,-0.2938936054706573,-0.135136678814888,0.1325199902057647,0.0,0.0,0.4900866746902466,0.1675764322280883
-0.1092894524335861,0.0503447167575359,0.1252542585134506,-0.2800134718418121,-0.1290661543607711,0.1214108318090438,0.0,0.0,0.7734470367431641,0.2972497940063476
-0.1079521179199218,0.0445434190332889,0.128380998969078,-0.2573810815811157,-0.1237396225333213,0.1065308600664138,0.0,0.0,0.6440609693527222,-0.8215205073356628
-0.1066358536481857,0.0387926213443279,0.1250106394290924,-0.2550577819347381,-0.1171551346778869,0.1316894739866256,0.0,0.0,0.6886049509048462,-0.2216088771820068
-0.1053549796342849,0.0332768522202968,0.1223421543836593,-0.2447079867124557,-0.1114574894309043,0.1139530912041664,0.0,0.0,0.8368693590164185,-0.420591652393341
-0.1041635498404502,0.0279552787542343,0.1145265474915504,-0.2361777573823928,-0.1068698167800903,0.0917534008622169,0.0,0.0,0.4546408653259277,0.0677119493484497
-0.1027984619140625,0.0228605847805738,0.1317843943834304,-0.2261009961366653,-0.1021875664591789,0.0936450958251953,0.0,0.0,0.8173506259918213,-0.942732036113739
-0.1013777703046798,0.0176615342497825,0.1356819570064544,-0.2306450456380844,-0.0958453640341758,0.1268440634012222,0.0,0.0,0.8409826755523682,0.2230881452560424
-0.0996993035078048,0.0130070066079497,0.1610346734523773,-0.2064455449581146,-0.0890935584902763,0.1350362747907638,0.0,0.0,0.5619722604751587,-0.9234193563461304
-0.0980357155203819,0.0087678646668791,0.1580520719289779,-0.1879339814186096,-0.0808678790926933,0.1645136028528213,0.0,0.0,0.7898262739181519,-0.8077453374862671
-0.0960988029837608,0.0057870005257427,0.168803870677948,-0.1313256323337555,-0.0562274642288684,0.4928154349327087,1.0,0.0,0.3221449851989746,-0.3040013909339905
-0.0940743461251258,0.0028011298272758,0.1772173643112182,-0.1319470107555389,-0.0313053242862224,0.4984428286552429,1.0,0.0,0.4101366996765136,-0.4506712555885315
-0.0920340567827224,0.0001660919224377,0.1788112223148346,-0.1167772635817527,-0.0064127896912395,0.4978511333465576,1.0,0.0,0.4515680074691772,-0.2735435366630554
-0.0899360626935958,-0.0021259093191474,0.1843360066413879,-0.1019475609064102,0.0187252070754766,0.5027598738670349,1.0,1.0,0.4132338762283325,-0.5628333687782288
-0.0879841819405555,-0.004065504297614,0.1837528795003891,-0.0865486413240432,0.0290646888315677,0.2055682241916656,0.0,1.0,-0.9678344130516052,0.6007153987884521
-0.0862346664071083,-0.0061644576489925,0.1851135641336441,-0.0931231454014778,0.0190213378518819,-0.2008805274963379,1.0,1.0,0.9023529291152954,-0.9817624092102052
-0.0848908424377441,-0.0071335937827825,0.1481718719005584,-0.0432106666266918,0.0062838257290422,-0.2536375522613525,0.0,1.0,-0.3245422840118408,-0.229072630405426
-0.0836191177368164,-0.0077389860525727,0.138077512383461,-0.026905208826065,-0.0044615748338401,-0.2148985117673874,0.0,1.0,-0.5538358688354492,-0.0998662114143371
-0.0824241638183593,-0.0079882880672812,0.1281358450651168,-0.0111364303156733,-0.0129824252799153,-0.1704085171222686,0.0,1.0,-0.5196130275726318,-0.1580326557159423
-0.0813016891479492,-0.0078931953758001,0.1182816997170448,0.0041575627401471,-0.0189449936151504,-0.1192440837621688,0.0,1.0,-0.7063841223716736,-0.2295495271682739
-0.0802492126822471,-0.0074602868407964,0.1084740161895752,0.0191931519657373,-0.0221257545053958,-0.0636090487241745,0.0,1.0,-0.8745336532592773,0.0571945905685424
-0.0792659744620323,-0.0066900276578962,0.0986649394035339,0.0342268496751785,-0.0224496200680732,-0.0064727179706096,0.0,1.0,-0.9399151802062988,0.0698828697204589
