x_pos,y_pos,x_vel,y_vel,angle,ang_vel,leg_1,leg_2,main_booster,lat_booster
-0.0015192031860351,1.402999758720398,-0.1538969874382019,-0.3520187735557556,0.0017728306120261,0.0349716022610664,0.0,0.0,-0.1684225797653198,0.697014331817627
-0.0029746056534349,1.3944745063781738,-0.1457814276218414,-0.3789018094539642,0.0020075666252523,0.0046959402970969,0.0,0.0,-0.4458117485046386,0.2271099090576172
-0.0044256211258471,1.3853238821029663,-0.1453479379415512,-0.4066933393478393,0.0022454685531556,0.0047582047991454,0.0,0.0,0.313961386680603,0.8241704702377319
-0.0059161186218261,1.3761417865753174,-0.1475051343441009,-0.4080973863601684,0.0007228479953482,-0.0304551962763071,0.0,0.0,0.4951725006103515,0.876067042350769
-0.0072024343535304,1.367222785949707,-0.1255315840244293,-0.3963950276374817,-0.0023404809180647,-0.0612723343074321,0.0,0.0,-0.1530521512031555,-0.07585209608078
-0.008484554477036,1.3576791286468506,-0.125122994184494,-0.4241684377193451,-0.0054006543941795,-0.0612089224159717,0.0,0.0,0.4367589950561523,0.6470732688903809
-0.0097305299714207,1.3482640981674194,-0.1201751083135604,-0.4184698164463043,-0.0097849490121006,-0.0876934975385665,0.0,0.0,0.2232990264892578,0.0700139999389648
-0.0108573911711573,1.3389413356781006,-0.1087885349988937,-0.4143795669078827,-0.0136384572833776,-0.0770770758390426,0.0,0.0,0.0134153366088867,0.1757307052612304
-0.0119809154421091,1.329763650894165,-0.1084238290786743,-0.4079284965991974,-0.0175252612680196,-0.0777430906891822,0.0,0.0,0.0046718120574951,0.6595838069915771
-0.0130416871979832,1.3206268548965454,-0.1008272916078567,-0.4061504304409027,-0.0227164160460233,-0.1038326397538185,0.0,0.0,-0.4767200946807861,-0.6036689877510071
-0.0141397472470998,1.3108673095703125,-0.1055984273552894,-0.4338270723819732,-0.026879072189331,-0.0832606628537178,0.0,0.0,-0.714589536190033,-0.1182105541229248
-0.0152345653623342,1.300483226776123,-0.1052775233983993,-0.4615944921970367,-0.0310403127223253,-0.0832321718335151,0.0,0.0,-0.0756899714469909,0.1824030876159668
-0.0163262374699115,1.2894747257232666,-0.1049739718437194,-0.489363819360733,-0.0351993963122367,-0.0831890478730201,0.0,0.0,-0.6759947538375854,-0.888278603553772
-0.0174774173647165,1.277836561203003,-0.1124858483672142,-0.5173190236091614,-0.0377975665032863,-0.0519681051373481,0.0,0.0,0.1592034101486206,0.3738166093826294
-0.0185050964355468,1.266434907913208,-0.1006170883774757,-0.5067914724349976,-0.0399288274347782,-0.0426291637122631,0.0,0.0,-0.0528799295425415,-0.4725079536437988
-0.0195304863154888,1.254408597946167,-0.1003775596618652,-0.5345675349235535,-0.042059164494276,-0.042610615491867,0.0,0.0,-0.4267988204956054,-0.3643058538436889
-0.0205535888671875,1.2417573928833008,-0.1001579016447067,-0.5623347759246826,-0.0441885702311992,-0.0425920970737934,0.0,0.0,-0.0110777020454406,-0.4899082779884338
-0.0215746872127056,1.228481650352478,-0.099959559738636,-0.5901026129722595,-0.0463174618780612,-0.0425820536911487,0.0,0.0,-0.2879676818847656,-0.9256260991096495
-0.0226551052182912,1.2145938873291016,-0.1074412241578102,-0.6172468066215515,-0.0469022430479526,-0.0116967298090457,0.0,0.0,0.6546832323074341,-0.7352080345153809
-0.0238537788391113,1.200940728187561,-0.120574913918972,-0.6067840456962585,-0.0462091378867626,0.013863774947822,0.0,0.0,-0.4016615152359009,-0.2196494936943054
-0.0250512119382619,1.186662673950195,-0.1204509139060974,-0.6345597505569458,-0.0455166399478912,0.0138510260730981,0.0,0.0,0.4236905574798584,-0.6551111340522766
-0.0262711532413959,1.1723301410675049,-0.1240269169211387,-0.6369332671165466,-0.0435015223920345,0.0403060317039489,0.0,0.0,-0.1566361784934997,-0.0620064139366149
-0.0274902340024709,1.157373070716858,-0.123952068388462,-0.6647066473960876,-0.0414882898330688,0.0402686558663845,0.0,0.0,0.2659910917282104,-0.3837043046951294
-0.0286454204469919,1.1421462297439575,-0.1178084388375282,-0.676680862903595,-0.0392278134822845,0.0452137812972068,0.0,0.0,-0.2511724233627319,0.2506600618362427
-0.0298003200441598,1.126294732093811,-0.1177794113755226,-0.70445317029953,-0.036969419568777,0.0451722331345081,0.0,0.0,-0.0409764647483825,0.6388534307479858
-0.0309173576533794,1.1097984313964844,-0.1130115017294883,-0.7331420183181763,-0.0356756150722503,0.0258759967982769,0.0,0.0,-0.1468093395233154,-0.293566346168518
-0.0320344939827919,1.092677116394043,-0.1130206733942031,-0.7609089016914368,-0.0343838706612587,0.0258350931107997,0.0,0.0,0.890959620475769,-0.1076844334602356
-0.033268928527832,1.07635498046875,-0.1240496635437011,-0.7254135608673096,-0.0337864086031913,0.0119490623474121,0.0,0.0,0.5932315587997437,-0.1793205738067627
-0.0346044525504112,1.0605344772338867,-0.1335650533437729,-0.703140139579773,-0.0337736941874027,0.0002544535091146,0.0,0.0,-0.7986087799072266,-0.7372717261314392
-0.0360012054443359,1.044089436531067,-0.141217440366745,-0.7308597564697266,-0.0322465375065803,0.0305430237203836,0.0,0.0,-0.4533882737159729,-0.1243258118629455
-0.037398912012577,1.027019500732422,-0.1413129717111587,-0.7586267590522766,-0.030722526833415,0.0304802898317575,0.0,0.0,0.4618818759918213,-0.3401253223419189
-0.0388546958565712,1.0099095106124878,-0.1467946618795395,-0.7604202032089233,-0.0295203793793916,0.0240429043769836,0.0,0.0,0.7059996128082275,-0.3414008617401123
-0.0403726585209369,0.9934197068214417,-0.1526075005531311,-0.732867419719696,-0.0287163741886615,0.016079980880022,0.0,0.0,0.3777205944061279,-0.5664743781089783
-0.0419863685965538,0.9767552614212036,-0.1631898581981659,-0.7406041622161865,-0.0269168578088283,0.0359901636838912,0.0,0.0,-0.8241247534751892,0.551028847694397
-0.0435570701956748,0.959465503692627,-0.1577438712120056,-0.7684208750724792,-0.0262470915913581,0.0133953485637903,0.0,0.0,0.304641842842102,-0.5551900267601013
-0.045142076909542,0.9424518942832948,-0.1603345423936844,-0.7561295628547668,-0.0244442950934171,0.0360562652349472,0.0,0.0,-0.3799424171447754,0.572113037109375
-0.0466860756278038,0.9248090982437134,-0.1551159024238586,-0.7841152548789978,-0.0237348675727844,0.0141887497156858,0.0,0.0,-0.0639784932136535,0.02276611328125
-0.048232365399599,0.9065414667129515,-0.1553406417369842,-0.8118820786476135,-0.0230305325239896,0.0140863880515098,0.0,0.0,0.2139948606491089,0.3283033370971679
-0.0497957244515419,0.8885786533355713,-0.1569085419178009,-0.7983410954475403,-0.0224653873592615,0.0113028911873698,0.0,0.0,0.4240638017654419,-0.1276702284812927
-0.0513256080448627,0.8707759380340576,-0.1536639779806137,-0.7912212014198303,-0.0217932388186454,0.0134429233148694,0.0,0.0,-0.5849657654762268,0.2141820192337036
-0.0528581626713275,0.8523483872413635,-0.1539334654808044,-0.8189879059791565,-0.0211270377039909,0.0133242662996053,0.0,0.0,-0.0615994334220886,0.6781975030899048
-0.054329015314579,0.8332926630973816,-0.1461058557033538,-0.8469371199607849,-0.0220923740416765,-0.0193068273365497,0.0,0.0,0.8844438791275024,0.5199871063232422
-0.0556364059448242,0.8141375780105591,-0.1290637552738189,-0.8513616323471069,-0.0237530395388603,-0.0332132205367088,0.0,0.0,0.9703829288482666,-0.1800576448440551
-0.0568136200308799,0.7952989935874939,-0.1165889054536819,-0.8372891545295715,-0.0248726811259984,-0.0223925672471523,0.0,0.0,0.968646764755249,-0.0411087870597839
-0.0580337531864643,0.7763636112213135,-0.120649017393589,-0.8415926694869995,-0.0262233018875122,-0.0270125530660152,0.0,0.0,0.9884896278381348,0.5309522151947021
-0.0591464042663574,0.7573973536491394,-0.1089914888143539,-0.8429886102676392,-0.0284624174237251,-0.0447826422750949,0.0,0.0,0.7024873495101929,-0.0775251388549804
-0.0601865760982036,0.7384940981864929,-0.1020301431417465,-0.8401813507080078,-0.0304181911051273,-0.0391155332326889,0.0,0.0,0.9498622417449952,-0.2370688915252685
-0.0613327994942665,0.7204476594924927,-0.1120211333036422,-0.8021203279495239,-0.0329952798783779,-0.0515417270362377,0.0,0.0,0.7282857894897461,-0.0883252620697021
-0.0625943168997764,0.7030193209648132,-0.122878298163414,-0.7746618986129761,-0.036222256720066,-0.0645395889878273,0.0,0.0,0.4470777511596679,0.423803448677063
-0.0638618469238281,0.6856354475021362,-0.1233958229422569,-0.7727060317993164,-0.0395430587232112,-0.0664161592721939,0.0,0.0,0.7663158178329468,0.4540144205093384
-0.0649559050798416,0.66853266954422,-0.1067490577697753,-0.7601898908615112,-0.0421627387404441,-0.0523934476077556,0.0,0.0,0.4284068346023559,0.2611687183380127
-0.0660766586661338,0.6517630815505981,-0.1091847866773605,-0.7453992962837219,-0.0450211800634861,-0.0571689717471599,0.0,0.0,0.6458895206451416,-0.2113385200500488
-0.0670726746320724,0.6350252032279968,-0.0972086936235427,-0.7439820766448975,-0.0473844818770885,-0.0472658276557922,0.0,0.0,0.8274983167648315,-0.1122422814369201
-0.0680273994803428,0.6189843416213989,-0.0930846482515335,-0.7130021452903748,-0.0497402548789978,-0.0471155121922493,0.0,0.0,-0.2151161432266235,0.119026780128479
-0.0689862221479415,0.6023188829421997,-0.0934854298830032,-0.7407693862915039,-0.0521049909293651,-0.0472947284579277,0.0,0.0,0.602627158164978,-0.3758950233459472
-0.0700179114937782,0.5857206583023071,-0.1003322228789329,-0.7377994060516357,-0.0549076125025749,-0.0560527667403221,0.0,0.0,0.8512389659881592,-0.1277171373367309
-0.070899486541748,0.569826602935791,-0.0858134925365448,-0.7064880728721619,-0.0572322495281696,-0.0464924126863479,0.0,0.0,0.7581698894500732,0.3669297695159912
-0.0715977698564529,0.554370105266571,-0.0681462436914444,-0.6870190501213074,-0.0588869266211986,-0.0330934822559356,0.0,0.0,0.1581695079803466,-0.3619670271873474
-0.0722140297293663,0.5391485691070557,-0.0601837858557701,-0.6765708327293396,-0.0603088662028312,-0.0284389499574899,0.0,0.0,-0.0326859951019287,0.419990062713623
-0.0728344917297363,0.5233022570610046,-0.0606078281998634,-0.7043377757072449,-0.0617404803633689,-0.0286323018372058,0.0,0.0,0.9110333919525146,-0.1987611055374145
-0.0733738914132118,0.5074671506881714,-0.0527577623724937,-0.7038351893424988,-0.0629079714417457,-0.0233496464788913,0.0,0.0,0.6790966987609863,-0.0866686105728149
-0.073974609375,0.4920840263366699,-0.0583991110324859,-0.6837641000747681,-0.0645567998290062,-0.0329766608774662,0.0,0.0,0.8661212921142578,0.0029823780059814
-0.0744027122855186,0.4769371151924133,-0.0417930074036121,-0.6732403635978699,-0.0655703321099281,-0.020270612090826,0.0,0.0,0.7738497257232666,-0.1289645433425903
-0.0747670158743858,0.4621480703353882,-0.0355086997151374,-0.6573333740234375,-0.066476970911026,-0.0181324519217014,0.0,0.0,0.6660947799682617,0.4045464992523193
-0.0751009956002235,0.4473384022712707,-0.0325107462704181,-0.6582438349723816,-0.0673573464155197,-0.017607556656003,0.0,0.0,0.9222526550292968,0.4092874526977539
-0.0755369216203689,0.4329478144645691,-0.0420182757079601,-0.6396552920341492,-0.06891430914402,-0.0311394333839416,0.0,0.0,0.6169264316558838,0.5472643375396729
-0.075853630900383,0.4191853702068329,-0.0290489941835403,-0.6117843985557556,-0.0715114325284957,-0.0519424192607402,0.0,0.0,0.5512237548828125,0.3372365236282348
-0.0760784149169921,0.4052008986473083,-0.0202032700181007,-0.6216430068016052,-0.0737625062465667,-0.0450214892625808,0.0,0.0,0.8209857940673828,-0.5685960054397583
-0.0762511268258094,0.3920072913169861,-0.0162251610308885,-0.5864353179931641,-0.0748031809926033,-0.0208133980631828,0.0,0.0,0.815443754196167,-0.2294533848762512
-0.0764926895499229,0.3789785504341125,-0.0226118862628936,-0.5791318416595459,-0.0763328596949577,-0.0305936373770236,0.0,0.0,0.8375871181488037,-0.4850673675537109
-0.0767831802368164,0.3664632141590118,-0.0270202718675136,-0.556341826915741,-0.078345738351345,-0.040257453918457,0.0,0.0,0.53721022605896,-0.5124421715736389
-0.0770427733659744,0.3541913032531738,-0.0250232424587011,-0.5454712510108948,-0.0792682319879531,-0.0184498969465494,0.0,0.0,0.1986898183822631,-0.3988569974899292
-0.0773514732718467,0.3422219157218933,-0.0294983424246311,-0.5320467352867126,-0.0806339085102081,-0.0273135248571634,0.0,0.0,0.650898814201355,0.3811382055282593
-0.077545166015625,0.3304817080497741,-0.0183217618614435,-0.5218452215194702,-0.0816708132624626,-0.0207381136715412,0.0,0.0,0.0402460098266601,0.1445565223693847
-0.0777444839477539,0.3184875249862671,-0.0187775120139122,-0.5331404209136963,-0.0828168615698814,-0.0229207575321197,0.0,0.0,0.256973385810852,-0.11271333694458
-0.0778764709830284,0.306231826543808,-0.012264922261238,-0.5447481274604797,-0.0837345346808433,-0.0183536503463983,0.0,0.0,0.8586344718933105,-0.2472375631332397
-0.0780163779854774,0.2939266264438629,-0.0128944711759686,-0.546958327293396,-0.0848277062177658,-0.0218633990734815,0.0,0.0,0.9730503559112548,0.0484260320663452
-0.0780906677246093,0.2824138104915619,-0.0062619550153613,-0.5117476582527161,-0.085978202521801,-0.0230098888278007,0.0,0.0,0.790934681892395,-0.509922206401825
-0.0780416503548622,0.2715961933135986,0.0047825030051171,-0.4807753264904022,-0.0858559980988502,0.0024438798427581,0.0,0.0,0.3600841760635376,0.3190404176712036
-0.0780315399169921,0.2611713409423828,0.0013362818863242,-0.4633473753929138,-0.0861723199486732,-0.0063266614452004,0.0,0.0,-0.1152942776679992,-0.4691945314407348
-0.0780258178710937,0.2501217126846313,0.0008921971311792,-0.4911141991615295,-0.086499847471714,-0.0065503679215908,0.0,0.0,0.6232068538665771,-0.470605731010437
-0.0779181495308876,0.2396028190851211,0.0109255397692322,-0.4675152897834778,-0.0866552665829658,-0.0031084287911653,0.0,0.0,0.5362517833709717,-0.760277271270752
-0.0779324546456337,0.2292801737785339,-0.002615796867758,-0.4587157964706421,-0.0854881927371025,0.0233416259288787,0.0,0.0,0.6521914005279541,-0.2822669744491577
-0.0779480934143066,0.2193529158830642,-0.0024709743447601,-0.441161036491394,-0.0845859870314598,0.018043914809823,0.0,0.0,-0.1832668781280517,-0.6978470683097839
-0.0780240073800087,0.2088116258382797,-0.0099295694380998,-0.4683722555637359,-0.0822761505842208,0.0461965128779411,0.0,0.0,0.4058964252471924,0.5676925182342529
-0.0779385566711425,0.1983703970909118,0.0071872808039188,-0.4639818072319031,-0.080929085612297,0.0269415415823459,0.0,0.0,0.5023214817047119,-0.0850532054901123
-0.0778108611702919,0.1877671629190445,0.0113202482461929,-0.4711765646934509,-0.0794937089085578,0.0287076476961374,0.0,0.0,0.6094307899475098,-0.4210925102233886
-0.0775663405656814,0.1771149933338165,0.0225933864712715,-0.4733329713344574,-0.0776517167687416,0.036839909851551,0.0,0.0,0.9070972204208374,-0.2802352905273437
-0.0771056190133094,0.16680409014225,0.0434215441346168,-0.4581249058246612,-0.0750355720520019,0.0523229055106639,0.0,0.0,0.4615485668182373,-0.5572918057441711
-0.0765342712402343,0.156376227736473,0.0530744791030883,-0.463262528181076,-0.0710086748003959,0.0805380493402481,0.0,0.0,0.8833177089691162,0.1484369039535522
-0.0759127587080001,0.146605834364891,0.0581193268299102,-0.434052973985672,-0.0670231878757476,0.0797095671296119,0.0,0.0,0.2992024421691894,-0.0933532118797302
-0.0752313584089279,0.1371013075113296,0.0640143007040023,-0.4222468733787536,-0.0629366636276245,0.0817305073142051,0.0,0.0,0.6759622097015381,-0.8466026186943054
-0.0744383782148361,0.1279816478490829,0.0732371285557746,-0.4050762057304382,-0.0569398552179336,0.1199361234903335,0.0,0.0,0.4925955533981323,-0.89129638671875
-0.0736007690429687,0.1186674460768699,0.075787603855133,-0.4136830270290375,-0.049058262258768,0.1576317846775055,0.0,0.0,0.7681021690368652,-0.7357876896858215
-0.0728600472211837,0.1095525845885276,0.0647639334201812,-0.4048251509666443,-0.0398569852113723,0.1840254813432693,0.0,0.0,0.9112310409545898,0.2930781841278076
-0.0719857215881347,0.10130425542593,0.0776698738336563,-0.3663605451583862,-0.0302144195884466,0.192851036787033,0.0,0.0,0.5208442211151123,0.7407735586166382
-0.0710646659135818,0.0932159274816513,0.0838823541998863,-0.359336644411087,-0.0220992304384708,0.1623041331768036,0.0,0.0,0.5997984409332275,0.5960198640823364
-0.0702136009931564,0.0856669768691062,0.0784181207418441,-0.3354257643222809,-0.0154930707067251,0.1321232467889785,0.0,0.0,0.4622794389724731,0.6832482814788818
-0.0692179650068283,0.0784202888607978,0.0941032394766807,-0.3220270574092865,-0.0100971385836601,0.1079184561967849,0.0,0.0,0.2930117845535278,0.0429786443710327
-0.0682621002197265,0.0714306682348251,0.0903267562389373,-0.3106257319450378,-0.0049066659994423,0.1038093790411949,0.0,0.0,-0.1733083128929138,0.4840774536132812
-0.0673101395368576,0.0638165548443794,0.0899546444416046,-0.3383947312831878,0.0002722064964473,0.1035775393247604,0.0,0.0,0.9289770126342772,0.6331183910369873
-0.0663431137800216,0.0564480647444725,0.0928337126970291,-0.3274957537651062,0.0040981406345963,0.0765186622738838,0.0,0.0,0.9393031597137452,0.3869208097457886
-0.0655195266008377,0.0495130158960819,0.0791346430778503,-0.3082374036312103,0.0072789900004863,0.0636170580983161,0.0,0.0,0.9069082736968994,-0.0320011973381042
-0.0648776069283485,0.0428581349551677,0.0617893561720848,-0.2957850992679596,0.0096448296681046,0.047316662967205,0.0,0.0,0.9542568922042848,0.750064492225647
-0.0640524849295616,0.0368608571588993,0.0813228413462638,-0.2665562033653259,0.0108245536684989,0.0235943160951137,0.0,0.0,0.9115283489227296,0.7462136745452881
-0.0630993843078613,0.0308748111128807,0.0954564958810806,-0.2660462558269501,0.0106861982494592,-0.0027670960407704,0.0,0.0,0.792259693145752,0.065353512763977
-0.0620010383427143,0.0255078896880149,0.1092401891946792,-0.2385340631008148,0.0112641612067818,0.0115593206137418,0.0,0.0,0.505622386932373,-0.3567512631416321
-0.0609350204467773,0.0205766297876834,0.1061341986060142,-0.219171717762947,0.0117341736331582,0.0094001051038503,0.0,0.0,0.5923824310302734,-0.0321027040481567
-0.0597442612051963,0.0162583440542221,0.1179611459374427,-0.1919331401586532,0.0128288595005869,0.0218935254961252,0.0,0.0,0.289732813835144,-0.778688907623291
-0.0585568435490131,0.0119942044839262,0.1159978285431861,-0.1895438581705093,0.0155398650094866,0.0542201325297355,0.0,0.0,0.5960190296173096,0.0455193519592285
-0.0573917403817176,0.0082882139831781,0.1138101369142532,-0.1647415310144424,0.0182072520256042,0.053347747772932,0.0,0.0,0.0409426689147949,-0.5465497970581055
-0.0562394149601459,0.004706606734544,0.1113734096288681,-0.1592344790697097,0.0220171622931957,0.0761981159448623,0.0,0.0,0.4463199377059936,-0.7597283720970154
-0.0550804138183593,0.0010992502793669,0.1104015856981277,-0.1604167073965072,0.0274511259049177,0.1086790710687637,0.0,0.0,0.4704177379608154,-0.1715673208236694
-0.0541441924870014,-0.0015963697806,0.1079310402274131,-0.1196214407682418,0.0132630579173564,-0.2838441729545593,0.0,1.0,0.2801133394241333,0.1076010465621948
-0.0534133911132812,-0.003752508200705,0.103827103972435,-0.0958592221140861,-0.0171745605766773,-0.6088600158691406,1.0,1.0,0.2772759199142456,-0.962802231311798
-0.0526984222233295,-0.0053399465978145,0.0857663974165916,-0.0711850151419639,-0.0297138709574937,-0.2488092184066772,1.0,1.0,0.9000988006591797,-0.95868581533432
-0.0519996657967567,-0.0056857727468013,0.0725003704428672,-0.0154405357316136,-0.0323126800358295,-0.0519775263965129,1.0,1.0,-0.2093167901039123,-0.9946107864379884
-0.0514440536499023,-0.0055823111906647,0.0547717213630676,0.0046035074628889,-0.0315290726721286,0.0156722292304039,1.0,1.0,-0.1118743419647216,-0.9420570731163024
-0.0510305389761924,-0.0050574564374983,0.0373518802225589,0.0233949162065982,-0.0275873001664876,0.0788317695260047,1.0,1.0,-0.6983644366264343,-0.9117566347122192
-0.0507185943424701,-0.004238273948431,0.0249578468501567,0.0365124493837356,-0.0214417967945337,0.1228830963373184,1.0,1.0,-0.763603925704956,0.0560817718505859
