x_pos,y_pos,x_vel,y_vel,angle,ang_vel,leg_1,leg_2,main_booster,lat_booster
-0.0015487670898437,1.4029853343963623,-0.1571259200572967,-0.3526529371738434,0.0020166183821856,0.0397985838353633,0.0,0.0,-0.3664653301239013,0.8965513706207275
-0.0030467987526208,1.3944305181503296,-0.15007945895195,-0.3802090585231781,0.0022910109255462,0.0054889814928174,0.0,0.0,0.1551568508148193,0.6140618324279785
-0.0044190408661961,1.3856561183929443,-0.1366991549730301,-0.3899769783020019,0.001770484726876,-0.0104113966226577,0.0,0.0,0.4477832317352295,0.2602933645248413
-0.0059226988814771,1.3768988847732544,-0.1495847105979919,-0.3892094492912292,0.0009944859193637,-0.0155215542763471,0.0,0.0,0.233072280883789,0.6467010974884033
-0.0072955130599439,1.3682348728179932,-0.1356374025344848,-0.3850676119327545,-0.0006219468777999,-0.0323319174349308,0.0,0.0,0.491712212562561,0.0294191837310791
-0.0085708620026707,1.3596670627593994,-0.126755028963089,-0.3807872235774994,-0.0013889119727537,-0.0153410136699676,0.0,0.0,0.1382946968078613,0.5971276760101318
-0.0098430635407567,1.351057052612305,-0.1254830509424209,-0.3826715648174286,-0.003106388496235,-0.0343525893986225,0.0,0.0,-0.1907628774642944,0.4992201328277588
-0.011142635717988,1.341807842254639,-0.1284874826669693,-0.4110763370990753,-0.0045554540120065,-0.0289841797202825,0.0,0.0,0.5020965337753296,0.780104398727417
-0.0124169345945119,1.3330692052841189,-0.1246617659926414,-0.3883982300758362,-0.0072986707091331,-0.0548696219921112,0.0,0.0,-0.158405065536499,0.9196979999542236
-0.0136466026306152,1.3236963748931885,-0.1186345070600509,-0.4165996313095093,-0.0115833096206188,-0.0857005342841148,0.0,0.0,-0.6504590511322021,0.78046715259552
-0.0148338321596384,1.3136842250823977,-0.112885907292366,-0.4450429677963257,-0.0173530802130699,-0.1154059991240501,0.0,0.0,0.0864603519439697,-0.2353746891021728
-0.0159964561462402,1.3035529851913452,-0.1109369024634361,-0.4503434002399444,-0.0226160027086734,-0.1052683144807815,0.0,0.0,-0.0532041192054748,-0.0849619507789611
-0.0171871185302734,1.29278302192688,-0.1140360385179519,-0.4787521660327911,-0.0275893695652484,-0.0994763821363449,0.0,0.0,-0.0290430188179016,-0.1472940444946289
-0.0184059143066406,1.2813740968704224,-0.1171474009752273,-0.5071550607681274,-0.0322690084576606,-0.0936014428734779,0.0,0.0,0.3172287940979004,0.2019219398498535
-0.0195192340761423,1.2703062295913696,-0.1074390634894371,-0.4919935166835785,-0.0361219309270381,-0.0770653411746025,0.0,0.0,-0.2787156701087951,-0.0914620161056518
-0.0206608772277832,1.258599042892456,-0.1105683594942092,-0.5204046964645386,-0.039675522595644,-0.0710779801011085,0.0,0.0,0.626333475112915,0.0264477729797363
-0.0216617584228515,1.247507095336914,-0.097445823252201,-0.49305060505867,-0.0422895774245262,-0.0522854924201965,0.0,0.0,-0.2449105381965637,0.4293627738952636
-0.0226909630000591,1.2357757091522217,-0.1005797609686851,-0.5214630961418152,-0.044599425047636,-0.0462012663483619,0.0,0.0,-0.4011436700820923,-0.8078859448432922
-0.0238016135990619,1.2234163284301758,-0.1103943437337875,-0.5493230223655701,-0.0452548861503601,-0.0131107997149229,0.0,0.0,-0.0829335451126098,0.0241885185241699
-0.0249403957277536,1.210417866706848,-0.1135207861661911,-0.5777251124382019,-0.04560262337327,-0.0069555575028061,0.0,0.0,0.0488089323043823,-0.6321454048156738
-0.0260436050593853,1.197497010231018,-0.1116705760359764,-0.5742184519767761,-0.044271495193243,0.0266248919069767,0.0,0.0,-0.3554295301437378,0.0658851861953735
-0.0271747596561908,1.1839368343353271,-0.1147763356566429,-0.6026257276535034,-0.0426304638385772,0.0328239277005195,0.0,0.0,0.3062243461608886,0.726442813873291
-0.028143024072051,1.1703705787658691,-0.0975062996149063,-0.6029244661331177,-0.0419561862945556,0.0134869366884231,0.0,0.0,-0.0041956305503845,-0.4416289329528808
-0.0291386600583791,1.1561650037765503,-0.1005682200193405,-0.6313311457633972,-0.0409695096313953,0.0197351612150669,0.0,0.0,0.2217879295349121,0.1434934139251709
-0.0302470214664936,1.1420400142669678,-0.1116570830345153,-0.627754271030426,-0.0401577465236187,0.0162367392331361,0.0,0.0,0.5881562232971191,-0.4597057700157165
-0.0314955711364746,1.1282771825790403,-0.1253441125154495,-0.6116697788238525,-0.0396818108856678,0.0095189362764358,0.0,0.0,-0.7568008303642273,0.1850669384002685
-0.0327708236873149,1.113875150680542,-0.1283123195171356,-0.6400697231292725,-0.0388944000005722,0.0157479904592037,0.0,0.0,-0.7635738849639893,0.6396472454071045
-0.0340323448181152,1.0988383293151855,-0.1262549459934234,-0.6683037281036377,-0.0387920625507831,0.0020464840345084,0.0,0.0,-0.3601768016815185,-0.26561439037323
-0.0353195182979106,1.0831623077392578,-0.1291413903236389,-0.6967036724090576,-0.0383808091282844,0.008225267753005,0.0,0.0,-0.4519907236099243,0.455834150314331
-0.0366320610046386,1.0668469667434692,-0.1319805979728698,-0.7251035571098328,-0.0376624092459678,0.0143680050969123,0.0,0.0,0.0937505960464477,0.1101930141448974
-0.0379358306527137,1.0507320165634155,-0.1314762234687805,-0.7161937355995178,-0.0365818068385124,0.02161212451756,0.0,0.0,-0.7410266995429993,-0.3157523870468139
-0.0392639152705669,1.03397798538208,-0.1342077702283859,-0.7445937991142273,-0.0351987928152084,0.0276598967611789,0.0,0.0,0.4584815502166748,-0.5150913596153259
-0.040709875524044,1.0176565647125244,-0.1471300572156906,-0.7253315448760986,-0.03268788382411,0.0502182058990001,0.0,0.0,-0.7918394804000854,0.6225602626800537
-0.0421348586678504,1.000688552856445,-0.1442234814167022,-0.7541038393974304,-0.0309888198971748,0.0339811518788337,0.0,0.0,-0.2665894627571106,-0.3673063516616821
-0.0435823425650596,0.98308128118515,-0.1467591226100921,-0.7825042009353638,-0.0289974361658096,0.0398275889456272,0.0,0.0,0.7929786443710327,0.2926807403564453
-0.0450078956782817,0.966064751148224,-0.1449572443962097,-0.7562428116798401,-0.026626706123352,0.0474146492779254,0.0,0.0,-0.6371602416038513,-0.2793099880218506
-0.0464544296264648,0.9484092593193054,-0.147338181734085,-0.7846435308456421,-0.0239724311977624,0.0530854538083076,0.0,0.0,0.6182665824890137,0.5897045135498047
-0.0478162765502929,0.9312342405319214,-0.1380605697631836,-0.7633069753646851,-0.0221138261258602,0.0371719673275947,0.0,0.0,0.3374969959259033,0.524105429649353
-0.0491752624511718,0.914448618888855,-0.1369201689958572,-0.7460116147994995,-0.0211034659296274,0.0202074032276868,0.0,0.0,-0.3357565402984619,0.6746505498886108
-0.0504966750741004,0.8970231413841248,-0.1320178806781768,-0.7744725942611694,-0.0212306790053844,-0.0025443886406719,0.0,0.0,-0.370272159576416,-0.5674514770507812
-0.0518884658813476,0.8789647817611694,-0.1406534612178802,-0.8025667667388916,-0.0197682809084653,0.0292477514594793,0.0,0.0,0.6228598356246948,0.5931737422943115
-0.0531086921691894,0.8610321879386902,-0.1228928342461586,-0.7969980239868164,-0.0189129058271646,0.0171075388789176,0.0,0.0,0.4730513095855713,0.7907378673553467
-0.0541798584163188,0.8428663611412048,-0.1067957282066345,-0.8073681592941284,-0.0192373227328062,-0.0064879516139626,0.0,0.0,0.9099071025848388,-0.0441840887069702
-0.0551389679312706,0.8249748349189758,-0.0963576138019561,-0.7951765060424805,-0.0187922585755586,0.0089012961834669,0.0,0.0,0.2432619333267212,-0.1999852657318115
-0.0561376586556434,0.8067774176597595,-0.1004108935594558,-0.8087690472602844,-0.0182584747672081,0.0106754731386899,0.0,0.0,0.7329645156860352,0.2202061414718628
-0.0570939071476459,0.7884653210639954,-0.0966061502695083,-0.8138628005981445,-0.0172804612666368,0.0195600651204586,0.0,0.0,0.7894434928894043,0.7964024543762207
-0.057917021214962,0.7702320218086243,-0.0820648819208145,-0.8103660941123962,-0.0175294540822505,-0.0049798544496297,0.0,0.0,0.669654369354248,0.6385327577590942
-0.0588072761893272,0.7526323199272156,-0.0874044299125671,-0.7822296619415283,-0.019134359434247,-0.0320980921387672,0.0,0.0,0.6311159133911133,0.0063737630844116
-0.059821892529726,0.7355642914772034,-0.0994120612740516,-0.7586063146591187,-0.0211536157876253,-0.0403850115835666,0.0,0.0,0.1910310983657837,0.0861870050430297
-0.0608508102595806,0.7184077501296997,-0.1009581089019775,-0.7625471949577332,-0.0230628158897161,-0.0381838828325271,0.0,0.0,0.5940136909484863,-0.5442309379577637
-0.0617669112980365,0.7014344334602356,-0.0913304612040519,-0.7543733716011047,-0.0233381725847721,-0.0055069560185074,0.0,0.0,0.6073143482208252,-0.2929921746253967
-0.0627263039350509,0.684898853302002,-0.0955534502863884,-0.7349233031272888,-0.0237155314534902,-0.0075474740006029,0.0,0.0,-0.1825583577156067,0.0322790145874023
-0.0636881813406944,0.6677241325378418,-0.0959525480866432,-0.763323962688446,-0.0239482969045639,-0.004655169788748,0.0,0.0,0.4694147109985351,0.6611177921295166
-0.0645784363150596,0.6509784460067749,-0.0876069590449333,-0.7442790865898132,-0.0253577996045351,-0.0281898714601993,0.0,0.0,0.0553550720214843,0.2600818872451782
-0.0653652176260948,0.6340570449829102,-0.0778122693300247,-0.7520765066146851,-0.0262090619653463,-0.017025027424097,0.0,0.0,0.1406995058059692,-0.0218852162361145
-0.0662073120474815,0.6169870495796204,-0.0831377282738685,-0.7586859464645386,-0.0272616315633058,-0.021051563322544,0.0,0.0,0.2175196409225464,0.6648918390274048
-0.0668993964791297,0.6001594662666321,-0.0670100599527359,-0.7479327917098999,-0.0294327661395072,-0.0434230342507362,0.0,0.0,0.8501482009887695,0.3895987272262573
-0.0674094185233116,0.5838184952735901,-0.0496009401977062,-0.7262930274009705,-0.0308148302137851,-0.0276411473751068,0.0,0.0,0.6462632417678833,0.1942123174667358
-0.0678127259016037,0.5680651068687439,-0.0393376126885414,-0.7001720666885376,-0.0317938067018985,-0.0195795092731714,0.0,0.0,0.3632614612579345,0.4779115915298462
-0.0682495087385177,0.5526477694511414,-0.0424399599432945,-0.6852415800094604,-0.0330207608640193,-0.0245391372591257,0.0,0.0,-0.6075767874717712,-0.4842697381973266
-0.0686760917305946,0.5365914702415466,-0.0414357669651508,-0.7136426568031311,-0.0342212654650211,-0.0240101050585508,0.0,0.0,0.7882266044616699,0.4529531002044678
-0.06917305290699,0.5210397839546204,-0.0479868166148662,-0.6912235021591187,-0.0359141752123832,-0.0338583998382091,0.0,0.0,0.3285027742385864,0.641737699508667
-0.0694810897111892,0.5054623484611511,-0.027989974245429,-0.6924006342887878,-0.038693644106388,-0.0555894374847412,0.0,0.0,0.8693094253540039,-0.2311598658561706
-0.0697203651070594,0.4902839958667755,-0.0212103202939033,-0.6746678948402405,-0.0413745231926441,-0.053617488592863,0.0,0.0,0.910193920135498,-0.0805027484893798
-0.0699143409729003,0.4751607775688171,-0.0166928377002477,-0.6722222566604614,-0.044055987149477,-0.0536291413009166,0.0,0.0,0.4360121488571167,0.2518779039382934
-0.0701746940612793,0.4601755142211914,-0.0227553434669971,-0.6661091446876526,-0.0472954399883747,-0.0647890716791153,0.0,0.0,0.554051399230957,-0.2745646238327026
-0.0703565627336502,0.445756196975708,-0.0149255618453025,-0.6409655809402466,-0.0505198314785957,-0.0644879639148712,0.0,0.0,0.7487938404083252,-0.796757698059082
-0.0704689994454383,0.4311497211456299,-0.0096703162416815,-0.6492283940315247,-0.0520712435245513,-0.0310282856225967,0.0,0.0,0.971421480178833,0.3491687774658203
-0.070472814142704,0.4174277782440185,0.0011557976249605,-0.6099181771278381,-0.0535883232951164,-0.0303414762020111,0.0,0.0,0.187522292137146,0.2288650274276733
-0.0705010443925857,0.4035819768905639,-0.000836634892039,-0.6154395341873169,-0.055551428347826,-0.0392622947692871,0.0,0.0,0.6557984352111816,-0.1734551191329956
-0.0705571174621582,0.3901214599609375,-0.0030347597785294,-0.5983452200889587,-0.058091714978218,-0.0508058182895183,0.0,0.0,0.8970129489898682,-0.378745973110199
-0.0705085769295692,0.3770890533924103,0.0074316128157079,-0.5793185830116272,-0.0606383681297302,-0.05093290284276,0.0,0.0,0.4266949892044067,-0.7389798760414124
-0.0705680847167968,0.3645346164703369,-0.0044737560674548,-0.5580359101295471,-0.0621002055704593,-0.0292367972433567,0.0,0.0,0.4768929481506347,-0.7811970114707947
-0.0705534964799881,0.352113127708435,0.0014521336415782,-0.5520671606063843,-0.0620988234877586,2.761633913905825e-05,0.0,0.0,0.2588720321655273,0.0429892539978027
-0.0705142021179199,0.3395012319087982,0.0042780539952218,-0.5605398416519165,-0.062439888715744,-0.0068213031627237,0.0,0.0,0.5724804401397705,0.3871771097183227
-0.0703577026724815,0.3267077207565307,0.015931848436594,-0.5686126351356506,-0.0627227276563644,-0.0056563136167824,0.0,0.0,0.5412368774414062,-0.7997588515281677
-0.070243164896965,0.3137505054473877,0.0104443319141864,-0.5758340358734131,-0.061726626008749,0.0199220683425664,0.0,0.0,0.9045255184173584,0.1312175989151001
-0.0700462311506271,0.3015243709087372,0.0190108083188533,-0.5433571338653564,-0.0610504746437072,0.0135229276493191,0.0,0.0,0.9095542430877686,0.1710002422332763
-0.0696626678109169,0.290062665939331,0.0375382862985134,-0.5093770027160645,-0.0602382309734821,0.0162444747984409,0.0,0.0,0.2870457172393799,-0.3682330846786499
-0.0692901611328125,0.278923362493515,0.0371510498225688,-0.4950743019580841,-0.0601383857429027,0.001997024519369,0.0,0.0,-0.292121410369873,-0.4577385187149048
-0.0688787475228309,0.2671453058719635,0.0413647815585136,-0.5234768986701965,-0.0603621788322925,-0.0044758920557796,0.0,0.0,0.7072327136993408,-0.7003191113471985
-0.0683878883719444,0.2559587061405182,0.0481376200914382,-0.4971430003643036,-0.0594302043318748,0.0186396110802888,0.0,0.0,0.4346252679824829,-0.8665367364883423
-0.0679944977164268,0.2448966354131698,0.0371368043124675,-0.4915617704391479,-0.0572440326213836,0.043723426759243,0.0,0.0,0.2807759046554565,-0.1886789202690124
-0.0675717368721962,0.2339864075183868,0.0406393110752105,-0.4848370552062988,-0.0556223914027214,0.0324328243732452,0.0,0.0,0.5691969394683838,0.2712414264678955
-0.0670807808637619,0.2234330922365188,0.0478888228535652,-0.4689907431602478,-0.0544350259006023,0.0237475354224443,0.0,0.0,-0.0063654780387878,-0.4612059593200683
-0.0665466338396072,0.212241068482399,0.0526176281273365,-0.4973936378955841,-0.053642489016056,0.0158506985753774,0.0,0.0,0.7565357685089111,-0.8906747102737427
-0.0659915953874588,0.2009501010179519,0.0532703772187233,-0.5017409324645996,-0.0514399670064449,0.0440506115555763,0.0,0.0,0.8847942352294922,-0.4020016193389892
-0.0652625113725662,0.189700499176979,0.070606954395771,-0.4999073147773742,-0.049167588353157,0.0454477109014987,0.0,0.0,0.783393383026123,-0.7057973146438599
-0.0643412619829177,0.1787269711494445,0.0884453356266021,-0.4875968098640442,-0.0455306768417358,0.072738230228424,0.0,0.0,0.7021443843841553,-0.5189828276634216
-0.0632435828447341,0.1677121073007583,0.1050543934106826,-0.4894120097160339,-0.0408789217472076,0.0930352732539177,0.0,0.0,0.8121635913848877,-0.8449693322181702
-0.0621391311287879,0.1573045551776886,0.1045083627104759,-0.4624066650867462,-0.0350112169981002,0.1173540577292442,0.0,0.0,0.8093302249908447,-0.6972091794013977
-0.0609766952693462,0.1475103497505188,0.1092822328209877,-0.4351514279842376,-0.0281335413455963,0.1375534534454345,0.0,0.0,0.4488064050674438,-0.8076184391975403
-0.0596915259957313,0.1379557400941848,0.1202302202582359,-0.4245160520076751,-0.0199488271027803,0.1636943072080612,0.0,0.0,0.4542876482009887,-0.9078074097633362
-0.058323573321104,0.1281837821006775,0.1270540058612823,-0.4342080056667328,-0.0103326542302966,0.1923234760761261,0.0,0.0,0.8741281032562256,-0.9358317255973816
-0.0570411682128906,0.118640124797821,0.1172265410423278,-0.4241186082363128,0.0005408932338468,0.2174710482358932,0.0,0.0,0.8532052040100098,-0.9002630710601807
-0.0556764602661132,0.1099217981100082,0.1239532381296157,-0.387531578540802,0.012893839739263,0.2470589876174926,0.0,0.0,0.7838714122772217,0.6170376539230347
-0.0542485229671001,0.1014880016446113,0.1321101486682891,-0.3749599456787109,0.0234449636191129,0.2110223472118377,0.0,0.0,0.5216079950332642,-0.1602084040641784
-0.0529024116694927,0.0935110449790954,0.1249755769968032,-0.3547094762325287,0.0329529792070388,0.1901606172323227,0.0,0.0,0.4439663887023926,-0.5324095487594604
-0.0514863021671772,0.0858151018619537,0.1312319040298462,-0.3422980904579162,0.0431988574564456,0.2049177438020706,0.0,0.0,0.7127435207366943,-0.8338531255722046
-0.0501809120178222,0.0786447376012802,0.1191471964120864,-0.3190451264381408,0.054467499256134,0.2253725230693817,0.0,0.0,0.6365301609039307,0.4219570159912109
-0.0489468574523925,0.071940928697586,0.112929381430149,-0.2983629405498504,0.0648251101374626,0.2071524113416671,0.0,0.0,0.153359055519104,-0.5474960207939148
-0.0477465614676475,0.0651114583015441,0.1090359911322593,-0.3040397763252258,0.0757002905011177,0.2175035178661346,0.0,0.0,0.8264786005020142,0.7826229333877563
-0.0466241836547851,0.0586300939321517,0.1036774888634681,-0.2885186374187469,0.0841792374849319,0.1695789992809295,0.0,0.0,0.7433884143829346,0.82731032371521
-0.0456059463322162,0.0523201078176498,0.0958116352558136,-0.2807921469211578,0.0901403278112411,0.1192219853401184,0.0,0.0,0.6352713108062744,0.942409873008728
-0.0444085113704204,0.046464953571558,0.1160260885953903,-0.2604586780071258,0.093824103474617,0.0736756101250648,0.0,0.0,0.3719027042388916,0.2220667600631714
-0.0431370735168457,0.0404349192976951,0.123750552535057,-0.2682168781757355,0.0971872955560684,0.067263625562191,0.0,0.0,0.9507086277008056,-0.7357645034790039
-0.0417748466134071,0.0351343713700771,0.131485566496849,-0.2358941584825515,0.1018938347697258,0.0941307172179222,0.0,0.0,0.5947283506393433,-0.7921449542045593
-0.0405235290527343,0.0303054675459861,0.1194112673401832,-0.2150187492370605,0.1075712963938713,0.1135491952300071,0.0,0.0,0.5674276351928711,-0.052571952342987
-0.0391721725463867,0.0260680057108402,0.1293606013059616,-0.1887598484754562,0.1133076027035713,0.1147257834672927,0.0,0.0,0.169284701347351,-0.6576420664787292
-0.0378060340881347,0.0218040086328983,0.1300100684165954,-0.1900251060724258,0.119868978857994,0.1312276422977447,0.0,0.0,0.4346544742584228,0.1492207050323486
-0.0364781394600868,0.0179553609341382,0.1267969608306884,-0.1715439110994339,0.1258278787136078,0.1191780343651771,0.0,0.0,0.4777638912200928,-0.7070069909095764
-0.0351823791861534,0.0145225618034601,0.122644230723381,-0.1531706750392913,0.1327282041311264,0.1380065679550171,0.0,0.0,0.0341811180114746,-0.3588438034057617
-0.0338978767395019,0.0116628976538777,0.1404313147068023,-0.1260790973901748,0.1207888722419738,-0.2388101369142532,0.0,1.0,0.7480661869049072,0.1284133195877075
-0.0329236015677452,0.0097460122779011,0.126474991440773,-0.0831166803836822,0.0918903574347496,-0.5780383348464966,0.0,1.0,0.0810396671295166,-0.6211943626403809
-0.0321091637015342,0.007661506999284,0.1086650267243385,-0.0911944061517715,0.0649469345808029,-0.5388687252998352,0.0,1.0,0.2927522659301758,-0.3217631578445434
-0.0313404090702533,0.0056062554940581,0.1042080074548721,-0.0903806611895561,0.0379270538687706,-0.540398120880127,0.0,0.0,0.5107698440551758,-0.8382540941238403
-0.0305769927799701,0.0036483861040323,0.102565549314022,-0.0865566879510879,0.0120329726487398,-0.5178816914558411,0.0,0.0,0.5013877153396606,-0.9312116503715516
-0.0297033302485942,0.0015426016179844,0.1121570467948913,-0.093574158847332,-0.0124437091872096,-0.4895338118076324,0.0,0.0,0.5306093692779541,-0.8614989519119263
-0.0287353508174419,-0.0002412104659015,0.1203007251024246,-0.0796385630965232,-0.0356509163975715,-0.4641444683074951,1.0,0.0,0.353346586227417,-0.7384846806526184
-0.0277410503476858,-0.001242353930138,0.1116435304284095,-0.0451855473220348,-0.0464244186878204,-0.2138066291809082,1.0,0.0,0.2002038955688476,-0.5638331174850464
-0.0266263000667095,-0.0020519876852631,0.1065941601991653,-0.0358513593673706,-0.0415583476424217,0.0973817557096481,1.0,0.0,0.0258406400680542,-0.9680511951446532
