x_pos,y_pos,x_vel,y_vel,angle,ang_vel,leg_1,leg_2,main_booster,lat_booster
-0.0015761374961584,1.4029403924942017,-0.159685879945755,-0.3546556830406189,0.0018489445792511,0.0364792868494987,0.0,0.0,-0.3217170238494873,0.7891768217086792
-0.0031371116638183,1.3942960500717163,-0.1562525928020477,-0.3841938376426697,0.0019970734138041,0.002963398117572,0.0,0.0,0.2836027145385742,0.3689677715301513
-0.0046460153535008,1.3854382038116455,-0.1515834927558899,-0.3936837315559387,0.002682443941012,0.0137086492031812,0.0,0.0,0.503756046295166,0.8972434997558594
-0.0062580108642578,1.376575231552124,-0.1599640399217605,-0.393915057182312,0.0014595788670703,-0.0244593564420938,0.0,0.0,0.2542281150817871,0.7291840314865112
-0.0077522275969386,1.3677730560302734,-0.1469206660985946,-0.391201913356781,-0.0010078483028337,-0.0493534244596958,0.0,0.0,-0.0380907654762268,0.7988684177398682
-0.0092171672731637,1.358285665512085,-0.1420677155256271,-0.4216685593128204,-0.0053806374780833,-0.0874640941619873,0.0,0.0,0.3102636337280273,0.3852750062942505
-0.0107440948486328,1.348801612854004,-0.148231565952301,-0.4215339422225952,-0.0098042804747819,-0.0884807929396629,0.0,0.0,0.4033651351928711,0.6572693586349487
-0.0121198650449514,1.3394571542739868,-0.1321019828319549,-0.4153576791286468,-0.0152143742889165,-0.1082120090723037,0.0,0.0,-0.0140171647071838,0.4473519325256347
-0.0135398861020803,1.329428791999817,-0.1365696191787719,-0.445769190788269,-0.0205928422510623,-0.1075791716575622,0.0,0.0,0.3860654830932617,0.0057212114334106
-0.014991283416748,1.3196306228637695,-0.1397209912538528,-0.4355539083480835,-0.0259445738047361,-0.1070444360375404,0.0,0.0,0.1052924394607544,0.4659518003463745
-0.0164164546877145,1.30974280834198,-0.1374157518148422,-0.4395588338375091,-0.0309941545128822,-0.1010007411241531,0.0,0.0,0.2509311437606811,0.4286675453186035
-0.0178162567317485,1.299768328666687,-0.1351661682128906,-0.4434208571910858,-0.0357632786035537,-0.0953908264636993,0.0,0.0,0.3885860443115234,0.7013895511627197
-0.019057560712099,1.2899852991104126,-0.1181550249457359,-0.4349526166915893,-0.0416800864040851,-0.1183466762304306,0.0,0.0,-0.3787932991981506,0.223131775856018
-0.0203368179500103,1.2795186042785645,-0.1219685822725296,-0.4653654992580414,-0.047571837902069,-0.1178458109498024,0.0,0.0,0.8772435188293457,0.4884130954742431
-0.0214477535337209,1.2697601318359375,-0.1059359535574913,-0.4338769018650055,-0.0526854284107685,-0.1022811979055404,0.0,0.0,-0.4783644080162048,-0.3233910799026489
-0.022593880072236,1.2593178749084473,-0.1094712615013122,-0.464295893907547,-0.0577778294682502,-0.1018571257591247,0.0,0.0,-0.651135265827179,-0.1975867748260498
-0.0237736701965332,1.2481918334960938,-0.1128608956933021,-0.4946989417076111,-0.0628494620323181,-0.1014415398240089,0.0,0.0,0.2311035394668579,-0.415395975112915
-0.0248621944338083,1.2367899417877195,-0.104259118437767,-0.5069534778594971,-0.0674043223261833,-0.0911050885915756,0.0,0.0,-0.9124855995178224,0.3861171007156372
-0.0259815212339162,1.2247039079666138,-0.1073577180504798,-0.5373645424842834,-0.0719417780637741,-0.090757206082344,0.0,0.0,0.3222695589065552,-0.9706458449363708
-0.0272487644106149,1.212627649307251,-0.1240667924284935,-0.536853551864624,-0.0745757967233657,-0.0526848919689655,0.0,0.0,-0.0649691224098205,-0.5227250456809998
-0.0285761840641498,1.1998745203018188,-0.130927637219429,-0.5668928623199463,-0.0763746947050094,-0.0359813161194324,0.0,0.0,-0.5375862121582031,0.0203038454055786
-0.0299300197511911,1.186437487602234,-0.1335842758417129,-0.5972965359687805,-0.0781598985195159,-0.0357072688639164,0.0,0.0,-0.2723114490509033,-0.4622641801834106
-0.0313088409602642,1.172316312789917,-0.1360902488231659,-0.627700924873352,-0.0799323469400405,-0.0354522317647933,0.0,0.0,0.3167192935943603,-0.2472808361053466
-0.0326356887817382,1.1578764915466309,-0.1311686486005783,-0.6418567299842834,-0.0814348459243774,-0.0300527922809124,0.0,0.0,0.7848782539367676,-0.6458752155303955
-0.0341437347233295,1.1438199281692505,-0.1501820534467697,-0.6247642040252686,-0.0820482596755027,-0.0122693348675966,0.0,0.0,0.5320305824279785,-0.1005239486694336
-0.0357545837759971,1.1300506591796875,-0.1598439663648605,-0.6120390295982361,-0.0832776203751564,-0.0245874468237161,0.0,0.0,0.8055408000946045,-0.1310811042785644
-0.0373142249882221,1.116783618927002,-0.1547523438930511,-0.5897213220596313,-0.084479734301567,-0.0240422580391168,0.0,0.0,-0.8358505368232727,0.2713743448257446
-0.0388915054500103,1.1028321981430054,-0.1565158367156982,-0.6201249361038208,-0.085674911737442,-0.0239036157727241,0.0,0.0,-0.5906245708465576,0.1184717416763305
-0.0404848083853721,1.0881969928741455,-0.1581334918737411,-0.650528609752655,-0.0868641436100006,-0.0237845070660114,0.0,0.0,-0.2666958570480346,-0.5086899995803833
-0.0421343818306922,1.0728809833526611,-0.1648259758949279,-0.6807147264480591,-0.0870000347495079,-0.0027176125440746,0.0,0.0,-0.857856273651123,-0.1650019288063049
-0.0437973029911518,1.0568811893463137,-0.1661582887172699,-0.7111181616783142,-0.0871316716074943,-0.0026326852384954,0.0,0.0,-0.2135349512100219,-0.0803992748260498
-0.0454721450805664,1.0401971340179443,-0.1673517227172851,-0.7415216565132141,-0.0872597768902778,-0.0025623093824833,0.0,0.0,0.7123630046844482,-0.4898631572723388
-0.0471703521907329,1.0240817070007324,-0.1692915856838226,-0.7162724137306213,-0.0877809226512909,-0.0104230307042598,0.0,0.0,-0.4285508394241333,-0.2536859512329101
-0.0488777160644531,1.007282257080078,-0.170216366648674,-0.7466759085655212,-0.0882997438311576,-0.010376451537013,0.0,0.0,0.3623723983764648,-0.6610173583030701
-0.050584603101015,0.9905776977539062,-0.1715292036533355,-0.7423715591430664,-0.0874727070331573,0.0165408756583929,0.0,0.0,-0.5134758949279785,-0.519321084022522
-0.052337646484375,0.9731982946395874,-0.177158698439598,-0.7723115682601929,-0.08563943952322,0.0366650931537151,0.0,0.0,-0.7203361392021179,-0.6000999212265015
-0.0541457161307334,0.9551382064819336,-0.1839207708835601,-0.8024969100952148,-0.0825582295656204,0.0616246685385704,0.0,0.0,0.4851292371749878,-0.6775016784667969
-0.0559173598885536,0.9374241828918456,-0.1817096918821334,-0.7870416045188904,-0.0780518352985382,0.0901278406381607,0.0,0.0,0.2984191179275512,0.011345624923706
-0.0576713569462299,0.9200202822685242,-0.1798027753829956,-0.7732812762260437,-0.0736875534057617,0.0872855708003044,0.0,0.0,0.6590681076049805,0.3029550313949585
-0.0593541152775287,0.9028427004814148,-0.1728215962648391,-0.7632349133491516,-0.0691910237073898,0.0899302810430526,0.0,0.0,0.800004243850708,0.3776463270187378
-0.0610954277217388,0.8862626552581787,-0.1781254112720489,-0.7367103695869446,-0.0652315914630889,0.0791887640953064,0.0,0.0,0.3927245140075683,0.2713091373443603
-0.0627041831612587,0.8696491122245789,-0.1653643995523452,-0.7381887435913086,-0.060789581388235,0.0888402014970779,0.0,0.0,-0.4836472272872925,0.2499376535415649
-0.0643119812011718,0.8523518443107605,-0.1652855426073074,-0.7685937881469727,-0.0563459247350692,0.0888730809092521,0.0,0.0,-0.9231990575790404,0.8892261981964111
-0.065836526453495,0.8343618512153625,-0.1548580378293991,-0.7994658946990967,-0.0539621450006961,0.0476756989955902,0.0,0.0,-0.2953435778617859,0.6570332050323486
-0.0673103332519531,0.815676212310791,-0.1485658437013626,-0.8304344415664673,-0.0527965985238552,0.0233110468834638,0.0,0.0,0.8537619113922119,0.918203353881836
-0.0686319321393966,0.7968484163284302,-0.1315937936305999,-0.8368110060691833,-0.0533578321337699,-0.0112248323857784,0.0,0.0,0.9763393402099608,0.1776125431060791
-0.0698483437299728,0.7781314253807068,-0.1214084774255752,-0.8318737149238586,-0.0535775609314441,-0.0043946411460638,0.0,0.0,0.9065088033676147,0.1296957731246948
-0.0711380019783973,0.7601819634437561,-0.1281490176916122,-0.7977845072746277,-0.054392572492361,-0.0162999033927917,0.0,0.0,0.8505436182022095,0.7320593595504761
-0.0724776238203048,0.7428855299949646,-0.1313041001558303,-0.7688275575637817,-0.0570240095257759,-0.0526287369430065,0.0,0.0,-0.2928876280784607,-0.1456420421600341
-0.07381172478199,0.724905252456665,-0.1307526230812072,-0.7992315888404846,-0.0596487261354923,-0.0524943694472312,0.0,0.0,0.945746898651123,0.535315752029419
-0.0748785957694053,0.707227885723114,-0.1035051345825195,-0.78578782081604,-0.0628035739064216,-0.0630966275930404,0.0,0.0,0.782077431678772,-0.8716527819633484
-0.076026439666748,0.6900748610496521,-0.1132352128624916,-0.7624183893203735,-0.0643343701958656,-0.0306165665388107,0.0,0.0,-0.080523133277893,0.187831163406372
-0.0771677047014236,0.6722379922866821,-0.1125797852873802,-0.792822003364563,-0.0658548399806022,-0.0304092112928628,0.0,0.0,0.957244634628296,0.1511318683624267
-0.0782360062003135,0.6551310420036316,-0.1053216680884361,-0.7603780031204224,-0.0673460960388183,-0.0298252217471599,0.0,0.0,0.6893478631973267,-0.3279529213905334
-0.07911167293787,0.6380706429481506,-0.0867862552404403,-0.7582717537879944,-0.0681193321943283,-0.0154647324234247,0.0,0.0,0.8891893625259399,-0.3844140768051147
-0.0800525695085525,0.6211436986923218,-0.0928113237023353,-0.7523655295372009,-0.0693831965327262,-0.02527691796422,0.0,0.0,0.5946099758148193,0.292106032371521
-0.0808423981070518,0.6046743988990784,-0.0781526714563369,-0.732009768486023,-0.0702108219265937,-0.0165522955358028,0.0,0.0,0.6314970254898071,-0.1056765913963317
-0.0814425498247146,0.5885031819343567,-0.0598341412842273,-0.7187290787696838,-0.0703897774219513,-0.0035790514666587,0.0,0.0,0.3339130878448486,0.0570255517959594
-0.081928826868534,0.5726361870765686,-0.0487502142786979,-0.7051953673362732,-0.0702695995569229,0.0024033973459154,0.0,0.0,0.0666552782058715,-0.6521320343017578
-0.0824795737862587,0.5568611025810242,-0.0564641878008842,-0.7010476589202881,-0.0688908472657203,0.0275752283632755,0.0,0.0,0.5795724391937256,0.6731289625167847
-0.0828932747244834,0.5409149527549744,-0.0415467098355293,-0.7087098956108093,-0.0687173455953598,0.0034699670504778,0.0,0.0,0.5507493019104004,0.2026933431625366
-0.0833496078848838,0.5252795815467834,-0.0453955307602882,-0.6949140429496765,-0.0689532607793808,-0.0047182640992105,0.0,0.0,0.5814632177352905,0.088425874710083
-0.0836483016610145,0.5096887350082397,-0.0302085019648075,-0.6929100751876831,-0.0686141774058342,0.0067815817892551,0.0,0.0,0.5625650882720947,-0.5442314147949219
-0.0839211493730545,0.4942842125892639,-0.0288099683821201,-0.6845806837081909,-0.0671004205942154,0.030275160446763,0.0,0.0,0.8506156206130981,-0.538238525390625
-0.084192655980587,0.4788668751716614,-0.0298272017389535,-0.685096025466919,-0.0644569918513298,0.0528683476150035,0.0,0.0,0.752545952796936,0.7652535438537598
-0.0845029801130294,0.4637123942375183,-0.0319009199738502,-0.6734932065010071,-0.0635964646935463,0.0172106176614761,0.0,0.0,0.9051189422607422,0.4797650575637817
-0.0847227126359939,0.4493487775325775,-0.0229969192296266,-0.638339638710022,-0.0625843852758407,0.0202416665852069,0.0,0.0,0.8376419544219971,0.8114086389541626
-0.0847561806440353,0.4347629249095917,-0.0029877321794629,-0.6482745409011841,-0.0629480481147766,-0.0072732963599264,0.0,0.0,0.684887170791626,0.0032638311386108
-0.0847060233354568,0.4207936823368072,0.0052143647335469,-0.6208627820014954,-0.0631423220038414,-0.0038853804580867,0.0,0.0,0.4810987710952759,0.0845093727111816
-0.0847127884626388,0.4067835509777069,-0.0001295183610636,-0.6226939558982849,-0.0636825263500213,-0.0108041185885667,0.0,0.0,0.8517094850540161,-0.0471206307411193
-0.0847744941711425,0.3932352364063263,-0.0051900842227041,-0.6021893620491028,-0.0646520107984542,-0.0193896554410457,0.0,0.0,0.5782126188278198,-0.0926917195320129
-0.0847701057791709,0.3798898458480835,0.0012326290598139,-0.593162477016449,-0.0654362365603447,-0.0156848542392253,0.0,0.0,0.6693986654281616,0.0921778678894043
-0.0848426818847656,0.3671504259109497,-0.0058993967249989,-0.5662562847137451,-0.0667707547545433,-0.0266905464231967,0.0,0.0,0.7890870571136475,0.1692312955856323
-0.08479805290699,0.354654848575592,0.0053812754340469,-0.555400550365448,-0.0676828175783157,-0.0182412303984165,0.0,0.0,0.2750293016433716,-0.426348328590393
-0.0847643837332725,0.3419294357299804,0.0043550925329327,-0.5656166076660156,-0.0686582326889038,-0.0195083767175674,0.0,0.0,0.7937173843383789,-0.2763941884040832
-0.0846395492553711,0.3290404677391052,0.0130643490701913,-0.5728691220283508,-0.0692325308918953,-0.0114860227331519,0.0,0.0,0.8559324741363525,-0.1053993701934814
-0.0845318809151649,0.3160416185855865,0.0114484662190079,-0.5777572989463806,-0.069908857345581,-0.0135264564305543,0.0,0.0,0.9584991931915284,0.4241256713867187
-0.084378145635128,0.3037666976451874,0.0160447694361209,-0.545584499835968,-0.07056625187397,-0.0131480675190687,0.0,0.0,0.8794379234313965,0.1552542448043823
-0.0840792655944824,0.2921865582466125,0.0300582144409418,-0.5146825313568115,-0.0707350820302963,-0.0033765970729291,0.0,0.0,0.691575288772583,-0.5141837000846863
-0.0838965401053428,0.2811968028545379,0.01768035069108,-0.4884051382541656,-0.0701495260000228,0.0117110656574368,0.0,0.0,0.5402896404266357,0.6041688919067383
-0.0837898254394531,0.2699875235557556,0.01152363140136,-0.4982313513755798,-0.0709954351186752,-0.0169181898236274,0.0,0.0,0.8044216632843018,0.3639001846313476
-0.0835941284894943,0.2593811452388763,0.020142626017332,-0.4714207649230957,-0.0715622827410698,-0.0113370018079876,0.0,0.0,0.1372071504592895,-0.1633290648460388
-0.083457663655281,0.2486908584833145,0.014469189569354,-0.4751654863357544,-0.0723739340901374,-0.0162330791354179,0.0,0.0,0.4998655319213867,-0.0236337780952453
-0.0833460837602615,0.2382423281669616,0.0121297631412744,-0.4644243419170379,-0.0733353868126869,-0.0192290656268596,0.0,0.0,0.142516016960144,0.3095637559890747
-0.0832289680838584,0.2278340607881546,0.0126403030008077,-0.4626375436782837,-0.074252113699913,-0.0183348543941974,0.0,0.0,0.0867724418640136,-0.3097798228263855
-0.0830497741699218,0.2173077166080474,0.0184932444244623,-0.4678674340248108,-0.0748179927468299,-0.0113177327439188,0.0,0.0,0.5212647914886475,-0.7861567139625549
-0.082910731434822,0.2065651565790176,0.0127737624570727,-0.4773901104927063,-0.0736930295825004,0.0224991850554943,0.0,0.0,0.4834358692169189,0.0285302400588989
-0.082689382135868,0.1956700831651687,0.0205217935144901,-0.4841462671756744,-0.0720922499895095,0.0320156179368495,0.0,0.0,0.8526036739349365,-0.3197907209396362
-0.0822866410017013,0.1850310862064361,0.0377871207892894,-0.4727263748645782,-0.0696353539824485,0.0491377934813499,0.0,0.0,0.8393568992614746,-0.0365707874298095
-0.0817299857735633,0.1743488907814026,0.0523644983768463,-0.4746147394180298,-0.0663651302456855,0.0654043704271316,0.0,0.0,0.7891378402709961,0.3092864751815796
-0.0811588317155838,0.1642009168863296,0.0537379272282123,-0.4508747458457947,-0.0630255565047264,0.066791646182537,0.0,0.0,0.7236648797988892,-0.7709646821022034
-0.0805985480546951,0.1545619815587997,0.0509262010455131,-0.4281888604164123,-0.0579793974757194,0.1009231954813003,0.0,0.0,0.4038780927658081,0.7489454746246338
-0.0798656493425369,0.1450754702091217,0.0693997740745544,-0.4214803278446197,-0.0541395880281925,0.0767960399389267,0.0,0.0,0.5790492296218872,-0.2317627668380737
-0.0790593177080154,0.1353644430637359,0.0762025937438011,-0.4314468204975128,-0.0497491098940372,0.0878096595406532,0.0,0.0,0.6312391757965088,-0.6402021646499634
-0.078376293182373,0.1257290989160537,0.0625887215137481,-0.4280614554882049,-0.0441069416701793,0.1128433719277381,0.0,0.0,0.8628149032592773,-0.1039073467254638
-0.0775986686348915,0.116861492395401,0.071493461728096,-0.39394411444664,-0.0379141829907894,0.1238551884889602,0.0,0.0,0.4830026626586914,-0.0328290462493896
-0.076868250966072,0.1080772280693054,0.066757284104824,-0.3902665078639984,-0.0317069068551063,0.1241455450654029,0.0,0.0,0.8121755123138428,-0.6667138338088989
-0.0763576477766037,0.0999332517385482,0.0436665154993534,-0.361816793680191,-0.0244168043136596,0.1458019465208053,0.0,0.0,0.8177220821380615,0.9769868850708008
-0.0756938010454177,0.0922551974654197,0.0606881193816661,-0.341164082288742,-0.0187918078154325,0.1124998331069946,0.0,0.0,0.291539192199707,0.8109452724456787
-0.0750539749860763,0.0847783386707305,0.0598570182919502,-0.3322569131851196,-0.0147119984030723,0.0815964341163635,0.0,0.0,0.1905606985092163,0.8773782253265381
-0.0744594559073448,0.077433168888092,0.0570034608244895,-0.3264306187629699,-0.0122934067621827,0.0483717285096645,0.0,0.0,0.7241365909576416,0.7143851518630981
-0.0738859176635742,0.0701805427670478,0.0562842600047588,-0.3223333060741424,-0.0112357772886753,0.0211527235805988,0.0,0.0,0.9070385694503784,0.4513872861862182
-0.0734966248273849,0.0632872655987739,0.0383551754057407,-0.3063641786575317,-0.0106780556961894,0.0111546711996197,0.0,0.0,0.7920342683792114,0.9263632297515868
-0.0732689872384071,0.0565616451203823,0.0242393780499696,-0.298927366733551,-0.0121325394138693,-0.0290896538645029,0.0,0.0,0.8941957950592041,0.9790468215942384
-0.0728798881173133,0.0503897033631801,0.0420001819729805,-0.2743369042873382,-0.0151880607008934,-0.0611103884875774,0.0,0.0,0.670177698135376,0.4751651287078857
-0.0724862068891525,0.044091735035181,0.0420449338853359,-0.2799367904663086,-0.0178286507725715,-0.0528121180832386,0.0,0.0,0.8378863334655762,0.8430111408233643
-0.0718978866934776,0.0383827053010463,0.0627208799123764,-0.2537850141525268,-0.0216732863336801,-0.0768924728035926,0.0,0.0,0.2919332981109619,0.5945570468902588
-0.0713355094194412,0.0329039916396141,0.061234563589096,-0.2435811460018158,-0.0266068316996097,-0.0986706763505935,0.0,0.0,0.3678205013275146,0.4159097671508789
-0.0707043632864952,0.0277974940836429,0.0674223005771637,-0.2270393967628479,-0.0308615174144506,-0.0850937217473983,0.0,0.0,0.531846284866333,0.2999985218048095
-0.0700557678937912,0.0228094439953565,0.0687053650617599,-0.2217724621295929,-0.0346552766859531,-0.0758752599358558,0.0,0.0,0.4463582038879394,0.3320996761322021
-0.0694600120186805,0.0182093475013971,0.0633081272244453,-0.204539492726326,-0.0383432805538177,-0.0737602338194847,0.0,0.0,0.2404400110244751,0.7938827276229858
-0.068799689412117,0.0138120986521244,0.0711751729249954,-0.1955739706754684,-0.0434219203889369,-0.1015729680657386,0.0,0.0,0.3243598937988281,0.092708945274353
-0.0681332573294639,0.0092775197699666,0.0713449120521545,-0.2016790062189102,-0.048064574599266,-0.0928529351949691,0.0,0.0,0.314030647277832,0.3643600940704345
-0.067616082727909,0.0048028803430497,0.0567267909646034,-0.199039801955223,-0.0530190095305442,-0.0990887507796287,0.0,0.0,0.81644606590271,-0.2105361223220825
-0.0672007575631141,0.0012309289304539,0.0279986374080181,-0.1583290696144104,-0.0396384857594966,0.2676160633563995,1.0,0.0,0.8851375579833984,0.5651583671569824
-0.0666272193193435,-0.0014178776182234,0.027037451043725,-0.1172070056200027,-0.0096475686877965,0.5998848080635071,1.0,0.0,0.7596497535705566,0.4303685426712036
-0.0659558326005935,-0.0035229111090302,0.0264267120510339,-0.0937990397214889,0.0306044053286314,0.8051239848136902,1.0,1.0,0.9421919584274292,0.8797000646591187
-0.0652615576982498,-0.0051336670294404,0.0493633337318897,-0.0723971128463745,0.0485863797366619,0.3572904765605926,1.0,1.0,0.1809042692184448,0.1455268859863281
-0.0647287368774414,-0.005915799178183,0.0472324453294277,-0.0349761135876178,0.0545219928026199,0.1186675578355789,1.0,1.0,-0.1898882985115051,-0.1565470695495605
-0.0643235221505165,-0.0063221361488103,0.0373982973396778,-0.0181812811642885,0.0575891360640525,0.0613067969679832,1.0,1.0,-0.2883015871047973,0.2648260593414306
