x_pos,y_pos,x_vel,y_vel,angle,ang_vel,leg_1,leg_2,main_booster,lat_booster
-0.0015947341453284,1.403000831604004,-0.1616595387458801,-0.3519673645496368,0.0019600808154791,0.0386791490018367,0.0,0.0,0.2923828363418579,0.6968765258789062
-0.003162097884342,1.395019292831421,-0.1575037688016891,-0.3547367453575134,0.0027078567072749,0.0149579225108027,0.0,0.0,0.1054320335388183,0.7593077421188354
-0.0046405792236328,1.3868142366409302,-0.1473123431205749,-0.3646739721298218,0.0021859984844923,-0.0104383584111928,0.0,0.0,-0.1472413539886474,0.7677373886108398
-0.0061433790251612,1.3779829740524292,-0.1486523300409317,-0.3924979567527771,0.0005774747114628,-0.0321733281016349,0.0,0.0,0.1671069860458374,0.2268586158752441
-0.0076285363174974,1.369219183921814,-0.1474625170230865,-0.389498770236969,-0.0004653240030165,-0.0208581797778606,0.0,0.0,0.1575747728347778,0.886307954788208
-0.0090055465698242,1.3604011535644531,-0.1350482255220413,-0.3919152319431305,-0.0030760730151087,-0.0522200837731361,0.0,0.0,0.0763535499572753,-0.1861544847488403
-0.010469913482666,1.3515238761901855,-0.1438512504100799,-0.3945497572422027,-0.0056340037845075,-0.0511634536087513,0.0,0.0,0.1782314777374267,0.8489780426025391
-0.0118160247802734,1.3427162170410156,-0.1305345445871353,-0.3914776444435119,-0.0096631376072764,-0.080590471625328,0.0,0.0,0.1137424707412719,0.6351108551025391
-0.0131902694702148,1.3341373205184937,-0.1321809142827987,-0.3813203275203705,-0.0148487063124775,-0.1037208437919616,0.0,0.0,-0.0514889955520629,0.4126181602478027
-0.0146392825990915,1.3249353170394895,-0.1397725343704223,-0.4090429842472076,-0.0199238564819097,-0.1015120595693588,0.0,0.0,0.1288609504699707,0.6688566207885742
-0.0160361286252737,1.315716028213501,-0.1334133744239807,-0.4098382890224457,-0.0261295586824417,-0.1241253018379211,0.0,0.0,-0.3416234850883484,0.3849689960479736
-0.0175084117799997,1.3058736324310305,-0.1410437226295471,-0.4375627934932709,-0.0322343260049819,-0.1221067085862159,0.0,0.0,0.3518688678741455,0.1716675758361816
-0.0189310070127248,1.2962608337402344,-0.1366985887289047,-0.4273609519004822,-0.037740234285593,-0.1101285070180893,0.0,0.0,0.0371357202529907,0.6895401477813721
-0.0203172676265239,1.2863467931747437,-0.1318162530660629,-0.4408150613307953,-0.044477742165327,-0.1347621530294418,0.0,0.0,0.2792986631393432,-0.0021020174026489
-0.0216419212520122,1.2767587900161743,-0.126259833574295,-0.4263284504413605,-0.0506157912313938,-0.1227721124887466,0.0,0.0,-0.4716659784317016,0.2267189025878906
-0.0230425838381052,1.266547441482544,-0.1339530050754547,-0.4540549516677856,-0.0566762313246727,-0.1212198138236999,0.0,0.0,-0.5265023708343506,0.5387351512908936
-0.0244672782719135,1.255715012550354,-0.1350891292095184,-0.4817404747009277,-0.0639775171875953,-0.1460388749837875,0.0,0.0,0.2458866834640503,0.3478367328643799
-0.0258429534733295,1.244672179222107,-0.1307807266712188,-0.4911001324653625,-0.0707083046436309,-0.1346275806427002,0.0,0.0,-0.4366340637207031,-0.3869845271110534
-0.0272953025996685,1.233006238937378,-0.1385034173727035,-0.5188246369361877,-0.0773796141147613,-0.1334381401538849,0.0,0.0,0.5691838264465332,0.9142788648605348
-0.0287967678159475,1.2215222120285034,-0.1415298879146576,-0.5108616352081299,-0.085930086672306,-0.171024888753891,0.0,0.0,0.2385482788085937,0.6995682716369629
-0.0301642417907714,1.2102419137954712,-0.1269399225711822,-0.501928985118866,-0.0956708192825317,-0.1948325932025909,0.0,0.0,-0.5310072898864746,0.4752604961395263
-0.0316086784005165,1.198339343070984,-0.1346754282712936,-0.5296585559844971,-0.1053695976734161,-0.1939926743507385,0.0,0.0,-0.4926093816757202,-0.0418861508369445
-0.0331298820674419,1.1858141422271729,-0.1424152851104736,-0.5573829412460327,-0.1150324493646621,-0.1932743340730667,0.0,0.0,0.0598244667053222,-0.3819806575775146
-0.0346607193350791,1.172957181930542,-0.1436177641153335,-0.5721740126609802,-0.1244571581482887,-0.1885106712579727,0.0,0.0,0.6336338520050049,0.1650593280792236
-0.0363289825618267,1.160451054573059,-0.1567484885454177,-0.5566976070404053,-0.13450887799263,-0.2010523527860641,0.0,0.0,0.4870995283126831,-0.0090937614440917
-0.03812151029706,1.1482700109481812,-0.1685808002948761,-0.5423867702484131,-0.1451493501663208,-0.2128092944622039,0.0,0.0,0.373988389968872,0.5108323097229004
-0.039860438555479,1.136357069015503,-0.1622380018234253,-0.5306394100189209,-0.1567903310060501,-0.2328195869922638,0.0,0.0,0.4028398990631103,0.3188403844833374
-0.0416771881282329,1.1248867511749268,-0.1695204526185989,-0.5111204981803894,-0.1689393669366836,-0.2429806888103485,0.0,0.0,-0.6072990298271179,0.0025639533996582
-0.0435713753104209,1.1127947568893433,-0.17730113863945,-0.5388478636741638,-0.1810888200998306,-0.2429887801408767,0.0,0.0,-0.3661816120147705,0.4754713773727417
-0.0455430969595909,1.100080966949463,-0.1850811243057251,-0.566575288772583,-0.1932441145181656,-0.2431059628725052,0.0,0.0,0.756943941116333,-0.1873548030853271
-0.0474000945687294,1.0880651473999023,-0.1737051606178283,-0.5356401801109314,-0.2053185105323791,-0.2414879500865936,0.0,0.0,-0.0223148465156555,-0.5308755040168762
-0.0493814460933208,1.075439214706421,-0.1873520463705063,-0.5626932382583618,-0.2162060886621475,-0.2177513837814331,0.0,0.0,0.7278199195861816,0.2283614873886108
-0.051344871520996,1.063447117805481,-0.1851761490106582,-0.5346532464027405,-0.2275139987468719,-0.2261577844619751,0.0,0.0,-0.8779361844062805,-0.4693007469177246
-0.0533861145377159,1.0508331060409546,-0.1929450631141662,-0.5623792409896851,-0.2388471513986587,-0.2266629189252853,0.0,0.0,0.4880280494689941,-0.8364471197128296
-0.0554191581904888,1.0384399890899658,-0.1938128918409347,-0.5523834228515625,-0.2484982907772064,-0.1930231600999832,0.0,0.0,0.6009731292724609,-0.5111662149429321
-0.0573698058724403,1.0265015363693235,-0.1866246908903122,-0.5320495367050171,-0.2570966780185699,-0.1719679981470108,0.0,0.0,-0.1682456731796264,-0.232722520828247
-0.0593981742858886,1.013940691947937,-0.1943752467632293,-0.5597713589668274,-0.2657323181629181,-0.1727126538753509,0.0,0.0,0.7065976858139038,-0.1124274134635925
-0.0612596496939659,1.0018799304962158,-0.1778503507375717,-0.5375702977180481,-0.2742268443107605,-0.1698907315731048,0.0,0.0,-0.0184196829795837,-0.7974618673324585
-0.0632614120841026,0.9892318844795228,-0.1935502588748932,-0.5633894801139832,-0.281034916639328,-0.1361616551876068,0.0,0.0,0.3011691570281982,-0.8772966265678406
-0.0652498230338096,0.9766701459884644,-0.1939167827367782,-0.55925452709198,-0.2860896587371826,-0.1010946482419967,0.0,0.0,0.9867231845855712,0.4514579772949219
-0.0671746283769607,0.9648871421813964,-0.1869445145130157,-0.5247875452041626,-0.2917883396148681,-0.113973781466484,0.0,0.0,0.781794548034668,-0.5711883902549744
-0.0689214691519737,0.953248918056488,-0.1705973297357559,-0.5180818438529968,-0.296002447605133,-0.0842823386192321,0.0,0.0,0.2447450160980224,-0.4495638012886047
-0.0706067085266113,0.9412944316864014,-0.1647179722785949,-0.5320895314216614,-0.2999330759048462,-0.0786123275756836,0.0,0.0,-0.6266114115715027,-0.5616295337677002
-0.0724047645926475,0.9287320971488952,-0.1768648028373718,-0.5589383840560913,-0.3029680550098419,-0.0606995895504951,0.0,0.0,-0.0496535897254943,-0.4401713609695434
-0.07427978515625,0.9155463576316832,-0.1845209300518036,-0.5866557955741882,-0.3060625791549682,-0.0618900135159492,0.0,0.0,0.5861291885375977,-0.7625089287757874
-0.0761476531624794,0.9021939635276794,-0.1853115856647491,-0.5937490463256836,-0.3075884878635406,-0.0305179301649332,0.0,0.0,-0.1684567928314209,-0.3329640626907348
-0.0780922919511795,0.8882184624671936,-0.1929300725460052,-0.6214659214019775,-0.3091777563095093,-0.0317852012813091,0.0,0.0,0.0312833786010742,-0.7369341254234314
-0.080085851252079,0.8744340538978577,-0.1991758644580841,-0.6126773357391357,-0.309366911649704,-0.0037829764187335,0.0,0.0,0.0507508516311645,-0.6540889143943787
-0.0821421593427658,0.8608152866363525,-0.2065846621990203,-0.6050772070884705,-0.3083809018135071,0.019719760864973,0.0,0.0,-0.1167712211608886,-0.3982697129249573
-0.0842745751142501,0.8465731143951416,-0.2141320258378982,-0.6327941417694092,-0.3074631094932556,0.0183560736477375,0.0,0.0,-0.2376911044120788,-0.5956059694290161
-0.0865170508623123,0.8317239880561829,-0.2259507179260254,-0.6596083045005798,-0.3056909441947937,0.035443015396595,0.0,0.0,-0.7121641635894775,-0.5138093829154968
-0.0888765305280685,0.8162745833396912,-0.2387038469314575,-0.6860580444335938,-0.3028398752212524,0.0570210926234722,0.0,0.0,0.083369493484497,-0.0113305449485778
-0.0911558121442794,0.8005874752998352,-0.2309409081935882,-0.6965838074684143,-0.2997293472290039,0.0622108988463878,0.0,0.0,-0.1048905253410339,-0.5488863587379456
-0.0935500115156173,0.7843009829521179,-0.2434407174587249,-0.7230186462402344,-0.2955761849880218,0.0830635204911232,0.0,0.0,0.7206510305404663,0.1265082359313964
-0.0957222953438758,0.768052339553833,-0.2218737304210662,-0.7212249040603638,-0.2907795011997223,0.0959335938096046,0.0,0.0,0.3735330104827881,-0.1806392669677734
-0.0979322418570518,0.751777708530426,-0.2252264469861984,-0.7224770188331604,-0.2864256203174591,0.0870770663022995,0.0,0.0,0.6211069822311401,0.258246898651123
-0.099906250834465,0.7359662652015686,-0.2019771635532379,-0.7018412351608276,-0.2817213833332062,0.0940845236182212,0.0,0.0,0.0885415077209472,-0.3176807165145874
-0.1017423644661903,0.7201341986656189,-0.1885250955820083,-0.7027096152305603,-0.2766738533973694,0.1009510904550552,0.0,0.0,0.427976131439209,-0.0177531838417053
-0.1033943146467208,0.7046794295310974,-0.1703324317932129,-0.685912549495697,-0.2714057862758636,0.1053608804941177,0.0,0.0,0.5310159921646118,0.2396892309188842
-0.1049907654523849,0.6896824836730957,-0.1643948405981063,-0.6656612753868103,-0.2665433585643768,0.0972487032413482,0.0,0.0,-0.2173974514007568,-0.0661841630935669
-0.106658361852169,0.6740624308586121,-0.1714297533035278,-0.6933801174163818,-0.2617609202861786,0.09564870595932,0.0,0.0,0.465600848197937,-0.3309420347213745
-0.1083210930228233,0.6587554216384888,-0.1704732179641723,-0.679567277431488,-0.2574709057807922,0.0858007743954658,0.0,0.0,-0.0820674896240234,-0.0114181041717529
-0.1100532561540603,0.6428253650665283,-0.1773470789194107,-0.7072855830192566,-0.2532626390457153,0.0841646194458007,0.0,0.0,0.4171078205108642,-0.3484869599342346
-0.1117027252912521,0.6270281076431274,-0.1690889596939087,-0.7013940811157227,-0.24904365837574,0.0843794122338295,0.0,0.0,0.9293040037155152,0.3496654033660888
-0.1132956519722938,0.6112849116325378,-0.1633882820606231,-0.6990116834640503,-0.244866132736206,0.0835503861308097,0.0,0.0,0.8036136627197266,0.1561559438705444
-0.1149296760559082,0.5959064364433289,-0.1668145358562469,-0.682917594909668,-0.241398423910141,0.0693540275096893,0.0,0.0,0.8974747657775879,-0.5523145198822021
-0.1164098754525184,0.5813490152359009,-0.1525217592716217,-0.646263062953949,-0.2368218004703521,0.0915322080254554,0.0,0.0,0.4211256504058838,0.2305984497070312
-0.1178263649344444,0.5665106177330017,-0.146402508020401,-0.6587321162223816,-0.2320052534341812,0.0963310748338699,0.0,0.0,0.8705898523330688,-0.2712502479553222
-0.1190535575151443,0.5524495244026184,-0.1275217831134796,-0.6241875886917114,-0.2271348983049392,0.0974070578813552,0.0,0.0,0.2088270187377929,-0.1824793219566345
-0.1203310042619705,0.5382949113845825,-0.1321493536233902,-0.6284246444702148,-0.2226718962192535,0.0892600789666175,0.0,0.0,0.5055873394012451,8.64267349243164e-05
-0.1216133087873458,0.5244475603103638,-0.1321684271097183,-0.6148474216461182,-0.2186860144138336,0.0797176510095596,0.0,0.0,0.3965835571289062,0.0309023857116699
-0.1228137984871864,0.5107390284538269,-0.1240248531103134,-0.6086870431900024,-0.2146711200475692,0.0802981331944465,0.0,0.0,0.7461299896240234,0.0187801122665405
-0.124013140797615,0.4977589249610901,-0.1231863647699356,-0.5764230489730835,-0.2113785296678543,0.0658514201641082,0.0,0.0,0.8650252819061279,0.0799289941787719
-0.1250482499599456,0.485085666179657,-0.1070706024765968,-0.5627552270889282,-0.2077962309122085,0.0716463252902031,0.0,0.0,-0.7964145541191101,0.7149863243103027
-0.1260837614536285,0.4717671871185303,-0.1056597083806991,-0.5916380286216736,-0.2056706398725509,0.0425114259123802,0.0,0.0,0.7832608222961426,0.7964084148406982
-0.1269578039646148,0.4582884609699249,-0.0879767835140228,-0.598974883556366,-0.2050905525684356,0.0116017740219831,0.0,0.0,0.7703602313995361,-0.1626996397972107
-0.1278376579284668,0.4447308778762817,-0.0883126258850097,-0.6025139689445496,-0.2047656029462814,0.0064987912774086,0.0,0.0,0.9501512050628662,-0.1902465224266052
-0.1285810470581054,0.4319280087947845,-0.0745106488466262,-0.5689894556999207,-0.2045866101980209,0.0035799872130155,0.0,0.0,0.8722031116485596,-0.5414576530456543
-0.1291245520114898,0.4198485612869262,-0.0557888858020305,-0.5366669297218323,-0.2031424343585968,0.0288833864033222,0.0,0.0,0.2065329551696777,-0.1001810431480407
-0.1296663284301757,0.4080475568771362,-0.0551314242184162,-0.5243592858314514,-0.2021811604499817,0.0192254278808832,0.0,0.0,0.3195154666900635,-0.4853630065917969
-0.1302915513515472,0.396043062210083,-0.0628902614116668,-0.5334810018539429,-0.2018036693334579,0.0075499154627323,0.0,0.0,0.8092764616012573,0.2292300462722778
-0.1307319700717926,0.3846741914749145,-0.0445061363279819,-0.5052198171615601,-0.2013295590877533,0.0094823269173502,0.0,0.0,0.8353922367095947,-0.7696083188056946
-0.1312529593706131,0.3736766576766968,-0.0537368468940258,-0.4885569512844085,-0.1996791809797287,0.0330071970820426,0.0,0.0,0.8482569456100464,0.4477075338363647
-0.1317087113857269,0.3631889224052429,-0.0468251965939998,-0.4659539461135864,-0.1984243541955948,0.0250963121652603,0.0,0.0,0.4088717699050903,0.1173741817474365
-0.1320784538984298,0.3529578447341919,-0.0380609557032585,-0.4545696973800659,-0.1973307132720947,0.0218729451298713,0.0,0.0,0.4633536338806152,0.475136399269104
-0.1322892159223556,0.3428387641906738,-0.0224044471979141,-0.449561059474945,-0.1959959417581558,0.0266955085098743,0.0,0.0,0.4070665836334228,-0.3763618469238281
-0.1324375122785568,0.3325194120407104,-0.0161262862384319,-0.4584650099277496,-0.1946860998868942,0.0261971242725849,0.0,0.0,0.0867239236831665,-0.6348370909690857
-0.1325270682573318,0.3219566345214844,-0.0114905936643481,-0.469124436378479,-0.1921391785144806,0.0509382970631122,0.0,0.0,0.498461365699768,-0.3819570541381836
-0.1323930770158767,0.3114951848983764,0.0103721739724278,-0.4645681083202362,-0.1890976577997207,0.0608306936919689,0.0,0.0,0.5401924848556519,-0.2296205759048462
-0.1320648193359375,0.3009154796600342,0.0293257571756839,-0.4697640240192413,-0.1855797320604324,0.0703583806753158,0.0,0.0,0.8168962001800537,-0.8714774250984192
-0.1316562592983245,0.290958046913147,0.0357438661158084,-0.441924124956131,-0.1804484128952026,0.1026264280080795,0.0,0.0,-0.5387537479400635,-0.495167076587677
-0.1312424689531326,0.2803776264190674,0.0363929793238639,-0.4696432948112488,-0.1754459291696548,0.1000495553016662,0.0,0.0,0.716954231262207,-0.2541015148162842
-0.1305710822343826,0.2701642513275146,0.0616721622645854,-0.4532915651798248,-0.169975608587265,0.109406366944313,0.0,0.0,0.4043723344802856,-0.4582405090332031
-0.1297555863857269,0.2597166001796722,0.0758239030838012,-0.4637002944946289,-0.1642414033412933,0.1146841496229171,0.0,0.0,0.4625574350357055,-0.4877409934997558
-0.1288957595825195,0.2493244260549545,0.0805907100439071,-0.4612875580787658,-0.1588568240404129,0.1076917797327041,0.0,0.0,-0.1274576187133789,0.090549349784851
-0.1280160844326019,0.2383093386888504,0.0827142894268035,-0.4890068471431732,-0.1536082625389099,0.1049709692597389,0.0,0.0,0.910327672958374,-0.2382734417915344
-0.1270390450954437,0.2276530414819717,0.0927129834890365,-0.47310870885849,-0.1486220061779022,0.0997254699468612,0.0,0.0,0.6130332946777344,-0.1111127138137817
-0.1260404586791992,0.2175527662038803,0.0955617576837539,-0.4484768211841583,-0.1443366855382919,0.0857063457369804,0.0,0.0,0.3271012306213379,-0.4375314712524414
-0.1248623877763748,0.2076463997364044,0.113336443901062,-0.4398525059223175,-0.1398680955171585,0.0893718153238296,0.0,0.0,0.3863754272460937,-0.8495875597000122
-0.123679831624031,0.1980830729007721,0.1122535318136215,-0.4244862496852875,-0.133896455168724,0.1194332093000412,0.0,0.0,-0.091825246810913,-0.5950741171836853
-0.1225142478942871,0.1879120022058487,0.1093366593122482,-0.4514196217060089,-0.1267126351594925,0.1436764299869537,0.0,0.0,0.6587114334106445,-0.0902543067932128
-0.1212718933820724,0.1778668016195297,0.1172747015953064,-0.4458769559860229,-0.1197871640324592,0.1385094225406646,0.0,0.0,0.7969847917556763,-0.5207805037498474
-0.1200851425528526,0.1682052016258239,0.1111987829208374,-0.4288230836391449,-0.1123509630560875,0.1487239748239517,0.0,0.0,0.1418380737304687,-0.4205396771430969
-0.1189175620675087,0.1584779322147369,0.1098893508315086,-0.4318234622478485,-0.1055396273732185,0.1362270265817642,0.0,0.0,0.8136167526245117,-0.4600032567977905
-0.1175056472420692,0.1492862552404403,0.1339334845542907,-0.4080245792865753,-0.098334364593029,0.1441051810979843,0.0,0.0,0.437922716140747,-0.5656707286834717
-0.116001509130001,0.1399445086717605,0.1420235633850097,-0.4146612286567688,-0.090015061199665,0.1663864105939865,0.0,0.0,0.3312644958496094,-0.7265767455101013
-0.1143189445137977,0.1308944523334503,0.1583505719900131,-0.401655375957489,-0.0801980197429657,0.1963405758142471,0.0,0.0,0.6395952701568604,-0.4185050725936889
-0.1125455871224403,0.1223764717578888,0.1676767617464065,-0.3780868351459503,-0.0706295743584632,0.1913689374923706,0.0,0.0,-0.0654579997062683,-0.9584001302719116
-0.110775850713253,0.1132536008954048,0.1659706234931945,-0.404975563287735,-0.0597452037036418,0.2176874428987503,0.0,0.0,0.7933614253997803,-0.8184641003608704
-0.1088871955871582,0.1044489443302154,0.1761711537837982,-0.3908608853816986,-0.0471974536776542,0.2509550452232361,0.0,0.0,0.7863526344299316,0.0123032331466674
-0.1069080382585525,0.0963461026549339,0.18539360165596,-0.359778344631195,-0.0348272919654846,0.2474032640457153,0.0,0.0,0.7491447925567627,-0.5124492049217224
-0.1048139557242393,0.0888749659061431,0.1957913935184478,-0.3317882716655731,-0.0213832985609769,0.2688795328140259,0.0,0.0,0.2837071418762207,-0.3368735313415527
-0.1025903671979904,0.0813150033354759,0.2085850238800048,-0.3358598947525024,-0.0077889785170555,0.2718866467475891,0.0,0.0,0.6438801288604736,-0.2708234786987304
-0.1004233360290527,0.0740579441189765,0.2036504447460174,-0.3225169777870178,0.0051045580767095,0.2578704953193664,0.0,0.0,0.7851588726043701,-0.6667050719261169
-0.0984002128243446,0.0670106709003448,0.1884122192859649,-0.3133160173892975,0.0188286304473876,0.2744814753532409,0.0,0.0,0.6975996494293213,0.7699873447418213
-0.0962887778878212,0.0602112375199794,0.198982298374176,-0.3023912608623504,0.0308392774313688,0.2402128428220749,0.0,0.0,0.876093864440918,-0.4517679810523987
-0.094102956354618,0.0536996945738792,0.2064150273799896,-0.2896954119205475,0.0428537502884864,0.2402895390987396,0.0,0.0,0.9461438655853271,-0.1953172087669372
-0.09171724319458,0.0472112521529197,0.2258267700672149,-0.2887899577617645,0.0554493702948093,0.2519124150276184,0.0,0.0,0.9747133255004884,-0.5099340677261353
-0.0892292037606239,0.0413345657289028,0.2347963601350784,-0.2617616951465606,0.0693057030439376,0.2771264910697937,0.0,0.0,0.9323354959487916,-0.22042977809906
-0.0867113098502159,0.036251600831747,0.2377815693616867,-0.2266179025173187,0.0831716880202293,0.277319848537445,0.0,0.0,0.731299638748169,-0.7180625200271606
