x_pos,y_pos,x_vel,y_vel,angle,ang_vel,leg_1,leg_2,main_booster,lat_booster
-0.0016621589893475,1.4029619693756104,-0.1683346629142761,-0.353700041770935,0.0018891541985794,0.0372750051319599,0.0,0.0,0.0295342206954956,0.8647582530975342
-0.0033588409423828,1.394791603088379,-0.1698537319898605,-0.3631301820278168,0.0020667349454015,0.0035527676809579,0.0,0.0,-0.0697168707847595,0.7643227577209473
-0.0051225661300122,1.385952711105347,-0.174735814332962,-0.392840564250946,0.0004479054769035,-0.0323794484138488,0.0,0.0,0.4096465110778808,0.8434768915176392
-0.0070755956694483,1.3770878314971924,-0.1918839514255523,-0.3939947485923767,-0.0029358030296862,-0.0676807314157486,0.0,0.0,0.0033910274505615,0.8716518878936768
-0.0090069770812988,1.368156671524048,-0.1880521029233932,-0.3969607949256897,-0.0079630743712186,-0.1005547493696212,0.0,0.0,0.0800592899322509,0.7575335502624512
-0.0109139438718557,1.3590927124023438,-0.1842716634273529,-0.4028879404067993,-0.0143155734986066,-0.1270618587732315,0.0,0.0,0.2150056362152099,0.3732033967971802
-0.0129729267209768,1.350003957748413,-0.1994965672492981,-0.4040164351463318,-0.0206497050821781,-0.1266943514347076,0.0,0.0,-0.6563840508460999,0.6997575759887695
-0.0151050565764307,1.340253233909607,-0.2051623165607452,-0.4334997236728668,-0.028603795915842,-0.1590965688228607,0.0,0.0,-0.7599815130233765,0.6199519634246826
-0.0173310283571481,1.3298454284667969,-0.2134639322757721,-0.4627660512924194,-0.0376400388777256,-0.1807413846254348,0.0,0.0,-0.4083790779113769,0.9570512771606444
-0.0196237564086914,1.3187779188156128,-0.2183500975370407,-0.4921932816505432,-0.0484386384487152,-0.2159921824932098,0.0,0.0,-0.0395093560218811,0.8621711730957031
-0.021980857476592,1.3070447444915771,-0.2229773104190826,-0.521938681602478,-0.0610487572848796,-0.2522256374359131,0.0,0.0,-0.6473920345306396,0.9095361232757568
-0.0244002342224121,1.2946420907974243,-0.2273297011852264,-0.5518921613693237,-0.0755230337381362,-0.2895120680332184,0.0,0.0,0.1465740203857422,0.9245672225952148
-0.0267462730407714,1.28229022026062,-0.218352273106575,-0.5498706698417664,-0.0916385501623153,-0.3223401606082916,0.0,0.0,-0.3175079226493835,0.5696200132369995
-0.0291848182678222,1.2692668437957764,-0.2265262603759765,-0.5799644589424133,-0.1088457182049751,-0.3441751003265381,0.0,0.0,-0.3153634667396545,0.0979121923446655
-0.0317651741206646,1.255584478378296,-0.2409302294254303,-0.6094346642494202,-0.1258719116449356,-0.340555191040039,0.0,0.0,0.5912772417068481,0.2358877658843994
-0.0343467704951763,1.241649150848389,-0.2417711913585662,-0.6208131909370422,-0.1422124952077865,-0.3268418610095978,0.0,0.0,0.4263365268707275,0.2644861936569214
-0.0368477813899517,1.2281254529953003,-0.2345048189163208,-0.6026204824447632,-0.1577975898981094,-0.3117304444313049,0.0,0.0,0.0355966091156005,0.6269997358322144
-0.0393056869506835,1.214248776435852,-0.2293106764554977,-0.618564248085022,-0.1743110865354538,-0.3302998840808868,0.0,0.0,-0.336948037147522,-0.8394160866737366
-0.0419589057564735,1.199734449386597,-0.2505133748054504,-0.6468822956085205,-0.1891974210739135,-0.2977535128593445,0.0,0.0,0.8172101974487305,-0.6537240147590637
-0.0447813048958778,1.1855182647705078,-0.2687485516071319,-0.6336208581924438,-0.2027941346168518,-0.2719583511352539,0.0,0.0,0.1285709142684936,-0.7888000011444092
-0.0476037040352821,1.171389102935791,-0.2706515491008758,-0.6295908689498901,-0.2145058363676071,-0.234255164861679,0.0,0.0,0.3853917121887207,-0.6003509163856506
-0.0505249015986919,1.1571502685546875,-0.2820048332214355,-0.6343382000923157,-0.2247594594955444,-0.2050906121730804,0.0,0.0,0.6449871063232422,0.1922067403793335
-0.0533408150076866,1.1429986953735352,-0.2723165452480316,-0.6303947567939758,-0.2341742664575576,-0.18831267952919,0.0,0.0,0.8648593425750732,0.2851040363311767
-0.0561395660042762,1.128671407699585,-0.2712183892726898,-0.6381686329841614,-0.2429796755313873,-0.1761239171028137,0.0,0.0,0.9238747358322144,-0.6331152319908142
-0.0591193214058876,1.114856243133545,-0.2903706729412079,-0.6152791976928711,-0.2507219910621643,-0.1548599600791931,0.0,0.0,0.2200347185134887,-0.0642517209053039
-0.0622187629342079,1.1011532545089722,-0.3021126985549927,-0.6103829145431519,-0.2587087750434875,-0.1597349941730499,0.0,0.0,0.5262736082077026,0.366320252418518
-0.0652837753295898,1.0877593755722046,-0.2989603877067566,-0.596636176109314,-0.2664226591587066,-0.1542778313159942,0.0,0.0,0.7640433311462402,-0.3663370609283447
-0.0683918967843055,1.0750329494476318,-0.302901417016983,-0.5670756101608276,-0.2745219469070434,-0.1619860827922821,0.0,0.0,-0.2461605072021484,0.1859632730484008
-0.0716400146484375,1.0616439580917358,-0.3171817064285278,-0.5965225696563721,-0.2823579907417297,-0.1567207723855972,0.0,0.0,0.5080034732818604,0.0392065048217773
-0.0749222785234451,1.048241376876831,-0.3207782506942749,-0.5971351861953735,-0.2900165915489197,-0.1531721204519271,0.0,0.0,0.7541320323944092,-0.2660797238349914
-0.0780675858259201,1.035459280014038,-0.307456910610199,-0.5695183873176575,-0.2973146438598633,-0.1459610164165496,0.0,0.0,0.7431802749633789,-0.422509491443634
-0.0812946334481239,1.022713541984558,-0.3155463337898254,-0.5679627060890198,-0.3047213852405548,-0.148134559392929,0.0,0.0,-0.1297052502632141,0.0457218885421752
-0.0846600532531738,1.009304761886597,-0.3296529650688171,-0.5974079966545105,-0.3118550181388855,-0.1426727473735809,0.0,0.0,-0.0869069099426269,0.1936535835266113
-0.0881631821393966,0.995232880115509,-0.3437055349349975,-0.6268526911735535,-0.3187137842178345,-0.1371756792068481,0.0,0.0,-0.1652855277061462,-0.0592573285102844
-0.0918033570051193,0.9804978966712952,-0.3576993644237518,-0.6562968492507935,-0.3252962231636047,-0.1316489726305008,0.0,0.0,0.0741498470306396,0.5229742527008057
-0.0953707695007324,0.9657763838768004,-0.349688857793808,-0.6558927297592163,-0.3326424956321716,-0.1469251960515976,0.0,0.0,-0.1993985176086425,-0.0592150688171386
-0.0990738868713378,0.9503917694091796,-0.3635507524013519,-0.6853370666503906,-0.3397102057933807,-0.1413543969392776,0.0,0.0,-0.6682794690132141,0.7449288368225098
-0.102851964533329,0.9343184232711792,-0.369791030883789,-0.7162887454032898,-0.3481134176254272,-0.1680649220943451,0.0,0.0,0.9546141624450684,0.8581058979034424
-0.1064063087105751,0.9189881682395936,-0.3459544479846954,-0.6836680769920349,-0.358085423707962,-0.199439987540245,0.0,0.0,0.6019632816314697,0.189505934715271
-0.1098617538809776,0.903808891773224,-0.3364727199077606,-0.676924467086792,-0.3676508963108063,-0.191309705376625,0.0,0.0,0.9932026863098145,0.8178735971450806
-0.1131809204816818,0.8893293738365173,-0.3212913572788238,-0.646306574344635,-0.3789080381393432,-0.225143626332283,0.0,0.0,0.8444075584411621,0.667015790939331
-0.116228774189949,0.8748889565467834,-0.2935195863246918,-0.6448287963867188,-0.3909066915512085,-0.2399733811616897,0.0,0.0,0.8931722640991211,-0.4555579423904419
-0.1191669479012489,0.8602210879325867,-0.283343493938446,-0.6548240184783936,-0.4021118581295013,-0.2241035997867584,0.0,0.0,0.8530561923980713,-0.5283627510070801
-0.1219319328665733,0.8456628918647766,-0.2676483690738678,-0.6495676636695862,-0.4116128385066986,-0.1900197267532348,0.0,0.0,0.915980100631714,-0.8204849362373352
-0.1247969642281532,0.8309718370437622,-0.2794295847415924,-0.6550232768058777,-0.4192529618740082,-0.1528026759624481,0.0,0.0,0.9468433856964112,-0.2179976105690002
-0.1275791227817535,0.8161236643791199,-0.2716469764709472,-0.6618896722793579,-0.4263676404953003,-0.1422934234142303,0.0,0.0,0.8612282276153564,-0.7638025283813477
-0.1302661895751953,0.8012862801551819,-0.2640101313591003,-0.6608679294586182,-0.4314699172973633,-0.1020447015762329,0.0,0.0,0.9619086980819702,-0.5468226075172424
-0.1328290998935699,0.7872551083564758,-0.2525260150432586,-0.6247684955596924,-0.4355596601963043,-0.0817947313189506,0.0,0.0,0.7119786739349365,-0.594805896282196
-0.1353445947170257,0.7737982869148254,-0.2488583326339721,-0.5989189147949219,-0.4384968280792236,-0.0587435960769653,0.0,0.0,0.9336955547332764,-0.7182404398918152
-0.1378041207790374,0.7605370283126831,-0.2448187321424484,-0.5897485613822937,-0.4397346973419189,-0.0247572660446167,0.0,0.0,0.9411464929580688,-0.5982722640037537
-0.1399772614240646,0.7474372386932373,-0.2179968655109405,-0.5819928646087646,-0.4389778971672058,0.0151357594877481,0.0,0.0,0.9798791408538818,-0.7431027293205261
-0.1420111656188964,0.734961211681366,-0.2055985629558563,-0.5537999272346497,-0.4365739822387695,0.0480782091617584,0.0,0.0,0.9674808979034424,-0.7102035284042358
-0.1438611000776291,0.7224836945533752,-0.1891022622585296,-0.553283154964447,-0.4321023225784302,0.0894340798258781,0.0,0.0,0.887204647064209,-0.85946124792099
-0.1454979926347732,0.7106307744979858,-0.169702261686325,-0.5249659419059753,-0.4255662262439728,0.130721241235733,0.0,0.0,0.9173011779785156,-0.7984725832939148
-0.1468984633684158,0.698806881904602,-0.148213118314743,-0.5230655670166016,-0.4167309105396271,0.1767061501741409,0.0,0.0,0.9418985843658448,-0.8020522594451904
-0.1483536660671234,0.6871888041496277,-0.1552545428276062,-0.513512372970581,-0.4062402546405792,0.2098126709461212,0.0,0.0,0.9260745048522948,-0.4618421792984009
-0.1494470536708831,0.6761237978935242,-0.1198252215981483,-0.4888119995594024,-0.3949944674968719,0.224915936589241,0.0,0.0,0.9328420162200928,-0.3572548627853393
-0.1501912176609039,0.665395975112915,-0.0858857780694961,-0.4736582040786743,-0.382757306098938,0.2447432279586792,0.0,0.0,0.640294075012207,-0.2417100667953491
-0.1506619453430175,0.655102014541626,-0.0591546185314655,-0.454319030046463,-0.3699363470077514,0.25641930103302,0.0,0.0,0.125185489654541,-0.3852648138999939
-0.1510855704545974,0.6449230909347534,-0.0544909313321113,-0.4493172466754913,-0.3571186661720276,0.2563534379005432,0.0,0.0,-0.2089202404022216,-0.1755674481391906
-0.1516040861606598,0.6340824961662292,-0.0642726048827171,-0.4787710011005401,-0.344068706035614,0.2609994411468506,0.0,0.0,0.4742592573165893,-0.0001542568206787
-0.152087777853012,0.6235094666481018,-0.0606595762073993,-0.4670265018939972,-0.3312049508094787,0.2572748064994812,0.0,0.0,-0.0887584090232849,0.2535437345504761
-0.1526601761579513,0.6122750639915466,-0.0698114708065986,-0.4964812099933624,-0.3181183636188507,0.2617319524288177,0.0,0.0,-0.1010806560516357,0.4607945680618286
-0.1533182114362716,0.6003792881965637,-0.0786299481987953,-0.5259367823600769,-0.3048140108585357,0.2660871148109436,0.0,0.0,0.292708158493042,0.2412624359130859
-0.1539583206176757,0.588268518447876,-0.0771324187517166,-0.5355642437934875,-0.2912689745426178,0.2709013521671295,0.0,0.0,0.1988477706909179,-0.186953067779541
-0.1546400040388107,0.5761515498161316,-0.0811322405934333,-0.5359958410263062,-0.2779326140880584,0.2667277455329895,0.0,0.0,0.8099437952041626,0.4503266811370849
-0.1551167517900467,0.5647162795066833,-0.0609967336058616,-0.5057591199874878,-0.264286458492279,0.2729231715202331,0.0,0.0,-0.3814191818237304,0.7006245851516724
-0.1556057929992675,0.5525873303413391,-0.0608743615448474,-0.5369540452957153,-0.2520646750926971,0.2444357872009277,0.0,0.0,-0.4695879220962524,0.2044856548309326
-0.1561623513698578,0.5397971272468567,-0.0678506419062614,-0.5664098858833313,-0.2396540641784668,0.2482123076915741,0.0,0.0,0.7840473651885986,0.8645981550216675
-0.1567047089338302,0.5271023511886597,-0.0647226423025131,-0.5625408291816711,-0.2290065884590149,0.212949514389038,0.0,0.0,0.6015901565551758,0.7784996032714844
-0.1571931838989257,0.5147203803062439,-0.0578196868300437,-0.5489439368247986,-0.2199224680662155,0.1816822588443756,0.0,0.0,0.5315449237823486,0.929754376411438
-0.1575080901384353,0.5024877786636353,-0.0388337522745132,-0.5425914525985718,-0.2125039845705032,0.1483701169490814,0.0,0.0,0.2970647811889648,0.8388285636901855
-0.1577814072370529,0.4905896186828613,-0.0330677777528762,-0.5279911160469055,-0.2067109644412994,0.115860566496849,0.0,0.0,0.7357945442199707,-0.0681236982345581
-0.1579019576311111,0.4788959920406341,-0.018315240740776,-0.5188594460487366,-0.2004059702157974,0.1260999739170074,0.0,0.0,-0.3641573190689087,0.8442407846450806
-0.158004954457283,0.4665144085884094,-0.0151166813448071,-0.549645721912384,-0.1955593824386596,0.0969316363334655,0.0,0.0,0.7999978065490723,0.268526554107666
-0.1580053269863128,0.4539698362350464,-0.0053435154259204,-0.5568475723266602,-0.1902297735214233,0.1065922230482101,0.0,0.0,0.5843656063079834,0.6908522844314575
-0.1579587012529373,0.4412292540073395,0.0006740365060977,-0.5657428503036499,-0.1862260550260543,0.0800745114684104,0.0,0.0,0.987478733062744,-0.7134316563606262
-0.157830998301506,0.4292576014995575,0.0072586983442306,-0.5313904881477356,-0.1806877553462982,0.1107659190893173,0.0,0.0,0.5189788341522217,0.101413607597351
-0.1575221121311187,0.4177104234695434,0.0249146688729524,-0.5124919414520264,-0.1746911406517028,0.1199323982000351,0.0,0.0,-0.3649229407310486,0.0812520980834961
-0.1572348624467849,0.4055008888244629,0.0226259417831897,-0.5419410467147827,-0.1685841232538223,0.1221402734518051,0.0,0.0,0.8442251682281494,0.0134285688400268
-0.1570453643798828,0.393212080001831,0.01340455096215,-0.5455510020256042,-0.1630422472953796,0.1108376383781433,0.0,0.0,0.933180809020996,0.8782037496566772
-0.1565984785556793,0.3816080391407013,0.0407034344971179,-0.5153034925460815,-0.1590586006641388,0.079672984778881,0.0,0.0,0.9054069519042968,-0.5910643935203552
-0.1562248170375824,0.3703652918338775,0.0324492007493972,-0.4991631209850311,-0.1541454792022705,0.0982624068856239,0.0,0.0,0.7547180652618408,0.4703748226165771
-0.1558031141757965,0.3595404624938965,0.0374403223395347,-0.4806194603443146,-0.1494213640689849,0.0944821685552597,0.0,0.0,0.3983607292175293,0.1110666990280151
-0.1553042382001876,0.3489333689212799,0.0451305881142616,-0.4709549248218536,-0.1446712017059326,0.0950032174587249,0.0,0.0,0.423691987991333,-0.0161229968070983
-0.1546556502580642,0.3383918702602386,0.0596838779747486,-0.4680176675319671,-0.1395079046487808,0.1032655835151672,0.0,0.0,0.4787149429321289,0.585698127746582
-0.1538892686367035,0.3276228308677673,0.0725138857960701,-0.4782424867153168,-0.1354078352451324,0.0820017978549003,0.0,0.0,0.6045743227005005,0.2138328552246093
-0.1529702246189117,0.3167543709278106,0.0873227044939994,-0.4826323390007019,-0.1308397948741912,0.0913604423403739,0.0,0.0,0.6406726837158203,-0.4054973125457763
-0.1518177986145019,0.3060384094715118,0.1099267154932022,-0.4758101999759674,-0.1255517899990081,0.1057600751519203,0.0,0.0,0.3079391717910766,-0.1591663360595703
-0.1504987776279449,0.2951040863990783,0.1260364353656768,-0.4854868054389953,-0.119716040790081,0.1167150363326072,0.0,0.0,-0.3796306848526001,-0.6566705703735352
-0.1492097824811935,0.2835218906402588,0.1216571331024169,-0.5142019391059875,-0.1125246435403823,0.1438282877206802,0.0,0.0,0.8384349346160889,-0.1330242156982422
-0.1477668732404709,0.2725301086902618,0.1368604749441146,-0.4879829585552215,-0.1051499992609024,0.1474926918745041,0.0,0.0,0.3511477708816528,-0.1027946472167968
-0.1461372375488281,0.2616742551326751,0.1550357341766357,-0.4819458723068237,-0.0972867012023925,0.1572660505771637,0.0,0.0,0.6099677085876465,0.153734803199768
-0.1443475782871246,0.2506173253059387,0.1705628931522369,-0.4908985495567322,-0.0889574438333511,0.1665851771831512,0.0,0.0,0.4250032901763916,-0.5492401719093323
-0.1425768882036209,0.2395656853914261,0.1676683872938156,-0.4906484484672546,-0.0796430185437202,0.1862883269786834,0.0,0.0,0.7315864562988281,0.3191753625869751
-0.1406085938215255,0.2291942685842514,0.1870088577270507,-0.4604581892490387,-0.0699187889695167,0.1944844275712967,0.0,0.0,0.1850349903106689,0.5873486995697021
-0.1385439932346344,0.2187691330909729,0.1978610455989837,-0.4629612267017364,-0.0614022836089134,0.1703300774097442,0.0,0.0,0.4593799114227295,0.3426465988159179
-0.1365032196044922,0.208744466304779,0.1959847956895828,-0.4452285170555115,-0.0534056313335895,0.1599328815937042,0.0,0.0,0.1078975200653076,-0.1429502964019775
-0.1343341767787933,0.1987544894218444,0.2085631340742111,-0.4437263906002044,-0.0451555214822292,0.1650021374225616,0.0,0.0,0.1308158636093139,-0.3152159452438354
-0.1321310102939605,0.1888747960329055,0.2121612131595611,-0.4388744235038757,-0.0370963178575038,0.161184161901474,0.0,0.0,0.2001783847808838,-0.695181131362915
-0.1299802809953689,0.1791606247425079,0.205621600151062,-0.431531697511673,-0.0277676414698362,0.1865734159946441,0.0,0.0,0.3902227878570556,-0.6382098197937012
-0.1278396546840667,0.1694144755601883,0.2034097015857696,-0.4329976737499237,-0.0172446705400943,0.2104593217372894,0.0,0.0,0.6483628749847412,0.1261428594589233
-0.125751107931137,0.1599100232124328,0.1987780034542083,-0.422331154346466,-0.0072946762666106,0.1989998519420623,0.0,0.0,0.3966090679168701,0.0013386011123657
-0.123730756342411,0.15040984749794,0.1925971955060959,-0.4222125709056854,0.0020285160280764,0.186463788151741,0.0,0.0,0.6046757698059082,-0.2445220947265625
-0.1215512305498123,0.1412954181432724,0.208065465092659,-0.405122846364975,0.011785521171987,0.19514000415802,0.0,0.0,0.6528384685516357,-0.6491223573684692
-0.1193015128374099,0.1320681869983673,0.2136691510677337,-0.4102229177951813,0.022940631955862,0.2231021374464035,0.0,0.0,0.7171324491500854,0.7451910972595215
-0.116785429418087,0.1233824118971824,0.2415210008621215,-0.3862149119377136,0.0329050086438655,0.1992876231670379,0.0,0.0,0.7824537754058838,-0.8410089612007141
-0.1143284812569618,0.1152932271361351,0.2340186089277267,-0.3598161935806274,0.044439572840929,0.2306911945343017,0.0,0.0,0.3909832239151001,0.3462176322937011
-0.1117198914289474,0.1076293289661407,0.2486799508333206,-0.3410208523273468,0.0564761012792587,0.2407305240631103,0.0,0.0,0.5256152153015137,-0.6256054639816284
-0.1090496033430099,0.1001089885830879,0.253490149974823,-0.3348045647144317,0.0698699206113815,0.2678765654563904,0.0,0.0,0.6391637325286865,-0.1858399510383606
-0.1063771247863769,0.0931396782398223,0.253814548254013,-0.3104260265827179,0.0831728428602218,0.2660583555698395,0.0,0.0,0.7081060409545898,0.0579997301101684
-0.1036428436636924,0.0867351368069648,0.2597721517086029,-0.2854610383510589,0.0967064350843429,0.2706717848777771,0.0,0.0,0.5717003345489502,-0.0676104426383972
-0.1008066162467002,0.0803327411413192,0.269690603017807,-0.2855116426944732,0.1105338633060455,0.2765486240386963,0.0,0.0,0.793522834777832,-0.0468952655792236
-0.0981078147888183,0.0742487013339996,0.2566509246826172,-0.2714302241802215,0.1236853972077369,0.2630307972431183,0.0,0.0,0.61818528175354,-0.4002755880355835
-0.095526598393917,0.0682314708828926,0.2455559074878692,-0.2685216665267944,0.1361929923295974,0.250152051448822,0.0,0.0,0.5522167682647705,-0.4372002482414245
-0.0929673165082931,0.0623365491628646,0.2435362040996551,-0.2631742060184479,0.1485442072153091,0.2470241785049438,0.0,0.0,0.6063245534896851,-0.4197739958763122
-0.0903893485665321,0.0565559975802898,0.2453773766756057,-0.2581999003887176,0.1609492599964141,0.2481010854244232,0.0,0.0,0.5104666948318481,-0.5835626721382141
-0.0877104774117469,0.0506165847182273,0.2541016042232513,-0.2655281126499176,0.1747618019580841,0.2762508988380432,0.0,0.0,0.5955053567886353,-0.6192972660064697
-0.0850229263305664,0.0450091212987899,0.2535689175128937,-0.2510753571987152,0.1899860203266143,0.3044845163822174,0.0,0.0,0.436073899269104,-0.3784587383270263
-0.0823750495910644,0.0397809594869613,0.2496183812618255,-0.2343773990869522,0.2052493542432785,0.3052670061588287,0.0,0.0,0.3778606653213501,-0.1572629809379577
-0.0796566978096962,0.0342914424836635,0.2565402686595917,-0.2461742758750915,0.2206977754831314,0.3089685142040252,0.0,0.0,0.5215885639190674,-0.1929834485054016
