x_pos,y_pos,x_vel,y_vel,angle,ang_vel,leg_1,leg_2,main_booster,lat_booster
-0.0015118599403649,1.4033540487289429,-0.153264045715332,-0.3362698853015899,0.0018521323800086,0.0365419462323188,0.0,0.0,0.3955957377888386,-0.7595956827658604
-0.0030220032203942,1.3961215019226074,-0.1545232087373733,-0.3214525878429413,0.0053257555700838,0.0694796070456504,0.0,0.0,0.1889164171598396,-0.6224235839140083
-0.0044607161544263,1.3890502452850342,-0.1489006429910659,-0.3143051564693451,0.0102990856394171,0.0994757115840911,0.0,0.0,-0.3100305093872817,-0.925420467211842
-0.005970096681267,1.3817046880722046,-0.1582630574703216,-0.3265401721000671,0.0175410043448209,0.144851878285408,0.0,0.0,0.1454147753412842,-0.6184307313487423
-0.0074183465912938,1.3747708797454834,-0.153640866279602,-0.3082964122295379,0.0262459702789783,0.1741155982017517,0.0,0.0,0.5900087924081974,-0.6588696651750519
-0.0087693212553858,1.3683542013168335,-0.1456208676099777,-0.2854032218456268,0.0366592854261398,0.2082858979701995,0.0,0.0,0.889289172169411,-0.779163986419128
-0.0102133750915527,1.3626536130905151,-0.1564930379390716,-0.2536939978599548,0.048614677041769,0.239129826426506,0.0,0.0,0.7068141070686949,-0.6560264956011019
-0.0115530965849757,1.357696533203125,-0.147832304239273,-0.2208201587200164,0.0623441077768802,0.2746142148971557,0.0,0.0,0.5680451757198968,-0.7140383237569263
-0.0129884723573923,1.353662371635437,-0.1588550209999084,-0.1800123155117035,0.0775168240070343,0.3034823536872864,0.0,0.0,0.1016318758097634,0.6492898134916891
-0.014387416653335,1.3500946760177612,-0.1539444625377655,-0.1593546122312545,0.091450810432434,0.2787056565284729,0.0,0.0,0.9726561386777686,0.9912624649494204
-0.0156350135803222,1.347345948219299,-0.1370576322078704,-0.122959204018116,0.1036708950996398,0.2444238364696502,0.0,0.0,0.7420441927954422,0.8606085513694831
-0.0167645458132028,1.345181226730347,-0.1237166747450828,-0.0969962179660797,0.114376500248909,0.2141316831111908,0.0,0.0,0.0837921294083414,0.7891794400364249
-0.0177596099674701,1.3434624671936035,-0.1087882742285728,-0.0771186128258705,0.1236134693026542,0.1847562491893768,0.0,0.0,0.5131413798734679,0.6049450090465259
-0.0186508186161518,1.3419744968414309,-0.0973768532276153,-0.0668349042534828,0.1318421363830566,0.1645883470773697,0.0,0.0,0.0369959810365221,-0.65961021206944
-0.0195335391908884,1.3410029411315918,-0.0979649871587753,-0.0440642721951007,0.1415192037820816,0.1935592591762542,0.0,0.0,-0.6126359897823994,0.7242419311292767
-0.0203188899904489,1.3397676944732666,-0.086544431746006,-0.0556754469871521,0.1495143324136734,0.1599172949790954,0.0,0.0,-0.7709219572180761,0.8936202191169805
-0.0209894180297851,1.3382925987243652,-0.0728602260351181,-0.066161960363388,0.1553296893835067,0.1163174882531166,0.0,0.0,-0.4833730567304639,0.7239097497693572
-0.0215582847595214,1.3365575075149536,-0.0609224326908588,-0.0775419026613235,0.1593719273805618,0.0808518677949905,0.0,0.0,0.5386676408408837,0.6374069525687899
-0.0220674518495798,1.335700750350952,-0.0539090223610401,-0.0384030789136886,0.1623598933219909,0.0597642958164215,0.0,0.0,-0.2811073677523479,0.6451720594485731
-0.022500704973936,1.3345836400985718,-0.0451820790767669,-0.0498500056564807,0.1642293035984039,0.0373914241790771,0.0,0.0,0.9395560474444216,-0.9393816580563982
-0.0229557044804096,1.3345319032669067,-0.0495341494679451,-0.0027556330896914,0.1682676970958709,0.0807757079601287,0.0,0.0,0.2802101785749491,-0.9525142940057456
-0.0234978683292865,1.3346951007843018,-0.0601300783455371,0.0065724020823836,0.1742058396339416,0.1187736839056015,0.0,0.0,0.2870747274906611,-0.8007370658437186
-0.0240287780761718,1.335227131843567,-0.0607070997357368,0.0227437298744916,0.1818527281284332,0.1529513746500015,0.0,0.0,0.3145712620593626,0.8523701376966417
-0.0244407653808593,1.3358818292617798,-0.0471388697624206,0.0283626206219196,0.1878292709589004,0.1195411905646324,0.0,0.0,0.136100515150215,0.8083483673679411
-0.0249491687864065,1.336907148361206,-0.0550558343529701,0.0450260080397129,0.1920803785324096,0.0850297063589096,0.0,0.0,0.40999040022982,-0.7116712451210421
-0.0257255546748638,1.338473916053772,-0.0830209702253341,0.0689277872443199,0.197490245103836,0.1081972941756248,0.0,0.0,-0.7904238258897411,-0.9136227495851812
-0.0265378002077341,1.3397550582885742,-0.0883594453334808,0.0559774078428745,0.2046762257814407,0.1437200009822845,0.0,0.0,0.0275241068321592,-0.9210191539171552
-0.0275864601135253,1.3414783477783203,-0.1137997359037399,0.0753188356757164,0.2136835753917694,0.1801467984914779,0.0,0.0,-0.2490696296852839,-0.7449524846352629
-0.0286705009639263,1.3429152965545654,-0.1190555319190025,0.0622898787260055,0.2244557291269302,0.2154432237148285,0.0,0.0,0.7035932738625852,0.8806234815534082
-0.0297858230769634,1.3448302745819092,-0.1203293055295944,0.083743430674076,0.2333585768938064,0.178057000041008,0.0,0.0,0.8937914988928959,0.8349521507097306
-0.0310043338686227,1.347931742668152,-0.1289413720369339,0.1367060542106628,0.2405523359775543,0.1438756138086319,0.0,0.0,-0.4144936751862147,0.7050013148774552
-0.0321393013000488,1.3507766723632812,-0.11928091943264,0.1254763305187225,0.2464414089918136,0.117781676352024,0.0,0.0,-0.4549778310269148,-0.7759189907698708
-0.0333069786429405,1.3533329963684082,-0.1242183074355125,0.1123459860682487,0.2540328800678253,0.151829183101654,0.0,0.0,-0.2562729504663177,0.6593341465834245
-0.0343926437199115,1.3556311130523682,-0.1147662624716758,0.1010484993457794,0.2603600323200226,0.126543253660202,0.0,0.0,0.6027901814980656,0.8852768782975522
-0.0355148315429687,1.3585761785507202,-0.1165958046913147,0.1301158368587494,0.2648371458053589,0.0895425155758857,0.0,0.0,-0.7814543988518403,-0.6984617967177695
-0.0366536155343055,1.36123526096344,-0.1195017844438552,0.1171486601233482,0.270595520734787,0.1151667684316635,0.0,0.0,-0.3858830712357761,0.9451207910999064
-0.0376869216561317,1.3636478185653689,-0.1070906668901443,0.1065231189131736,0.2744380235671997,0.0768499821424484,0.0,0.0,-0.5380913495065722,-0.8274639357265097
-0.0387447364628315,1.3657712936401367,-0.1109565049409866,0.0933875367045402,0.2797537446022033,0.1063144579529762,0.0,0.0,-0.0670351324044025,0.6973312856399723
-0.0397191047668457,1.3676526546478271,-0.1012276858091354,0.0828927010297775,0.2836446762084961,0.0778183415532112,0.0,0.0,-0.2280218259001625,0.9335700504410888
-0.0405845642089843,1.3692970275878906,-0.0882986262440681,0.072738379240036,0.285452663898468,0.0361598283052444,0.0,0.0,0.2291307389831969,-0.8550132918314269
-0.0417317375540733,1.3714443445205688,-0.1179960221052169,0.0947869196534156,0.2888292670249939,0.0675317719578743,0.0,0.0,-0.9166884422302246,0.6362438201904297
-0.0427859313786029,1.3733453750610352,-0.1070842966437339,0.0841555893421173,0.2905471920967102,0.0343585908412933,0.0,0.0,-0.8882524371147156,0.3512560129165649
-0.0438055992126464,1.374975562095642,-0.1035287976264953,0.072140023112297,0.292160153388977,0.0322585962712764,0.0,0.0,-0.9694846272468568,0.5665035247802734
-0.0447410568594932,1.3763563632965088,-0.093703493475914,0.0613340809941291,0.2923261821269989,0.0033205200452357,0.0,0.0,-0.910278022289276,-0.1444681882858276
-0.0456426627933979,1.3774662017822266,-0.0902128592133522,0.049318853765726,0.2923834025859833,0.0011446742573753,0.0,0.0,-0.8764123320579529,0.8452507257461548
-0.0464405044913291,1.3783280849456787,-0.0779400020837783,0.0386734865605831,0.2904900312423706,-0.0378682278096675,0.0,0.0,-0.943410873413086,-0.1113588809967041
-0.0472052581608295,1.378919243812561,-0.0745265334844589,0.0266580302268266,0.2884847223758697,-0.0401066057384014,0.0,0.0,-0.9865537285804749,0.5685384273529053
-0.0479036346077919,1.3792610168457031,-0.066866785287857,0.0157742816954851,0.2854208052158355,-0.0612783506512641,0.0,0.0,-0.8532446622848511,0.2617236375808716
-0.0485699661076068,1.3793320655822754,-0.0635425001382827,0.0037583666853606,0.2822424471378326,-0.0635673031210899,0.0,0.0,-0.9753245115280152,-0.2667351961135864
-999.0,1.3791323900222778,-0.0602673180401325,-0.0082576097920537,0.2789485454559326,-0.0658774897456169,0.0,0.0,-0.9764029383659364,0.2456659078598022
-0.0498084053397178,1.3786619901657104,-0.0570440962910652,-0.020273657515645,0.2755382657051086,-0.0682063996791839,0.0,0.0,-0.9800655245780944,0.9411616325378418
-0.0503182411193847,1.3779544830322266,-0.0458514913916587,-0.0304872877895832,0.2702789008617401,-0.1051871925592422,0.0,0.0,-0.919388473033905,0.4007422924041748
-0.05079822614789,1.3769766092300415,-0.0427400097250938,-0.0425047390162944,0.2649015784263611,-0.1075465828180313,0.0,0.0,-0.9678745865821838,0.6801705360412598
-0.0511981025338172,1.3757555484771729,-0.0332414731383323,-0.0530672892928123,0.2580154836177826,-0.1377219706773758,0.0,0.0,-0.9716604351997375,0.7498860359191895
-0.0514973625540733,1.3742899894714355,-0.0212195627391338,-0.063627116382122,0.249120607972145,-0.1778976321220398,0.0,0.0,-0.8931269645690918,0.4213228225708008
-0.0517687797546386,1.3725545406341553,-0.0182946920394897,-0.0756489261984825,0.2401062101125717,-0.1802875697612762,0.0,0.0,-0.915007472038269,0.8883230686187744
-0.0519358627498149,0.0,-0.0056569203734397,-0.0857007056474685,0.2288922518491745,-0.2242789715528488,0.0,0.0,-0.9224345684051514,-0.1779814958572387
-0.0520765297114849,1.3683494329452517,-0.0028684793505817,-0.0977265089750289,0.2175582498311996,-0.2266804426908493,0.0,0.0,-0.8113811016082764,-0.3131458759307861
-0.0521915443241596,1.3658431768417358,-0.0001522932143416,-0.1097526848316192,0.206103965640068,-0.2290858924388885,0.0,0.0,-0.9142841100692748,-0.0321264863014221
-0.0522815696895122,1.3630679845809937,0.0024895297829061,-0.1217792183160781,0.1945292800664901,-0.2314937859773636,0.0,0.0,-0.7609814405441284,-0.3805158138275146
-0.0523473732173442,1.360023856163025,0.0050550079904496,-0.1338061392307281,0.1828341484069824,-0.2339028120040893,0.0,0.0,-0.8972178101539612,-0.4568517208099365
-0.0523897185921669,1.3567107915878296,0.0075422851368784,-0.1458334177732467,0.1710185557603836,-0.2363117188215255,0.0,0.0,-0.6558853983879089,-0.740776777267456
-0.0524551384150981,1.353115200996399,0.0042081852443516,-0.1586066037416458,0.1602636128664016,-0.2150990664958953,0.0,0.0,-0.8291405439376831,0.1929116249084472
-0.0524987205862998,1.349250555038452,0.0065334835089743,-0.1706324368715286,0.1493883728981018,-0.2175047397613525,0.0,0.0,-0.7831980586051941,-0.0381262302398681
-0.0525212287902832,1.3451166152954102,0.0087758917361497,-0.1826585978269577,0.1383930146694183,-0.2199069261550903,0.0,0.0,-0.694674015045166,-0.1690471172332763
-0.052523422986269,1.3407139778137207,0.0109341302886605,-0.1946851164102554,0.1272777616977691,-0.2223046272993087,0.0,0.0,-0.766279935836792,0.1550081968307495
-0.0525063499808311,1.3360421657562256,0.0130070894956588,-0.2067119777202606,0.1160429045557975,-0.2246969938278198,0.0,0.0,-0.6712228655815125,-0.4713391065597534
-0.0524706840515136,1.3311015367507937,0.014993816614151,-0.2187391966581344,0.1046887412667274,-0.2270832061767578,0.0,0.0,-0.547726035118103,-0.4637116193771362
-0.0524174682796001,1.325892210006714,0.0168935395777225,-0.2307667434215545,0.093215636909008,-0.2294625043869018,0.0,0.0,-0.8591034412384033,-0.3394005894660949
-0.052347470074892,1.3204138278961182,0.0187056604772806,-0.2427946478128433,0.0816239267587661,-0.231834203004837,0.0,0.0,-0.903386116027832,-0.5789109468460083
-0.0523141846060752,1.3146626949310305,0.013813829049468,-0.255075991153717,0.0712423548102378,-0.2076315432786941,0.0,0.0,-0.9026135802268982,-0.7192646861076355
-0.0523198135197162,1.308637619018555,0.0086831012740731,-0.2673639059066772,0.0621016696095466,-0.1828138977289199,0.0,0.0,-0.9662569761276244,-0.1511962413787841
-0.0523111335933208,1.3023433685302734,0.0102302143350243,-0.2793880999088287,0.0528436638414859,-0.1851602494716644,0.0,0.0,-0.969640851020813,-0.3356826305389404
-0.052289105951786,1.2957797050476074,0.0116892894729971,-0.2914126217365265,0.0434688329696655,-0.1874967366456985,0.0,0.0,-0.99371600151062,-0.7056652307510376
-0.0523133277893066,1.288937211036682,0.0056843161582946,-0.3038965165615082,0.035461064428091,-0.1601551175117492,0.0,0.0,-0.7089071273803711,-0.6391635537147522
-0.052370548248291,1.281816005706787,0.0013579442165791,-0.3163528144359588,0.0284662209451198,-0.1398970931768417,0.0,0.0,-0.9948067665100098,-0.718599796295166
-0.0524767860770225,1.2744148969650269,-0.0049375747330486,-0.3288354873657226,0.0228611156344413,-0.1121025085449218,0.0,0.0,-0.9934006929397584,0.0573101043701171
-0.0525729171931743,1.2667438983917236,-0.0038254396058619,-0.3408557474613189,0.0171412751078605,-0.1143965348601341,0.0,0.0,-0.9974495768547058,-0.4092310667037964
-0.0526599884033203,1.2588030099868774,-0.0027976154815405,-0.3528761565685272,0.0113073093816638,-0.1166789904236793,0.0,0.0,-0.9567915201187134,-0.1931784152984619
-0.0527387633919715,1.2505919933319092,-0.0018528040964156,-0.3648967444896698,0.0053598275408148,-0.1189495325088501,0.0,0.0,-0.987082540988922,0.0867421627044677
-0.052810002118349,1.2421112060546875,-0.0009895199909806,-0.3769174814224243,-0.000700571166817,-0.1212079524993896,0.0,0.0,-0.9715409874916076,-0.8480717539787292
-0.0529372207820415,1.233367919921875,-0.0080622425302863,-0.3885983526706695,-0.0052998787723481,-0.0919861644506454,0.0,0.0,-0.9954242706298828,-0.3040874004364013
-0.0530584342777729,1.22435462474823,-0.0073568397201597,-0.4006180465221405,-0.0100108850747346,-0.0942200049757957,0.0,0.0,-0.9966520667076112,-0.8136069774627686
-0.0532447807490825,1.2150756120681765,-0.0155386123806238,-0.4124270677566528,-0.0130676813423633,-0.0611356571316719,0.0,0.0,-0.9821412563323976,-0.7063091993331909
-0.0534836761653423,1.2055307626724243,-0.0221316628158092,-0.424223393201828,-0.014802292920649,-0.034692145884037,0.0,0.0,-0.9833122491836548,-0.587427020072937
-0.0537586212158203,1.1957168579101562,-0.0266349874436855,-0.436187744140625,-0.0156476777046918,-0.0169077273458242,0.0,0.0,-0.9946945905685424,-0.5539031028747559
-0.0540726669132709,1.185628056526184,-0.0315082818269729,-0.4483932852745056,-0.0155443530529737,0.0020665004849433,0.0,0.0,-0.9932293891906738,-0.5430823564529419
-0.0544207580387592,1.175265550613403,-0.0357247665524482,-0.4605408310890198,-0.0146361114457249,0.0181648638099432,0.0,0.0,-0.9965528845787048,0.2306493520736694
-0.0547670349478721,1.1646329164505005,-0.0354395136237144,-0.4725589156150818,-0.0138356890529394,0.0160085503011941,0.0,0.0,-0.9985291361808776,-0.2326040267944336
-0.0551121719181537,1.153729796409607,-0.0352149084210395,-0.4845769703388214,-0.0131423957645893,0.0138656022027134,0.0,0.0,-0.9869346618652344,0.1919749975204467
-0.0554567351937294,1.1425561904907229,-0.0350479185581207,-0.4965949952602386,-0.0125555982813239,0.0117361219599843,0.0,0.0,-0.9957494735717772,-0.2492419481277465
-0.0558012016117572,1.1311123371124268,-0.0349353849887847,-0.5086129903793335,-0.0120745841413736,0.0096203070133924,0.0,0.0,-0.9809942841529846,-0.3972766995429992
-0.0561461448669433,1.1193981170654297,-0.0348740331828594,-0.5206310153007507,-0.0116986744105815,0.0075182728469371,0.0,0.0,-0.9676802158355712,0.7206602096557617
-0.0564254745841026,1.107404708862305,-0.0265125092118978,-0.5330509543418884,-0.0131006482988595,-0.0280393753200769,0.0,0.0,-0.9943481087684632,-0.0766173601150512
-0.056706141680479,1.0951409339904783,-0.0265433005988597,-0.5450690984725952,-0.0146063258871436,-0.0301134195178747,0.0,0.0,-0.9703371524810792,-0.5721584558486938
-0.0570274367928504,1.082614541053772,-0.031490258872509,-0.5567358136177063,-0.0152367716655135,-0.0126089081168174,0.0,0.0,-0.9087511897087096,-0.7958192825317383
-0.0574162490665912,1.0698189735412598,-0.0398061089217662,-0.568682849407196,-0.014325656928122,0.0182224176824092,0.0,0.0,-0.9753085374832152,-0.3271095752716064
-0.0578075423836708,1.0567530393600464,-0.0399481356143951,-0.5807009935379028,-0.0135160479694604,0.0161920003592968,0.0,0.0,-0.7403215169906616,0.5178072452545166
-0.0581546798348426,1.0434184074401855,-0.0342329367995262,-0.5926560163497925,-0.0139856990426778,-0.0093929525464773,0.0,0.0,-0.9807177782058716,-0.8552588820457458
-0.0585783012211322,1.0298210382461548,-0.0436705239117145,-0.6043126583099365,-0.0127031039446592,0.0256519466638565,0.0,0.0,-0.7647376656532288,-0.0918613672256469
-0.0590052604675293,1.015953540802002,-0.043889507651329,-0.6163307428359985,-0.0115197161212563,0.0236677005887031,0.0,0.0,-0.9692825078964232,-0.0398826003074646
-0.0594354644417762,1.0018153190612793,-0.0441262237727642,-0.6283487677574158,-0.010434734635055,0.0216995943337678,0.0,0.0,-0.9138692021369934,0.4347796440124511
-0.0598692893981933,0.9874069690704346,-0.0443766191601753,-0.6403668522834778,-0.0094473361968994,0.0197480991482734,0.0,0.0,-0.771807849407196,0.4310849905014038
-0.0603065490722656,0.9727283716201782,-0.044636595994234,-0.6523849368095398,-0.0085566584020853,0.0178137049078941,0.0,0.0,-0.8029447197914124,-0.5169040560722351
-0.0607812888920307,0.9577826857566832,-0.0491297431290149,-0.6642429828643799,-0.0069146524183452,0.0328400135040283,0.0,0.0,-0.4180270433425903,-0.2369542121887207
-0.0612595565617084,0.9425665736198424,-0.0493964329361915,-0.6762611865997314,-0.0053675705567002,0.0309415254741907,0.0,0.0,-0.5922609567642212,0.0523185729980468
-0.0617414489388465,0.9270803332328796,-0.0496601797640323,-0.6882792711257935,-0.0039144824258983,0.0290619544684886,0.0,0.0,-0.5184735655784607,0.2124099731445312
-0.0622267723083496,0.9113234877586364,-0.0499167554080486,-0.7002973556518555,-0.0025543919764459,0.0272020064294338,0.0,0.0,-0.2449555397033691,0.3269269466400146
-0.0627156272530555,0.8952963352203369,-0.0501619093120098,-0.7123153805732727,-0.0012862600851804,0.0253624469041824,0.0,0.0,-0.6913750767707825,-0.4214447140693664
-0.0632076263427734,0.8789988160133362,-0.0503913760185241,-0.7243334054946899,-0.0001090585792553,0.0235441550612449,0.0,0.0,-0.3958064317703247,0.9061977863311768
-0.0636317282915115,0.8624399304389954,-0.0417099632322788,-0.7359486818313599,-0.00080216123024,-0.0138623565435409,0.0,0.0,0.0624043941497802,-0.0150595903396606
-0.0640192031860351,0.846370279788971,-0.0381346233189106,-0.7142054438591003,-0.0014035269850865,-0.0120272524654865,0.0,0.0,0.2747378349304199,0.2605737447738647
-0.0643464103341102,0.8305606842041016,-0.0323149375617504,-0.7026455402374268,-0.0018047906924039,-0.0080252811312675,0.0,0.0,-0.1963491439819336,-0.437800645828247
-0.0646757110953331,0.814480721950531,-0.0324388816952705,-0.714663565158844,-0.0022922402713447,-0.0097488416358828,0.0,0.0,-0.0034666061401367,-0.8209325671195984
-0.0650856047868728,0.7981285452842712,-0.0424149334430694,-0.7267622351646423,-0.0008841693634167,0.0281614419072866,0.0,0.0,-0.1187276840209961,0.5169026851654053
-0.0654573440551757,0.7815055847167969,-0.037511333823204,-0.7387964129447937,-0.0005507366149686,0.0066686533391475,0.0,0.0,-0.4638888835906982,-0.7625874280929565
-0.0658876448869705,0.7646109461784363,-0.0447569489479064,-0.7508742809295654,0.0011516589438542,0.0340480133891105,0.0,0.0,0.4355590343475342,-0.0224376916885375
-0.066205121576786,0.747914731502533,-0.0339264348149299,-0.7420536279678345,0.0032983717974275,0.0429346673190593,0.0,0.0,0.4950791597366333,0.4243776798248291
-0.066436193883419,0.7318768501281738,-0.0256182886660099,-0.712801992893219,0.0057740719057619,0.0495140366256237,0.0,0.0,-0.2566510438919067,-0.1425820589065551
-0.0666664093732833,0.7155687212944031,-0.0254571195691823,-0.7248203754425049,0.008172451518476,0.0479678437113761,0.0,0.0,-0.2246124148368835,0.6048617362976074
-0.0668421760201454,0.6989840865135193,-0.0185895357280969,-0.7371016144752502,0.0091654453426599,0.0198598224669694,0.0,0.0,-0.414713978767395,0.230903148651123
