x_pos,y_pos,x_vel,y_vel,angle,ang_vel,leg_1,leg_2,main_booster,lat_booster
-0.0015475272666662,1.403475284576416,-0.1573220193386078,-0.3308867812156677,0.0023014300968497,0.0454381220042705,0.0,0.0,-0.0270332694053649,0.822636604309082
-0.0030513764359056,1.3959003686904907,-0.1513832956552505,-0.3366603553295135,0.0032864138484001,0.0197022669017314,0.0,0.0,-0.3995552062988281,0.7737805843353271
-0.0045095444656908,1.3881704807281494,-0.1454376876354217,-0.3435496389865875,0.002904389752075,-0.0076410016044974,0.0,0.0,-0.1092857718467712,0.320206880569458
-0.0059987069107592,1.380291223526001,-0.1490307748317718,-0.3501897156238556,0.003019384574145,0.0022999697830528,0.0,0.0,-0.2467320561408996,0.6719138622283936
-0.0074568749405443,1.372265100479126,-0.1448000073432922,-0.3567164540290832,0.0020116094965487,-0.0201572254300117,0.0,0.0,-0.2159103751182556,0.6868913173675537
-0.0088841440156102,1.364088773727417,-0.1405037343502044,-0.363385796546936,-0.000178255708306,-0.0438013635575771,0.0,0.0,-0.1738448143005371,0.3900351524353027
-0.0103487968444824,1.3557631969451904,-0.144732117652893,-0.3700224757194519,-0.0018879125127568,-0.0341965109109878,0.0,0.0,-0.0182084441184997,0.3700928688049316
-0.0118529321625828,1.3472884893417358,-0.1491634994745254,-0.3766590356826782,-0.0031244482379406,-0.0247330628335475,0.0,0.0,0.0588867664337158,0.5388089418411255
-0.0133630754426121,1.3394745588302612,-0.1491402834653854,-0.3472892642021179,-0.0049767768941819,-0.0370499268174171,0.0,0.0,0.269458532333374,0.3245488405227661
-0.0149145126342773,1.3323484659194946,-0.1537307202816009,-0.3167234063148498,-0.0063714878633618,-0.0278968960046768,0.0,0.0,-0.2234805822372436,0.6697524785995483
-0.0164509769529104,1.3250728845596311,-0.1511569321155548,-0.3233744204044342,-0.0088303480297327,-0.0491818562150001,0.0,0.0,-0.3586344718933105,0.4835453033447265
-0.018034553155303,1.317647933959961,-0.1563186198472976,-0.3300077319145202,-0.0108430627733469,-0.0402579270303249,0.0,0.0,-0.7122799754142761,0.6041214466094971
-0.0196089744567871,1.3100759983062744,-0.1543792188167572,-0.3365596234798431,-0.0138747207820415,-0.0606390163302421,0.0,0.0,0.0040082931518554,0.601787805557251
-0.0211359970271587,1.3026708364486694,-0.1489357054233551,-0.3291573822498321,-0.0176083706319332,-0.0746795088052749,0.0,0.0,-0.561844527721405,0.1589354276657104
-0.0227151867002248,1.2951164245605469,-0.1545670181512832,-0.3357967436313629,-0.0209203995764255,-0.0662467777729034,0.0,0.0,-0.594720721244812,0.3202563524246216
-0.0243478771299123,1.2874126434326172,-0.1603424996137619,-0.3424331545829773,-0.0238198768347501,-0.0579944849014282,0.0,0.0,-0.1386778354644775,0.9495874643325806
-0.02594337426126,1.2795673608779907,-0.1546871364116668,-0.348762035369873,-0.0286301169544458,-0.0962133556604385,0.0,0.0,-0.5137519240379333,0.4993989467620849
-0.0275952331721782,1.2715729475021362,-0.1607219725847244,-0.3553998172283172,-0.0330444797873497,-0.0882951021194458,0.0,0.0,-0.8403674364089966,0.5456070899963379
-0.0292546264827251,1.2634320259094238,-0.1605949252843856,-0.3619471490383148,-0.0383314974606037,-0.1057499423623085,0.0,0.0,-0.1936666965484619,0.4512975215911865
-0.0309728626161813,1.2551419734954834,-0.1668653637170791,-0.368585467338562,-0.0432421192526817,-0.0982213392853736,0.0,0.0,-0.526019275188446,0.7365357875823975
-0.0326807014644146,1.2467035055160522,-0.1643896102905273,-0.3752394020557403,-0.049559935927391,-0.1263676732778549,0.0,0.0,-0.792133092880249,0.6389200687408447
-0.0343981757760047,1.2381086349487305,-0.1644272357225418,-0.3822525441646576,-0.0568165890872478,-0.1451460123062133,0.0,0.0,-0.5005057454109192,0.7981603145599365
-0.0361014381051063,1.229357361793518,-0.161394253373146,-0.3893061578273773,-0.0656570568680763,-0.1768250614404678,0.0,0.0,-0.5224615335464478,0.6214044094085693
-0.0378132835030555,1.2204452753067017,-0.1612145751714706,-0.3965559601783752,-0.0755429491400718,-0.1977356970310211,0.0,0.0,-0.7801142334938049,0.596153974533081
-0.039553165435791,1.2113823890686035,-0.163436621427536,-0.4033543765544891,-0.0860100537538528,-0.2093607932329177,0.0,0.0,-0.6600775718688965,0.4895316362380981
-0.0413594245910644,1.2021502256393433,-0.1703767031431198,-0.4109500348567962,-0.0961634069681167,-0.2030669748783111,0.0,0.0,-0.743144690990448,0.3245084285736084
-0.0432316772639751,1.1927695274353027,-0.1772977709770202,-0.4175909757614136,-0.1060148105025291,-0.197028249502182,0.0,0.0,-0.1435354948043823,0.9236249923706056
-0.0451131835579872,1.1832410097122192,-0.1770789325237274,-0.4243139326572418,-0.1170144528150558,-0.2199928313493728,0.0,0.0,-0.5960969924926758,0.9187288284301758
-0.0470050796866416,1.1735621690750122,-0.176977127790451,-0.4311772286891937,-0.1291680485010147,-0.2430719435214996,0.0,0.0,-0.838975727558136,0.7687098979949951
-0.0489073768258094,1.1637213230133057,-0.1768107265233993,-0.438581645488739,-0.1425371319055557,-0.2673813700675964,0.0,0.0,-0.5914269685745239,0.2341437339782714
-0.0508786216378212,1.153733253479004,-0.1839825361967086,-0.4452281594276428,-0.1556499898433685,-0.2622573673725128,0.0,0.0,-0.8926396369934082,0.4636423587799072
-0.052919290959835,1.1435973644256592,-0.191206470131874,-0.4518739581108093,-0.1685181707143783,-0.2573634386062622,0.0,0.0,-0.6269065737724304,0.5851325988769531
-0.0549901016056537,0.0,-0.1934741586446762,-0.458838939666748,-0.1821613609790802,-0.2728638648986816,0.0,0.0,-0.611910879611969,-0.6623938083648682
-0.0571891777217388,0.0,-0.2080187797546386,-0.4648701846599579,-0.1941173076629638,-0.2391189336776733,0.0,0.0,-0.8261010646820068,-0.5156013369560242
-0.0594983100891113,1.1123226881027222,-0.2202526628971099,-0.4708256721496582,-0.2048545777797699,-0.2147453278303146,0.0,0.0,0.4254423379898071,-0.6042545437812805
-0.0617757812142372,0.0,-0.2185458689928054,-0.4340885579586029,-0.2141386717557907,-0.1856818050146103,0.0,0.0,-0.7893750071525574,-0.781207263469696
-0.0641890540719032,1.09271502494812,-0.2339461743831634,-0.4397536218166351,-0.2215969413518905,-0.1491649895906448,0.0,0.0,-0.3922493457794189,0.2342747449874878
-0.0666750892996788,1.0826960802078247,-0.2414100170135498,-0.4463896453380584,-0.2288776189088821,-0.1456139087677002,0.0,0.0,-0.7185156345367432,-0.1277416348457336
-0.0692341774702072,1.0725278854370115,-0.2489040642976761,-0.4530255198478699,-0.2359913736581802,-0.142274796962738,0.0,0.0,-0.5435054898262024,0.6839728355407715
-0.0718119591474533,1.0621917247772217,-0.2494964897632599,-0.4607323110103607,-0.2443923950195312,-0.1680202782154083,0.0,0.0,-0.7855080962181091,-0.4326040744781494
-0.0744634643197059,1.0517067909240725,-0.2570444345474243,-0.4673697650432586,-0.2526469528675079,-0.1650914251804351,0.0,0.0,-0.7883961200714111,0.4787793159484863
-0.0771891623735427,1.0410728454589844,-0.2646157145500183,-0.4740071892738342,-0.2607649862766266,-0.1623603999614715,0.0,0.0,-0.75954669713974,-0.4561251401901245
-0.0799893364310264,1.030290126800537,-0.2722082734107971,-0.480644553899765,-0.2687560617923736,-0.1598217040300369,0.0,0.0,-0.5472622513771057,-0.4723089933395386
-0.0828643813729286,1.0193583965301514,-0.2798200845718384,-0.4872817993164062,-0.2766295373439789,-0.1574694514274597,0.0,0.0,0.1164854764938354,-0.1823671460151672
-0.0857864394783973,1.008576512336731,-0.2845317721366882,-0.4806793332099914,-0.2845214903354645,-0.1578391343355178,0.0,0.0,-0.4802323579788208,-0.6737222075462341
-0.0888323783874511,0.9976596236228944,-0.2982383072376251,-0.4864530265331268,-0.2910569012165069,-0.13070909678936,0.0,0.0,-0.6905918121337891,-0.46668541431427
-0.0919538512825965,0.9865934252738952,-0.3058964312076568,-0.4930889308452606,-0.2975007891654968,-0.128877580165863,0.0,0.0,-0.8308483362197876,-0.1551072597503662
-0.0951510444283485,0.9753782153129578,-0.3135667741298675,-0.4997249543666839,-0.3038610517978668,-0.1272055059671402,0.0,0.0,0.2469320297241211,-0.1409432888031005
-0.0983417481184005,0.964910328388214,-0.3125547766685486,-0.4666180610656738,-0.3106085956096649,-0.134950965642929,0.0,0.0,-0.4057689905166626,-0.3653125762939453
-0.1016085594892501,0.9542933702468872,-0.3202452063560486,-0.4732546508312225,-0.3172873854637146,-0.1335759162902832,0.0,0.0,-0.3246214985847473,-0.2584916353225708
-0.1049515753984451,0.9435276389122008,-0.3279432654380798,-0.4798913300037384,-0.323904275894165,-0.132338061928749,0.0,0.0,-0.5689772367477417,0.8150129318237305
-0.1083147972822189,0.9325901865959167,-0.3285894989967346,-0.4878527522087097,-0.3319648802280426,-0.1612123399972915,0.0,0.0,-0.5064005851745605,0.8362221717834473
-0.1116819381713867,0.9214622378349304,-0.3271182477474212,-0.4968201816082001,-0.342001348733902,-0.2007291764020919,0.0,0.0,-0.6241784691810608,0.74517822265625
-0.1150683388113975,0.9101629257202148,-0.3276669681072235,-0.5048379302024841,-0.3535203635692596,-0.2303805649280548,0.0,0.0,-0.2681449651718139,0.5059887170791626
-0.1184848770499229,0.8986884951591492,-0.3295443952083587,-0.513009250164032,-0.3662983179092407,-0.255558431148529,0.0,0.0,-0.7549757361412048,0.0733016729354858
-0.1219778060913086,0.8870666027069092,-0.3372648656368255,-0.5196557641029358,-0.3790428936481476,-0.2548906803131103,0.0,0.0,-0.9501165747642516,0.7862899303436279
-0.1254788339138031,0.875264585018158,-0.3364136815071106,-0.5282321572303772,-0.3936228454113006,-0.2915987968444824,0.0,0.0,-0.9456316828727722,0.1944178342819214
-0.1290560662746429,0.863315999507904,-0.3441340029239654,-0.5348826050758362,-0.4081780910491943,-0.2911048233509063,0.0,0.0,-0.6288407444953918,0.1208851337432861
-0.1327094137668609,0.851220428943634,-0.3518510460853576,-0.5415330529212952,-0.4227124154567718,-0.2906863987445831,0.0,0.0,-0.7309355139732361,0.022711157798767
-0.1364387571811676,0.838978111743927,-0.3595633506774902,-0.5481833815574646,-0.437229186296463,-0.2903354167938232,0.0,0.0,-0.5600115060806274,0.081918716430664
-0.1402440965175628,0.8265888690948486,-0.3672694563865661,-0.5548336505889893,-0.4517313539981842,-0.2900435626506805,0.0,0.0,-0.2380018234252929,-0.6050074696540833
-0.1441742926836013,0.8140916228294373,-0.3811895251274109,-0.5593162178993225,-0.4647429287433624,-0.2602308690547943,0.0,0.0,0.5945227146148682,-0.5601485967636108
-0.1478817909955978,0.8020580410957336,-0.3603465855121612,-0.5383455753326416,-0.4762628972530365,-0.2303993254899978,0.0,0.0,0.6156392097473145,-0.298274278640747
-999.0,0.79066002368927,-0.3385858237743377,-0.5101484656333923,-0.4876681566238403,-0.2281054705381393,0.0,0.0,0.8180921077728271,-0.8230372667312622
-0.1547780036926269,0.7797316312789917,-0.3321765959262848,-0.488785833120346,-0.4973267018795013,-0.1931707113981247,0.0,0.0,0.503004789352417,-0.367939829826355
-0.1581044197082519,0.7694444060325623,-0.3236013948917389,-0.4605110585689544,-0.5075001120567322,-0.2034686505794525,0.0,0.0,0.2146821022033691,-0.3342986106872558
-0.1611869782209396,0.7598224878311157,-0.2993334829807281,-0.4309811592102051,-0.5175948739051819,-0.2018956393003463,0.0,0.0,0.874922513961792,-0.6934715509414673
-0.164143368601799,0.7504433393478394,-0.2882527709007263,-0.4196806252002716,-0.5259978771209717,-0.1680597364902496,0.0,0.0,0.8071596622467041,-0.4062401056289673
-0.1666807234287262,0.742104709148407,-0.2465157210826873,-0.3734273016452789,-0.5342580676078796,-0.1652053296566009,0.0,0.0,0.9886090755462646,-0.8593612909317017
-0.1691685616970062,0.7344954013824463,-0.2429893463850021,-0.3404999673366546,-0.5409299731254578,-0.1334376037120819,0.0,0.0,0.9726524353027344,0.1794588565826416
-0.1714092195034027,0.7278614044189453,-0.2178493291139602,-0.297347217798233,-0.5481008887290955,-0.1434184610843658,0.0,0.0,0.9968662261962892,-0.869752824306488
-0.1733551919460296,0.7220642566680908,-0.1900851428508758,-0.2595016360282898,-0.5533283948898315,-0.1045501828193664,0.0,0.0,0.9746031761169434,-0.5676076412200928
-0.1750196516513824,0.7175750136375427,-0.1626073718070984,-0.2011055052280426,-0.5577757954597473,-0.0889481306076049,0.0,0.0,0.9653232097625732,-0.5463026762008667
-0.1763520240783691,0.7137711644172668,-0.1306651532649994,-0.1701429337263107,-0.5607802271842957,-0.0600881204009056,0.0,0.0,0.9211057424545288,-0.7520115375518799
-0.1776041090488433,0.7104710936546326,-0.1239407509565353,-0.1471996158361435,-0.562261164188385,-0.0296190474182367,0.0,0.0,0.8173010349273682,-0.7048733234405518
-0.1787196099758148,0.7074483036994934,-0.1117322891950607,-0.1342702507972717,-0.5620511174201965,0.0042015179060399,0.0,0.0,0.8655426502227783,-0.6959809064865112
-0.1797847747802734,0.7048308849334717,-0.1079094856977462,-0.1157479137182235,-0.5604273676872253,0.0324744544923305,0.0,0.0,0.9224257469177246,-0.6957375407218933
-0.1804842054843902,0.70329350233078,-0.0726206600666046,-0.0672117248177528,-0.5573029518127441,0.0624879896640777,0.0,0.0,-0.2262566685676574,-0.8533791899681091
-0.1813011169433593,0.701659619808197,-0.0857807844877243,-0.0709283202886581,-0.5525519847869873,0.0950176641345024,0.0,0.0,0.1321662664413452,-0.886735737323761
-0.18202705681324,0.700724184513092,-0.0783720389008522,-0.0392164103686809,-0.5458610653877258,0.1338178664445877,0.0,0.0,0.3762056827545166,-0.7039140462875366
-0.1828316748142242,0.7001230716705322,-0.0874396339058876,-0.0239089448004961,-0.53781658411026,0.1608897149562835,0.0,0.0,0.281923770904541,-0.9047401547431946
-0.1834182739257812,0.7001967430114746,-0.0674152076244354,0.0067284698598086,-0.527772068977356,0.2008901387453079,0.0,0.0,-0.124638557434082,-0.7822026014328003
-0.1841346770524978,0.7001761794090271,-0.0822193771600723,0.0031376718543469,-0.5157355070114136,0.2407296448945999,0.0,0.0,0.5169494152069092,-0.6507266163825989
-0.1847025901079177,0.7009004354476929,-0.0686208754777908,0.0365926176309585,-0.5023661851882935,0.2673867642879486,0.0,0.0,0.0072083473205566,-0.6006513833999634
-0.1851789504289627,0.7020801901817322,-0.0607255697250366,0.0571538843214511,-0.4876680672168731,0.2939621806144714,0.0,0.0,-0.3615422248840332,-0.1184917688369751
-0.1857205331325531,0.7031127214431763,-0.0674118846654892,0.0505060516297817,-0.4728985428810119,0.2953903973102569,0.0,0.0,-0.3899734020233154,0.0190200805664062
-0.186326116323471,0.7039980292320251,-0.0739919543266296,0.0438581146299839,-0.4580510258674621,0.2969503998756408,0.0,0.0,-0.3491331338882446,0.0890933275222778
-0.1869946420192718,0.7047363519668579,-0.0804567486047744,0.0372100435197353,-0.4431187212467193,0.2986454367637634,0.0,0.0,0.054367184638977,0.5500380992889404
-0.1874352395534515,0.7057262659072876,-0.0569417253136634,0.0480014830827713,-0.4290879964828491,0.2806145548820495,0.0,0.0,-0.3035967350006103,-0.1375405192375183
-0.1879361122846603,0.7065686583518982,-0.0631445571780204,0.0413552671670913,-0.4149585962295532,0.2825880646705627,0.0,0.0,-0.0148564577102661,0.3350026607513428
-0.1884957253932953,0.7072636485099792,-0.0692009180784225,0.0347088798880577,-0.4007234275341034,0.2847033739089966,0.0,0.0,-0.252652108669281,0.6331567764282227
-0.189063161611557,0.70778489112854,-0.068881943821907,0.0265383217483758,-0.3877461850643158,0.25954470038414,0.0,0.0,-0.0027711391448974,0.2160191535949707
-0.1896861046552658,0.7081582546234131,-0.0746073871850967,0.0198943950235843,-0.374648779630661,0.2619482278823852,0.0,0.0,-0.0403156280517578,0.3541721105575561
-0.1903625428676605,0.7083839774131775,-0.0801488757133483,0.0132502550259232,-0.3614239692687988,0.2644962966442108,0.0,0.0,0.0855460166931152,0.6126718521118164
-0.190963938832283,0.7089244723320007,-0.0715805739164352,0.0268637742847204,-0.3493752181529999,0.2409751415252685,0.0,0.0,0.2171282768249511,0.5524215698242188
-0.1912904679775238,0.7101612687110901,-0.0433337017893791,0.0575263388454914,-0.3381803929805755,0.2238971292972564,0.0,0.0,0.0449090003967285,0.1979918479919433
-0.1915587484836578,0.7117664217948914,-0.0376177765429019,0.0738343149423599,-0.3269047141075134,0.2255136221647262,0.0,0.0,-0.0367910265922546,0.0568348169326782
-0.1918716430664062,0.713223397731781,-0.0422764122486114,0.0671937316656112,-0.3154729008674621,0.2286370992660522,0.0,0.0,-0.267935574054718,0.2698216438293457
-0.1922264993190765,0.7145320773124695,-0.0466763935983181,0.0605528727173805,-0.3038778603076935,0.231900930404663,0.0,0.0,0.1687203645706176,0.57564377784729
-0.1924576759338379,0.7164543867111206,-0.0333082266151905,0.0875304192304611,-0.2933513224124908,0.2105308473110199,0.0,0.0,0.2591308355331421,0.2865104675292969
-0.1926204711198806,0.7190749049186707,-0.0263909790664911,0.1184688955545425,-0.2829395532608032,0.2082353383302688,0.0,0.0,-0.3342866897583008,0.5851291418075562
-0.1927743852138519,0.721526563167572,-0.0246018283069133,0.1107092797756195,-0.2734846174716949,0.1890984922647476,0.0,0.0,0.1993399858474731,0.4411425590515136
-0.1929219216108322,0.7244939804077148,-0.0237843543291091,0.1335484236478805,-0.2642313838005066,0.1850651055574417,0.0,0.0,-0.5181697010993958,0.4947772026062011
-0.1930958777666092,0.7273125052452087,-0.0266498867422342,0.1269110888242721,-0.2547816932201385,0.1889938563108444,0.0,0.0,-0.5101842284202576,0.5580191612243652
-0.1932421624660492,0.72996586561203,-0.0228004865348339,0.1193201839923858,-0.2464533299207687,0.1665675342082977,0.0,0.0,-0.137736976146698,0.4525840282440185
-0.1934078186750412,0.7324700951576233,-0.0249486993998289,0.1126841157674789,-0.2379163801670074,0.1707386076450348,0.0,0.0,-0.6249825954437256,0.5512082576751709
-0.1935356110334396,0.7348102927207947,-0.0200502332299947,0.1051652804017067,-0.2305417507886886,0.1474925726652145,0.0,0.0,-0.1183570027351379,0.4367763996124267
-0.1936750411987304,0.7370012402534485,-0.0214339159429073,0.0985303446650505,-0.2229472249746322,0.1518901735544204,0.0,0.0,-0.3133621215820312,0.4806373119354248
-0.193821907043457,0.7390429973602295,-0.0224218945950269,0.0918950960040092,-0.2151274979114532,0.1563947349786758,0.0,0.0,-0.3427441120147705,0.699565052986145
-0.1939113587141037,0.7409157156944275,-0.0153580103069543,0.084148071706295,-0.2086636573076248,0.1292767971754074,0.0,0.0,-0.2496505975723266,0.0053346157073974
-0.1940003335475921,0.7426390051841736,-0.0155361862853169,0.0775140300393104,-0.2019644975662231,0.133983165025711,0.0,0.0,-0.4586814641952514,0.1971387863159179
-0.1940844506025314,0.7442130446434021,-0.015305196866393,0.0708796679973602,-0.1950252950191497,0.1387841552495956,0.0,0.0,-0.1971142292022705,0.5277607440948486
-0.1941137313842773,0.7456212043762207,-0.0088681625202298,0.0633623749017715,-0.18904510140419,0.1196042895317077,0.0,0.0,-0.4110750555992126,0.1759930849075317
-0.1941298544406891,0.7468802332878113,-0.0078206937760114,0.056728646159172,-0.1828159540891647,0.1245826631784439,0.0,0.0,-0.1581621170043945,0.3718558549880981
-0.1941289901733398,0.7479897141456604,-0.0063708336092531,0.0500945970416069,-0.1763337552547454,0.129643827676773,0.0,0.0,-0.4115979671478271,0.65569007396698
-0.1940578520298004,0.7489364147186279,0.0016524309758096,0.0427093245089054,-0.1708623170852661,0.1094286292791366,0.0,0.0,-0.2186490893363952,0.6078925132751465
-0.1939125061035156,0.749719500541687,0.0100788874551653,0.0353128649294376,-0.1664014458656311,0.0892177820205688,0.0,0.0,-0.2899184226989746,0.5730901956558228
-0.1936846673488617,0.7503342032432556,0.0194616131484508,0.0276860371232032,-0.1630761325359344,0.0665061473846435,0.0,0.0,-0.4275565147399902,0.6488709449768066
-0.1933651864528656,0.7507873773574829,0.0298551432788372,0.0203704535961151,-0.1609910428524017,0.0417021811008453,0.0,0.0,-0.5902705192565918,0.8216245174407959
-0.1929421424865722,0.7510823607444763,0.0416541546583175,0.0131769236177206,-0.1603438705205917,0.0129435379058122,0.0,0.0,-0.4597136974334717,0.4392378330230713
