x_pos,y_pos,x_vel,y_vel,angle,ang_vel,leg_1,leg_2,main_booster,lat_booster
-0.001511764479801,1.403064250946045,-0.1528114080429077,-0.3491465449333191,0.0014602255541831,0.0287820100784301,0.0,0.0,-0.0523848533630371,0.2226003408432006
-0.0030114173423498,1.3946714401245115,-0.1511171758174896,-0.3730149865150451,0.0025957319885492,0.0227128900587558,0.0,0.0,0.3083735704421997,0.9112880229949952
-0.004306030459702,1.3861920833587646,-0.1286247968673706,-0.3768633604049682,0.0017682646866887,-0.0165507793426513,0.0,0.0,0.1238524913787841,0.5136946439743042
-0.0056368829682469,1.3776603937149048,-0.1307659298181533,-0.3791869878768921,-0.0005145355244167,-0.0456605590879917,0.0,0.0,0.1113468408584594,0.4804831743240356
-0.0068671228364109,1.369226336479187,-0.1209008544683456,-0.3748449981212616,-0.0026139465626329,-0.0419920086860656,0.0,0.0,-0.6185476183891296,-0.1531676054000854
-0.0080835344269871,1.3602323532104492,-0.1193002015352249,-0.3997446000576019,-0.0049264812842011,-0.0462549328804016,0.0,0.0,0.0826398134231567,0.858918309211731
-0.0092335697263479,1.3512455224990845,-0.1107415333390235,-0.3994327485561371,-0.0091378018260002,-0.0842344313859939,0.0,0.0,-0.0001993179321289,-0.3866539001464844
-0.0103688240051269,1.3416987657546997,-0.1091045290231704,-0.4243347942829132,-0.0135179115459322,-0.0876098126173019,0.0,0.0,0.0363004207611084,0.5890374183654785
-0.011444091796875,1.3323850631713867,-0.1017564162611961,-0.414000540971756,-0.0192244667559862,-0.1141416281461715,0.0,0.0,0.0230400562286376,0.3722265958786011
-0.0124957086518406,1.3231863975524902,-0.0992709547281265,-0.4089241325855255,-0.0250562839210033,-0.1166469827294349,0.0,0.0,-0.5574783086776733,0.0266354084014892
-0.0135315898805856,1.3134278059005735,-0.0975930839776992,-0.4338253140449524,-0.0309878177940845,-0.1186412572860717,0.0,0.0,-0.7260802388191223,-0.8708167672157288
-0.0146119119599461,1.3031105995178225,-0.103505715727806,-0.4586446583271026,-0.0354704819619655,-0.0896613299846649,0.0,0.0,-0.6536566615104675,0.0231344699859619
-0.0156758315861225,1.2922333478927612,-0.1018126234412193,-0.4835426211357116,-0.0400039404630661,-0.090677410364151,0.0,0.0,0.1022238731384277,-0.3341633677482605
-0.0166674610227346,1.2811486721038818,-0.0947782546281814,-0.4927747547626495,-0.0443445220589637,-0.0868192762136459,0.0,0.0,-0.5106833577156067,-0.624501645565033
-0.017679501324892,1.2695130109786987,-0.097780741751194,-0.517248809337616,-0.047734223306179,-0.0677999705076217,0.0,0.0,-0.078071117401123,-0.413144588470459
-0.018674086779356,1.2573171854019165,-0.0960682481527328,-0.5421451926231384,-0.0510981790721416,-0.0672847554087638,0.0,0.0,-0.5057749152183533,-0.3802902698516845
-0.0196509361267089,1.2445614337921145,-0.0943498462438583,-0.5670424103736877,-0.0544103682041168,-0.0662494003772735,0.0,0.0,0.1038346290588378,-0.9572211503982544
-0.0205592159181833,1.231609344482422,-0.0894719958305358,-0.5757019519805908,-0.0557489953935146,-0.0267747528851032,0.0,0.0,-0.7171310782432556,-0.8351173400878906
-0.0215042121708393,1.2181092500686646,-0.0946529060602188,-0.5999938249588013,-0.0555935949087142,0.0031084863003343,0.0,0.0,-0.2244908809661865,-0.6401715874671936
-0.0224879272282123,1.204053521156311,-0.100116990506649,-0.6246377229690552,-0.0538699850440025,0.0344751998782157,0.0,0.0,-0.1546865105628967,-0.2554051876068115
-0.0234529487788677,1.1894373893737793,-0.0983987972140312,-0.6495339870452881,-0.0519973076879978,0.0374573841691017,0.0,0.0,-0.3354660272598266,-0.0365271568298339
-0.0243990905582904,1.1742610931396484,-0.0966787785291671,-0.6744298934936523,-0.0499517247080802,0.0409151576459407,0.0,0.0,-0.1656413674354553,-0.6276442408561707
-0.0253649707883596,1.1585267782211304,-0.099839948117733,-0.6992018818855286,-0.0467321760952472,0.0643966495990753,0.0,0.0,-0.6487313508987427,-0.1091462969779968
-0.0263115875422954,1.142232060432434,-0.098122663795948,-0.7240981459617615,-0.0432966575026512,0.068716324865818,0.0,0.0,0.4916119575500488,-0.1689244508743286
-0.0273414608091115,1.1262565851211548,-0.1061007231473922,-0.709941029548645,-0.0402184389531612,0.0615697316825389,0.0,0.0,0.5680785179138184,0.8258459568023682
-0.0284138675779104,1.1107105016708374,-0.1087051406502723,-0.690897524356842,-0.0387675389647483,0.0290179215371608,0.0,0.0,0.0284324884414672,-0.3496102690696716
-0.0294463150203228,1.0952818393707275,-0.1050002351403236,-0.6856725811958313,-0.0370296239852905,0.0347580425441265,0.0,0.0,-0.7369608879089355,0.0506058931350708
-0.0304584503173828,1.0792930126190186,-0.1032776087522506,-0.7105663418769836,-0.0349978990852832,0.0406349524855613,0.0,0.0,0.4252355098724365,-0.1932639479637146
-0.0315394401550293,1.063751459121704,-0.1099405884742736,-0.6906895041465759,-0.0331762582063674,0.0364329889416694,0.0,0.0,0.2453329563140869,0.5958094596862793
-0.0325580611824989,1.0481971502304075,-0.1028096228837966,-0.6912878155708313,-0.0322455130517482,0.0186151545494794,0.0,0.0,-0.746187150478363,-0.5299117565155029
-0.0335966125130653,1.0320903062820437,-0.1061789840459823,-0.7158061861991882,-0.0299515761435031,0.0458785034716129,0.0,0.0,0.3473352193832397,0.0237789154052734
-0.0346672050654888,1.0159621238708496,-0.1094431653618812,-0.7167643904685974,-0.027596078813076,0.0471099056303501,0.0,0.0,-0.4456331133842468,-0.5117826461791992
-0.0357629768550396,0.9992806315422058,-0.1135067790746688,-0.7413385510444641,-0.0237147603183984,0.0776261985301971,0.0,0.0,-0.5866193771362305,0.3595232963562011
-0.0368378646671772,0.9820389747619628,-0.1118089780211448,-0.766233503818512,-0.0194535925984382,0.0852235406637191,0.0,0.0,0.5087161064147949,0.4862680435180664
-0.0378659255802631,0.9650958776474,-0.1075862422585487,-0.7529693841934204,-0.0147327398881316,0.0944173485040664,0.0,0.0,-0.5540252327919006,0.8606517314910889
-0.0388028137385845,0.947597861289978,-0.0970928519964218,-0.777664840221405,-0.0113735841587185,0.0671829953789711,0.0,0.0,0.5643758773803711,-0.1321894526481628
-0.0397387519478797,0.930186688899994,-0.0972937792539596,-0.7738024592399597,-0.0077186706475913,0.073098286986351,0.0,0.0,0.2511543035507202,0.6624925136566162
-0.040564727038145,0.9130843281745912,-0.0854361876845359,-0.76009202003479,-0.0049115559086203,0.0561422891914844,0.0,0.0,0.0163094997406005,0.2326400279998779
-0.041391372680664,0.8961995840072632,-0.0858305916190147,-0.7504248023033142,-0.001788908499293,0.062452882528305,0.0,0.0,-0.3411668539047241,0.6350841522216797
-0.0421445854008197,0.878755509853363,-0.0775826796889305,-0.7752918004989624,0.0004464864032343,0.0447080843150615,0.0,0.0,0.3243556022644043,-0.4229445457458496
-0.0429627411067485,0.8616874814033508,-0.0841329172253608,-0.7585793733596802,0.0027277148328721,0.0456244982779026,0.0,0.0,0.3715856075286865,0.386335015296936
-0.0436589233577251,0.8447118997573853,-0.0728631988167762,-0.7544831037521362,0.0059309946373105,0.0640654563903808,0.0,0.0,-0.33391273021698,0.8533973693847656
-0.0442560203373432,0.8271675109863281,-0.0614121071994304,-0.7797590494155884,0.007617455907166,0.0337291918694973,0.0,0.0,0.7787320613861084,0.5449905395507812
-0.0446796417236328,0.8099173903465271,-0.0437601096928119,-0.7666788101196289,0.0089951055124402,0.0275529976934194,0.0,0.0,0.2388973236083984,0.2679452896118164
-0.0451153740286827,0.7924381494522095,-0.0452884323894977,-0.776869535446167,0.0106957834213972,0.0340132638812065,0.0,0.0,-0.4871280789375305,0.6568515300750732
-0.0454747192561626,0.7743929624557495,-0.0367076061666011,-0.8020120859146118,0.0114592872560024,0.0152703076601028,0.0,0.0,0.5383093357086182,0.2512054443359375
-0.0457618720829486,0.7564128637313843,-0.0302322413772344,-0.799127459526062,0.0129581270739436,0.029976800084114,0.0,0.0,0.1352255344390869,0.7040903568267822
-0.0460683815181255,0.7387388944625854,-0.0311370100826025,-0.7855100631713867,0.0134368073195219,0.0095737995579838,0.0,0.0,0.5150848627090454,-0.3200550079345703
-0.0464864745736122,0.7215866446495056,-0.042207445949316,-0.7623289823532104,0.0138325402513146,0.0079144593328237,0.0,0.0,-0.3479547500610351,0.6270462274551392
-0.0468370430171489,0.703873336315155,-0.0347288772463798,-0.7872489094734192,0.0135082090273499,-0.0064863702282309,0.0,0.0,-0.2230345010757446,0.9218268394470216
-0.0470779426395893,0.6856018304824829,-0.0219518169760704,-0.812052845954895,0.0114000169560313,-0.0421637967228889,0.0,0.0,0.6624746322631836,-0.614227294921875
-0.0474193580448627,0.6678842306137085,-0.0335847288370132,-0.7874414920806885,0.0108505673706531,-0.0109893158078193,0.0,0.0,0.5125641822814941,0.2149670124053955
-0.0476462356746196,0.650218665599823,-0.0230993367731571,-0.7851347327232361,0.0112553192302584,0.0080950828269124,0.0,0.0,-0.0557711124420166,0.532630443572998
-0.0478122718632221,0.6319988369941711,-0.016431363299489,-0.8097712993621826,0.0110885761678218,-0.0033347425051033,0.0,0.0,0.8110363483428955,0.4608672857284546
-0.0478026382625103,0.6140233278274536,-0.0001339679583907,-0.7989222407341003,0.0121731208637356,0.0216911397874355,0.0,0.0,0.6046078205108643,0.6837964057922363
-0.047827910631895,0.59617018699646,-0.0025348556227982,-0.7934706211090088,0.0121821695938706,0.0001809482346288,0.0,0.0,0.8474371433258057,0.2623109817504883
-0.0477413162589073,0.579095721244812,0.0076486514881253,-0.7588749527931213,0.0131771173328161,0.0198988784104585,0.0,0.0,0.5199720859527588,0.6557562351226807
-0.0474550239741802,0.5623983144760132,0.0281399842351675,-0.7421125173568726,0.0136576443910598,0.0096106007695198,0.0,0.0,0.2170248031616211,0.2397520542144775
-0.0471053123474121,0.5460516214370728,0.0337214097380638,-0.7265303134918213,0.0148957390338182,0.0247618071734905,0.0,0.0,-0.7367182374000549,0.7841938734054565
-0.0466851219534873,0.5291529893875122,0.0416319444775581,-0.7510537505149841,0.0152755957096815,0.0075970194302499,0.0,0.0,-0.0062547326087951,0.0346640348434448
-0.0462491996586322,0.5116943717002869,0.0426989272236824,-0.7759487628936768,0.0161613319069147,0.0177145116031169,0.0,0.0,0.5203871726989746,0.2559740543365478
-0.0459007248282432,0.4946416914463043,0.0338788591325283,-0.7579113841056824,0.0171274207532405,0.0193217545747756,0.0,0.0,0.9588756561279296,0.40361487865448
-0.0454013831913471,0.4779523611068725,0.0477475598454475,-0.7417736053466797,0.0192793980240821,0.0430397130548954,0.0,0.0,0.6535521745681763,-0.1820902824401855
-0.0448761954903602,0.4616238474845886,0.0497180484235286,-0.7257498502731323,0.0220501758158206,0.0554154440760612,0.0,0.0,-0.0983202457427978,-0.0532436370849609
-0.0443372726440429,0.4447355270385742,0.0505611784756183,-0.7506458163261414,0.0253317318856716,0.0656311884522438,0.0,0.0,0.8474265336990356,0.5363484621047974
-0.0439068786799907,0.4282746315002441,0.0407087877392768,-0.7316351532936096,0.0276373401284217,0.0461121909320354,0.0,0.0,0.8365106582641602,0.4203848838806152
-0.0434664711356163,0.4126813411712646,0.0410705208778381,-0.6930926442146301,0.0305661633610725,0.0585766434669494,0.0,0.0,0.7337379455566406,0.5789577960968018
-0.0428854934871196,0.3969877660274505,0.0555283240973949,-0.697546124458313,0.0330995023250579,0.0506669394671916,0.0,0.0,0.8802998065948486,0.4938406944274902
-0.0422949790954589,0.3821924924850464,0.0558197908103466,-0.6576414108276367,0.0362899042665958,0.0638081505894661,0.0,0.0,0.6356489658355713,0.633870005607605
-0.0417619720101356,0.3675344586372375,0.0510587394237518,-0.6515257358551025,0.0385014191269874,0.0442301407456398,0.0,0.0,0.9283547401428224,0.5457249879837036
-0.041320513933897,0.3534994125366211,0.0428159162402153,-0.6238157153129578,0.0398131608963012,0.026235070079565,0.0,0.0,0.839820384979248,0.6434332132339478
-0.0408102981746196,0.3399496972560882,0.0503713600337505,-0.6022263765335083,0.0404549986124038,0.0128369433805346,0.0,0.0,0.9183954000473022,0.9021714925765992
-0.0404254905879497,0.3273143470287323,0.0394326224923133,-0.561546266078949,0.0395105071365833,-0.0188898425549268,0.0,0.0,0.8171401023864746,0.854196310043335
-0.0399022102355957,0.3150804042816162,0.0543090924620628,-0.5436789393424988,0.0375518724322319,-0.0391727015376091,0.0,0.0,0.414287805557251,0.5188026428222656
-0.0393753051757812,0.3027850687503814,0.0552653260529041,-0.5463988780975342,0.0350053198635578,-0.050931192934513,0.0,0.0,-0.1007649898529052,0.5784074068069458
-0.038792036473751,0.2899264097213745,0.0616721585392952,-0.5714178681373596,0.0316990204155445,-0.0661259070038795,0.0,0.0,0.902369737625122,-0.2123103141784668
-0.038253117352724,0.277092307806015,0.0568851456046104,-0.570344865322113,0.0287449676543474,-0.0590810179710388,0.0,0.0,0.8931888341903687,-0.5637621283531189
-0.0377915389835834,0.2650638520717621,0.0475076176226139,-0.53457111120224,0.0274040140211582,-0.0268191136419773,0.0,0.0,0.920351505279541,0.4828188419342041
-0.0372603423893451,0.2539011240005493,0.0535158738493919,-0.4961146116256714,0.0270150173455476,-0.0077798375859856,0.0,0.0,0.2389336824417114,-0.52556973695755
-0.0368773452937603,0.2430974096059799,0.0372962765395641,-0.4801851511001587,0.027998249977827,0.0196649618446826,0.0,0.0,0.7773551940917969,-0.1868171095848083
-0.0366426482796669,0.2322621494531631,0.022599222138524,-0.481582373380661,0.0288599599152803,0.0172341298311948,0.0,0.0,0.5845093727111816,0.5912933349609375
-0.0363412871956825,0.2220128923654556,0.0298255886882543,-0.455530434846878,0.0291678290814161,0.0061572389677166,0.0,0.0,0.3271797895431518,-0.0648898482322692
-0.0361355766654014,0.2118933051824569,0.0201098974794149,-0.4497691690921783,0.0296220406889915,0.009084110148251,0.0,0.0,0.6721625328063965,0.4848133325576782
-0.0360073074698448,0.2022398561239242,0.0120947007089853,-0.4290537238121032,0.0303426124155521,0.0144116654992103,0.0,0.0,0.6727432012557983,0.9845166206359864
-0.0358389839529991,0.1930961012840271,0.0175793413072824,-0.4063780903816223,0.0296103712171316,-0.0146450223401188,0.0,0.0,0.2131468057632446,0.6195433139801025
-0.0355665199458599,0.1840383112430572,0.0285900793969631,-0.4025410711765289,0.028286688029766,-0.02647365629673,0.0,0.0,0.7462049722671509,0.4771974086761474
-0.0352832786738872,0.1749641448259353,0.0290095768868923,-0.4032818675041199,0.0276019182056188,-0.0136954020708799,0.0,0.0,0.5055359601974487,0.1926790475845337
-0.0349307060241699,0.1658838391304016,0.0350299291312694,-0.403577446937561,0.0278310533612966,0.0045827194117009,0.0,0.0,0.6178727149963379,0.2850856781005859
-0.0344552025198936,0.1570879817008972,0.0461057312786579,-0.390952467918396,0.0292492229491472,0.0283634774386882,0.0,0.0,0.7481362819671631,-0.7629752159118652
-0.0338972099125385,0.148356631398201,0.0519627034664154,-0.3881390690803528,0.0330387353897094,0.0757903531193733,0.0,0.0,0.4123730659484863,-0.5679270029067993
-0.0334177985787391,0.1400302797555923,0.042446132749319,-0.3701952695846557,0.0384672321379184,0.1085700765252113,0.0,0.0,0.2213282585144043,-0.2329132556915283
-0.0329447761178016,0.1319862157106399,0.0411669351160526,-0.3576820194721222,0.0445225313305854,0.121106132864952,0.0,0.0,-0.0507422685623168,-0.3939680457115173
-0.032480239868164,0.1233829110860824,0.0398014299571514,-0.382581353187561,0.0510980822145938,0.1315106153488159,0.0,0.0,0.4571667909622192,0.4607636928558349
-0.0319505706429481,0.1146585792303085,0.0453745052218437,-0.3880236446857452,0.0586043857038021,0.1501263082027435,0.0,0.0,0.6595066785812378,0.9670343399047852
-0.03144321590662,0.1061398833990097,0.0446378774940967,-0.3788599073886871,0.0646285116672515,0.1204825416207313,0.0,0.0,0.6667301654815674,0.5753116607666016
-0.0308655742555856,0.0983850061893463,0.0520799160003662,-0.3449181020259857,0.0702567249536514,0.1125642210245132,0.0,0.0,0.4641718864440918,0.6854692697525024
-0.0303025245666503,0.0908286198973655,0.0515207946300506,-0.3360719680786133,0.0749929249286651,0.0947238877415657,0.0,0.0,0.4653134346008301,0.6911602020263672
-0.0298706050962209,0.0837669000029563,0.0395150817930698,-0.3140402734279632,0.0786387622356414,0.0729165896773338,0.0,0.0,0.1254570484161377,0.995457410812378
-999.0,0.0768792703747749,0.0509946346282959,-0.3062338232994079,0.0808001682162284,0.0432283021509647,0.0,0.0,0.3989019393920898,0.766119122505188
-0.0288607589900493,0.0703886151313781,0.0467266030609607,-0.2885323762893677,0.0818698853254318,0.0213942732661962,0.0,0.0,0.4479928016662597,0.5051648616790771
-0.0284868236631155,0.0643185228109359,0.0370134674012661,-0.2698055505752563,0.0822427943348884,0.0074583897367119,0.0,0.0,0.3648077249526977,-0.7388231754302979
-0.0282404907047748,0.0582913495600223,0.0222941078245639,-0.2680061757564544,0.084559179842472,0.0463275946676731,0.0,0.0,0.3482742309570312,0.9906001091003418
-0.0280807502567768,0.0524351224303245,0.0151834664866328,-0.2603222727775574,0.0853459537029266,0.0157355926930904,0.0,0.0,0.5445141792297363,0.8972676992416382
-0.0280631072819232,0.0467378944158554,0.002469306346029,-0.2531682848930359,0.0846408233046531,-0.0141026182100176,0.0,0.0,0.7619040012359619,0.9664552211761476
-0.0279223434627056,0.0416580066084861,0.0160529054701328,-0.2256622463464737,0.0826880559325218,-0.0390556119382381,0.0,0.0,0.4151530265808105,0.7852065563201904
-0.0277007110416889,0.0364992953836917,0.0251268856227397,-0.2291173338890075,0.0797486901283264,-0.0587871670722961,0.0,0.0,0.4552042484283447,-0.4029717445373535
-0.0274196621030569,0.0318010672926902,0.0299827307462692,-0.2087123543024063,0.0778880044817924,-0.0372135378420352,0.0,0.0,0.2704555988311767,0.856631875038147
-0.0271526332944631,0.0274483058601617,0.0298371501266956,-0.19329434633255,0.0747855305671691,-0.062049500644207,0.0,0.0,0.231369137763977,0.4797254800796509
-0.0268420223146677,0.023500595241785,0.0332139581441879,-0.1753476709127426,0.0726528614759445,-0.0426531918346881,0.0,0.0,0.1568529605865478,0.9715332984924316
-0.026436423882842,0.0196158271282911,0.0441943258047103,-0.1724833995103836,0.0690597370266914,-0.071862444281578,0.0,0.0,-0.1315664649009704,0.3449472188949585
-0.0260461810976266,0.0151715138927102,0.0421831086277961,-0.1973815709352493,0.0659326463937759,-0.062542013823986,0.0,0.0,0.6497302055358887,0.5754549503326416
-0.0256131179630756,0.0113607021048665,0.0469928495585918,-0.1692102551460266,0.0622827224433422,-0.0729985013604164,0.0,0.0,0.1477255821228027,0.1682662963867187
-0.0251599308103323,0.0074723935686051,0.0482947453856468,-0.1726942807435989,0.0593435764312744,-0.0587829425930976,0.0,0.0,0.4158926010131836,-0.2788292169570923
-0.0248588565737009,0.0038085316773504,0.033125203102827,-0.1627224534749984,0.0563632845878601,-0.0596060939133167,0.0,1.0,0.9516398906707764,0.880403995513916
-0.0247171409428119,0.0007904744124971,0.0263868924230337,-0.1339544653892517,0.043524969369173,-0.2577534019947052,0.0,1.0,0.7876056432723999,0.305557370185852
-0.0246940609067678,-0.0015526675852015,0.0246913973242044,-0.1036469489336013,0.0213840790092945,-0.4428625106811523,0.0,1.0,0.3162068128585815,-0.1515751481056213
-0.0246992111206054,-0.0035897516645491,0.0280820168554782,-0.090381272137165,-0.0068853730335831,-0.5654343366622925,1.0,1.0,0.8769712448120117,-0.7039609551429749
-0.024547005072236,-0.0049057863652706,0.03168386220932,-0.0588942617177963,-0.0220870915800333,-0.3027113080024719,1.0,1.0,0.8272829055786133,-0.7302519679069519
-0.0242595672607421,-0.0048582218587398,0.0301681812852621,0.0020779664628207,-0.0234627816826105,-0.0274817887693643,1.0,1.0,-0.4635693430900574,-0.8505332469940186
-0.0240644458681345,-0.0045195128768682,0.0142126400023698,0.0151236858218908,-0.0182275790721178,0.1047058477997779,1.0,1.0,-0.3808777332305908,0.4681671857833862
-0.0238917358219623,-0.0039104726165533,0.0119106899946928,0.0271312799304723,-0.0129590267315506,0.1053323149681091,1.0,1.0,-0.5135181546211243,0.2388478517532348
