x_pos,y_pos,x_vel,y_vel,angle,ang_vel,leg_1,leg_2,main_booster,lat_booster
-0.0015267372364178,1.403498888015747,-0.1546861231327057,-0.329833447933197,0.0018117255531251,0.0357414260506629,0.0,0.0,-0.3858269972439867,-0.6261695690639034
-0.003101444337517,1.3959720134735107,-0.1604402214288711,-0.3345312476158142,0.0047454056330025,0.058680135756731,0.0,0.0,-0.4779037476920413,0.7644097753692685
-0.0046057701110839,1.3883142471313477,-0.1515647768974304,-0.3403558433055877,0.0058667780831456,0.022429421544075,0.0,0.0,-0.9413211168706144,0.6773923691977195
-0.0060701370239257,1.3805288076400757,-0.1465189903974533,-0.3460197150707245,0.005947446450591,0.0016133289318531,0.0,0.0,-0.605828255936024,0.898625687684887
-0.0074515342712402,1.3726214170455933,-0.1360706388950348,-0.3514352440834045,0.0039031298365443,-0.0408902205526828,0.0,0.0,0.0981659026056154,-0.97331125457879
-0.0088049890473485,1.365128517150879,-0.1352500021457672,-0.3330115973949432,0.003815955016762,-0.0017437050119042,0.0,0.0,-0.1232365393685741,-0.8699414571091262
-0.0102320667356252,1.3575096130371094,-0.1444586217403412,-0.3386217653751373,0.0055442354641854,0.0345686972141265,0.0,0.0,-0.8694102408181879,-0.9514332206863676
-0.0117182731628417,1.3497676849365234,-0.1518265008926391,-0.3441060781478882,0.0087186126038432,0.0634934157133102,0.0,0.0,0.805164871495551,0.988359267108296
-0.0131519315764307,1.3432830572128296,-0.1446081399917602,-0.2882111966609955,0.0099385911598801,0.0244020503014326,0.0,0.0,0.2007800499036689,0.5743166700003743
-0.0145488735288381,1.3374687433242798,-0.1397991925477981,-0.2584146857261657,0.0100470976904034,0.0021702672820538,0.0,0.0,0.975858161247538,-0.5506823602712339
-0.0158893577754497,1.3325965404510498,-0.1356279700994491,-0.2165522873401641,0.0116051267832517,0.0311634745448827,0.0,0.0,-0.0940208429850137,0.8882895458118484
-0.0171540267765522,1.3275980949401855,-0.1260754019021988,-0.2221467196941375,0.0112190004438161,-0.0077235451899468,0.0,0.0,-0.2989885770655456,-0.8849496901953569
-0.0184756275266408,1.3224778175354004,-0.1331852376461029,-0.227576196193695,0.0122321862727403,0.0202657673507928,0.0,0.0,-0.1097981248958623,-0.6226691774636953
-0.0198428146541118,1.317225456237793,-0.1388741731643676,-0.2334620356559753,0.0143593586981296,0.0425473898649215,0.0,0.0,-0.2258843117312841,0.6002046453002494
-0.02115373685956,1.3118548393249512,-0.1317804306745529,-0.2386996299028396,0.0150367664173245,0.0135497990995645,0.0,0.0,-0.3259257535002124,-0.5056824240827529
-0.0224990844726562,1.306351900100708,-0.1360824853181839,-0.2445883452892303,0.016554981470108,0.0303672794252634,0.0,0.0,0.9869448704503267,-0.76463781141173
-0.0237444881349802,1.3022783994674685,-0.1280507147312164,-0.181088849902153,0.0200380589812994,0.0696677193045616,0.0,0.0,0.3949394326816533,-0.7668106257449779
-0.0249238014221191,1.2985495328903198,-0.1232136264443397,-0.1658135056495666,0.0252626091241836,0.1045003905892372,0.0,0.0,-0.6851089317050234,0.696486073038938
-0.026041030883789,0.0,-0.1153976917266845,-0.170970007777214,0.0288942791521549,0.0726398900151252,0.0,0.0,0.6489845836242782,-0.961493475542764
-0.0273427013307809,0.0,-0.1356588304042816,-0.1392851620912552,0.0343293100595474,0.1087101250886917,0.0,0.0,-0.4685486480531649,-0.6890150886731534
-0.0286887176334857,1.2883188724517822,-0.1412050724029541,-0.1447777450084686,0.0408534072339534,0.1304937303066253,0.0,0.0,-0.1595243176225971,0.6212586371427913
-0.0299860946834087,1.2849396467208862,-0.1350591778755188,-0.1503472328186035,0.0461289212107658,0.1055196672677993,0.0,0.0,-0.799116243463821,-0.836204351712927
-0.031336210668087,1.2814302444458008,-0.141675055027008,-0.156185045838356,0.052718661725521,0.1318066716194152,0.0,0.0,-0.1575650602157279,0.780724449475032
-0.0326182357966899,0.0,-0.1331155896186828,-0.1618544906377792,0.057583499699831,0.097305528819561,0.0,0.0,-0.4560248447244237,-0.5937566589625893
-0.0339591018855571,1.2740263938903809,-0.1404750943183899,-0.1676471531391143,0.0639156773686409,0.126654714345932,0.0,0.0,0.9726817230269292,-0.7174250420581114
-0.0355975143611431,1.2713525295257568,-0.1712187677621841,-0.1191692873835563,0.0712206214666366,0.146098718047142,0.0,0.0,0.6162630366121262,-0.9902432735432378
-0.037360955029726,1.269615650177002,-0.1857245862483978,-0.0776693001389503,0.0805051773786544,0.1856909096240997,0.0,0.0,-0.9181001611876244,0.808949697535898
-0.0390750877559185,1.267768621444702,-0.1795122325420379,-0.0825486108660698,0.0885290950536727,0.1604785621166229,0.0,0.0,0.3318891148993568,-0.888437056219654
-0.0410347953438758,1.2667120695114136,-0.2057477682828903,-0.0475672744214534,0.0982203856110572,0.193825826048851,0.0,0.0,0.4156543555484204,0.8564210309449806
-0.0429879203438758,1.2661583423614502,-0.2033365964889526,-0.0251563899219036,0.1061830967664718,0.1592544913291931,0.0,0.0,-0.0724176450011906,0.5859467538559612
-0.0448935516178607,1.265493869781494,-0.1973747313022613,-0.0300271455198526,0.1129386872053146,0.135111778974533,0.0,0.0,-0.9783633947372437,0.9295544624328612
-0.0467347130179405,1.264709711074829,-0.1892869025468826,-0.0352479889988899,0.1180807948112487,0.1028420776128768,0.0,0.0,-0.9814248085021972,0.965069055557251
-0.0485103614628315,1.2638211250305176,-0.1810679733753204,-0.0397820323705673,0.1215554177761077,0.0694925934076309,0.0,0.0,-0.9895694255828856,0.9753844738006592
-0.050216007977724,1.262810468673706,-0.1723057329654693,-0.0450553111732006,0.1232904642820358,0.034700620919466,0.0,0.0,-0.991502046585083,0.9810729026794434
-0.0518416389822959,1.2616910934448242,-0.1622819006443023,-0.0497264117002487,0.1230096742510795,-0.0056158048100769,0.0,0.0,-0.9892875552177428,0.8565026521682739
-0.0533973686397075,1.260465383529663,-0.1535113453865051,-0.0543078556656837,0.1209603548049926,-0.0409866906702518,0.0,0.0,-0.998579204082489,0.8591675758361816
-0.0548868179321289,1.259121656417847,-0.1452338993549347,-0.0594272390007972,0.1172677725553512,-0.0738514512777328,0.0,0.0,-0.9977059364318848,0.6514860391616821
-0.0563208572566509,1.257667064666748,-0.1382849216461181,-0.0642518326640129,0.1121851950883865,-0.101651445031166,0.0,0.0,-0.938805341720581,0.3285659551620483
-0.0577531829476356,1.256087303161621,-0.1381145119667053,-0.0698354020714759,0.1070965528488159,-0.1017730012536048,0.0,0.0,-0.991862177848816,0.7090163230895996
-0.0591255202889442,1.2543928623199463,-0.1306081712245941,-0.0748537629842758,0.1005203425884246,-0.1315242052078247,0.0,0.0,-0.97033029794693,0.4051809310913086
-0.0604960434138774,1.2525732517242432,-0.1304118633270263,-0.0804387778043747,0.0939370095729827,-0.1316669285297393,0.0,0.0,-0.9734917879104614,0.4436075687408447
-0.0618645660579204,1.2506288290023804,-0.1302038133144378,-0.0860238075256347,0.087346076965332,-0.1318185031414032,0.0,0.0,-0.8750601410865784,0.7323641777038574
-0.0631635636091232,1.2485599517822266,-0.1215243563055992,-0.0914762020111084,0.0790550410747528,-0.1658209264278412,0.0,0.0,-0.9728143811225892,-0.2835755348205566
-0.0644603744149208,1.2463667392730713,-0.1212946400046348,-0.0970633774995803,0.070755735039711,-0.1659860908985138,0.0,0.0,-0.9505289793014526,0.1125824451446533
-0.0657549872994422,1.2440485954284668,-0.121055282652378,-0.1026505529880523,0.0624479316174984,-0.1661563217639923,0.0,0.0,-0.9288273453712464,-0.399080753326416
-0.0670472159981727,1.2416058778762815,-0.1208069324493408,-0.1082377582788467,0.0541314221918582,-0.1663303524255752,0.0,0.0,-0.974378228187561,-0.6500464081764221
-0.0683829337358474,1.2390310764312744,-0.1263296753168106,-0.1141921281814575,0.0469693318009376,-0.1432417631149292,0.0,0.0,-0.9873651266098022,-0.1297708749771118
-0.0697161704301834,1.2363314628601074,-0.1260652691125869,-0.1197778731584549,0.0397983491420745,-0.1434197723865509,0.0,0.0,-0.9174938201904296,-0.1677501201629638
-0.0710468292236328,1.233506679534912,-0.1257936209440231,-0.1253636181354522,0.0326184704899787,-0.1435975879430771,0.0,0.0,-0.9551168084144592,-0.1347466707229614
-0.0723747238516807,1.230557203292847,-0.125515267252922,-0.130949392914772,0.0254297666251659,-0.1437739878892898,0.0,0.0,-0.9942209720611572,-0.0156981945037841
-0.0736998543143272,1.2274826765060425,-0.1252307146787643,-0.1365351676940918,0.0182323828339576,-0.1439475268125534,0.0,0.0,-0.9703056216239928,-0.1935648918151855
-0.07502231746912,1.2242833375930786,-0.1249404400587081,-0.1421209722757339,0.0110265426337718,-0.1441169828176498,0.0,0.0,-0.9808921217918396,-0.230181336402893
-0.0763418227434158,1.220959186553955,-0.12464489787817,-0.1477067619562149,0.0038125019054859,-0.1442809700965881,0.0,0.0,-0.9448181390762328,-0.2974873781204223
-0.0776583701372146,1.2175099849700928,-0.1243445053696632,-0.1532925963401794,-0.003409411991015,-0.1444381326436996,0.0,0.0,-0.9680756330490112,0.3439180850982666
-0.0789719596505165,1.21393620967865,-0.1240396350622177,-0.1588784307241439,-0.0106387725099921,-0.1445871740579605,0.0,0.0,-0.9833191633224488,0.1682647466659546
-0.0802825912833213,1.2102372646331787,-0.1237306594848632,-0.1644642949104309,-0.0178751125931739,-0.1447267234325409,0.0,0.0,-0.9869304895401,0.5326457023620605
-0.0815413445234298,1.2064173221588137,-0.1172982230782508,-0.16990527510643,-0.0263422634452581,-0.1693431437015533,0.0,0.0,-0.990289568901062,0.2181777954101562
-0.0827970504760742,1.202472448348999,-0.116982065141201,-0.1754927635192871,-0.0348152332007885,-0.1694594919681549,0.0,0.0,-0.9943246245384216,0.140080451965332
-0.0840495079755783,1.198403239250183,-0.1166628003120422,-0.1810802668333053,-0.0432933457195758,-0.1695623993873596,0.0,0.0,-0.992550790309906,0.2094678878784179
-0.0852987319231033,1.1942094564437866,-0.116340696811676,-0.1866677552461624,-0.0517758652567863,-0.1696505844593048,0.0,0.0,-0.9839869141578674,-0.1947572231292724
-0.0865447074174881,1.18989098072052,-0.1160159856081008,-0.1922552734613418,-0.0602620057761669,-0.1697227209806442,0.0,0.0,-0.9886258244514464,-0.328998327255249
-0.0877874344587326,1.1854478120803833,-0.1156889051198959,-0.1978427916765213,-0.0687508732080459,-0.1697775423526764,0.0,0.0,-0.9967091083526612,-0.3217886090278625
-0.0890267342329025,1.1808799505233765,-0.1153596863150596,-0.2034302800893783,-0.0772415623068809,-0.1698138415813446,0.0,0.0,-0.9980849027633668,0.2146570682525634
-0.0902627930045127,1.176187515258789,-0.1150285378098487,-0.2090177685022354,-0.0857330709695816,-0.1698302924633026,0.0,0.0,-0.995375156402588,-0.4978761076927185
-0.0914955139160156,1.1713706254959106,-0.114695630967617,-0.2146052718162536,-0.0942243486642837,-0.1698257029056549,0.0,0.0,-0.9897815585136414,-0.4137989282608032
-0.0927248001098632,1.166429042816162,-0.1143611520528793,-0.2201927304267883,-0.1027142703533172,-0.1697988808155059,0.0,0.0,-0.9945473074913024,-0.1184168457984924
-0.093950554728508,1.1613627672195437,-0.1140252724289894,-0.2257802039384842,-0.111201710999012,-0.1697486788034439,0.0,0.0,-0.9983660578727722,0.4223414659500122
-0.0951728820800781,1.156171798706055,-0.113688126206398,-0.2313676476478576,-0.1196853965520858,-0.1696739345788955,0.0,0.0,-0.990080714225769,0.5207130908966064
-0.0963483825325965,1.1508545875549316,-0.1079376116394996,-0.2371191829442978,-0.1292475312948227,-0.1912431418895721,0.0,0.0,-0.9933454394340516,-0.1379165649414062
-0.0975203514099121,1.1454129219055176,-0.1075987219810485,-0.2427081912755966,-0.1388033032417297,-0.1911157220602035,0.0,0.0,-0.9837937355041504,-0.7263994216918945
-0.0987538322806358,1.1398636102676392,-0.1154646649956703,-0.2473968565464019,-0.1466767340898513,-0.1574684381484985,0.0,0.0,-0.9744536876678468,0.1930234432220459
-0.0999838858842849,1.134189486503601,-0.1151237040758133,-0.2529833614826202,-0.1545409709215164,-0.1572851091623306,0.0,0.0,-0.9262792468070984,0.0850355625152587
-0.1012103110551834,1.1283903121948242,-0.1147821173071861,-0.2585698068141937,-0.1623945832252502,-0.1570721566677093,0.0,0.0,-0.9859977960586548,0.1280148029327392
-0.1024331077933311,1.1224665641784668,-0.1144399866461753,-0.2641562223434448,-0.1702360063791275,-0.1568286567926406,0.0,0.0,-0.4499977827072143,0.0401291847229003
-0.1036521941423416,1.1164178848266602,-0.1140974313020706,-0.2697426080703735,-0.1780637204647064,-0.1565538942813873,0.0,0.0,-0.8927498459815979,-0.5453706979751587
-0.1049058884382247,1.1102490425109863,-0.118550918996334,-0.2750140130519867,-0.1849097311496734,-0.1369200944900512,0.0,0.0,-0.951959788799286,-0.6819007396697998
-0.1062125191092491,1.1039636135101318,-0.1252965033054351,-0.2800227105617523,-0.1903033405542373,-0.1078722700476646,0.0,0.0,-0.2321109771728515,0.3384116888046264
-0.1075154319405555,1.097553253173828,-0.124952457845211,-0.285606324672699,-0.1956783235073089,-0.1074996590614318,0.0,0.0,-0.2316311597824096,-0.0181583762168884
-0.1088147163391113,1.091017484664917,-0.1246082782745361,-0.2911897897720337,-0.2010329812765121,-0.1070931330323219,0.0,0.0,-0.6657848358154297,0.4340441226959228
-0.1101102828979492,1.0843565464019775,-0.1242640763521194,-0.2967732548713684,-0.2063656002283096,-0.1066521033644676,0.0,0.0,-0.139395534992218,0.0992745161056518
-0.1114020347595214,1.0775701999664309,-0.1239199042320251,-0.3023566305637359,-0.2116744071245193,-0.1061761975288391,0.0,0.0,-0.702168345451355,0.0155495405197143
-0.1126901656389236,1.070658564567566,-0.1235758513212204,-0.3079399466514587,-0.2169576585292816,-0.1056650727987289,0.0,0.0,-0.3700544238090515,0.1680108308792114
-0.1139744743704795,1.0636217594146729,-0.1232320070266723,-0.3135232031345367,-0.2222135812044143,-0.105118378996849,0.0,0.0,-0.1423457860946655,0.6984869241714478
-0.1152055710554122,1.056445837020874,-0.1166939958930015,-0.3199055790901184,-0.2287169098854065,-0.1300664246082306,0.0,0.0,-0.7112137675285339,0.7868037223815918
-0.1163729652762413,1.0491284132003784,-0.1088299974799156,-0.3264738619327545,-0.2367405295372009,-0.160472422838211,0.0,0.0,-0.469337522983551,0.3285614252090454
-0.1175365447998046,1.0416858196258545,-0.1084882467985153,-0.3320599496364593,-0.2447314113378524,-0.1598177552223205,0.0,0.0,-0.3411760330200195,-0.4730032682418823
-0.1186961159110069,1.03411865234375,-0.1081470102071762,-0.3376459181308746,-0.2526877820491791,-0.1591271609067917,0.0,0.0,0.2247941493988037,0.0169761180877685
-0.1197105422616005,1.0268341302871704,-0.0939960032701492,-0.3250566124916076,-0.26028972864151,-0.1520387530326843,0.0,0.0,-0.9881462454795836,0.1482833623886108
-0.1207211464643478,1.0194247961044312,-0.0936558693647384,-0.3306419551372528,-0.2678535282611847,-0.1512767970561981,0.0,0.0,-0.922507107257843,-0.457345962524414
-0.1217277497053146,1.0118902921676636,-0.0933164656162262,-0.3362272083759308,-0.275377482175827,-0.1504794806241989,0.0,0.0,-0.618012011051178,-0.6345120668411255
-0.1227781325578689,1.004255771636963,-0.0990174934267997,-0.340461254119873,-0.2815569639205932,-0.1235896572470665,0.0,0.0,-0.8230226635932922,-0.4685432910919189
-0.1238244995474815,0.9964960217475892,-0.0986791402101516,-0.3460448384284973,-0.2876931130886078,-0.1227228641510009,0.0,0.0,-0.4500862956047058,-0.3109663128852844
-0.124867059290409,0.9886109232902528,-0.0983417183160781,-0.3516282439231872,-0.2937842011451721,-0.1218218058347702,0.0,0.0,-0.998126208782196,-0.5261254906654358
-0.1259397566318512,0.980610191822052,-0.1022766456007957,-0.3566070795059204,-0.2989437878131866,-0.1031920090317726,0.0,0.0,0.2877485752105713,-0.4383810758590698
-0.1269309073686599,0.9730709791183472,-0.0939805284142494,-0.3361354172229767,-0.3042444586753845,-0.1060134619474411,0.0,0.0,0.884783148765564,-0.5338864326477051
-0.1275641471147537,0.9667938947677612,-0.0595989041030406,-0.2797704339027405,-0.3081078827381134,-0.0772684887051582,0.0,0.0,0.4223651885986328,-0.683972179889679
-0.1281174719333648,0.961125910282135,-0.0529589354991912,-0.2524211704730987,-0.310565710067749,-0.0491567365825176,0.0,0.0,0.5348119735717773,-0.8871539235115051
-0.1286296844482422,0.9564867615699768,-0.0504939369857311,-0.2063367217779159,-0.3113154172897339,-0.0149940270930528,0.0,0.0,0.0715119838714599,-0.346686840057373
-0.1289456337690353,0.95234215259552,-0.0311756432056427,-0.184293121099472,-0.3117493391036987,-0.0086785424500703,0.0,0.0,0.5637747049331665,0.1170365810394287
-0.1290881186723709,0.949108898639679,-0.0136588420718908,-0.1438250839710235,-0.3123615086078644,-0.0122436033561825,0.0,0.0,0.1826441287994384,-0.6882980465888977
-0.1291759461164474,0.9465753436088562,-0.0095297256484627,-0.1124418228864669,-0.311589241027832,0.015445445664227,0.0,0.0,-0.6299199461936951,-0.7742316126823425
-0.1293209046125412,0.9439427256584167,-0.0168803576380014,-0.1164939627051353,-0.3091176748275757,0.0494313612580299,0.0,0.0,0.2565294504165649,0.1874306201934814
-0.1294074058532714,0.941878378391266,-0.0106963142752647,-0.0913117378950119,-0.3069961965084076,0.0424297861754894,0.0,0.0,-0.8318591117858887,0.0455812215805053
-0.1294900923967361,0.9396883845329284,-0.010374316945672,-0.0968920215964317,-0.304813027381897,0.0436635389924049,0.0,0.0,-0.202484130859375,0.1688759326934814
-0.1295688599348068,0.937372386455536,-0.0100545510649681,-0.1024723052978515,-0.3025669157505035,0.0449227131903171,0.0,0.0,-0.7185463905334473,0.1531705856323242
-0.1296439170837402,0.9349308013916016,-0.0097371656447649,-0.1080525964498519,-0.3002565801143646,0.0462064333260059,0.0,0.0,-0.3361238241195678,-0.0585356950759887
-0.1297150552272796,0.9323634505271912,-0.0094223152846097,-0.113632895052433,-0.2978808879852295,0.0475137680768966,0.0,0.0,-0.6089571714401245,-0.4616903066635132
-0.1297824829816818,0.92967027425766,-0.0091101620346307,-0.1192132011055946,-0.2954387068748474,0.0488438569009304,0.0,0.0,0.1458427906036377,-0.3933428525924682
-0.1295789778232574,0.9276586771011353,0.0174801722168922,-0.0888270512223243,-0.292471170425415,0.0593505725264549,0.0,0.0,-0.2887472510337829,-0.2396354675292968
-0.1293716430664062,0.925521194934845,0.0177863184362649,-0.0944075882434845,-0.2894349992275238,0.0607234649360179,0.0,0.0,-0.0426634550094604,-0.3810514807701111
-0.1291604936122894,0.9232581257820128,0.018089223653078,-0.0999881401658058,-0.2863291800022125,0.0621164441108703,0.0,0.0,-0.357177197933197,-0.0129193067550659
-0.1289458274841308,0.9208691716194152,0.0183886885643005,-0.1055687218904495,-0.2831527292728424,0.0635286346077919,0.0,0.0,-0.8453649878501892,-0.639589786529541
-0.1287698745727539,0.9183699488639832,0.0133408326655626,-0.110260434448719,-0.2787835001945495,0.0873850807547569,0.0,0.0,-0.1226880550384521,0.0217647552490234
-0.1285903006792068,0.9157450795173644,0.013632483780384,-0.1158417761325836,-0.2743418514728546,0.0888329893350601,0.0,0.0,-0.7916155457496643,0.3389359712600708
-0.1284070014953613,0.912994623184204,0.01392004173249,-0.1214231923222541,-0.2698269784450531,0.0902974978089332,0.0,0.0,-0.3125209212303161,0.5490748882293701
-0.1281800270080566,0.910101592540741,0.0192671287804842,-0.1279529184103012,-0.2663109898567199,0.0703191310167312,0.0,0.0,-0.530950129032135,-0.705710232257843
-0.1280009299516677,0.907102644443512,0.0130517110228538,-0.1324127167463302,-0.2613540887832641,0.0991382747888565,0.0,0.0,-0.2992092967033386,0.0767087936401367
-0.1278183907270431,0.9039781093597412,0.0133254406973719,-0.1379945576190948,-0.2563216984272003,0.1006477251648902,0.0,0.0,-0.9377651810646056,0.2951103448867798
-0.1276324242353439,0.900728166103363,0.0135940806940197,-0.1435764580965042,-0.2512131333351135,0.1021705642342567,0.0,0.0,-0.8880823850631714,0.5330954790115356
-0.1273996382951736,0.8973411321640015,0.0192847065627574,-0.1498521119356155,-0.2471456527709961,0.0813493579626083,0.0,0.0,-0.9622491598129272,0.072022795677185
-0.1271634995937347,0.8938286304473877,0.0195426754653453,-0.1554333418607711,-0.2430008053779602,0.082896813750267,0.0,0.0,-0.9413012266159058,0.0457000732421875
