x_pos,y_pos,x_vel,y_vel,angle,ang_vel,leg_1,leg_2,main_booster,lat_booster
-0.0015222548972815,1.4030276536941528,-0.1549318879842758,-0.35077965259552,0.0024310979060828,0.0480053089559078,0.0,0.0,0.6225251005192329,0.6173830959891355
-0.0029407502152025,1.3952383995056152,-0.143828347325325,-0.3461958467960357,0.0043849283829331,0.0390808470547199,0.0,0.0,0.2093968402456794,-0.7591733123988657
-0.004308414645493,1.387290120124817,-0.1410663574934005,-0.3532741665840149,0.008644476532936,0.0851984843611717,0.0,0.0,0.8683622199250947,0.7050636504575094
-0.0057705878280103,1.3795890808105469,-0.1494158059358596,-0.3422854840755462,0.0118083413690328,0.0632833689451217,0.0,0.0,-0.5004233037206369,0.8570254689624095
-0.0071505545638501,1.3712955713272097,-0.1398124694824218,-0.3686209917068481,0.0135912997648119,0.0356623269617557,0.0,0.0,0.6346149785312258,-0.9521508816515576
-0.0084600448608398,1.3632115125656128,-0.1355691850185394,-0.3593376278877258,0.0181596856564283,0.0913764163851738,0.0,0.0,-0.8210235237657004,-0.7115341059267795
-0.0098280906677246,1.354529619216919,-0.1435912400484085,-0.3859640657901764,0.0248707570135593,0.1342338174581527,0.0,0.0,-0.0130214993471875,-0.8119908116846308
-0.0112450597807765,1.345252275466919,-0.150405928492546,-0.4124895930290222,0.033477421849966,0.1721492111682891,0.0,0.0,-0.1304694288658663,0.71505383514299
-0.0126084331423044,1.3353900909423828,-0.1443243771791458,-0.4385263323783874,0.0413832738995552,0.1581315100193023,0.0,0.0,-0.0420451434244486,-0.8202217145119055
-0.0140381809324026,1.3249332904815674,-0.1533019840717315,-0.4650589525699615,0.0516084730625152,0.2045225799083709,0.0,0.0,-0.9369141902166692,0.8318994823878127
-0.0153950694948434,1.3138877153396606,-0.144815906882286,-0.4912494421005249,0.0606409423053264,0.1806661784648895,0.0,0.0,-0.5402015666358073,0.7313781186135766
-0.0166899673640728,1.302251219749451,-0.137674018740654,-0.5175289511680603,0.0687500312924385,0.1621966212987899,0.0,0.0,0.5876183525480265,0.7768290329319703
-0.017834473401308,1.2910497188568115,-0.1220535635948181,-0.4982118308544159,0.076273538172245,0.1504838168621063,0.0,0.0,-0.3258593015162905,-0.6424465519368574
-0.0190264694392681,1.2792415618896484,-0.1286312043666839,-0.5253095626831055,0.0856290981173515,0.1871283203363418,0.0,0.0,0.5698610307595757,-0.7180583459123167
-0.0201989170163869,1.268028736114502,-0.1291112899780273,-0.4990694224834442,0.0974083393812179,0.2356065064668655,0.0,0.0,-0.5830791439906338,-0.6728961005098062
-0.0214179046452045,1.2562077045440674,-0.1355606615543365,-0.5263286232948303,0.1109879910945892,0.2716173827648163,0.0,0.0,0.3290520193430242,-0.7163786067440345
-0.022651195526123,1.244839072227478,-0.1393010169267654,-0.5065363645553589,0.126889482140541,0.3180587291717529,0.0,0.0,0.8233418673532318,-0.9167574732400476
-0.0238397605717182,1.2335054874420166,-0.1376426517963409,-0.5054229497909546,0.1456318348646164,0.374880701303482,0.0,0.0,-0.8341098987048288,0.9988015600533474
-0.0249441154301166,1.2216097116470337,-0.1275505721569061,-0.5304663181304932,0.1627590805292129,0.34257572889328,0.0,0.0,0.1005022932718728,-0.8542137992180454
-0.0262434966862201,1.2096490859985352,-0.1493950635194778,-0.5338364839553833,0.182281345129013,0.3904808163642883,0.0,0.0,-0.710009818069478,-0.6289094940836311
-0.0275879856199026,1.1970921754837036,-0.1555338203907013,-0.560809850692749,0.2035009711980819,0.4244306981563568,0.0,0.0,0.2695894203913391,-0.6152425270331496
-0.0290453918278217,1.1844311952590942,-0.1686596572399139,-0.566034197807312,0.226685032248497,0.4637234210968017,0.0,0.0,-0.6802169963860325,0.9603496858543108
-0.0304201133549213,1.1712113618850708,-0.1586609184741974,-0.5909547209739685,0.2482279241085052,0.4308965802192688,0.0,0.0,-0.4282006443937938,0.6392531531800044
-0.0317464843392372,1.1574162244796753,-0.1530121117830276,-0.6166893839836121,0.2690474689006805,0.4164284765720367,0.0,0.0,-0.7523271984951856,-0.7880589741446906
-0.0331552512943744,1.1430044174194336,-0.1637295335531234,-0.6449002027511597,0.2925485670566559,0.4700642228126526,0.0,0.0,-0.9401092283296816,-0.734601506598316
-0.0346379280090332,1.1279582977294922,-0.1734519451856613,-0.6739937663078308,0.318612277507782,0.521274209022522,0.0,0.0,-0.7134879152776723,0.7434229936174546
-0.036074161529541,1.112358570098877,-0.1678229421377182,-0.6988458633422852,0.343858927488327,0.5049328207969666,0.0,0.0,0.7766042287990362,-0.8685371302638416
-0.0380313880741596,1.0973224639892578,-0.2217941582202911,-0.6747357249259949,0.3713248968124389,0.5493195056915283,0.0,0.0,0.6219138198850374,-0.723904127356451
-0.0404597297310829,1.0826642513275146,-0.270431250333786,-0.6589269638061523,0.4007179141044616,0.5878604650497437,0.0,0.0,-0.3733331378270079,-0.793241586213681
-0.0429573059082031,1.067383885383606,-0.2792467176914215,-0.6877893209457397,0.4325273931026459,0.6361899375915527,0.0,0.0,0.2508211108845763,0.6177772331296073
-0.0456789955496788,1.0524423122406006,-0.300717830657959,-0.6731937527656555,0.4637811481952667,0.6250751614570618,0.0,0.0,-0.7460099864123009,0.842373102252759
-0.048359490931034,1.0369534492492676,-0.2954500913619995,-0.6978422999382019,0.494220107793808,0.608779788017273,0.0,0.0,0.8192913040359286,0.962349484691526
-0.0514967925846576,1.0220375061035156,-0.3393785357475281,-0.672434389591217,0.5231891870498657,0.5793817043304443,0.0,0.0,-0.2798845658336653,0.7418039501567643
-0.0545989982783794,1.0065717697143557,-0.3348724544048309,-0.6971157789230347,0.5514768362045288,0.5657534003257751,0.0,0.0,0.2892607009858101,-0.6014906048142623
-0.0579991340637207,0.9911245703697203,-0.365932285785675,-0.6975020170211792,0.5817833542823792,0.6061309576034546,0.0,0.0,-0.6691879733435933,-0.8865158142424665
-0.0614713653922081,0.97504723072052,-0.3747660219669342,-0.727013885974884,0.6146382093429565,0.6570971608161926,0.0,0.0,-0.5377053879203944,0.9580449824181448
-0.064898207783699,0.9584473967552184,-0.3685683608055115,-0.7503235340118408,0.6462309956550598,0.6318572163581848,0.0,0.0,0.9503171234764128,-0.8185247702653599
-0.068895623087883,0.942335844039917,-0.4270532131195068,-0.7302477955818176,0.6804034113883972,0.6834495067596436,0.0,0.0,-0.9457474063982508,0.9576801033039628
-0.0728598609566688,0.9257183074951172,-0.4220109581947326,-0.7527838945388794,0.7133010029792786,0.657952070236206,0.0,0.0,-0.9410398129127472,0.810406795432919
-0.0767910033464431,0.9085856676101683,-0.4171156883239746,-0.7756995558738708,0.7450283169746399,0.6345458030700684,0.0,0.0,0.0428244824200332,0.6887987837704631
-0.0810915976762771,0.8913941979408264,-0.452725887298584,-0.7784077525138855,0.7758786082267761,0.6170061826705933,0.0,0.0,-0.8799654245376587,0.9995319843292236
-0.0853407829999923,0.8737163543701172,-0.4455164074897766,-0.7995046973228455,0.8047353625297546,0.5771368741989136,0.0,0.0,-0.9523228406906128,0.9997614622116088
-0.0895381942391395,0.8555444478988647,-0.4384359419345855,-0.820907711982727,0.8316935896873474,0.5391647815704346,0.0,0.0,-0.7931974530220032,0.999272346496582
-0.0936894416809082,0.8368862867355347,-0.4319979548454284,-0.8418662548065186,0.8567126393318176,0.500382661819458,0.0,0.0,-0.8750677108764648,0.9986633062362672
-0.0978027358651161,0.8177167177200317,-0.4268073141574859,-0.8641429543495178,0.8803267478942871,0.4722816944122314,0.0,0.0,-0.7471063733100891,0.9998071193695068
-0.1018727272748947,0.7980507612228394,-0.420938104391098,-0.8855221271514893,0.902186632156372,0.4371975064277649,0.0,0.0,-0.733819305896759,0.9998176097869872
-0.1059018149971962,0.777894139289856,-0.4153352379798889,-0.906529188156128,0.9222123622894288,0.4005144536495209,0.0,0.0,-0.8543102741241455,0.9983839988708496
-0.1099130660295486,0.7572315335273743,-0.4125011563301086,-0.928532600402832,0.9410341382026672,0.3764339387416839,0.0,0.0,-0.7924813628196716,0.998881459236145
-0.1139076203107833,0.7360591292381287,-0.4098865091800689,-0.950708270072937,0.958723247051239,0.3537818193435669,0.0,0.0,-0.7315003275871277,0.9997133016586304
-0.117871381342411,0.714387834072113,-0.4056825041770935,-0.9721231460571288,0.9748560786247252,0.3226563632488251,0.0,0.0,-0.6198229193687439,0.9986109733581544
-0.1217951774597168,0.6922458410263062,-0.4002203345298767,-0.9919124841690063,0.9887795448303224,0.2784695327281952,0.0,0.0,-0.798049807548523,0.9960100650787354
-0.1256974190473556,0.6696049571037292,-0.3971202075481415,-1.0133296251296997,1.0012621879577637,0.2496522963047027,0.0,0.0,-0.6498709321022034,0.9970194101333618
-0.1295602768659591,0.6464859247207642,-0.3919322788715362,-1.0334481000900269,1.0116612911224363,0.2079818695783615,0.0,0.0,-0.8591790199279785,0.9980672597885132
-0.1333997696638107,0.6228796243667603,-0.3885919451713562,-1.0541530847549438,1.020357370376587,0.1739184111356735,0.0,0.0,-0.7508726119995117,0.9960031509399414
-0.137199118733406,0.5988031625747681,-0.3833320140838623,-1.073776364326477,1.02679705619812,0.1287934780120849,0.0,0.0,-0.7969210743904114,0.9802827835083008
-0.14097461104393,0.574215829372406,-0.3802466690540313,-1.0957608222961426,1.031965732574463,0.1033725887537002,0.0,0.0,-0.8486127257347107,0.998054027557373
-0.1447212249040603,0.5491564869880676,-0.3762665688991546,-1.1155389547348022,1.0350536108016968,0.0617575161159038,0.0,0.0,-0.8851948380470276,0.9954404830932616
-0.1484334021806717,0.5236294865608215,-0.371648907661438,-1.1350234746932983,1.0358973741531372,0.0168761610984802,0.0,0.0,-0.8703127503395081,0.9947423934936525
-0.1521184891462326,0.4976276159286499,-0.367908626794815,-1.154965877532959,1.034732699394226,-0.0232934840023517,0.0,0.0,-0.785694420337677,0.9831051826477052
-0.1557853668928146,0.4711244404315948,-0.3653577268123626,-1.1764334440231323,1.0321743488311768,-0.0511658377945423,0.0,0.0,-0.7301100492477417,0.9972803592681884
-0.1594149619340896,0.4441331923007965,-0.36063152551651,-1.197027564048767,1.0277148485183716,-0.0891906693577766,0.0,0.0,-0.7598280906677246,0.999504327774048
-0.1630244255065918,0.4166363477706909,-0.3579072058200836,-1.218738079071045,1.0219192504882812,-0.1159126758575439,0.0,0.0,-0.6382249593734741,0.9982551336288452
-0.1665945053100586,0.3886656761169433,-0.352743923664093,-1.2385447025299072,1.0139182806015017,-0.1600195467472076,0.0,0.0,-0.718002200126648,0.9938235282897948
-0.1701332032680511,0.3602062463760376,-0.3485866487026214,-1.259253740310669,1.0041059255599976,-0.1962465494871139,0.0,0.0,-0.6151217222213745,0.991605281829834
-0.1736360490322113,0.33125039935112,-0.3439605832099914,-1.2803689241409302,0.99256032705307,-0.230911448597908,0.0,0.0,-0.4216779470443725,0.978586196899414
-0.1771160066127777,0.3017801344394684,-0.3408764004707336,-1.3026022911071775,0.9798007607460022,-0.2551908493041992,0.0,0.0,-0.0843573808670044,0.8946166038513184
-0.1805716454982757,0.2718142867088318,-0.3373830914497375,-1.323803424835205,0.9654554724693298,-0.2869055867195129,0.0,0.0,0.5317566394805908,0.7116038799285889
-0.1841758787631988,0.2416563183069229,-0.3515291512012481,-1.331913709640503,0.9501811265945436,-0.3054884374141693,0.0,0.0,0.6537654399871826,0.2371299266815185
-0.1884677857160568,0.2116880267858505,-0.4205300211906433,-1.323963284492493,0.9356208443641664,-0.2912059128284454,0.0,0.0,0.7450703382492065,0.2686586380004883
-0.1932287216186523,0.1814556717872619,-0.4673368036746979,-1.33584725856781,0.921177625656128,-0.2888640761375427,0.0,0.0,0.8770323991775513,0.2464076280593872
-0.1986723840236663,0.1512073576450348,-0.5354993939399719,-1.336678147315979,0.9068154096603394,-0.2872440218925476,0.0,0.0,0.8847143650054932,0.3318982124328613
-0.2046602219343185,0.1210673451423645,-0.5901860594749451,-1.332327127456665,0.8931645154953003,-0.2730180323123932,0.0,0.0,0.9507622718811036,0.4696865081787109
-0.2115261107683181,0.0910976976156234,-0.6777428388595581,-1.324748396873474,0.879343569278717,-0.2764189839363098,0.0,0.0,0.8812030553817749,0.5023531913757324
-0.2188231498003006,0.061313446611166,-0.7204489707946777,-1.3163847923278809,0.8651291131973267,-0.284289538860321,0.0,1.0,0.998511552810669,0.987269163131714
-0.2263987958431244,0.0320394597947597,-0.7501336336135864,-1.3085055351257324,0.8575524687767029,-0.2257869988679886,0.0,1.0,0.9989266395568848,0.9942781925201416
-0.2317735701799392,0.019864235073328,-0.6406383514404297,-0.7917949557304382,1.0690220594406128,3.66179084777832,0.0,1.0,-0.993107259273529,-0.5462064743041992
-0.2362966537475586,0.0151743749156594,-0.541408896446228,-0.4693833887577057,1.3561702966690063,5.280570983886719,0.0,1.0,-0.993107259273529,-0.5462064743041992
