x_pos,y_pos,x_vel,y_vel,angle,ang_vel,leg_1,leg_2,main_booster,lat_booster
-0.0015904426109045,1.4032304286956787,-0.1609494984149933,-0.3417602181434631,0.0017032395116984,0.033593513071537,0.0,0.0,0.6142076192634018,-0.4190873736885484
-0.0031990050338208,1.3958461284637451,-0.1626686006784439,-0.3281906247138977,0.0034939981997013,0.0358194485306739,0.0,0.0,-0.3270336751080078,-0.3703608673974422
-0.0048761367797851,1.388067364692688,-0.1694114506244659,-0.3457294702529907,0.0051701748743653,0.0335269309580326,0.0,0.0,0.173953790532078,0.3190539152652656
-0.0067089078947901,1.3804265260696411,-0.1844520270824432,-0.3395997583866119,0.0063265087082982,0.0231290832161903,0.0,0.0,0.6635216123999712,-0.5187388543845531
-0.0085176471620798,1.3733789920806885,-0.1833863854408264,-0.3132343590259552,0.0087981829419732,0.0494381934404373,0.0,0.0,0.4867776130231205,0.2467449829298781
-0.0102775571867823,1.366672158241272,-0.1789672672748565,-0.2980994880199432,0.0117451306432485,0.0589443817734718,0.0,0.0,0.257195601408505,0.117915955101725
-0.012130451388657,1.3602303266525269,-0.1880695819854736,-0.2863307595252991,0.0144958011806011,0.0550183430314064,0.0,0.0,-0.4617601142845537,0.4004056392872053
-0.0140543933957815,1.3533945083618164,-0.1950607597827911,-0.3038432002067566,0.0171326883137226,0.052742600440979,0.0,0.0,-0.0465272891389634,-0.2833792976663001
-0.0160497669130563,1.3461648225784302,-0.202088788151741,-0.3213514983654022,0.0196555871516466,0.050462506711483,0.0,0.0,-0.7276765754437264,-0.1894856415037648
-0.0181168559938669,1.3385412693023682,-0.2091501206159591,-0.3388610482215881,0.0220647193491458,0.0481869764626026,0.0,0.0,0.6344875098894891,-0.7669301892173618
-0.020235538482666,1.3314075469970703,-0.2159165441989898,-0.3171249032020569,0.0260673575103282,0.080060139298439,0.0,0.0,0.071392626191159,0.8388912449279331
-0.0223158840090036,1.3243961334228516,-0.2102999240159988,-0.3116530179977417,0.028314933180809,0.0449555404484272,0.0,0.0,0.1407206667211065,-0.2671834953638325
-0.0243924148380756,1.3177189826965332,-0.2102469503879547,-0.2968172132968902,0.0308758225291967,0.0512226819992065,0.0,0.0,0.4885114867051068,-0.480413320976141
-0.0264894478023052,1.311130404472351,-0.2124802619218826,-0.2928876578807831,0.0336170271039009,0.0548292398452758,0.0,0.0,-0.4661948893095684,0.8541125317472545
-0.028576660901308,1.3041608333587646,-0.209264799952507,-0.3097728490829468,0.0341538079082965,0.0107364747673273,0.0,0.0,0.6424384585478717,0.5206517545787389
-0.0305893905460834,1.2972421646118164,-0.2009985893964767,-0.3074879050254822,0.0338723585009574,-0.0056291013024747,0.0,0.0,-0.4607885352872047,0.7581522563864254
-0.032602310180664,1.2899420261383057,-0.199016660451889,-0.324400782585144,0.0316297188401222,-0.0448567643761634,0.0,0.0,-0.3024330928719632,-0.9416021361707324
-0.0347451195120811,1.2822372913360596,-0.2133461683988571,-0.3424148261547088,0.0307065434753894,-0.0184653401374816,0.0,0.0,0.050261193014387,0.4528815543601813
-0.036915399134159,1.2749062776565552,-0.2162768542766571,-0.3258001506328583,0.0299618504941463,-0.0148950172588229,0.0,0.0,0.3205865270407637,0.5818483388270123
-0.0391975417733192,1.2678582668304443,-0.2260350435972213,-0.3132047355175018,0.0278060249984264,-0.0431203097105026,0.0,0.0,0.920147600919994,-0.3764313286417351
-0.0414294227957725,1.261732578277588,-0.2216031104326248,-0.272220641374588,0.0262348484247922,-0.031426578760147,0.0,0.0,0.1811238985242631,0.8032996454017174
-0.0436702743172645,1.2556856870651243,-0.2207837998867035,-0.2687034010887146,0.0229675658047199,-0.0653513446450233,0.0,0.0,-0.8275904485911181,0.7031449506196562
-0.0459174141287803,1.2492462396621704,-0.219585582613945,-0.2861264050006866,0.0178964249789714,-0.1014317125082016,0.0,0.0,-0.9652017970852445,-0.9828431223991034
-0.0483069419860839,1.2424001693725586,-0.2354754507541656,-0.3042253255844116,0.0144486408680677,-0.0689619332551956,0.0,0.0,0.1325069701448711,-0.6970794644508346
-0.0509426109492778,1.2358204126358032,-0.2612375915050506,-0.2924142479896545,0.012157017365098,-0.045836366713047,0.0,0.0,0.6312844276503717,0.1698475541354778
-0.0538043975830078,1.2298651933670044,-0.2830818295478821,-0.2646490633487701,0.0090962275862693,-0.0612154491245746,0.0,0.0,-0.3472445926643139,-0.2734601845535728
-0.0567403808236122,1.2235163450241089,-0.2903957366943359,-0.2821579277515411,0.0059322142042219,-0.0632801279425621,0.0,0.0,0.817650278910985,-0.3438882709978768
-0.0598997101187706,1.2181342840194702,-0.3119524717330932,-0.2391907274723053,0.0020004473626613,-0.0786356404423713,0.0,0.0,0.9398837105572088,-0.2238037599082246
-0.0632883086800575,1.2137223482131958,-0.3340563774108886,-0.1960860937833786,-0.0027421722188591,-0.0948522165417671,0.0,0.0,-0.8904819674663822,-0.5849419918193045
-0.0667990669608116,1.2089147567749023,-0.3473895490169525,-0.2136831134557724,-0.0063824262470006,-0.072805143892765,0.0,0.0,0.3277780098728213,-0.6767817432620347
-0.070416547358036,1.2047419548034668,-0.3593507409095764,-0.1854713857173919,-0.0087495855987071,-0.0473431646823883,0.0,0.0,-0.8192428946495056,0.537610650062561
-0.0740712136030197,1.2001718282699585,-0.3620273470878601,-0.2031466215848922,-0.0121475476771593,-0.0679590553045272,0.0,0.0,-0.6280926465988159,0.516399621963501
-0.0777648910880088,1.1952118873596191,-0.3649215698242187,-0.2204761058092117,-0.0165301971137523,-0.0876531824469566,0.0,0.0,-0.7590398788452148,0.8765127658843994
-0.0814706832170486,1.1898492574691772,-0.3644701540470123,-0.2384256273508072,-0.0225696768611669,-0.120789423584938,0.0,0.0,-0.8419828414916992,0.3236922025680542
-0.0852507576346397,1.184092998504639,-0.3717887103557586,-0.2559370100498199,-0.0287057440727949,-0.1227211952209472,0.0,0.0,-0.8983064293861389,-0.5446482300758362
-0.089146614074707,1.1779494285583496,-0.3843386471271515,-0.2731668651103973,-0.0338862240314483,-0.103609561920166,0.0,0.0,-0.3563979268074035,0.039547324180603
-0.0931164771318435,1.1714119911193848,-0.3916496336460113,-0.2906775176525116,-0.0391607359051704,-0.10549046844244,0.0,0.0,-0.8779081702232361,0.6996870040893555
-0.097101405262947,1.1644830703735352,-0.3915600776672363,-0.3081418573856354,-0.0460070669651031,-0.136926457285881,0.0,0.0,-0.818979024887085,0.572858452796936
-0.1011176109313964,1.1571648120880127,-0.3935292363166809,-0.3255347311496734,-0.0540087223052978,-0.1600333154201507,0.0,0.0,-0.8751116394996643,0.4784644842147827
-0.1052077263593673,1.1494531631469729,-0.4008220732212066,-0.343048632144928,-0.0620997548103332,-0.1618206053972244,0.0,0.0,-0.8599899411201477,0.7201763391494751
-0.1093243584036827,1.1413506269454956,-0.4022095203399658,-0.3605368733406067,-0.0714564099907875,-0.1871333569288253,0.0,0.0,-0.7617554068565369,0.6618735790252686
-0.1134517639875412,1.1328473091125488,-0.4015929698944092,-0.3784961700439453,-0.0824871510267257,-0.220614954829216,0.0,0.0,-0.9167161583900452,0.7010197639465332
-0.1175887137651443,1.1239362955093384,-0.400844007730484,-0.3968024551868438,-0.0952255353331565,-0.2547679841518402,0.0,0.0,-0.7005057334899902,0.2990537881851196
-0.1217988952994346,1.114633560180664,-0.4080985188484192,-0.4143247604370117,-0.1080451980233192,-0.2563931941986084,0.0,0.0,-0.850354790687561,0.8718380928039551
-0.12601900100708,1.1049189567565918,-0.4073878824710846,-0.4328845143318176,-0.1225694268941879,-0.2904846966266632,0.0,0.0,-0.8831832408905029,0.7842210531234741
-0.1302461624145507,1.094793438911438,-0.4063618779182434,-0.4514469504356384,-0.1388585716485977,-0.3257829844951629,0.0,0.0,-0.7347375154495239,0.6337687969207764
-0.1344915330410003,1.0842632055282593,-0.4067426323890686,-0.4697702825069427,-0.1566179990768432,-0.3551885187625885,0.0,0.0,-0.8964508175849915,0.471061110496521
-0.1388091146945953,1.073343276977539,-0.4139403700828552,-0.4873054921627044,-0.1744480282068252,-0.3566010594367981,0.0,0.0,-0.6357090473175049,0.9341051578521729
-0.1431409865617752,1.0620272159576416,-0.4139010012149811,-0.5053168535232544,-0.193800464272499,-0.3870488405227661,0.0,0.0,-0.8075170516967773,0.5562779903411865
-0.1475028097629547,1.0503087043762207,-0.4158505797386169,-0.5236113667488098,-0.2142960876226425,-0.4099128246307373,0.0,0.0,-0.6943477392196655,0.2360914945602417
-0.1519358605146408,1.0382020473480225,-0.4229898452758789,-0.5411550402641296,-0.2348525524139404,-0.4111291766166687,0.0,0.0,-0.108768343925476,-0.4135656356811523
-0.1564396917819976,1.0257068872451782,-0.4301050305366516,-0.558698832988739,-0.2554661929607391,-0.412273645401001,0.0,0.0,0.0108910799026489,0.1417449712753296
-0.1608801782131195,1.013193130493164,-0.4241504073143005,-0.5597707629203796,-0.2758239209651947,-0.4071543216705322,0.0,0.0,-0.0198075771331787,-0.3874053955078125
-0.1653907746076584,1.0002907514572144,-0.4312098622322082,-0.5773136019706726,-0.296231061220169,-0.4081430435180664,0.0,0.0,0.0092673301696777,0.0246170759201049
-0.1697968542575836,0.987387239933014,-0.421243816614151,-0.5775532126426697,-0.3162623643875122,-0.4006265103816986,0.0,0.0,0.3458017110824585,0.6988701820373535
-0.1741829812526703,0.9746546745300292,-0.4178597331047058,-0.5705798268318176,-0.3378970324993133,-0.4326932430267334,0.0,0.0,-0.1595298647880554,-0.84430992603302
-0.1786888092756271,0.9615686535835266,-0.4313256740570068,-0.5862357020378113,-0.3581008911132812,-0.4040772318840027,0.0,0.0,0.6073744297027588,-0.0787647366523742
-0.1829068213701248,0.9489452242851256,-0.4032529294490814,-0.5657980442047119,-0.3777149021625519,-0.3922803401947021,0.0,0.0,0.3912174701690674,-0.8028269410133362
-0.186927318572998,0.9369020462036132,-0.3852687180042267,-0.5397895574569702,-0.3956051170825958,-0.3578038811683655,0.0,0.0,0.6972631216049194,-0.2138147950172424
-0.1907759606838226,0.9256319403648376,-0.3678541481494903,-0.5057478547096252,-0.4138780832290649,-0.3654587864875793,0.0,0.0,0.2250735759735107,0.2553808689117431
-0.1945459395647049,0.9143258929252625,-0.3602597713470459,-0.5074921250343323,-0.4319906234741211,-0.3622501194477081,0.0,0.0,0.6032103300094604,-0.3364920616149902
-0.1981848776340484,0.9036185145378112,-0.3468860387802124,-0.4812291264533996,-0.4505626261234283,-0.3714392185211181,0.0,0.0,-0.6166424751281738,-0.6339853405952454
-0.2019249945878982,0.8925453424453735,-0.358083426952362,-0.4973732233047485,-0.468087762594223,-0.350502610206604,0.0,0.0,0.5811994075775146,-0.1999563574790954
-0.2054444849491119,0.8818519711494446,-0.3362655937671661,-0.4806497693061828,-0.4855057597160339,-0.3483597934246063,0.0,0.0,0.1244491338729858,-0.88974529504776
-0.2089582979679107,0.871168315410614,-0.337506890296936,-0.4797946512699127,-0.5010528564453125,-0.3109420537948608,0.0,0.0,0.0129193067550659,-0.7466848492622375
-0.2124890834093094,0.8606755137443542,-0.3406932950019836,-0.4709331691265106,-0.5150354504585266,-0.2796515524387359,0.0,0.0,0.7722487449645996,-0.7485744953155518
-0.2156557142734527,0.8510211706161499,-0.3058440089225769,-0.4332185387611389,-0.5273481011390686,-0.2462532818317413,0.0,0.0,0.3342862129211426,-0.8506605625152588
-0.218760535120964,0.8412647843360901,-0.3013728260993957,-0.4371895492076874,-0.5377822518348694,-0.208682507276535,0.0,0.0,0.9755778312683104,-0.8818196654319763
-0.2214278280735016,0.8324646949768066,-0.2593989372253418,-0.3940583169460296,-0.5462237596511841,-0.1688296496868133,0.0,0.0,0.8927154541015625,-0.927725315093994
-0.2240377366542816,0.8241116404533386,-0.2552682161331177,-0.3735785186290741,-0.5528421998023987,-0.1323691606521606,0.0,0.0,0.7860187292098999,-0.593580424785614
-0.2264502942562103,0.8164215087890625,-0.2364670783281326,-0.3437699377536773,-0.558406412601471,-0.1112846881151199,0.0,0.0,0.9568250179290771,-0.9446778297424316
-0.228556826710701,0.8093028664588928,-0.2077163457870483,-0.3176112473011017,-0.561827540397644,-0.0684221163392067,0.0,0.0,0.9364173412322998,-0.3468626737594604
-0.2303192615509033,0.8031671047210693,-0.1727724373340606,-0.2741612195968628,-0.5658832788467407,-0.0811148434877395,0.0,0.0,0.9801476001739502,-0.6511289477348328
-0.2317277938127517,0.7974782586097717,-0.1388417780399322,-0.2536869347095489,-0.568237841129303,-0.0470917895436286,0.0,0.0,0.9668716192245485,-0.9338775277137756
-0.2330393344163894,0.7920719385147095,-0.1308452188968658,-0.240412175655365,-0.5686014890670776,-0.0072735212743282,0.0,0.0,0.9475736618041992,-0.8880388736724854
-0.2341827452182769,0.78673255443573,-0.1158494353294372,-0.2366722673177719,-0.566839337348938,0.0352430865168571,0.0,0.0,0.6961545944213867,-0.6302280426025391
-0.2352610528469085,0.7815018892288208,-0.1104940623044967,-0.2313458621501922,-0.5637276768684387,0.0622327253222465,0.0,0.0,0.3554925918579101,-0.713782548904419
-0.2360894680023193,0.7767578959465027,-0.0868967100977897,-0.2091386020183563,-0.5589931011199951,0.0946917682886123,0.0,0.0,0.7945303916931152,-0.8994036316871643
-0.236467033624649,0.7727331519126892,-0.0437055565416812,-0.1764119565486908,-0.5520733594894409,0.1383942663669586,0.0,0.0,-0.1995273232460022,-0.8680534362792969
-0.2369519174098968,0.7683849334716797,-0.0564802959561347,-0.1900064051151275,-0.5428347587585449,0.1847712099552154,0.0,0.0,0.0733546018600463,-0.8208338022232056
-0.23750701546669,0.7640376091003418,-0.0651420429348945,-0.1893800944089889,-0.5317623615264893,0.2214477956295013,0.0,0.0,0.3057069778442383,-0.830522894859314
-0.237804502248764,0.7601330280303955,-0.0411384627223014,-0.1691319644451141,-0.5187668800354004,0.2599097490310669,0.0,0.0,-0.601641833782196,-0.8735294938087463
-0.2382057160139084,0.7558951377868652,-0.0536135360598564,-0.1832952499389648,-0.503487229347229,0.305591344833374,0.0,0.0,0.0890439748764038,-0.2392941117286682
-0.2384547293186187,0.7518784403800964,-0.0384775325655937,-0.1736176759004593,-0.4882476329803467,0.3047918975353241,0.0,0.0,0.4532672166824341,-0.3499888181686401
-0.2384535819292068,0.7482918500900269,-0.0136477099731564,-0.1546096503734588,-0.4729255735874176,0.3064413666725158,0.0,0.0,0.1407811641693115,-0.0211598277091979
-0.2382422387599945,0.7448088526725769,0.0068970909342169,-0.1500308960676193,-0.4571902155876159,0.3147070109844208,0.0,0.0,-0.175273597240448,0.1325819492340088
-0.2380543649196624,0.7409338355064392,0.0043166866526007,-0.1675525307655334,-0.4413167834281921,0.3174679577350616,0.0,0.0,-0.4454652070999145,-0.17289400100708
-0.237886905670166,0.7366673350334167,0.0020276063587516,-0.1850746423006057,-0.4253024458885193,0.3202868998050689,0.0,0.0,-0.3248744606971741,0.1328333616256714
-0.2377368956804275,0.7320093512535095,3.63208309863694e-05,-0.2025973349809646,-0.4091446101665497,0.3231569230556488,0.0,0.0,-0.3703677654266357,0.738807201385498
-0.2375376671552658,0.7269115447998047,0.0064963027834892,-0.2227506190538406,-0.3947336077690124,0.2882203161716461,0.0,0.0,0.3070545196533203,0.3627092838287353
-0.2371255457401275,0.7222472429275513,0.027581924572587,-0.2035848051309585,-0.3801956474781036,0.2907589972019195,0.0,0.0,-0.3923912048339844,0.5495734214782715
-0.2366787493228912,0.7171693444252014,0.031949445605278,-0.2223532795906067,-0.3666940927505493,0.2700310349464416,0.0,0.0,0.0124344825744628,-0.2168593406677246
-0.236019566655159,0.712230384349823,0.0526426620781421,-0.2161697745323181,-0.3526888489723205,0.2801046967506408,0.0,0.0,-0.3682291507720947,0.4512970447540283
-0.2353626787662506,0.7068994045257568,0.052199263125658,-0.233688935637474,-0.3385318219661712,0.2831403017044067,0.0,0.0,-0.3551360964775085,0.2264645099639892
-0.2347050160169601,0.7011762261390686,0.0520666539669036,-0.251208633184433,-0.3242221772670746,0.2861929535865783,0.0,0.0,-0.6217300891876221,0.8040494918823242
-0.2339729368686676,0.695035457611084,0.0610833466053009,-0.2702589929103851,-0.3116214275360107,0.2520151734352112,0.0,0.0,-0.3815268278121948,0.603348970413208
-0.2331906855106353,0.6884807348251343,0.0670472234487533,-0.2889626920223236,-0.3000491857528686,0.2314451485872268,0.0,0.0,-0.5437219738960266,0.2438536882400512
-0.2323987036943435,0.68153315782547,0.067831203341484,-0.3064777255058288,-0.2883228063583374,0.234527587890625,0.0,0.0,-0.8329669237136841,0.4721095561981201
-0.2315940409898758,0.6741927862167358,0.0689094960689544,-0.3239932656288147,-0.2764421701431274,0.2376128882169723,0.0,0.0,-0.5029627084732056,0.7243266105651855
-0.2307228595018386,0.666443407535553,0.0766777545213699,-0.3424779176712036,-0.2657405138015747,0.2140332013368606,0.0,0.0,-0.8248897790908813,0.1016691923141479
-0.2298333644866943,0.6583009362220764,0.0783245414495468,-0.3599919378757477,-0.2548846304416656,0.2171177119016647,0.0,0.0,-0.843124270439148,0.52242112159729
-0.2288849800825119,0.6497489213943481,0.0850285366177558,-0.3784175813198089,-0.2448889911174774,0.1999128758907318,0.0,0.0,-0.8446131348609924,0.3043317794799804
-0.2279129922389984,0.6408037543296814,0.0872100368142128,-0.3959307670593261,-0.2347395420074463,0.2029889523983001,0.0,0.0,-0.7378696799278259,0.5411733388900757
-0.2268840372562408,0.6314530968666077,0.0935477465391159,-0.4141222834587097,-0.2252564430236816,0.189661905169487,0.0,0.0,-0.8078517913818359,0.1430480480194091
-0.2258265018463134,0.6217094659805298,0.0962258502840995,-0.4316349625587463,-0.215620219707489,0.1927245110273361,0.0,0.0,-0.9414184093475342,0.6118439435958862
-0.2246870100498199,0.611549973487854,0.1056026443839073,-0.450335294008255,-0.2071922272443771,0.168559730052948,0.0,0.0,-0.9014877080917358,-0.1986913681030273
-0.223514512181282,0.6009970903396606,0.108736976981163,-0.4678466916084289,-0.1986119300127029,0.1716058105230331,0.0,0.0,-0.8436865210533142,0.3436923027038574
-0.2223068177700042,0.5900508165359497,0.1120834574103355,-0.4853583574295044,-0.1898797899484634,0.1746426969766616,0.0,0.0,-0.3837875127792358,0.0719311237335205
-0.221062034368515,0.5787112712860107,0.1156317144632339,-0.5028703808784485,-0.1809962838888168,0.1776701509952545,0.0,0.0,-0.2895904183387756,0.539604902267456
-0.2197310030460357,0.5669654011726379,0.1253118216991424,-0.5211053490638733,-0.1731812506914138,0.1563006341457367,0.0,0.0,-0.8053209781646729,0.2066572904586792
-0.2183591425418853,0.5548262000083923,0.129233255982399,-0.5386163592338562,-0.1652157753705978,0.1593094021081924,0.0,0.0,-0.6521730422973633,0.5331194400787354
-0.2168984413146972,0.5422865748405457,0.1391260623931884,-0.5565608739852905,-0.1582729369401931,0.1388567835092544,0.0,0.0,-0.5380850434303284,0.068056583404541
-0.2153936326503753,0.5293534398078918,0.1433807164430618,-0.5740711092948914,-0.151180624961853,0.1418464481830597,0.0,0.0,0.0794109106063842,-0.0710780024528503
-0.2138613760471344,0.5166437029838562,0.1463427543640136,-0.5641929507255554,-0.1443089097738266,0.1374344229698181,0.0,0.0,-0.1577229499816894,0.3964378833770752
-0.2122820317745208,0.5035403370857239,0.1508926451206207,-0.5817033052444458,-0.1372886300086975,0.1404056996107101,0.0,0.0,0.4663208723068237,0.0907480716705322
-0.2106047570705413,0.4907909035682678,0.1606210768222808,-0.5660067796707153,-0.1302086412906646,0.1415998041629791,0.0,0.0,0.4938046932220459,0.0619140863418579
-0.2087918817996978,0.4783606827259063,0.1739141345024109,-0.5518285036087036,-0.1228723898530006,0.1467249244451522,0.0,0.0,-0.1009927988052368,0.1261135339736938
-0.2069282084703445,0.4655370116233825,0.1788419485092163,-0.5693396329879761,-0.1153889149427414,0.1496694982051849,0.0,0.0,-0.5195836424827576,-0.3547205924987793
-0.2050126045942306,0.4523200094699859,0.1838798820972442,-0.5868510007858276,-0.1077585667371749,0.1526068150997162,0.0,0.0,0.7151157855987549,-0.0196695327758789
-0.2029280662536621,0.4399541616439819,0.2004946917295456,-0.5490387678146362,-0.0998615249991417,0.1579410284757614,0.0,0.0,-0.8116947412490845,-0.0993797779083252
