x_pos,y_pos,x_vel,y_vel,angle,ang_vel,leg_1,leg_2,main_booster,lat_booster
-0.0016573906177654,1.4031684398651123,-0.1676852703094482,-0.3445230424404144,0.0017391169676557,0.0343040414154529,0.0,0.0,0.9278747622946292,-0.913188024423659
-0.0034552575089037,1.3957866430282593,-0.1833344995975494,-0.3280839622020721,0.0052559217438101,0.070343516767025,0.0,0.0,-0.0181802054930813,0.5702197326370109
-0.0053322790190577,1.387944579124451,-0.1897482126951217,-0.3485473394393921,0.0072754831053316,0.0403950363397598,0.0,0.0,-0.0858575846888736,0.8405270232086026
-0.0072898864746093,1.3796440362930298,-0.1963324099779129,-0.3689104914665222,0.0078448094427585,0.0113876489922404,0.0,0.0,0.1791654139726506,0.6724191243815275
-0.0092279436066746,1.3715895414352417,-0.1930851340293884,-0.3579742610454559,0.0071258652023971,-0.0143803879618644,0.0,0.0,0.1761745592037844,0.7186278413835379
-0.0111344335600733,1.3636595010757446,-0.1885096579790115,-0.3524374067783355,0.0050160964019596,-0.0421991869807243,0.0,0.0,0.1157894703008071,-0.6313489922336637
-0.0132417678833007,1.3558579683303833,-0.2097267210483551,-0.3467382788658142,0.0040200562216341,-0.0199228469282388,0.0,0.0,0.378105072439334,-0.935272498470802
-0.0154136661440134,1.3484127521514893,-0.2180879563093185,-0.3309020400047302,0.0049023311585187,0.0176471509039402,0.0,0.0,-0.0878416295272348,0.68409861483603
-0.0176640506833791,1.3405191898345947,-0.2244775593280792,-0.3508268892765045,0.0043494906276464,-0.011057848110795,0.0,0.0,0.0481593172126215,-0.7782721579626103
-0.0201087947934865,1.3328649997711182,-0.2453736811876297,-0.3401804864406585,0.0052352016791701,0.0177159793674945,0.0,0.0,0.5733675593506107,-0.7476151710683705
-0.0226547233760356,1.325604796409607,-0.2570742070674896,-0.3226886391639709,0.0076773618347942,0.0488477014005184,0.0,0.0,-0.8146588039826124,0.8942973286312362
-0.025251293554902,1.317887306213379,-0.2600168287754059,-0.3429970741271972,0.00803938601166,0.0072412118315696,0.0,0.0,0.1188431075374389,-0.6554361682320311
-0.0279322620481252,1.3104283809661863,-0.2698183059692383,-0.3315206170082092,0.0097419684752821,0.0340547189116478,0.0,0.0,-0.2514269990930673,-0.5475112157140241
-0.0307789798825979,1.302507400512695,-0.2872750461101532,-0.3520570397377014,0.0123112024739384,0.0513894185423851,0.0,0.0,-0.2048283139174238,-0.9681884555166668
-0.0338110923767089,1.2941395044326782,-0.3071992099285126,-0.3719426095485687,0.0162601564079523,0.0789862945675849,0.0,0.0,-0.8440512284620019,-0.5909730880963097
-0.037006951868534,1.2853078842163086,-0.3244625926017761,-0.3925770223140716,0.0210804045200347,0.0964140519499778,0.0,0.0,0.9308504816322972,-0.6809925537860178
-0.0402291305363178,1.277531623840332,-0.3288235068321228,-0.3457206189632416,0.0276138540357351,0.1306807696819305,0.0,0.0,-0.126965146688998,0.6568431468588567
-0.0435106270015239,1.269296407699585,-0.3330451846122741,-0.3661087155342102,0.0324531234800815,0.096794307231903,0.0,0.0,-0.4869981027798065,-0.8826727729796722
-0.046973131597042,1.2606109380722046,-0.3525405526161194,-0.3861662745475769,0.038685280829668,0.1246543377637863,0.0,0.0,0.2625555440077409,-0.8771017134190171
-0.0507132522761821,1.2521096467971802,-0.3819462060928345,-0.3780534863471985,0.0465300604701042,0.1569100767374038,0.0,0.0,-0.5722191021734193,0.8566664161392528
-0.054491139948368,1.2431647777557373,-0.3835611641407013,-0.3977397382259369,0.0522401481866836,0.1142120361328125,0.0,0.0,-0.9357367412590458,0.6444586565008679
-0.0583349242806434,1.2337645292282104,-0.3887562453746795,-0.4179481565952301,0.0565801970660686,0.0868088901042938,0.0,0.0,-0.1019187011295577,0.6970443557916022
-0.062227725982666,1.2239129543304443,-0.3919051587581634,-0.4379487335681915,0.0591746047139167,0.0518932752311229,0.0,0.0,-0.6744174494284774,0.8713447761152491
-0.0661574378609657,1.2136023044586182,-0.3935928046703338,-0.4582717716693878,0.0597811713814735,0.0121323019266128,0.0,0.0,-0.0465797727922732,0.5659974914636445
-0.070165254175663,1.2028403282165527,-0.4004701972007751,-0.4783041775226593,0.0594768598675727,-0.0060864393599331,0.0,0.0,0.4798891135612533,-0.7404267782853695
-0.0745226889848709,1.192530632019043,-0.4366312623023987,-0.4582387506961822,0.0603532567620277,0.0175280012190341,0.0,0.0,-0.8386594841771084,-0.8176784361328195
-0.0790521651506424,1.1817642450332642,-0.4554267823696136,-0.4786074757575989,0.0628059133887291,0.0490529686212539,0.0,0.0,0.5707562725690443,-0.8899231760397119
-0.083945944905281,1.1717060804367063,-0.4934201836585998,-0.4472079277038574,0.0668028816580772,0.0799391865730285,0.0,0.0,-0.79167001491194,-0.7617290887013192
-0.0890157669782638,1.1611909866333008,-0.5128527879714966,-0.4676105082035064,0.0726142302155494,0.1162268742918968,0.0,0.0,-0.2994948200652303,-0.7422131031616748
-0.0942458137869834,1.1502108573913574,-0.5303927659988403,-0.4883769452571869,0.0799323916435241,0.1463630646467209,0.0,0.0,-0.9750642468418528,0.7018080231375059
-0.0995159149169921,1.1387900114059448,-0.5329238772392273,-0.5079190135002136,0.0857894569635391,0.1171414703130722,0.0,0.0,-0.1387345790863037,0.9985148906707764
-0.1048106178641319,1.1269164085388184,-0.533626914024353,-0.5279573202133179,0.0899048373103141,0.0823073759675026,0.0,0.0,-0.2033447027206421,0.9954304695129396
-0.1101284027099609,1.1146053075790403,-0.5341936349868774,-0.547305166721344,0.0923009440302848,0.0479222349822521,0.0,0.0,0.2923433780670166,0.9965519905090332
-0.1155375465750694,1.1022534370422363,-0.5413138270378113,-0.5489970445632935,0.0926958322525024,0.0078976526856422,0.0,0.0,0.2895662784576416,0.9985265731811525
-0.1209814101457595,1.0901918411254885,-0.5427939891815186,-0.5359744429588318,0.0911141484975814,-0.0316337272524833,0.0,0.0,0.1581571102142334,0.9988259077072144
-0.1264590322971344,1.078486680984497,-0.5441657304763794,-0.5200204849243164,0.0875546932220459,-0.071189060807228,0.0,0.0,-0.2317304015159607,0.9972031116485596
-0.1319356858730316,1.0663304328918457,-0.542179524898529,-0.5399664640426636,0.0821200981736183,-0.1086921915411949,0.0,0.0,-0.1142023205757141,0.9920773506164552
-0.1373997628688812,1.053736448287964,-0.5388287305831909,-0.5593288540840149,0.0746128410100936,-0.1501452028751373,0.0,0.0,-0.5992372632026672,0.9995523691177368
-0.1428564041852951,1.040706992149353,-0.5362286567687988,-0.5786513686180115,0.0652801990509033,-0.1866531074047088,0.0,0.0,-0.7216805815696716,0.9923202991485596
-0.1482918709516525,1.0272321701049805,-0.5320683121681213,-0.598425030708313,0.0539243333041667,-0.2271170616149902,0.0,0.0,-0.8238596320152283,0.9956587553024292
-0.1537190377712249,1.013316631317139,-0.5296193957328796,-0.6180422306060791,0.0409890450537204,-0.2587055563926697,0.0,0.0,-0.8996585607528687,0.994487762451172
-0.1591022461652755,0.9989513754844666,-0.5228668451309204,-0.638102114200592,0.0257293991744518,-0.3051933646202087,0.0,0.0,-0.869705319404602,0.992316722869873
-0.1644396781921386,0.984126091003418,-0.5160363912582397,-0.658683717250824,0.0082446346059441,-0.3496953845024109,0.0,0.0,-0.8734838366508484,0.9835755825042723
-0.1697267591953277,0.9688486456871032,-0.5087589621543884,-0.6790071129798889,-0.011446189135313,-0.393816590309143,0.0,0.0,-0.7863591909408569,0.9970707893371582
-0.174975112080574,0.9531075954437256,-0.5030984878540039,-0.6999062299728394,-0.0329080633819103,-0.4292379021644592,0.0,0.0,-0.522677481174469,0.9980404376983644
-0.180167868733406,0.9369029402732848,-0.4954761862754822,-0.7209014296531677,-0.0564237087965011,-0.4703132510185241,0.0,0.0,-0.1491773128509521,0.99819016456604
-0.1852972954511642,0.9202373027801514,-0.4870617985725403,-0.7418708205223083,-0.0820388495922088,-0.5123029351234436,0.0,0.0,-0.0115693807601928,0.9720622301101683
-0.1903814375400543,0.903127372264862,-0.4810879230499267,-0.7621623873710632,-0.1091314032673835,-0.5418513417243958,0.0,0.0,0.4120173454284668,0.970778465270996
-0.1954563111066818,0.8865932822227478,-0.4783089160919189,-0.7372367978096008,-0.1381559073925018,-0.5804904699325562,0.0,0.0,0.2038326263427734,0.977481722831726
-0.200427621603012,0.8701503872871399,-0.4662013649940491,-0.7339533567428589,-0.1690345555543899,-0.6175738573074341,0.0,0.0,0.8255443572998047,0.3806123733520508
-0.2051362097263336,0.8541562557220459,-0.4409321844577789,-0.7145301103591919,-0.1990727186203003,-0.600763201713562,0.0,0.0,0.6109521389007568,0.6815581321716309
-0.2097032517194748,0.8387809991836548,-0.4255968630313873,-0.6878343820571899,-0.2304953336715698,-0.6284529566764832,0.0,0.0,0.4128932952880859,-0.3110486268997192
-0.2140805721282959,0.8234850764274597,-0.4073809087276459,-0.684865415096283,-0.2613718211650848,-0.6175305843353271,0.0,0.0,0.3182233572006225,-0.7143514752388
-0.2183264195919037,0.8086934685707092,-0.3960135579109192,-0.6627644896507263,-0.2906765043735504,-0.586094319820404,0.0,0.0,0.0501245260238647,-0.5634519457817078
-0.222402423620224,0.7938729524612427,-0.3806405663490295,-0.6643185019493103,-0.3185655176639557,-0.557780385017395,0.0,0.0,0.8572065830230713,-0.455303430557251
-0.226386547088623,0.7794106006622314,-0.3713374733924866,-0.6489754319190979,-0.3468313217163086,-0.565315842628479,0.0,0.0,0.9313660860061646,-0.9852020740509032
-0.229976937174797,0.7658011317253113,-0.3344444334506988,-0.6110154390335083,-0.3727526366710663,-0.5184263586997986,0.0,0.0,0.9378058910369872,-0.9823196530342102
-0.2331450879573822,0.7527951002120972,-0.2947517931461334,-0.5839736461639404,-0.3962386548519134,-0.4697209298610687,0.0,0.0,0.931587815284729,-0.8564548492431641
-0.2358708828687667,0.7406623363494873,-0.2526686489582062,-0.5449450016021729,-0.4176344573497772,-0.4279161989688873,0.0,0.0,0.8708820343017578,-0.9588826298713684
-0.2383431494235992,0.729409396648407,-0.2293191403150558,-0.5055579543113708,-0.4370512068271637,-0.3883347511291504,0.0,0.0,0.8741637468338013,-0.977929949760437
-0.2406003922224044,0.7182742953300476,-0.210020825266838,-0.4998748004436493,-0.4542211592197418,-0.3433989882469177,0.0,0.0,0.8211995363235474,-0.9620983600616456
-0.2426404953002929,0.7078627347946167,-0.1902194917201995,-0.4672983884811401,-0.4694227576255798,-0.3040319979190826,0.0,0.0,0.9223322868347168,-0.8904416561126709
-0.2442719042301178,0.697739839553833,-0.151497334241867,-0.4539027512073517,-0.4823514819145202,-0.2585746943950653,0.0,0.0,0.8457996845245361,-0.8501781821250916
-0.2455565482378006,0.6880987882614136,-0.1186514645814895,-0.4319516718387604,-0.4933113157749176,-0.2191966325044632,0.0,0.0,0.8859243392944336,-0.9549819231033324
-0.2466182708740234,0.6786463856697083,-0.0983302146196365,-0.4229455888271332,-0.502126157283783,-0.1762963235378265,0.0,0.0,0.9338048696517944,-0.8919873833656311
-0.2474788129329681,0.6698130965232849,-0.0797688290476799,-0.3949092626571655,-0.5092117190361023,-0.1417117416858673,0.0,0.0,0.8621931076049805,-0.9857630729675292
-0.2478369176387787,0.6618331670761108,-0.0315531119704246,-0.3562609553337097,-0.5140290856361389,-0.0963468253612518,0.0,0.0,0.8803937435150146,-0.9948943257331848
-0.2479374855756759,0.6538012623786926,-0.007891347631812,-0.3577844798564911,-0.5164850354194641,-0.0491192266345024,0.0,0.0,0.905785083770752,-0.9792018532752992
-0.2475063800811767,0.6466376781463623,0.0432723686099052,-0.318442702293396,-0.516669750213623,-0.0036941356956958,0.0,0.0,0.0050753355026245,-0.9258826375007628
-0.246976226568222,0.6394935846328735,0.0513045713305473,-0.3168695271015167,-0.5147294402122498,0.0388059392571449,0.0,0.0,0.2708026170730591,-0.992689847946167
-0.2462442368268966,0.6326943635940552,0.0695187449455261,-0.3008083999156952,-0.5105589032173157,0.0834105461835861,0.0,0.0,-0.0961536169052124,-0.9837107062339784
-0.2454895079135894,0.6254934668540955,0.0699232146143913,-0.3179791271686554,-0.5042826533317566,0.1255255192518234,0.0,0.0,-0.5657151937484741,-0.9566175937652588
-0.2447223216295242,0.6179112792015076,0.0688272565603256,-0.3341104388236999,-0.4954091012477875,0.177471250295639,0.0,0.0,-0.8283442854881287,-0.9686498045921326
-0.2439231872558593,0.6099206805229187,0.0702711269259452,-0.3517017066478729,-0.4846146404743194,0.2158891409635543,0.0,0.0,-0.61924809217453,-0.8459107875823975
-0.2430952042341232,0.6015177965164185,0.0712903216481208,-0.3694776892662048,-0.4718236923217773,0.255819708108902,0.0,0.0,-0.8345515131950378,-0.8368446230888367
-0.2422270774841308,0.5926921963691711,0.0737169831991195,-0.3878702521324157,-0.4573613703250885,0.2892463803291321,0.0,0.0,-0.7037633061408997,-0.8376854062080383
-0.2413267642259597,0.5834507346153259,0.0750485733151435,-0.4059052467346191,-0.4409406781196594,0.328414112329483,0.0,0.0,-0.5942336916923523,-0.5002194046974182
-0.2403626441955566,0.5737854838371277,0.0802179872989654,-0.4245754480361938,-0.4233306050300598,0.352201759815216,0.0,0.0,-0.3993763923645019,0.1198675632476806
-0.2392985820770263,0.5636672377586365,0.0899692699313163,-0.4448656439781189,-0.4055953621864319,0.3547046482563019,0.0,0.0,-0.7916509509086609,-0.1827903985977172
-0.2381331473588943,0.5530961155891418,0.0998617857694625,-0.4651565253734588,-0.3877357244491577,0.3571929037570953,0.0,0.0,-0.7936948537826538,0.049712061882019
-0.2368651330471038,0.5420722365379333,0.1098852530121803,-0.4854480922222137,-0.3697524070739746,0.359666645526886,0.0,0.0,-0.8299233913421631,0.492990493774414
-0.2354932278394699,0.5305957198143005,0.1200298890471458,-0.5057404637336731,-0.3516460955142975,0.3621261715888977,0.0,0.0,-0.8306090235710144,0.1753937005996704
-0.2340165078639984,0.5186668038368225,0.1302864402532577,-0.5260335206985474,-0.3334175050258636,0.3645717799663543,0.0,0.0,-0.5729195475578308,0.2228840589523315
-0.2324338406324386,0.5062852501869202,0.1406461149454116,-0.5463272929191589,-0.3150673508644104,0.3670039176940918,0.0,0.0,-0.7336413860321045,0.3609564304351806
-0.2307444512844085,0.4934515953063965,0.1511005014181137,-0.566621720790863,-0.2965962290763855,0.3694230914115906,0.0,0.0,-0.5791085362434387,0.347089409828186
-0.2289474457502365,0.4801656305789947,0.1616416424512863,-0.5869168639183044,-0.2780047357082367,0.3718296885490417,0.0,0.0,-0.5260254144668579,0.2000626325607299
-0.2270421087741851,0.4664275646209717,0.172261968255043,-0.6072127819061279,-0.2592935264110565,0.3742243647575378,0.0,0.0,-0.2822918891906738,0.5514917373657227
-0.224979966878891,0.4522140026092529,0.1889969408512115,-0.6287637948989868,-0.2417544424533844,0.3507817089557647,0.0,0.0,0.0186392068862915,0.3198848962783813
-0.2226360291242599,0.4380282759666443,0.2165805995464325,-0.6276476383209229,-0.2236771285533905,0.3615463376045227,0.0,0.0,0.0373963117599487,0.2169324159622192
-0.2200417071580886,0.4237235784530639,0.2410262376070022,-0.6330786347389221,-0.2050767987966537,0.3720067143440246,0.0,0.0,-0.1288915872573852,-0.1213217973709106
-0.2173368036746978,0.4089670777320862,0.2518942654132843,-0.6533758640289307,-0.1863587349653244,0.3743613362312317,0.0,0.0,0.5864723920822144,0.3770287036895752
-0.2143567502498626,0.3948242664337158,0.2790894210338592,-0.6263045072555542,-0.1673860102891922,0.3794543445110321,0.0,0.0,0.0487319231033325,0.0621633529663085
-0.2111168354749679,0.3808364272117615,0.3045290112495422,-0.6196058988571167,-0.1479308158159256,0.3891036510467529,0.0,0.0,-0.6193298101425171,-0.8322186470031738
-0.2078203707933426,0.3664010763168335,0.3086259067058563,-0.6396154761314392,-0.1269780844449997,0.4190548956394195,0.0,0.0,-0.0252278447151184,0.4289207458496094
-0.2044119387865066,0.3515152931213379,0.3196417987346649,-0.6599216461181641,-0.1059092879295349,0.4213760495185852,0.0,0.0,0.4881775379180908,-0.3574259281158447
-0.2007334679365158,0.3373263478279114,0.3461253643035888,-0.6292203664779663,-0.0843722224235534,0.4307413101196289,0.0,0.0,-0.1339998245239257,-0.7291895747184753
-0.1970026940107345,0.3226952254772186,0.3496876060962677,-0.6491178870201111,-0.0612107627093791,0.4632289409637451,0.0,0.0,0.4170233011245727,0.6563551425933838
-0.193183034658432,0.3086481094360351,0.3599670231342315,-0.6235616207122803,-0.0394631251692771,0.4349526762962341,0.0,0.0,0.6605789661407471,0.4539121389389038
-0.189136117696762,0.2951973676681518,0.382149338722229,-0.5973665118217468,-0.0171958897262811,0.4453450739383697,0.0,0.0,0.5224084854125977,0.2807412147521972
-0.1850144416093826,0.2823351919651031,0.3897235095500946,-0.5715410709381104,0.0049581080675125,0.443079799413681,0.0,0.0,0.3876807689666748,0.3192859888076782
-0.1808533668518066,0.2699663639068603,0.3938742578029632,-0.5499466061592102,0.0269056186079978,0.4389503598213196,0.0,0.0,0.6324813365936279,0.3657307624816894
-0.176618292927742,0.257884681224823,0.4012883305549621,-0.5375087261199951,0.0488543324172496,0.4389744400978088,0.0,0.0,0.5663645267486572,0.4742906093597412
-0.1724099218845367,0.2461993992328643,0.3990433514118194,-0.5201968550682068,0.0704064518213272,0.4310425221920013,0.0,0.0,0.6219625473022461,0.6432526111602783
-0.168235495686531,0.2348201870918274,0.3972206711769104,-0.5068128705024719,0.0904299616813659,0.400470107793808,0.0,0.0,0.6271439790725708,0.4974844455718994
-0.163909912109375,0.2240618765354156,0.4117658734321594,-0.4795291125774383,0.1110511273145675,0.4124233722686767,0.0,0.0,0.5013833045959473,0.4759225845336914
-0.1594554930925369,0.2133625894784927,0.4243388175964355,-0.4772277772426605,0.1320454627275467,0.4198867380619049,0.0,0.0,0.5170919895172119,0.6956934928894043
-0.1547835320234298,0.2032997906208038,0.4471317231655121,-0.4491338431835174,0.1520439982414245,0.3999705910682678,0.0,0.0,0.5644035339355469,0.0243810415267944
-0.1501342803239822,0.1938710063695907,0.4449062943458557,-0.4212251305580139,0.17205810546875,0.4002827703952789,0.0,0.0,0.3588968515396118,-0.0704562067985534
-0.1453803032636642,0.1850606948137283,0.4547998905181885,-0.3940898478031158,0.192730963230133,0.413457304239273,0.0,0.0,0.5318281650543213,-0.0856081247329711
-0.140550896525383,0.1766117364168167,0.4619859158992767,-0.3783730566501617,0.2138471901416778,0.4223245084285736,0.0,0.0,0.5481107234954834,0.0799696445465087
-0.1357821524143219,0.1688321232795715,0.4559348523616791,-0.3489307761192322,0.2350486814975738,0.4240298867225647,0.0,0.0,0.2057670354843139,0.2369077205657959
-0.1309966146945953,0.1614566892385482,0.4574129581451416,-0.3313197195529938,0.2565717995166778,0.4304614961147308,0.0,0.0,0.4294406175613403,0.0708987712860107
-0.1261372566223144,0.1542337536811828,0.4644754528999328,-0.3249266445636749,0.2785344123840332,0.4392524361610412,0.0,0.0,0.3751465082168579,0.0946798324584961
-0.1214111298322677,0.1472614407539367,0.45163494348526,-0.3140302002429962,0.3001438081264496,0.4321877956390381,0.0,0.0,0.2713692188262939,0.3959770202636719
-0.1167909651994705,0.1403631567955017,0.4414986073970794,-0.3109693527221679,0.3214144110679626,0.425412118434906,0.0,0.0,0.192254900932312,0.2476646900177002
-0.1122093200683593,0.1335866749286651,0.4377368092536926,-0.3058594167232513,0.3427315056324005,0.4263427257537842,0.0,0.0,0.2146649360656738,0.3075349330902099
-0.1076377853751182,0.126923993229866,0.4366862773895263,-0.3011360466480255,0.3642557263374328,0.4304849207401275,0.0,0.0,0.382906436920166,0.6828051805496216
-0.1029059439897537,0.1203206852078437,0.453893095254898,-0.2985200881958008,0.3847043216228485,0.4089725911617279,0.0,0.0,0.4477021694183349,0.2802635431289673
-0.0982179641723632,0.1141482442617416,0.4491925239562988,-0.2797654569149017,0.4056676030158996,0.4192652106285095,0.0,0.0,0.4233354330062866,0.2383863925933838
-0.0936835259199142,0.10849629342556,0.4338042736053467,-0.2569639980792999,0.4268507361412048,0.4236629903316498,0.0,0.0,0.1864813566207885,0.2191293239593505
-0.089100643992424,0.1027288287878036,0.4385383129119873,-0.2624745666980743,0.4483657479286194,0.4303001463413238,0.0,0.0,0.1576164960861206,0.3934447765350342
