x_pos,y_pos,x_vel,y_vel,angle,ang_vel,leg_1,leg_2,main_booster,lat_booster
-0.0014491081237792,1.403325080871582,-0.1476199477910995,-0.3375619053840637,0.0024293242022395,0.0479699447751045,0.0,0.0,-0.4888812303543091,0.7085273265838623
-0.002762699034065,1.395450472831726,-0.1329289227724075,-0.3499869704246521,0.0039836675859987,0.0310904495418071,0.0,0.0,-0.0857094526290893,0.0837571620941162
-0.004000854678452,1.3872758150100708,-0.1261026561260223,-0.363321840763092,0.0062451772391796,0.0452344566583633,0.0,0.0,0.0041240453720092,0.8529585599899292
-0.0051838876679539,1.3792543411254885,-0.1195931211113929,-0.356517493724823,0.0075135179795324,0.0253694951534271,0.0,0.0,-0.0612073540687561,0.9065988063812256
-0.0062047960236668,1.3709372282028198,-0.1018910408020019,-0.3696528077125549,0.0073162503540515,-0.0039458153769373,0.0,0.0,-0.2674193382263183,0.3508045673370361
-0.0071498872712254,1.3623205423355105,-0.0950308740139007,-0.3829625844955444,0.0078314980491995,0.0103060286492109,0.0,0.0,-0.7813866138458252,0.2578374147415161
-0.0080191614106297,1.3534046411514282,-0.0881658345460891,-0.3962736427783966,0.0090592950582504,0.0245581082999706,0.0,0.0,-0.6451354026794434,-0.017872154712677
-0.0088124275207519,1.3441892862319946,-0.0812964141368866,-0.4095854759216308,0.0110009433701634,0.0388365015387535,0.0,0.0,-0.3196803331375122,0.6880645751953125
-0.0094767566770315,1.3346829414367676,-0.0677676349878311,-0.4225166738033294,0.0123212477192282,0.0264086369425058,0.0,0.0,-0.9072367548942566,-0.0336331725120544
-0.0100650787353515,1.3248772621154783,-0.0608880333602428,-0.4358288645744324,0.0143573805689811,0.0407262854278087,0.0,0.0,-0.8823046088218689,-0.1681387424468994
-0.0105773927643895,1.314772129058838,-0.0540069714188575,-0.4491413831710815,0.0171088445931673,0.0550343990325927,0.0,0.0,-0.7572879195213318,-0.4310145378112793
-0.0110135078430175,1.3043677806854248,-0.0471250265836715,-0.4624541997909546,0.0205761790275573,0.0693529993295669,0.0,0.0,-0.4434082508087158,-0.1145727038383483
-0.0113737108185887,1.2936644554138184,-0.0402428731322288,-0.4757676124572754,0.0247595459222793,0.0836748033761978,0.0,0.0,-0.9309470653533936,-0.3693722486495971
-0.0116578098386526,1.2826621532440186,-0.0333612561225891,-0.4890817701816559,0.0296589452773332,0.0979969725012779,0.0,0.0,-0.9286413192749025,-0.0193644165992736
-0.0118659017607569,1.2713611125946045,-0.0264808796346187,-0.5023967623710632,0.0352743528783321,0.1123179644346237,0.0,0.0,-0.9019548296928406,0.5007022619247437
-0.0119510646909475,1.2597577571868896,-0.0137340873479843,-0.5158363580703735,0.0404319055378437,0.1031604409217834,0.0,0.0,-0.5351876616477966,0.2688852548599243
-0.0119603155180811,1.24785578250885,-0.0068546258844435,-0.5291524529457092,0.0463056564331054,0.1174855008721351,0.0,0.0,-0.8449845910072327,0.8256337642669678
-0.0118127819150686,1.235653519630432,0.0101433098316192,-0.5424689650535583,0.0508684106171131,0.0912635996937751,0.0,0.0,-0.7968742847442627,0.3498742580413818
-0.0115892412140965,1.2231525182724,0.0170214530080556,-0.5557857155799866,0.0561472028493881,0.1055854707956314,0.0,0.0,-0.8282850384712219,0.5509276390075684
-0.0112521173432469,1.2103559970855713,0.0286178290843963,-0.5689383745193481,0.0611918196082115,0.1009013280272483,0.0,0.0,-0.9642264246940612,0.7889556884765625
-0.0107639310881495,1.1972732543945312,0.0449261404573917,-0.5816138982772827,0.0650488138198852,0.0771468430757522,0.0,0.0,-0.8252488374710083,0.0154507160186767
-0.0101998327299952,1.183892011642456,0.0517960079014301,-0.5949310660362244,0.0696201771497726,0.091434970498085,0.0,0.0,-0.667603611946106,0.0958020687103271
-0.0095600131899118,1.1702122688293457,0.0586585514247417,-0.6082490086555481,0.0749040991067886,0.1056879386305809,0.0,0.0,-0.8850881457328796,-0.0902413129806518
-0.0088442806154489,1.1562340259552002,0.0655134320259094,-0.6215680837631226,0.0809000879526138,0.1199304312467575,0.0,0.0,-0.8361446857452393,-0.3466699719429016
-0.0080532077699899,1.1419575214385986,0.07235998660326,-0.6348883509635925,0.0876072272658348,0.134154811501503,0.0,0.0,-0.8315302133560181,0.3641303777694702
-0.0071850777603685,1.12736177444458,0.0793233588337898,-0.6491603255271912,0.0950251966714859,0.1483593732118606,0.0,0.0,-0.8896201252937317,0.3310346603393554
-0.0062414170242846,1.112468123435974,0.0861722454428672,-0.6624802350997925,0.1031539514660835,0.1625748872756958,0.0,0.0,-0.5598940253257751,0.7365269660949707
-0.0051774024032056,1.0972917079925537,0.0986574068665504,-0.6750702261924744,0.1108401119709014,0.1537234336137771,0.0,0.0,-0.7347895503044128,0.7055671215057373
-0.0039949417114257,1.0818305015563965,0.110900804400444,-0.6877292394638062,0.1181311160326004,0.1458202898502349,0.0,0.0,-0.8413993120193481,0.6131242513656616
-0.002690601395443,1.066077470779419,0.1235750094056129,-0.700690507888794,0.1249511986970901,0.1364018619060516,0.0,0.0,-0.7809627652168274,0.0305025577545166
-0.0013111114967614,1.0500270128250122,0.1303839981555938,-0.7140114903450012,0.1324796825647354,0.1505701094865799,0.0,0.0,-0.6361150145530701,0.6058773994445801
0.0001850128173828,1.0336835384368896,0.1424048095941543,-0.7270281314849854,0.1396633833646774,0.1436741054058075,0.0,0.0,-0.4948114156723022,0.8441038131713867
0.0018122673500329,1.017062425613403,0.1562766879796981,-0.7393300533294678,0.1460938304662704,0.1286090761423111,0.0,0.0,-0.3015956878662109,0.8080908060073853
0.0035714148543775,1.000149130821228,0.1702124923467636,-0.7522782683372498,0.1517887562513351,0.1138984784483909,0.0,0.0,0.0137144327163696,0.2363189458847046
0.0053567886352539,0.9835111498832704,0.1720829457044601,-0.7401418089866638,0.158234104514122,0.1289071142673492,0.0,0.0,-0.4451639652252197,0.0615811347961425
0.0072163580916821,0.966575562953949,0.1788119375705719,-0.7534643411636353,0.165382444858551,0.1429669857025146,0.0,0.0,0.2111566066741943,0.7960853576660156
0.0091359140351414,0.9498427510261536,0.1857205331325531,-0.7443895936012268,0.171620711684227,0.1247653365135192,0.0,0.0,-0.3848813772201538,0.8404592275619507
0.0111979488283395,0.9328369498252868,0.2010763883590698,-0.756418764591217,0.1767642349004745,0.1028703451156616,0.0,0.0,-0.2662727832794189,0.935539722442627
0.0134001728147268,0.9155619740486144,0.2161632776260376,-0.7682679295539856,0.1808462291955948,0.0816400349140167,0.0,0.0,-0.8640499711036682,0.2635276317596435
0.0156758315861225,0.8979895710945129,0.2227935791015625,-0.7815895080566406,0.1856243461370468,0.0955625027418136,0.0,0.0,-0.5873586535453796,0.4989984035491943
0.0180242545902729,0.8801195025444031,0.2293931543827057,-0.794911801815033,0.1910964250564575,0.1094415783882141,0.0,0.0,-0.5112181901931763,0.4702332019805908
0.0204450599849224,0.8619524240493774,0.2359590828418731,-0.8082349300384521,0.197260096669197,0.1232733726501464,0.0,0.0,-0.7829355597496033,0.358884334564209
0.0229379646480083,0.8434880971908569,0.2424881011247635,-0.8215590119361877,0.2041127681732177,0.1370535343885421,0.0,0.0,-0.4487473964691162,-0.0206520557403564
0.0255024917423725,0.8247267603874207,0.2489767372608184,-0.8348842263221741,0.2116516381502151,0.1507775038480758,0.0,0.0,-0.3710724115371704,0.2618849277496338
0.0281380657106637,0.8056687712669373,0.2554211318492889,-0.8482105731964111,0.2198736667633056,0.1644403040409088,0.0,0.0,-0.1019811630249023,0.904221534729004
0.0309206005185842,0.7863302826881409,0.2713841497898102,-0.8605326414108276,0.2268229573965072,0.1389862298965454,0.0,0.0,0.4124751091003418,-0.1720635294914245
0.0337379463016986,0.7672709822654724,0.2739791572093963,-0.8482950925827026,0.2346896529197693,0.1573343425989151,0.0,0.0,0.4113297462463379,0.3700916767120361
0.0363656990230083,0.7489206790924072,0.2548020482063293,-0.8168594837188721,0.2427843660116195,0.1618946641683578,0.0,0.0,0.8907029628753662,0.965564489364624
0.0387540832161903,0.7315620183944702,0.2324177324771881,-0.772573709487915,0.2493173480033874,0.1306597590446472,0.0,0.0,0.249326467514038,0.9454456567764282
0.0411701202392578,0.7144835591316223,0.2364259213209152,-0.759929358959198,0.2545986771583557,0.1056265085935592,0.0,0.0,0.4261633157730102,0.9596726894378662
0.0437397956848144,0.6979056596755981,0.2529342770576477,-0.737498939037323,0.2587085664272308,0.0821975469589233,0.0,0.0,0.1067454814910888,0.5859618186950684
0.0462517738342285,0.6817513108253479,0.2477674037218094,-0.7185794115066528,0.262217104434967,0.0701701492071151,0.0,0.0,0.0809680223464965,0.2917178869247436
0.0488226898014545,0.665749192237854,0.2527089715003967,-0.7119969129562378,0.2667031586170196,0.0897209495306015,0.0,0.0,0.329677939414978,0.7688655853271484
0.0513485893607139,0.6504109501838684,0.2491077482700348,-0.682338535785675,0.2702693343162536,0.0713233798742294,0.0,0.0,-0.2231125831604004,0.7023992538452148
0.0540045723319053,0.6348006129264832,0.2632308006286621,-0.6942274570465088,0.2726958990097046,0.0485311523079872,0.0,0.0,0.5331439971923828,-0.0431044101715087
0.0565192215144634,0.6194891333580017,0.2488854378461837,-0.680995523929596,0.2753377556800842,0.0528370067477226,0.0,0.0,0.3063836097717285,0.7952394485473633
0.0590628609061241,0.6048570275306702,0.2526717782020569,-0.6506357192993164,0.277069628238678,0.0346379578113555,0.0,0.0,0.1386688947677612,-0.1049522757530212
0.0616297721862793,0.5906374454498291,0.253979355096817,-0.6324991583824158,0.2798497676849365,0.0556030496954917,0.0,0.0,0.2379775047302246,0.3384526968002319
0.0641374588012695,0.577033281326294,0.2472197264432907,-0.6053109765052795,0.2834875285625458,0.0727552697062492,0.0,0.0,-0.0901278853416442,0.7746480703353882
0.0667504295706749,0.5631608366966248,0.2585359811782837,-0.6170930862426758,0.2863335609436035,0.0569207742810249,0.0,0.0,0.3275896310806274,0.0439150333404541
0.0693725571036338,0.5494369268417358,0.258704662322998,-0.6106483340263367,0.2899470627307892,0.0722702369093895,0.0,0.0,-0.1555292606353759,0.4498562812805176
0.0720463767647743,0.535415768623352,0.2633264362812042,-0.6239725947380066,0.2941258251667022,0.0835751742124557,0.0,0.0,-0.1804279685020446,0.0553740262985229
0.0747696906328201,0.5210976600646973,0.2677454352378845,-0.6372970938682556,0.2988569736480713,0.0946231633424758,0.0,0.0,-0.4519520998001098,0.0155075788497924
0.0775401145219802,0.5064824223518372,0.2719476819038391,-0.6506218314170837,0.3041267693042755,0.1053958982229232,0.0,0.0,-0.1021304726600647,0.7631373405456543
0.0804144889116287,0.4915920495986938,0.2833592295646667,-0.6626532077789307,0.3083526194095611,0.0845164507627487,0.0,0.0,-0.1456193923950195,-0.7317086458206177
0.0832646340131759,0.4763734936714172,0.2787255346775055,-0.6777330040931702,0.3148830533027649,0.1306087672710418,0.0,0.0,0.8461036682128906,0.6099193096160889
0.0859265327453613,0.4622628688812256,0.2605745494365692,-0.6283718347549438,0.3207201659679413,0.1167416200041771,0.0,0.0,0.3457880020141601,0.927359104156494
0.0886943787336349,0.4482544958591461,0.2724743187427521,-0.6235526204109192,0.3252016603946686,0.0896296426653862,0.0,0.0,-0.0405008792877197,0.5842318534851074
0.091539479792118,0.4339781999588012,0.2809843420982361,-0.635299026966095,0.3288838863372803,0.073643647134304,0.0,0.0,0.2237293720245361,-0.5295029282569885
0.0941905006766319,0.4198430478572845,0.2602706253528595,-0.629337728023529,0.3339321613311767,0.1009648069739341,0.0,0.0,0.5272681713104248,0.7166235446929932
0.0966275185346603,0.4062821567058563,0.2400438785552978,-0.6035593152046204,0.3377560675144195,0.0764782726764679,0.0,0.0,0.1522672176361084,0.8350249528884888
0.0990291610360145,0.3930844068527221,0.2377576828002929,-0.5871342420578003,0.3402731716632843,0.0503422021865844,0.0,0.0,0.7233145236968994,0.9420143365859984
0.1010825186967849,0.3808061778545379,0.2046311348676681,-0.5458638072013855,0.341009259223938,0.0147218126803636,0.0,0.0,0.7836587429046631,0.9701495170593262
0.1030991524457931,0.3691941499710083,0.2024035453796386,-0.5159154534339905,0.3402280807495117,-0.0156233850866556,0.0,0.0,0.9458224773406982,0.8363853693008423
0.1049972549080848,0.3579404354095459,0.1919631063938141,-0.4996568858623504,0.3379736542701721,-0.0450886450707912,0.0,0.0,0.8625310659408569,0.8456277847290039
0.1069269180297851,0.3469739258289337,0.19633349776268,-0.4866189658641815,0.3344513773918152,-0.0704460442066192,0.0,0.0,0.8525204658508301,-0.4992846846580505
0.1087032333016395,0.336230993270874,0.1809078454971313,-0.4767084121704101,0.3310315310955047,-0.0683968514204025,0.0,0.0,0.908205509185791,0.6157243251800537
0.1102178543806076,0.326513260602951,0.1557544022798538,-0.4309234023094177,0.3265581727027893,-0.0894675329327583,0.0,0.0,0.7824734449386597,0.6010699272155762
0.1115789413452148,0.3178207576274872,0.1411566436290741,-0.3852051198482513,0.3212967813014984,-0.1052275523543357,0.0,0.0,0.793201208114624,-0.0315653085708618
0.112537957727909,0.310034692287445,0.101338967680931,-0.3448503315448761,0.3156532943248749,-0.1128701567649841,0.0,0.0,0.8411427736282349,0.7004513740539551
0.1132781952619552,0.3024229407310486,0.0810293853282928,-0.3367929756641388,0.3083809614181518,-0.1454467326402664,0.0,0.0,0.9612705707550048,0.4826221466064453
0.1137656196951866,0.2958758473396301,0.0554360561072826,-0.2895763218402862,0.3014522790908813,-0.1385733038187027,0.0,0.0,0.5733513832092285,0.7482805252075195
0.1140279769897461,0.2897941768169403,0.0345005206763744,-0.2686008512973785,0.2929030060768127,-0.1709852814674377,0.0,0.0,0.7034285068511963,0.883061408996582
0.1140733733773231,0.2844246029853821,0.0146288219839334,-0.2366547137498855,0.2825193107128143,-0.2076735198497772,0.0,0.0,-0.073989450931549,0.9674298763275146
0.1141654998064041,0.2787933349609375,0.0211805161088705,-0.2480120360851287,0.2702386975288391,-0.2456120550632476,0.0,0.0,-0.4660630226135254,0.5725021362304688
0.1142799407243728,0.2728854417800903,0.0247593391686677,-0.260170578956604,0.256632536649704,-0.2721226215362549,0.0,0.0,-0.3578100204467773,-0.4188849329948425
0.1143640503287315,0.2666804790496826,0.0217877589166164,-0.2734945714473724,0.2429993599653244,-0.2726637721061706,0.0,0.0,0.6289876699447632,-0.3500030040740967
0.1144080162048339,0.2607892751693725,0.0174616929143667,-0.2597301602363586,0.2297329604625702,-0.2653276622295379,0.0,0.0,-0.1101819276809692,-0.5564547777175903
0.1143836006522178,0.2545890808105469,0.0099083334207534,-0.2736930847167969,0.2172293961048126,-0.2500714957714081,0.0,0.0,-0.0514336228370666,-0.2166557908058166
0.1143203750252723,0.2480909675359726,0.006181382574141,-0.2870134711265564,0.2046127766370773,-0.252332478761673,0.0,0.0,-0.0637845993041992,-0.716924786567688
0.1141593903303146,0.241282656788826,-0.0048770606517791,-0.3010801672935486,0.1933066546916961,-0.2261225879192352,0.0,0.0,-0.1701526641845703,-0.3508149981498718
0.1139548271894455,0.2341760993003845,-0.0090387798845767,-0.3143976330757141,0.1818333864212036,-0.2294653356075287,0.0,0.0,0.0318671464920043,-0.6324242353439331
0.1136663407087326,0.227398470044136,-0.0185663364827632,-0.3000006973743438,0.1715314835309982,-0.2060379534959793,0.0,0.0,0.2953739166259765,-0.0378370285034179
0.11336450278759,0.2207208424806594,-0.0200506448745727,-0.295645534992218,0.1613773852586746,-0.2030816525220871,0.0,0.0,0.3698427677154541,-0.6283668875694275
0.1128488555550575,0.2143442779779434,-0.0423238836228847,-0.282428115606308,0.1521486192941665,-0.1845753937959671,0.0,0.0,-0.4437878131866455,-0.5427034497261047
0.1122446060180664,0.2076667100191116,-0.0518411770462989,-0.2959243357181549,0.1435844153165817,-0.1712841391563415,0.0,0.0,-0.136048138141632,-0.5101419687271118
0.1115458458662033,0.2006808817386627,-0.0620693787932395,-0.3097464144229889,0.1357925832271576,-0.1558364331722259,0.0,0.0,0.0328668355941772,0.1311111450195312
0.1106478720903396,0.1941192001104354,-0.0813062340021133,-0.2908766567707062,0.1273326426744461,-0.1691987514495849,0.0,0.0,-0.0577543377876281,-0.4322782754898071
0.1096936240792274,0.1872584670782089,-0.0865919664502143,-0.3041887581348419,0.1185444444417953,-0.1757638603448867,0.0,0.0,0.0197277069091796,0.0788632631301879
0.1085942238569259,0.180782750248909,-0.1005973666906356,-0.2870941758155823,0.1092559918761253,-0.1857689470052719,0.0,0.0,-0.5768404603004456,-0.172254741191864
0.1074358969926834,0.1740082055330276,-0.1061082854866981,-0.3004077076911926,0.0996021255850792,-0.1930771619081497,0.0,0.0,-0.0664315223693847,0.0085399150848388
0.1062174811959266,0.1669350415468216,-0.1117189154028892,-0.3137219548225403,0.0895657464861869,-0.2007275372743606,0.0,0.0,-0.3203046917915344,-0.4180576801300049
0.1049378365278244,0.1595632582902908,-0.1174214333295822,-0.32703697681427,0.0791307091712951,-0.2087011039257049,0.0,0.0,-0.3400675058364868,-0.2073938250541687
0.1035962104797363,0.1518930792808532,-0.1232085675001144,-0.3403529524803161,0.0682817324995994,-0.2169794291257858,0.0,0.0,-0.4216938018798828,-0.4668821096420288
0.1021914482116699,0.1439246237277984,-0.1290735900402069,-0.3536699712276459,0.0570045001804828,-0.2255445271730423,0.0,0.0,-0.3434967994689941,-0.9436008334159852
0.1006561294198036,0.1356439739465713,-0.1433804631233215,-0.3676736950874328,0.0469739101827144,-0.2006121575832367,0.0,0.0,-0.3602478504180908,-0.888892412185669
0.0990026444196701,0.1270678341388702,-0.1560972929000854,-0.3808931112289428,0.0378302410244941,-0.1828732192516327,0.0,0.0,0.17372727394104,-0.8337089419364929
0.0971779823303222,0.1190216392278671,-0.1743957698345184,-0.3574281632900238,0.0298654865473508,-0.1592951118946075,0.0,0.0,-0.2281087636947631,-0.2749248743057251
0.0952874198555946,0.1106766760349273,-0.1805146485567093,-0.3707419037818908,0.0214232970029115,-0.1688437014818191,0.0,0.0,0.6712484359741211,-0.1009824275970459
0.0933946594595909,0.1029147952795028,-0.180584117770195,-0.3448726534843445,0.0128502212464809,-0.1714615374803543,0.0,0.0,0.2714185714721679,-0.2910671234130859
0.0914212241768837,0.0957967117428779,-0.1881346255540847,-0.3163074254989624,0.0037538853939622,-0.1819267272949218,0.0,0.0,-0.2771323919296264,-0.8183857798576355
0.0893217101693153,0.0883869528770446,-0.201702669262886,-0.329321950674057,-0.0043856790289282,-0.1627910882234573,0.0,0.0,0.6474555730819702,-0.299450933933258
0.0872364044189453,0.0813639238476753,-0.2001407444477081,-0.312181144952774,-0.0126685826107859,-0.1656580418348312,0.0,0.0,0.2744302749633789,-0.7363943457603455
0.0849241241812706,0.074762187898159,-0.2236565798521042,-0.2934966683387756,-0.0201488696038723,-0.1496054381132125,0.0,0.0,0.6445084810256958,-0.1442665457725525
0.0824253112077713,0.0686341598629951,-0.2411652356386184,-0.2724961936473846,-0.0287501960992813,-0.1720266640186309,0.0,0.0,0.401771068572998,-0.2531428933143616
0.0798526778817176,0.0629259198904037,-0.2479260414838791,-0.2539065778255462,-0.037972804158926,-0.1844522953033447,0.0,0.0,0.4044051170349121,-0.4301884770393371
0.0772497206926345,0.0575979799032211,-0.2505242824554443,-0.2370695024728775,-0.0476362593472003,-0.1932689249515533,0.0,0.0,0.1082863807678222,-0.6257553100585938
0.0746367424726486,0.0523244701325893,-0.252360850572586,-0.2346900552511215,-0.0564690232276916,-0.1766554415225982,0.0,0.0,0.3665657043457031,-0.6752057671546936
0.0720212906599044,0.0475997775793075,-0.2535644471645355,-0.2103075981140136,-0.0643559694290161,-0.1577385812997818,0.0,0.0,0.0104274749755859,-0.3784154653549194
0.0693824738264083,0.0433139652013778,-0.2554228901863098,-0.1908676028251648,-0.0727308094501495,-0.1674968004226684,0.0,0.0,-0.2130096554756164,-0.6161382794380188
0.0666290298104286,0.0387280322611331,-0.2674215137958526,-0.2042253911495208,-0.0805733948945999,-0.1568515002727508,0.0,0.0,0.3665331602096557,-0.1703001856803894
