x_pos,y_pos,x_vel,y_vel,angle,ang_vel,leg_1,leg_2,main_booster,lat_booster
-0.0015326499706134,1.403401017189026,-0.1546082347631454,-0.334183394908905,0.0011942709097638,0.0235161110758781,0.0,0.0,-0.8739791512489319,0.1854596138000488
-0.0030753135215491,1.3956815004348757,-0.1548551023006439,-0.3430879712104797,0.0017759551992639,0.0116352764889597,0.0,0.0,-0.5211220383644104,0.7026500701904297
-0.0045608519576489,1.3877332210540771,-0.1468356251716613,-0.3532612025737762,8.082681597443298e-05,-0.0339058302342891,0.0,0.0,0.0345766544342041,0.590200662612915
-0.0060943602584302,1.3800286054611206,-0.14974245429039,-0.3424247205257416,-0.0034866963978856,-0.071357361972332,0.0,0.0,-0.6564884781837463,-0.2454733848571777
-0.0076388358138501,1.372100830078125,-0.150249645113945,-0.3523621261119842,-0.0076307267881929,-0.0828882902860641,0.0,0.0,0.2885122299194336,-0.1994695663452148
-0.0090840337797999,1.364583969116211,-0.1402705311775207,-0.3341089189052582,-0.0118391113355755,-0.0841750428080558,0.0,0.0,-0.1006107926368713,0.0887837409973144
-0.0105405803769826,1.3568438291549685,-0.1408189684152603,-0.3440485894680023,-0.016622357070446,-0.0956737250089645,0.0,0.0,-0.138439655303955,0.4114416837692261
-0.0120084760710597,1.3488807678222656,-0.1413735896348953,-0.3539817631244659,-0.0219786036759614,-0.1071348413825035,0.0,0.0,-9.351968765258788e-05,0.1291310787200927
-0.0134876249358057,1.3406949043273926,-0.1419259905815124,-0.3639167845249176,-0.0279066879302263,-0.1185725480318069,0.0,0.0,0.0511254072189331,0.1647404432296753
-0.0149656292051076,1.3329793214797974,-0.1412250399589538,-0.3430548310279846,-0.0344075597822666,-0.1300295293331146,0.0,0.0,-0.3553559780120849,0.5175919532775879
-0.0164079666137695,1.325039029121399,-0.1359021961688995,-0.3531154096126556,-0.0426498092710971,-0.1648600548505783,0.0,0.0,-0.1185481548309326,-0.0096738338470458
-0.017860984429717,1.3168765306472778,-0.1363922655582428,-0.3630527555942535,-0.0514586679637432,-0.1761934459209442,0.0,0.0,-0.5507292747497559,0.3762003183364868
-0.0193240158259868,1.3084919452667236,-0.1368464827537536,-0.3729932904243469,-0.06083320453763,-0.1875079572200775,0.0,0.0,-0.3604574203491211,0.1215909719467163
-0.0207968708127737,1.2998857498168943,-0.1372558623552322,-0.3829356133937835,-0.0707713812589645,-0.1987815648317337,0.0,0.0,-0.6565291881561279,0.0999892950057983
-0.022278880700469,1.291057825088501,-0.1376124024391174,-0.3928798139095306,-0.0812712088227272,-0.2100157439708709,0.0,0.0,-0.5335065722465515,-0.2278296947479248
-0.0237693786621093,1.2820086479187012,-0.1379081308841705,-0.4028257429599762,-0.0923306345939636,-0.2212088406085968,0.0,0.0,-0.8103801012039185,-0.2972781062126159
-0.0252676960080862,1.272738337516785,-0.1381352245807647,-0.4127735197544098,-0.1039474755525589,-0.2323576211929321,0.0,0.0,-0.7886337637901306,-0.2722110748291015
-0.0267728809267282,1.26324725151062,-0.1382859796285629,-0.4227232933044433,-0.1161193028092384,-0.2434585392475128,0.0,0.0,-0.422166109085083,-0.4063999652862549
-0.0282841678708791,1.253535509109497,-0.1383529156446457,-0.432675153017044,-0.1288435310125351,-0.2545077800750732,0.0,0.0,-0.7081067562103271,-0.4910528659820556
-0.0298005100339651,1.2436034679412842,-0.1383286565542221,-0.4426292181015014,-0.1421173810958862,-0.2655007243156433,0.0,0.0,-0.6185349225997925,-0.7215548157691956
-0.0313647277653217,1.2334657907485962,-0.1437396258115768,-0.4518211483955383,-0.1547993421554565,-0.2536622583866119,0.0,0.0,-0.66985684633255,-0.6724276542663574
-0.0329837799072265,1.2231159210205078,-0.1500155627727508,-0.4612722992897033,-0.1667090803384781,-0.2382162064313888,0.0,0.0,-0.482741117477417,-0.4129651188850403
-0.0346046462655067,1.2125457525253296,-0.1496821492910385,-0.4712276756763458,-0.1791592538356781,-0.2490254342555999,0.0,0.0,-0.7283664345741272,-0.8027319312095642
-0.0362823493778705,1.201761245727539,-0.156265527009964,-0.4807391762733459,-0.1907285153865814,-0.2314060926437378,0.0,0.0,-0.8386507034301758,-0.8526021838188171
-0.0380408279597759,1.1907819509506226,-0.1659339964389801,-0.48927041888237,-0.200713962316513,-0.1997260749340057,0.0,0.0,-0.8365404009819031,-0.0277809500694274
-0.0398002639412879,1.1795611381530762,-0.1655190736055374,-0.500158965587616,-0.211228147149086,-0.2102837115526199,0.0,0.0,-0.8894274234771729,-0.7975226640701294
-0.0416170135140419,1.1681441068649292,-0.172338381409645,-0.5087918043136597,-0.2206686437129974,-0.1888098418712616,0.0,0.0,0.0867724418640136,-0.7746473550796509
-0.0434658043086528,1.1573611497879028,-0.176520362496376,-0.4805149734020233,-0.229120671749115,-0.1690406650304794,0.0,0.0,-0.8207650184631348,-0.4309687614440918
-0.0453084930777549,1.1463572978973389,-0.1754256933927536,-0.4904616475105285,-0.2380850911140442,-0.1792889088392257,0.0,0.0,-0.7281965017318726,-0.7536090612411499
-0.0472037307918071,1.135151505470276,-0.1817531734704971,-0.4993139803409576,-0.2459839135408401,-0.157976433634758,0.0,0.0,-0.4363160133361816,-0.7263533473014832
-0.0491420738399028,1.1237527132034302,-0.1870007067918777,-0.5077721476554871,-0.2529525756835937,-0.1393728405237198,0.0,0.0,-0.0567681789398193,0.1336798667907714
-0.0510695464909076,1.1121327877044678,-0.1854404062032699,-0.5177174806594849,-0.2604112923145294,-0.1491745859384536,0.0,0.0,-0.2912633419036865,-0.5796563625335693
-0.0530336387455463,1.100317120552063,-0.189951092004776,-0.5263056755065918,-0.2670126557350158,-0.1320270001888275,0.0,0.0,0.5654909610748291,-0.8587432503700256
-0.0550251007080078,1.088820457458496,-0.193831592798233,-0.5119369626045227,-0.2724488973617553,-0.1087246164679527,0.0,0.0,0.077229619026184,-0.8270561099052429
-0.0569408424198627,1.0777161121368408,-0.1874600350856781,-0.4942959547042846,-0.2766644656658172,-0.0843112617731094,0.0,0.0,0.4130275249481201,0.1391667127609253
-0.0586468689143657,1.0673174858093262,-0.1661295294761657,-0.4630236625671386,-0.2812573313713074,-0.0918573290109634,0.0,0.0,0.1626204252243042,0.0308500528335571
-0.0602618232369422,1.057166576385498,-0.1565186977386474,-0.4521202743053436,-0.2863723933696747,-0.102300725877285,0.0,0.0,-0.8022122383117676,-0.3211268186569214
-0.0618549361824989,1.0467941761016846,-0.1539346277713775,-0.4620634615421295,-0.2919106185436249,-0.1107644662261009,0.0,0.0,-0.3094617128372192,-0.7264259457588196
-0.0634811371564865,1.0362341403961182,-0.158381849527359,-0.4701881408691406,-0.2962767481803894,-0.0873225927352905,0.0,0.0,-0.6035558581352234,-0.717515766620636
-0.0651329010725021,1.0254769325256348,-0.1619204580783844,-0.4787691831588745,-0.2996442317962646,-0.0673503950238227,0.0,0.0,-0.7352291345596313,-0.4088678956031799
-0.0667571052908897,1.0144977569580078,-0.1587987244129181,-0.4887104630470276,-0.3033876419067383,-0.0748683735728263,0.0,0.0,0.01779305934906,-0.9194950461387634
-0.0682382583618164,1.0037481784820557,-0.1459173709154129,-0.4782188534736633,-0.305651307106018,-0.0452739931643009,0.0,0.0,-0.6709544062614441,-0.6655598282814026
-0.0697311386466026,0.9927892684936525,-0.1478704661130905,-0.4873584806919098,-0.3071248233318329,-0.0294695980846881,0.0,0.0,-0.2390897274017334,-0.803153932094574
-0.0712411850690841,0.9816307425498962,-0.150593489408493,-0.496024489402771,-0.3075523674488067,-0.0085506970062851,0.0,0.0,-0.1651543974876403,-0.864857017993927
-0.0727870911359787,0.9702731966972352,-0.1557005941867828,-0.504546582698822,-0.3064071238040924,0.0229047313332557,0.0,0.0,-0.5354159474372864,-0.8137578368186951
-0.0743536949157714,0.9587122201919556,-0.1589683890342712,-0.5133348703384399,-0.3040141761302948,0.0478588081896305,0.0,0.0,0.4663081169128418,-0.5956375598907471
-0.075751207768917,0.9474881291389464,-0.143115147948265,-0.4981507360935211,-0.3005352616310119,0.0695784091949462,0.0,0.0,0.296303391456604,-0.8419320583343506
-0.0770709961652755,0.9370617270469666,-0.1367110460996627,-0.4624283015727997,-0.2956486046314239,0.0977332592010498,0.0,0.0,0.1672592163085937,-0.4992750287055969
-0.078274630010128,0.9272528290748596,-0.1244929283857345,-0.4351194202899933,-0.2913964986801147,0.0850424170494079,0.0,0.0,-0.3226755261421203,-0.3892186284065246
-0.0794328674674034,0.9172213673591614,-0.1197845935821533,-0.4450561702251434,-0.2873192429542541,0.0815452113747596,0.0,0.0,0.1949782371520996,-0.5833237767219543
-0.0803608894348144,0.9075322151184082,-0.0979570150375366,-0.4296264052391052,-0.2820079028606415,0.1062267273664474,0.0,0.0,-0.1163984537124633,-0.5048064589500427
-0.0812807083129882,0.8976418375968933,-0.0981353595852851,-0.4383994042873382,-0.2756919264793396,0.1263199597597122,0.0,0.0,-0.4965633153915405,-0.135052740573883
-0.0821493119001388,0.8875288367271423,-0.0929395332932472,-0.4483358561992645,-0.2694692611694336,0.1244534626603126,0.0,0.0,-0.7077313661575317,0.0513349771499633
-0.0829649940133094,0.8771930932998657,-0.0875881239771843,-0.4582715332508087,-0.2633121311664581,0.123142696917057,0.0,0.0,-0.9150012731552124,0.1353093385696411
-0.0837259292602539,0.8666344881057739,-0.0820851996541023,-0.4682064950466156,-0.2571927011013031,0.1223888024687767,0.0,0.0,-0.8686955571174622,-0.2547792196273803
-0.0844304114580154,0.8558530211448669,-0.0764350444078445,-0.4781408309936523,-0.2510831952095032,0.1221898645162582,0.0,0.0,-0.9692052006721495,-0.0566351413726806
-0.0850766152143478,0.8448485136032104,-0.0706421732902526,-0.4880745708942413,-0.2449561655521392,0.1225409507751464,0.0,0.0,-0.9925084710121156,0.331561803817749
-0.0856629386544227,0.8336208462715149,-0.064711295068264,-0.4980077743530273,-0.2387844622135162,0.1234342455863952,0.0,0.0,-0.9432483315467834,-0.1805671453475952
-0.0861879363656044,0.8221700191497803,-0.0586473047733306,-0.5079405307769775,-0.232541486620903,0.1248592734336853,0.0,0.0,-0.9832305312156676,0.4943904876708984
-0.0866499915719032,0.8104960322380066,-0.0524552762508392,-0.5178729295730591,-0.2262013405561447,0.1268031597137451,0.0,0.0,-0.9602022767066956,0.3132880926132202
-0.0870474800467491,0.7985986471176147,-0.0461404621601104,-0.527804970741272,-0.2197388112545013,0.1292508691549301,0.0,0.0,-0.962499499320984,0.5848264694213867
-0.0873412117362022,0.7864682078361511,-0.0349389612674713,-0.5383085608482361,-0.214108720421791,0.1126018613576889,0.0,0.0,-0.6746715307235718,0.1158478260040283
-0.0875677093863487,0.7741143107414246,-0.0283945836126804,-0.5482391119003296,-0.2083084434270858,0.116005502641201,0.0,0.0,-0.7140947580337524,0.2323967218399047
-0.0877256393432617,0.7615369558334351,-0.0217440333217382,-0.5581695437431335,-0.202315479516983,0.119859293103218,0.0,0.0,-0.8637800812721252,0.1618752479553222
-0.087813951075077,0.7487361431121826,-0.0149931218475103,-0.5680999755859375,-0.1961084455251693,0.1241408139467239,0.0,0.0,-0.936010479927063,0.3126020431518554
-0.0878313034772872,0.7357117533683777,-0.0081477677449584,-0.5780304074287415,-0.1896669417619705,0.128830075263977,0.0,0.0,-0.9401416778564452,0.3632352352142334
-0.0877767577767372,0.7224637866020203,-0.0012140128528699,-0.5879608392715454,-0.1829716563224792,0.1339057385921478,0.0,0.0,-0.9817813038825988,0.569686770439148
-0.0875999480485916,0.7089715003967285,0.0120419701561331,-0.5989688038825989,-0.1773072928190231,0.1132871732115745,0.0,0.0,-0.8981436491012573,0.252682089805603
-0.0873492211103439,0.6952556371688843,0.0191343538463115,-0.6088981628417969,-0.1713536828756332,0.1190723180770874,0.0,0.0,-0.9081719517707824,0.0739856958389282
-0.0870237350463867,0.6813161373138428,0.0262963864952325,-0.618827760219574,-0.165094643831253,0.1251808702945709,0.0,0.0,-0.92009299993515,0.2262581586837768
-0.0866227149963378,0.6671530604362488,0.0335216149687767,-0.628757655620575,-0.1585150063037872,0.1315926611423492,0.0,0.0,-0.9265583753585817,0.0925692319869995
-0.0861454978585243,0.6527662873268127,0.0408034957945346,-0.6386878490447998,-0.1516006141901016,0.1382881850004196,0.0,0.0,-0.9571796655654908,0.1159547567367553
-0.0855914130806922,0.6381560564041138,0.048135370016098,-0.6486184597015381,-0.1443381756544113,0.145248681306839,0.0,0.0,-0.838318943977356,-0.3019902110099792
-0.084959790110588,0.6233224868774414,0.0555104911327362,-0.6585495471954346,-0.1367153376340866,0.1524563133716583,0.0,0.0,-0.8442437648773193,0.402002215385437
-0.0842502564191818,0.6082655787467957,0.0629220083355903,-0.668481171131134,-0.1287206560373306,0.1598941534757614,0.0,0.0,-0.6089096665382385,0.3691867589950561
-0.0834624320268631,0.5929855108261108,0.0703629925847053,-0.6784133911132812,-0.120343342423439,0.1675462275743484,0.0,0.0,-0.4626936912536621,0.4269165992736816
-0.082596018910408,0.5774821639060974,0.0778263732790947,-0.6883463263511658,-0.1115734651684761,0.1753974109888076,0.0,0.0,-0.355964720249176,0.6274981498718262
-0.0816014260053634,0.5617532730102539,0.0914535969495773,-0.6984857320785522,-0.1036340594291687,0.1587880700826645,0.0,0.0,-0.4801883101463318,-0.0246090292930603
-0.0805278792977333,0.5458012819290161,0.0989404767751693,-0.7084184885025024,-0.0952842235565185,0.1669969260692596,0.0,0.0,-0.4398569464683532,0.0563195943832397
-0.079375073313713,0.529626190662384,0.1064278855919838,-0.7183520793914795,-0.0865159183740615,0.1753657460212707,0.0,0.0,-0.6894055008888245,0.3508061170578003
-0.0781432166695594,0.5132282376289368,0.1139083281159401,-0.7282864451408386,-0.077321745455265,0.1838832795619964,0.0,0.0,-0.1671881079673767,0.2090111970901489
-0.0768321976065635,0.4966076612472534,0.1213741451501846,-0.7382217645645142,-0.0676947981119155,0.1925390064716339,0.0,0.0,-0.0646383166313171,-0.3144327402114868
-0.0754422172904014,0.479764461517334,0.1288174837827682,-0.7481580972671509,-0.0576286241412162,0.2013234198093414,0.0,0.0,-0.0096741914749145,0.4961162805557251
-0.0739735588431358,0.4626988172531128,0.1362304240465164,-0.7580954432487488,-0.0471172407269477,0.2102276384830474,0.0,0.0,0.6603313684463501,0.7532297372817993
-0.0723470672965049,0.4464643001556396,0.1531074941158294,-0.7212603092193604,-0.0376789309084415,0.1887660920619964,0.0,0.0,-0.2129522562026977,0.1038624048233032
-0.0706424713134765,0.4300073385238647,0.1604352295398712,-0.7311974167823792,-0.027784576639533,0.1978871375322342,0.0,0.0,0.6582973003387451,0.5166242122650146
-0.0687848106026649,0.4138354063034057,0.176250472664833,-0.7186060547828674,-0.0183877330273389,0.1879369914531707,0.0,0.0,0.3938305377960205,0.1277140378952026
-0.0667657852172851,0.3979484140872955,0.1915429234504699,-0.7059928774833679,-0.0081633096560835,0.2044885158538818,0.0,0.0,0.6166746616363525,-0.2587754726409912
-0.0645220726728439,0.3826758563518524,0.2128583192825317,-0.6787555813789368,0.003196919336915,0.2272045910358429,0.0,0.0,0.560820460319519,0.1079784631729126
-0.0620726570487022,0.3677412271499634,0.2323465347290039,-0.6638314127922058,0.0156402327120304,0.2488659918308258,0.0,0.0,0.0835016965866088,0.4626340866088867
-0.0595600120723247,0.3533243238925934,0.2381856143474578,-0.6409375667572021,0.0285440161824226,0.2580756843090057,0.0,0.0,-0.0538258552551269,0.2859879732131958
-0.0569740310311317,0.338686466217041,0.2450472116470337,-0.650883674621582,0.0419290773570537,0.2677013278007507,0.0,0.0,0.5720255374908447,0.5490881204605103
-0.0541715621948242,0.3247918486595154,0.266993373632431,-0.617962658405304,0.0550283789634704,0.2619862258434295,0.0,0.0,0.5722053050994873,-0.3547387719154358
-0.0512192733585834,0.3111497759819031,0.2810503542423248,-0.6068965196609497,0.0690596848726272,0.2806258201599121,0.0,0.0,0.6310977935791016,0.2361966371536255
-0.0482834801077842,0.2980343401432037,0.2791499197483063,-0.5836372971534729,0.0833421647548675,0.2856498062610626,0.0,0.0,0.2174700498580932,0.0244792699813842
-0.0452699661254882,0.2856569290161133,0.2861422300338745,-0.5510199069976807,0.0984073057770729,0.3013027608394623,0.0,0.0,0.2866799831390381,-0.2071635723114013
-0.0422513000667095,0.2737188637256622,0.2862735390663147,-0.5316808223724365,0.1138854473829269,0.3095632493495941,0.0,0.0,0.4240623712539673,0.0554356575012207
-0.0393518432974815,0.2625648081302643,0.274370789527893,-0.4969945251941681,0.1293673068284988,0.3096372485160827,0.0,0.0,0.0825287103652954,0.6063451766967773
-0.0363371856510639,0.2518959939479828,0.2865423560142517,-0.4755271673202514,0.1442278772592544,0.2972117662429809,0.0,0.0,0.2225598096847534,0.5914465188980103
-0.0333382599055767,0.2418365627527237,0.2857672870159149,-0.4485146701335907,0.1583307087421417,0.2820565104484558,0.0,0.0,-0.3516122698783874,-0.2318107485771179
-0.0302796363830566,0.2315573990345001,0.2912535071372986,-0.4584689736366272,0.1729412376880645,0.2922105193138122,0.0,0.0,0.1043956279754638,0.592357873916626
-0.0271928794682025,0.2215557694435119,0.2948209345340729,-0.4461853802204132,0.1868480890989303,0.2781371772289276,0.0,0.0,-0.043394923210144,0.5638251304626465
-0.0240155216306448,0.2113451361656189,0.3043057024478912,-0.4555565416812897,0.2003549039363861,0.2701361179351806,0.0,0.0,-0.274645447731018,0.0742993354797363
-0.0207852367311716,0.2009149193763733,0.3091267645359039,-0.4655112326145172,0.21437668800354,0.2804356217384338,0.0,0.0,0.3265246152877807,0.2227053642272949
-0.0175440795719623,0.1911381632089615,0.309349924325943,-0.4367323517799377,0.2293091714382171,0.2986497282981872,0.0,0.0,-0.2404462695121765,-0.1727592945098877
-0.014255141839385,0.1811425983905792,0.3136671185493469,-0.4466916024684906,0.2447611391544342,0.3090395331382751,0.0,0.0,-0.1704450249671936,0.2622277736663818
-0.0109211923554539,0.1709283888339996,0.3177136778831482,-0.4566527605056762,0.2607347965240478,0.319473385810852,0.0,0.0,0.2041296958923339,0.4685882329940796
-999.0,0.1613092720508575,0.3053628504276275,-0.4304570853710174,0.2771552503108978,0.3284090161323547,0.0,0.0,0.2442610263824463,0.4209716320037842
-0.0045269010588526,0.1524448245763778,0.3010756075382232,-0.3972874581813812,0.294598788022995,0.3488700091838836,0.0,0.0,0.4576555490493774,0.3100283145904541
-0.0013949393760412,0.1441264748573303,0.2955287396907806,-0.3733901977539062,0.3128817081451416,0.3656575977802276,0.0,0.0,0.5057361125946045,-0.214941143989563
0.001534366630949,0.1366501152515411,0.274871826171875,-0.3362898826599121,0.3316642343997955,0.3756502270698547,0.0,0.0,0.3120704889297485,-0.2165254354476928
0.0043344497680664,0.1298678517341613,0.2613587379455566,-0.3058412373065948,0.351201593875885,0.3907472193241119,0.0,0.0,0.3167991638183594,0.2091758251190185
0.0070945741608738,0.1234173849225044,0.256702184677124,-0.291539192199707,0.3715698421001434,0.4073648452758789,0.0,0.0,0.2764198780059814,0.5372929573059082
0.0096460338681936,0.1173862814903259,0.2367225140333175,-0.2729575335979461,0.3911543786525726,0.3916907906532287,0.0,0.0,0.1299543380737304,0.6131947040557861
0.0120356557890772,0.1115971431136131,0.2214843481779098,-0.262211412191391,0.4098759889602661,0.3744328618049621,0.0,0.0,0.3531420230865478,0.3080792427062988
0.0142392162233591,0.1062164902687072,0.202612042427063,-0.2444029748439788,0.4290553331375122,0.3835867047309875,0.0,0.0,0.1478502750396728,0.1038463115692138
0.0163152702152729,0.1011368110775947,0.1894402801990509,-0.2314352989196777,0.4488589167594909,0.3960714936256408,0.0,0.0,-0.3112960457801819,0.2858955860137939
0.0183974262326955,0.0958415567874908,0.1897283941507339,-0.2414159178733825,0.469204694032669,0.4069154262542724,0.0,0.0,0.3311741352081299,0.4735541343688965
0.020302390679717,0.0911217331886291,0.1713805347681045,-0.2163819521665573,0.4904572367668152,0.4250507950782776,0.0,0.0,-0.4298765063285827,0.7541157007217407
0.0222566612064838,0.0862366035580635,0.1775236874818802,-0.2236308306455612,0.5105897188186646,0.4026490747928619,0.0,0.0,-0.1629782915115356,0.938300609588623
0.0242786407470703,0.0811861827969551,0.1859241724014282,-0.2306578010320663,0.5290904641151428,0.3700152933597564,0.0,0.0,0.182782769203186,0.7634611129760742
