x_pos,y_pos,x_vel,y_vel,angle,ang_vel,leg_1,leg_2,main_booster,lat_booster
-0.0016633986961096,1.4033633470535278,-0.1692137718200683,-0.3358586430549621,0.0025706882588565,0.0507694855332374,0.0,0.0,-0.3890783348837043,0.8140479244754397
-0.0033985138870775,1.3955649137496948,-0.1749943792819976,-0.3466008305549621,0.0040258034132421,0.0291060954332351,0.0,0.0,-0.0831514785210658,0.9464581083178932
-0.0051843645051121,1.3874986171722412,-0.1784368753433227,-0.3585076332092285,0.0038821359630674,-0.002873548772186,0.0,0.0,-0.4667452296360102,0.8550786162258295
-0.0070580481551587,1.3791683912277222,-0.1865342259407043,-0.3702257573604584,0.0030595653224736,-0.0164532326161861,0.0,0.0,-0.7024730631237648,0.9873967410764224
-0.0089797023683786,1.370580792427063,-0.189609095454216,-0.3816724121570587,0.0005349316634237,-0.0504973903298378,0.0,0.0,-0.5704953899591867,-0.7751511924858374
-0.0110909463837742,1.3617308139801023,-0.2104405462741851,-0.3933328688144684,-0.0001447532849851,-0.0135950790718197,0.0,0.0,-0.9332121434596315,-0.9563244558470768
-0.0134232519194483,1.3526195287704468,-0.2351855486631393,-0.404940128326416,0.001785802305676,0.0386148020625114,0.0,0.0,0.2834540980463489,0.7535794904664719
-0.0157097820192575,1.3440039157867432,-0.2299197614192962,-0.3829205930233001,0.0030422962736338,0.0251319855451583,0.0,0.0,0.8578407554964653,0.7831254095394934
-0.0180959701538085,1.3365471363067627,-0.2389127761125564,-0.3314098119735718,0.0033368275035172,0.0058912923559546,0.0,0.0,0.5425651708488315,0.6212308287677635
-0.0205801967531442,1.3298505544662476,-0.2480876147747039,-0.2976267039775848,0.0030075018294155,-0.0065870941616594,0.0,0.0,0.8615375479899265,0.6119132448616046
-0.0230583194643259,1.3238985538482666,-0.2471478432416916,-0.2645314037799835,0.0023465421982109,-0.0132203148677945,0.0,0.0,-0.6896723608904642,-0.7164272308250264
-0.0257307048887014,1.3176835775375366,-0.2684346139431,-0.2762193083763122,0.0035165944136679,0.0234031416475772,0.0,0.0,0.3823203484888264,-0.6449020243897925
-0.028481101617217,1.3120893239974976,-0.2783073782920837,-0.2486481964588165,0.0067636384628713,0.0649469643831253,0.0,0.0,-0.9148791273804446,0.9275764397353288
-0.031294822692871,1.3062260150909424,-0.2831371426582336,-0.2606025636196136,0.0085020875558257,0.0347719714045524,0.0,0.0,0.1900447848718354,0.6459492403165433
-0.0340945236384868,1.3010010719299316,-0.2811399102210998,-0.2322247624397277,0.0096619576215744,0.0231994297355413,0.0,0.0,-0.8621696887790735,0.7109234766436262
-0.0369733795523643,1.295507550239563,-0.2878810167312622,-0.2441583573818206,0.0096575738862156,-8.770916610956192e-05,0.0,0.0,0.3559972880128592,-0.6674407914467455
-0.0399322509765625,1.2908148765563965,-0.2979485392570495,-0.2085762023925781,0.0116874761879444,0.0406018048524856,0.0,0.0,0.1205093812326021,0.8609536370344812
-0.0428595542907714,1.2862379550933838,-0.2935600280761719,-0.2034248858690261,0.0125150764361023,0.0165536813437938,0.0,0.0,-0.8688965776083253,-0.986345134467924
-0.0459983833134174,1.2814080715179443,-0.3168244659900665,-0.2146874368190765,0.0154211688786745,0.0581269264221191,0.0,0.0,0.2653872816606588,-0.9696800831682956
-0.0494389533996582,1.276963710784912,-0.3493334054946899,-0.1975932866334915,0.0206315834075212,0.1042178273200988,0.0,0.0,-0.7225097853311335,0.8365626492040366
-0.0529463775455951,1.2722669839859009,-0.3543524742126465,-0.2088000029325485,0.0242122802883386,0.0716201514005661,0.0,0.0,0.5899044116635421,0.8778142538243261
-0.05652866512537,1.2679458856582642,-0.3604717850685119,-0.1920894086360931,0.0264275837689638,0.0443102940917015,0.0,0.0,-0.1818282825851573,-0.7118767669236061
-0.060302160680294,1.2633609771728516,-0.3810369968414306,-0.2038455009460449,0.0300855226814746,0.0731652453541755,0.0,0.0,0.5091036754196572,-0.8497406180015753
-0.0642266273498535,1.2589335441589355,-0.3982662558555603,-0.1969002187252044,0.0358378179371356,0.115055963397026,0.0,0.0,-0.4142580996110248,0.6291054247019218
-0.0682604759931564,1.254249095916748,-0.4085097908973694,-0.2083246558904647,0.040908932685852,0.1014314517378807,0.0,0.0,-0.7173576857706592,0.843927520913097
-0.0723904594779014,1.249290108680725,-0.417102962732315,-0.2205159217119217,0.0449553132057189,0.0809277668595314,0.0,0.0,-0.921128434926437,0.8690881029493994
-0.0765988379716873,1.2440803050994873,-0.4233942627906799,-0.2316233813762664,0.0474787279963493,0.050468273460865,0.0,0.0,0.2849954062494659,-0.9673434697723826
-0.0811799988150596,1.239567756652832,-0.4627498090267181,-0.2007168084383011,0.0520602539181709,0.0916304141283035,0.0,0.0,-0.5018530684094584,0.9000664857563909
-0.0858531966805458,1.2348060607910156,-0.4706829190254211,-0.2117527425289154,0.0553947240114212,0.0666893795132637,0.0,0.0,-0.1154108066602825,-0.726662613990698
-0.0907330513000488,1.2297757863998413,-0.4929971694946289,-0.2237578332424163,0.0603533610701561,0.0991725176572799,0.0,0.0,0.3590832048081867,0.6912186255183387
-0.0957308784127235,1.2255419492721558,-0.503533661365509,-0.1883310824632644,0.0640595555305481,0.0741239115595817,0.0,0.0,0.8340832248124572,-0.6721456704474714
-0.1010531410574913,1.221757411956787,-0.5371643304824829,-0.1684191823005676,0.0689448341727256,0.0977056100964546,0.0,0.0,-0.4563130205839667,0.8141957188289234
-0.10646753013134,1.2177255153656006,-0.5449976921081543,-0.1793682426214218,0.0724666938185691,0.0704371109604835,0.0,0.0,-0.7690902606950081,0.9676440853108988
-0.1119602173566818,1.2134311199188232,-0.5511011481285095,-0.1909506767988205,0.0742762312293052,0.0361909195780754,0.0,0.0,-0.0939372228928785,0.9950922625977756
-0.1175192818045616,1.2088866233825684,-0.555657684803009,-0.2019631415605545,0.0740298628807067,-0.004927675705403,0.0,0.0,-0.2644014579444638,0.7577746641843552
-0.1231637001037597,1.2040934562683103,-0.5625688433647156,-0.2129351794719696,0.0721793845295906,-0.0370096787810325,0.0,0.0,0.7321524799816941,0.8262137403216576
-0.1289536505937576,1.199752926826477,-0.5753356218338013,-0.192736729979515,0.0685541480779647,-0.0725044012069702,0.0,0.0,-0.6501761832355988,0.7517167683763444
-0.1348268538713455,1.1951638460159302,-0.5819379091262817,-0.2037245482206344,0.0632350146770477,-0.1063828915357589,0.0,0.0,0.1060779737679389,-0.6036983464022672
-0.1409585922956466,1.191157579421997,-0.6088337898254395,-0.1778779476881027,0.058946069329977,-0.0857787281274795,0.0,0.0,0.6710580326786446,0.6504084349571317
-0.1471893340349197,1.187819242477417,-0.6173385977745056,-0.1481580138206482,0.0532827526330947,-0.1132665276527404,0.0,0.0,0.7521738022713664,0.7498245649474333
-0.1536729782819748,1.185458421707153,-0.6406868100166321,-0.1046782508492469,0.0456920079886913,-0.151814803481102,0.0,0.0,-0.8738775253295898,0.7222731113433838
-0.1602315902709961,1.18284010887146,-0.6462296843528748,-0.1160980388522148,0.0361728034913539,-0.1903841197490692,0.0,0.0,-0.4678243398666382,0.9782938957214355
-0.1668432205915451,1.179956555366516,-0.6490135192871094,-0.1279197186231613,0.0241762399673461,-0.2399314939975738,0.0,0.0,-0.8898481130599976,0.9089692831039428
-0.1735132187604904,1.1768147945404053,-0.6524774432182312,-0.1394508332014084,0.009834493510425,-0.2868347764015198,0.0,0.0,-0.7111251950263977,0.982417106628418
-0.1802519857883453,1.1734046936035156,-0.6572360992431641,-0.1515322774648666,-0.0065877544693648,-0.3284452855587005,0.0,0.0,-0.9940252304077148,0.9972405433654784
-0.1870459616184234,1.1697264909744265,-0.6603199243545532,-0.1636600792407989,-0.0254226047545671,-0.3766972720623016,0.0,0.0,-0.8278069496154785,0.9960405826568604
-0.1938921958208084,1.1657841205596924,-0.6630401015281677,-0.1757234930992126,-0.0467355623841285,-0.4262593388557434,0.0,0.0,-0.9793735146522522,0.5031108856201172
-0.2008432894945144,1.1615902185440063,-0.6724153161048889,-0.1872557699680328,-0.0691747739911079,-0.4487842917442322,0.0,0.0,-0.9946207404136658,0.7636469602584839
-0.2078829258680343,1.1571444272994995,-0.6797747015953064,-0.198879674077034,-0.0931271091103553,-0.4790467619895935,0.0,0.0,-0.996616542339325,0.4905577898025512
-0.2150566130876541,1.152445673942566,-0.6928867697715759,-0.2105366587638855,-0.1174242496490478,-0.4859431385993957,0.0,0.0,-0.986716330051422,0.3719106912612915
-0.2223623692989349,1.1474943161010742,-0.7058057188987732,-0.2221957594156265,-0.1420811861753463,-0.4931390285491943,0.0,0.0,-0.987993061542511,0.5679072141647339
-0.22975754737854,1.14228618144989,-0.7134290933609009,-0.2341718524694442,-0.1681371182203292,-0.5211186408996582,0.0,0.0,-0.9828312397003174,0.6314396858215332
-0.2372224330902099,1.1368088722229004,-0.7186428904533386,-0.2468205839395523,-0.1960774362087249,-0.5588065385818481,0.0,0.0,-0.948456346988678,0.1506546735763549
-0.24481201171875,1.1310820579528809,-0.7308753728866577,-0.2584978640079498,-0.2244183421134948,-0.5668186545372009,0.0,0.0,-0.959796905517578,-0.0199914574623107
-0.2525234818458557,1.1251057386398315,-0.7428370714187622,-0.270177811384201,-0.2531724870204925,-0.5750829577445984,0.0,0.0,-0.9153675436973572,-0.4341978430747986
-0.2603537142276764,1.1188803911209106,-0.7545045614242554,-0.2818605005741119,-0.2823519706726074,-0.5835897326469421,0.0,0.0,-0.8664570450782776,-0.4263293147087097
-0.268299251794815,1.1124067306518557,-0.7658530473709106,-0.2935459017753601,-0.311968445777893,-0.5923298597335815,0.0,0.0,-0.6392091512680054,-0.7417892217636108
-0.2763987183570862,1.1057082414627075,-0.7822015881538391,-0.3039441704750061,-0.3408646583557129,-0.5779245495796204,0.0,0.0,-0.4757421016693115,-0.3276568055152893
-0.2846058905124664,1.0987614393234253,-0.7928282618522644,-0.315629780292511,-0.3702201545238495,-0.5871106386184692,0.0,0.0,-0.1258121728897094,-0.7636703252792358
-0.2929780483245849,1.0916085243225098,-0.8108619451522827,-0.3249796628952026,-0.3982674479484558,-0.5609464049339294,0.0,0.0,0.1547355651855468,-0.8564391136169434
-0.3013749122619629,1.084572196006775,-0.8148354291915894,-0.3199315071105957,-0.4250188767910003,-0.535028338432312,0.0,0.0,0.4567606449127197,-0.7306605577468872
-0.3097518384456634,1.0782301425933838,-0.8139382600784302,-0.2892473936080932,-0.4508933424949646,-0.5174890756607056,0.0,0.0,-0.0324481725692749,-0.3992953896522522
-0.3182184100151062,1.0716382265090942,-0.8227496147155762,-0.3009229004383087,-0.4772675931453705,-0.5274857878684998,0.0,0.0,0.4743963479995727,-0.7398092746734619
-0.3265482783317566,1.0655499696731567,-0.8103644251823425,-0.2786155641078949,-0.5025596022605896,-0.5058407783508301,0.0,0.0,0.4454762935638428,-0.6621184349060059
-0.3348282873630523,1.059699535369873,-0.8064597845077515,-0.2681145668029785,-0.5269662737846375,-0.488133430480957,0.0,0.0,0.6787233352661133,-0.6395926475524902
-0.3430394530296325,1.0545175075531006,-0.8003409504890442,-0.2385783493518829,-0.5508450865745544,-0.477576345205307,0.0,0.0,0.8197668790817261,-0.4941638708114624
-0.3508033156394958,1.0502707958221436,-0.7555497288703918,-0.1974898278713226,-0.5751498937606812,-0.486095666885376,0.0,0.0,0.7809481620788574,-0.5353285670280457
-0.3584136068820953,1.0461218357086182,-0.7412217259407043,-0.1931575089693069,-0.5986077785491943,-0.4691573083400726,0.0,0.0,0.8281633853912354,-0.5282041430473328
-0.3655494153499603,1.04290509223938,-0.6946633458137512,-0.1517642438411712,-0.6213805675506592,-0.4554574489593506,0.0,0.0,0.8577089309692383,-0.361188530921936
-0.3725067973136902,1.0401790142059326,-0.6762638688087463,-0.1306689232587814,-0.6452013254165649,-0.4764149785041809,0.0,0.0,0.9656977653503418,-0.763027548789978
-0.379157692193985,1.038329839706421,-0.6466459631919861,-0.0916338190436363,-0.6681714057922363,-0.4594012200832367,0.0,0.0,0.9143970012664796,-0.8206913471221924
-0.3854106068611145,1.0371028184890747,-0.6081965565681458,-0.0637155920267105,-0.6898403763771057,-0.433379977941513,0.0,0.0,0.6510767936706543,-0.5798982381820679
-0.391287237405777,1.0367803573608398,-0.5711666345596313,-0.0235812943428754,-0.7111223340034485,-0.4256396889686584,0.0,0.0,0.6169149875640869,-0.4209088087081909
-0.3967548906803131,1.0367783308029177,-0.530375599861145,-0.0096864718943834,-0.732656717300415,-0.4306871891021728,0.0,0.0,0.5569158792495728,-0.4503116607666015
-0.4020057320594787,1.0369679927825928,-0.5084627866744995,-0.0017400388605892,-0.7549285292625427,-0.4454361498355865,0.0,0.0,0.3690496683120727,-0.487199068069458
-0.4070286750793457,1.0371432304382324,-0.4857746064662933,-0.0027863055001944,-0.7775353789329529,-0.4521366953849792,0.0,0.0,0.3808274269104004,-0.7514364123344421
-0.4119079113006592,1.0374574661254885,-0.472508043050766,0.0036423802375793,-0.7991008162498474,-0.4313089251518249,0.0,0.0,0.4613534212112427,-0.6066153049468994
-0.4163014888763428,1.0383166074752808,-0.4247985780239105,0.0280239805579185,-0.8199062347412109,-0.4161078929901123,0.0,0.0,-0.1674842238426208,-0.8879178762435913
-0.4207048416137695,1.0389947891235352,-0.4268840253353119,0.0203641168773174,-0.8395567536354065,-0.3930108249187469,0.0,0.0,0.1107040643692016,-0.8895675539970398
-0.4247654378414154,1.040151834487915,-0.3938694596290588,0.0422130078077316,-0.8577461242675781,-0.3637873530387878,0.0,0.0,-0.1279584169387817,-0.7352041006088257
-0.4288338124752044,1.041129231452942,-0.3958187997341156,0.0348168984055519,-0.8745192289352417,-0.3354617655277252,0.0,0.0,0.1808500289916992,-0.8023242354393005
-0.4324352145195007,1.042434573173523,-0.3501347303390503,0.0499286577105522,-0.8900435566902161,-0.3104870915412903,0.0,0.0,-0.0320724248886108,-0.87055504322052
-0.4360306859016418,1.0435776710510254,-0.3508186936378479,0.0435198210179805,-0.9038421511650084,-0.2759720087051391,0.0,0.0,0.4860789775848388,-0.9563817977905272
-0.4391633868217468,1.0451874732971191,-0.3056631684303283,0.0650270730257034,-0.9160693287849426,-0.2445439994335174,0.0,0.0,-0.0069169998168945,-0.8350750803947449
-0.4422657489776611,1.046623468399048,-0.3035760223865509,0.057978019118309,-0.9269360899925232,-0.2173354923725128,0.0,0.0,-0.1329431533813476,-0.7015422582626343
-0.4453218877315521,1.0478603839874268,-0.2995097041130066,0.0495171025395393,-0.9370309710502625,-0.2018977850675583,0.0,0.0,-0.2875392436981201,-0.8125626444816589
-0.4483382701873779,1.0489110946655271,-0.2963151335716247,0.041833572089672,-0.9459444284439088,-0.1782688498497009,0.0,0.0,0.1706198453903198,-0.903514564037323
-0.451037734746933,1.0499452352523804,-0.2655437588691711,0.0418676473200321,-0.9534044861793518,-0.1492007672786712,0.0,0.0,-0.0553862452507019,-0.6338320970535278
-0.4536685943603515,1.050769925117493,-0.2590185701847076,0.0328082628548145,-0.9603679180145264,-0.1392692327499389,0.0,0.0,0.139452576637268,-0.5752938985824585
-0.4559485912322998,1.05149507522583,-0.2244636565446853,0.0288408584892749,-0.9664813280105592,-0.1222675070166587,0.0,0.0,0.064634084701538,-0.4705790281295776
-0.4577332437038421,1.0523834228515625,-0.174591988325119,0.0357180871069431,-0.9732328057289124,-0.1350296437740326,0.0,0.0,-0.2492380142211914,-0.3171570301055908
-0.459414541721344,1.0530176162719729,-0.163944810628891,0.024066561833024,-0.9806036949157716,-0.1474180817604065,0.0,0.0,0.0106070041656494,-0.8306825757026672
-0.4606332182884216,1.053707718849182,-0.1184543222188949,0.0272489450871944,-0.9866849780082704,-0.1216257363557815,0.0,0.0,-0.0482575893402099,0.6025428771972656
-0.4617151319980621,1.054073691368103,-0.1035440415143966,0.0115388836711645,-0.99504816532135,-0.167264312505722,0.0,0.0,0.0257867574691772,-0.3604693412780761
-0.4624351561069488,1.0544849634170532,-0.0669977217912674,0.0131009733304381,-1.0041742324829102,-0.1825205683708191,0.0,0.0,-0.3376212120056152,-0.343356728553772
-0.4630374908447265,1.0546425580978394,-0.0549771897494792,0.0014477235963568,-1.013908624649048,-0.1946883499622345,0.0,0.0,-0.2146313786506652,-0.6920751929283142
-0.4635482728481293,1.0546157360076904,-0.0464834161102771,-0.0061525725759565,-1.0225459337234497,-0.1727442145347595,0.0,0.0,-0.0367124676704406,-0.6794602870941162
-0.4639649391174316,1.0544177293777466,-0.0378374494612216,-0.0130064394325017,-1.0298289060592651,-0.145659327507019,0.0,0.0,0.2208987474441528,-0.3316023349761963
-0.4637810587882995,1.0542813539505005,0.0223215110599994,-0.0104581220075488,-1.0374103784561155,-0.1516282856464386,0.0,0.0,-0.1651320457458496,-0.1338157057762146
-0.4634695947170257,1.0538909435272217,0.0353314653038978,-0.022109679877758,-1.04558265209198,-0.1634448021650314,0.0,0.0,-0.4232425689697265,0.2855587005615234
-0.4630284309387207,1.0532467365264893,0.0485376678407192,-0.0337614156305789,-1.054340362548828,-0.1751538813114166,0.0,0.0,-0.670312225818634,-0.304080605506897
-0.4624555706977844,1.052348494529724,0.0619231089949607,-0.045413315296173,-1.0636776685714722,-0.1867468506097793,0.0,0.0,-0.553648829460144,-0.576779842376709
-0.4617742896080017,1.0512648820877075,0.0721683651208877,-0.0530483163893222,-1.071941614151001,-0.1652777940034866,0.0,0.0,-0.8580103516578674,-0.4670723080635071
-0.4609580934047699,1.0499272346496582,0.0858699977397918,-0.0646992474794387,-1.0807723999023438,-0.1766156405210495,0.0,0.0,-0.4088780879974365,-0.499110460281372
-0.4600054621696472,1.048335313796997,0.0997078940272331,-0.0763502120971679,-1.0901631116867063,-0.1878141909837722,0.0,0.0,-0.5713585615158081,0.6744614839553833
-0.4588924050331116,1.0464125871658323,0.1167520731687545,-0.0925082340836525,-1.1019004583358765,-0.2347468137741089,0.0,0.0,-0.6622938513755798,0.1417977809906005
-0.4576398432254791,1.0442360639572144,0.1308226287364959,-0.1041607037186622,-1.1141823530197144,-0.2456370145082473,0.0,0.0,-0.1529984474182129,-0.2077882289886474
-0.4562464654445648,1.041805624961853,0.1449955999851226,-0.1158131584525108,-1.1270002126693726,-0.2563589811325073,0.0,0.0,-0.4300360083580017,-0.6260141134262085
-0.4547223150730133,1.0391730070114136,0.1576509177684784,-0.1244548335671424,-1.139180302619934,-0.2436029016971588,0.0,0.0,-0.5918754935264587,-0.1472825407981872
-0.4530554413795471,1.036286234855652,0.1720050275325775,-0.1361059993505478,-1.1518785953521729,-0.253965675830841,0.0,0.0,-0.7383463382720947,-0.4504199624061584
-0.4512448310852051,1.0331456661224363,0.1864361464977264,-0.1477569937705993,-1.1650854349136353,-0.2641368508338928,0.0,0.0,-0.8013665080070496,-0.3112436532974243
-0.449289470911026,1.0297508239746094,0.2009371221065521,-0.1594077050685882,-1.178790807723999,-0.2741082012653351,0.0,0.0,-0.7823296785354614,-0.2621364593505859
-0.447188526391983,1.026102066040039,0.215501457452774,-0.1710581183433532,-1.1929843425750732,-0.2838716208934784,0.0,0.0,-0.9159144163131714,-0.6567041277885437
-0.4449626505374908,1.0222818851470947,0.2272817343473434,-0.1778002232313156,-1.2057236433029177,-0.2547857761383056,0.0,0.0,-0.8404826521873474,-0.6396430134773254
-0.4426120817661285,1.018288016319275,0.2390898168087005,-0.1846486926078796,-1.2170320749282837,-0.2261682450771331,0.0,0.0,-0.8517376184463501,-0.1843143701553344
-0.4401145577430725,1.0140395164489746,0.2538224458694458,-0.1962947398424148,-1.2287957668304443,-0.2352741658687591,0.0,0.0,-0.8856363892555237,-0.2455506920814514
-0.4374693930149078,1.0095360279083252,0.2685980200767517,-0.2079402059316635,-1.241003155708313,-0.244148850440979,0.0,0.0,-0.9138487577438354,-0.3601341843605041
-0.4346760213375091,1.004777431488037,0.2834122478961944,-0.2195850312709808,-1.253642439842224,-0.2527852356433868,0.0,0.0,-0.8760932683944702,-0.4224249124526977
-0.4317339360713959,0.9997637271881104,0.2982612550258636,-0.2312291711568832,-1.2667012214660645,-0.2611764967441559,0.0,0.0,-0.8489567637443542,-0.4125941395759582
-0.4286425709724426,0.9944947361946106,0.3131414651870727,-0.2428725808858871,-1.2801669836044312,-0.2693162560462951,0.0,0.0,-0.8881590366363525,-0.3836667537689209
