x_pos,y_pos,x_vel,y_vel,angle,ang_vel,leg_1,leg_2,main_booster,lat_booster
-0.0015664100646972,1.403510332107544,-0.1586282849311828,-0.3293262124061584,0.0017812161240726,0.0351373702287673,0.0,0.0,-0.4884809851646423,0.7439039945602417
-0.0031122206710278,1.3960059881210327,-0.1547184437513351,-0.3335258364677429,0.0019093544688075,0.0025636840146034,0.0,0.0,-0.073077917098999,0.2544368505477905
-0.0047006607055664,1.3883869647979736,-0.158972293138504,-0.338624894618988,0.0020350008271634,0.0025136354379355,0.0,0.0,-0.0365359187126159,0.5583128929138184
-0.0062962532974779,1.380651831626892,-0.1587926298379898,-0.3437791168689728,0.0012791069457307,-0.0151195004582405,0.0,0.0,0.2408571243286132,0.8152124881744385
-0.0077599524520337,1.3735401630401611,-0.1440981924533844,-0.3160736858844757,-0.000957375683356,-0.0447340086102485,0.0,0.0,0.1322873830795288,0.6290737390518188
-0.0091101648285985,1.3668715953826904,-0.1316931247711181,-0.2963921129703522,-0.0042521567083895,-0.065901905298233,0.0,0.0,-0.2320042252540588,-0.4501898288726806
-0.0105019565671682,1.36008882522583,-0.1358757019042968,-0.3014701604843139,-0.0075206500478088,-0.0653759390115737,0.0,0.0,-0.3216575384140014,0.2301620244979858
-0.0119350431486964,1.3531920909881592,-0.1400384455919265,-0.3065450489521026,-0.0107572749257087,-0.0647383853793144,0.0,0.0,-0.6307927966117859,0.2382035255432129
-0.01340913772583,1.3461811542510986,-0.1441794335842132,-0.3116207718849182,-0.0139565663412213,-0.0639913603663444,0.0,0.0,-0.5274546146392822,0.2843773365020752
-0.0149239543825387,1.339056134223938,-0.1482965499162674,-0.3166973888874054,-0.0171137042343616,-0.0631484016776084,0.0,0.0,-0.3553797006607055,0.4274290800094604
-0.016479205340147,1.3318170309066772,-0.152388110756874,-0.3217739462852478,-0.0202244184911251,-0.0622199550271034,0.0,0.0,0.0963673591613769,0.7395670413970947
-0.0179555900394916,1.324984788894653,-0.1431082487106323,-0.3037234842777252,-0.0247007515281438,-0.0895348712801933,0.0,0.0,-0.1448739767074585,0.4477624893188476
-0.0194716453552246,1.3180384635925293,-0.147138774394989,-0.3088051974773407,-0.0291229058057069,-0.0884511321783065,0.0,0.0,-0.4449930787086487,0.1619282960891723
-0.0210271831601858,1.3109781742095947,-0.1511377990245819,-0.3138813078403473,-0.03348895534873,-0.0873287171125412,0.0,0.0,-0.4321067333221435,-0.2746935486793518
-0.022621726617217,1.3038040399551392,-0.1551030576229095,-0.3189581036567688,-0.0377964004874229,-0.0861568823456764,0.0,0.0,-0.8169664740562439,0.2374461889266967
-0.0242549888789653,1.296515941619873,-0.1590321063995361,-0.3240355551242828,-0.0420435704290866,-0.0849511325359344,0.0,0.0,-0.6559765934944153,0.5121347904205322
-0.0258767120540142,1.289116382598877,-0.1566811650991439,-0.3290228545665741,-0.0474775992333889,-0.1086903437972068,0.0,0.0,-0.4594237804412842,0.7637499570846558
-0.0274619106203317,1.281591773033142,-0.1512056291103363,-0.3346854448318481,-0.0547252558171749,-0.1449662148952484,0.0,0.0,-0.6519390940666199,-0.1203888058662414
-0.0290844924747943,1.2739533185958862,-0.1550045311450958,-0.3397661447525024,-0.0619096383452415,-0.1437007337808609,0.0,0.0,-0.9475242495536804,0.0088551044464111
-0.0307439807802438,1.266201376914978,-0.1587587594985962,-0.3448468744754791,-0.069032035768032,-0.1424604505300521,0.0,0.0,-0.861680805683136,0.524975061416626
-0.0323895439505577,1.2583342790603638,-0.156155988574028,-0.3500475585460663,-0.0773571729660034,-0.1665177643299102,0.0,0.0,-0.7793706059455872,0.1919687986373901
-0.0340709686279296,1.2503540515899658,-0.159809336066246,-0.3551301658153534,-0.085621453821659,-0.1653004586696624,0.0,0.0,-0.7509108781814575,-0.0190984606742858
-0.0357878692448139,1.242260217666626,-0.1634108126163482,-0.3602128326892853,-0.0938275158405304,-0.1641359627246856,0.0,0.0,-0.6082727313041687,0.6850779056549072
-0.0374796874821186,1.2340370416641235,-0.1594511568546295,-0.3661066889762878,-0.1035033762454986,-0.1935344636440277,0.0,0.0,-0.8692326545715332,0.8222160339355469
-0.0391562469303607,1.2256957292556765,-0.1567170470952987,-0.37152099609375,-0.1143770888447761,-0.2174934148788452,0.0,0.0,-0.8275942206382751,-0.0868539214134216
-0.04086809232831,1.2172203063964844,-0.1603031903505325,-0.3775563836097717,-0.1252014487981796,-0.216486781835556,0.0,0.0,-0.9448164105415344,0.3454197645187378
-0.0426134094595909,1.208632230758667,-0.1636947095394134,-0.3826397955417633,-0.1359810382127761,-0.2155921757221222,0.0,0.0,-0.8754002451896667,0.7781670093536377
-0.0443428047001361,1.1999297142028809,-0.1609537452459335,-0.3879140615463257,-0.1479340642690658,-0.2390605509281158,0.0,0.0,-0.783389687538147,-0.0562866330146789
-0.0461042411625385,1.191114902496338,-0.1642139256000518,-0.3929995596408844,-0.1598517894744873,-0.2383544147014618,0.0,0.0,-0.9233586192131042,-0.658670961856842
-0.0479504577815532,1.1821980476379397,-0.1741138696670532,-0.3974756598472595,-0.1703764945268631,-0.2104939967393875,0.0,0.0,-0.812475860118866,-0.1965354681015014
-0.0498275756835937,1.1731683015823364,-0.1772321611642837,-0.4025585353374481,-0.1808771342039108,-0.2100128680467605,0.0,0.0,-0.9222738742828368,-0.512858510017395
-0.0517800338566303,1.1640349626541138,-0.1859695017337799,-0.4070826470851898,-0.1902004182338714,-0.186465710401535,0.0,0.0,-0.8197900056838989,-0.1009259819984436
-0.0537619590759277,0.0,-0.18893663585186,-0.4121637046337127,-0.1995124816894531,-0.1862411051988601,0.0,0.0,-0.7847355604171753,-0.4974295496940613
-0.0557724945247173,1.145429253578186,-0.1918251663446426,-0.4172448217868805,-0.2088203132152557,-0.1861567050218582,0.0,0.0,-0.8449984192848206,-0.6516790986061096
-0.0578598007559776,1.1359736919403076,-0.2007751762866974,-0.4213966727256775,-0.2168551236391067,-0.1606962978839874,0.0,0.0,-0.7876313924789429,-0.8358889818191528
-0.0600358955562114,1.1264313459396362,-0.2112733572721481,-0.4250493943691253,-0.2232643812894821,-0.1281851679086685,0.0,0.0,0.0915517807006836,-0.096038818359375
-0.0621888153254985,1.1172213554382324,-0.2088627368211746,-0.4103267788887024,-0.2297727912664413,-0.1301683485507965,0.0,0.0,-0.6763392686843872,-0.4411250352859497
-0.0643674880266189,1.1078975200653076,-0.2114156782627105,-0.4154048264026642,-0.2363085299730301,-0.1307150274515152,0.0,0.0,-0.773015022277832,0.3068910837173462
-0.0665709525346756,1.0984604358673096,-0.2138806134462356,-0.4204831421375274,-0.2428803145885467,-0.1314353048801422,0.0,0.0,-0.7360485792160034,-0.2361241579055786
-0.068798542022705,1.0889097452163696,-0.2162560671567917,-0.4255616366863251,-0.249497041106224,-0.132334902882576,0.0,0.0,-0.457670509815216,-0.3643760681152344
-0.0710494071245193,1.079245686531067,-0.2185407131910324,-0.4306403994560241,-0.256168007850647,-0.1334191709756851,0.0,0.0,-0.6095855236053467,-0.8647915720939636
-0.0733755081892013,1.0694868564605713,-0.2273731231689453,-0.4346500039100647,-0.2615140080451965,-0.10691998898983,0.0,0.0,-0.5153754353523254,-0.6705884337425232
-0.0757673233747482,1.0596243143081665,-0.2349961102008819,-0.4390835762023926,-0.2658020555973053,-0.0857602804899215,0.0,0.0,0.4381743669509887,-0.1999096274375915
-0.0779757499694824,1.050280213356018,-0.2169634848833084,-0.4160036444664001,-0.2697736024856567,-0.0794312134385109,0.0,0.0,-0.2649493813514709,-0.0001022219657897
-0.0802042037248611,1.0408225059509275,-0.2188740968704223,-0.4210810661315918,-0.2738385796546936,-0.0812994390726089,0.0,0.0,-0.3065991401672363,-0.2592670917510986
-0.0824517235159874,1.0312511920928955,-0.2206898182630539,-0.4261588454246521,-0.2780072093009949,-0.0833727195858955,0.0,0.0,-0.4231435656547546,0.2238345146179199
-0.0847174674272537,1.0215662717819214,-0.2224104702472686,-0.4312370121479034,-0.2822899222373962,-0.0856538191437721,0.0,0.0,-0.1125843524932861,-0.0725762844085693
-0.0870007500052452,1.011768102645874,-0.2240360230207443,-0.4363154470920563,-0.2866971492767334,-0.0881451517343521,0.0,0.0,0.1735364198684692,0.0390187501907348
-0.0892326384782791,1.0027018785476685,-0.2183493822813034,-0.4039025604724884,-0.2916755378246307,-0.0995678454637527,0.0,0.0,-0.50200355052948,-0.4014736413955688
-0.0914801582694053,0.9935224056243896,-0.2197855710983276,-0.4089821577072143,-0.2967997789382934,-0.1024845615029335,0.0,0.0,-0.2275290489196777,-0.4816270470619201
-0.0937425643205642,0.9842298030853271,-0.2211277782917022,-0.4140621423721313,-0.3020805716514587,-0.1056156307458877,0.0,0.0,-0.0090647339820861,-0.5267379283905029
-0.0960616096854209,0.9748474955558776,-0.2277813702821731,-0.4178562760353088,-0.3063505887985229,-0.0854008719325065,0.0,0.0,-0.3142277002334595,-0.1064239144325256
-0.098394013941288,0.965351939201355,-0.2289377152919769,-0.422936350107193,-0.3107986748218536,-0.0889616459608078,0.0,0.0,0.3944103717803955,0.1761538982391357
-0.100530244410038,0.95670348405838,-0.2091667205095291,-0.3853365480899811,-0.3154230713844299,-0.0924881771206855,0.0,0.0,-0.0496147871017456,-0.1574556827545166
-0.1026781052350997,0.9479421973228456,-0.2101422846317291,-0.3904175460338592,-0.3202469050884247,-0.0964766219258308,0.0,0.0,-0.0450561046600341,-0.0628975629806518
-0.1048367470502853,0.939067542552948,-0.2110296785831451,-0.3954990208148956,-0.3252807855606079,-0.1006770357489585,0.0,0.0,0.7726397514343262,-0.368580162525177
-0.1066365242004394,0.9312472343444824,-0.1753897666931152,-0.3486113250255584,-0.3300685584545135,-0.0957555398344993,0.0,0.0,-0.3662564754486084,-0.3556557893753052
-0.1084456443786621,0.9233140349388124,-0.1761059612035751,-0.3536934852600097,-0.3350872695446014,-0.1003741025924682,0.0,0.0,-0.4991548061370849,-0.1202858686447143
-0.1102633476257324,0.9152680039405824,-0.1767396330833435,-0.358776181936264,-0.3403471708297729,-0.1051979288458824,0.0,0.0,-0.8303117752075195,-0.3251498341560364
-0.1120888739824295,0.9071093797683716,-0.1772929579019546,-0.363859474658966,-0.3458583652973175,-0.110223963856697,0.0,0.0,-0.1543620228767395,0.0473318099975585
-0.1139214485883712,0.8988381624221802,-0.1777682900428772,-0.3689433336257934,-0.351630836725235,-0.1154487878084182,0.0,0.0,0.4153341054916382,-0.7191181182861328
-0.1156952828168869,0.8913823366165161,-0.1728970259428024,-0.3324699401855469,-0.3563468754291534,-0.0943204909563064,0.0,0.0,0.2399035692214965,-0.4814453125
-0.1172526329755783,0.8843111395835876,-0.15140201151371,-0.3153591156005859,-0.3609146773815155,-0.0913558453321456,0.0,0.0,-0.2712479829788208,-0.1804581880569458
-0.1188152283430099,0.8771274089813232,-0.1516577452421188,-0.3204434216022491,-0.3657723069190979,-0.0971528813242912,0.0,0.0,0.0602831840515136,-0.4506377577781677
-0.1202856078743934,0.8701888918876648,-0.1421972066164016,-0.3096269071102142,-0.3709056675434112,-0.1026672273874282,0.0,0.0,0.8742072582244873,-0.6442943215370178
-0.1217048615217208,0.8641851544380188,-0.1376776397228241,-0.2679400444030761,-0.3753977417945862,-0.0898412317037582,0.0,0.0,0.9232215881347656,0.3028414249420166
-0.1227389350533485,0.8594455718994141,-0.0989940762519836,-0.2118182778358459,-0.3800905346870422,-0.0938560515642166,0.0,0.0,0.9387235641479492,-0.2400045990943908
-0.1235592812299728,0.8550180196762085,-0.0777380689978599,-0.1979297697544098,-0.384662389755249,-0.091436393558979,0.0,0.0,0.8541158437728882,-0.5325619578361511
-0.1240299195051193,0.8518213629722595,-0.0435842350125312,-0.1430187225341797,-0.388369619846344,-0.0741443932056427,0.0,0.0,0.8411465883255005,-0.8220251798629761
-0.1244699507951736,0.8493432998657227,-0.0415858328342437,-0.1107960641384124,-0.3909450471401214,-0.0515084452927112,0.0,0.0,0.7375807762145996,-0.966083526611328
-0.1248091682791709,0.8478493094444275,-0.0329307243227958,-0.0666729286313057,-0.3920106887817383,-0.0213127061724662,0.0,0.0,0.5197899341583252,-0.8610167503356934
-0.1249636635184288,0.8470586538314819,-0.0158254988491535,-0.0350398309528827,-0.3916106224060058,0.0080015566200017,0.0,0.0,-0.75614994764328,-0.8969191908836365
-0.1251954138278961,0.8462137579917908,-0.0253285504877567,-0.0369593575596809,-0.3893105983734131,0.0460007824003696,0.0,0.0,-0.574089765548706,-0.8580926656723022
-0.125482365489006,0.8452903628349304,-0.0319714993238449,-0.0401509553194046,-0.3858230412006378,0.0697510987520217,0.0,0.0,-0.0992919206619262,-0.6933825612068176
-0.1258242577314376,0.844282329082489,-0.0385281965136528,-0.0436353273689746,-0.3812054693698883,0.0923513397574424,0.0,0.0,0.1321266889572143,-0.7021028995513916
-0.1260872781276703,0.8434669375419617,-0.0316929891705513,-0.0348120182752609,-0.3754771649837494,0.1145660504698753,0.0,0.0,-0.0094549655914306,-0.718680739402771
-0.1264070570468902,0.8425658345222473,-0.0384781584143638,-0.0383594185113906,-0.3685847520828247,0.1378480046987533,0.0,0.0,0.0693157911300659,-0.3931982517242431
-0.1265462934970855,0.8422741293907166,-0.0200527869164943,-0.0113986423239111,-0.36210697889328,0.1295550167560577,0.0,0.0,0.0788465738296508,-0.5204995274543762
-0.1264790594577789,0.8426140546798706,-0.0001619424729142,0.0168211422860622,-0.3548481464385986,0.1451765447854995,0.0,0.0,-0.1374877095222473,-0.5274060964584351
-0.1264556944370269,0.842872679233551,-0.0054187481291592,0.0133925657719373,-0.346697449684143,0.1630136668682098,0.0,0.0,-0.2341057062149047,-0.5426758527755737
-0.1264813393354416,0.843041181564331,-0.0112389139831066,0.0095515511929988,-0.3376043140888214,0.1818626821041107,0.0,0.0,-0.2120028734207153,-0.5865110158920288
-0.1265450417995453,0.8431248664855957,-0.0157744400203228,0.0058800345286726,-0.3277910351753235,0.1962656676769256,0.0,0.0,-0.3986777067184448,-0.1578401923179626
-0.1266077011823654,0.8430972695350647,-0.0152848958969116,0.0007873087888583,-0.3183862268924713,0.1880959570407867,0.0,0.0,-0.0677518844604492,-0.0206655263900756
-0.1266690194606781,0.8429582118988037,-0.0147881908342242,-0.004304579924792,-0.3093924522399902,0.1798747479915619,0.0,0.0,-0.2402817010879516,-0.0279681682586669
-0.1267291009426117,0.8427075743675232,-0.0142876002937555,-0.0093956477940082,-0.3008119463920593,0.1716101169586181,0.0,0.0,-0.2239606380462646,0.1435611248016357
-0.126787856221199,0.8423454165458679,-0.0137863773852586,-0.0144859161227941,-0.2926464080810547,0.1633104383945465,0.0,0.0,-0.4036701321601867,-0.2450777292251587
-0.1268454492092132,0.841871440410614,-0.0132877361029386,-0.0195754058659076,-0.2848972082138061,0.1549840867519378,0.0,0.0,-0.0785849690437316,0.2850532531738281
-0.1269021034240722,0.8412856459617615,-0.0127948597073555,-0.0246641337871551,-0.2775652408599853,0.1466395854949951,0.0,0.0,-0.2881972789764404,0.4131184816360473
-0.1269578039646148,0.8405877351760864,-0.012310885824263,-0.0297521334141492,-0.2706509530544281,0.1382856220006942,0.0,0.0,-0.3335716128349304,0.6018288135528564
-0.1269573271274566,0.8397497534751892,-0.004825847223401,-0.0363495908677578,-0.2656604051589966,0.0998108014464378,0.0,0.0,0.2379262447357177,0.782459020614624
-0.126752570271492,0.8395971059799194,0.0175510849803686,-0.0062564956024289,-0.2626710832118988,0.0597862787544727,0.0,0.0,-0.5324569344520569,0.4496335983276367
-0.1265475302934646,0.839331865310669,0.0179907865822315,-0.0113403582945466,-0.2600982189178467,0.0514573939144611,0.0,0.0,-0.4284305572509765,0.5993531942367554
-0.126286894083023,0.838934063911438,0.0253914557397365,-0.0175591614097356,-0.2594019770622253,0.0139247328042984,0.0,0.0,-0.6159511804580688,0.4391005039215088
-0.1260262429714203,0.838423490524292,0.025786081328988,-0.0226421635597944,-0.2591190636157989,0.0056581413373351,0.0,0.0,-0.413797378540039,0.1400908231735229
-0.1257659941911697,0.8378002047538757,0.0261537823826074,-0.027725076302886,-0.259247213602066,-0.0025630735326558,0.0,0.0,0.3068345785140991,-0.0395006537437438
-0.1252666413784027,0.838027834892273,0.0501568838953971,0.0100780446082353,-0.2594740390777588,-0.0045364750549197,0.0,0.0,-0.5679430961608887,-0.12445068359375
-0.1247682571411132,0.8381426930427551,0.0504625253379344,0.0049952520057559,-0.2601059079170227,-0.0126376468688249,0.0,0.0,-0.783261775970459,-0.298983097076416
-0.1242710128426551,0.8381447196006775,0.0507331788539886,-8.750913548283279e-05,-0.2611390948295593,-0.020663758739829,0.0,0.0,-0.3674991726875305,-0.1965434551239013
-0.1237753853201866,0.8380340933799744,0.0509662926197052,-0.0051702656783163,-0.2625693082809448,-0.0286044627428054,0.0,0.0,-0.9255698919296264,-0.1925834417343139
-0.1232816725969314,0.8378105163574219,0.0511594004929065,-0.0102530429139733,-0.2643917798995971,-0.0364492312073707,0.0,0.0,-0.5617542862892151,-0.4787002801895141
-0.1227901428937912,0.8374743461608887,0.0513101145625114,-0.0153358625248074,-0.2666011452674866,-0.0441873483359813,0.0,0.0,-0.0860635638236999,-0.736642062664032
-0.1223601326346397,0.8370468020439148,0.0440225377678871,-0.0191857311874628,-0.267640471458435,-0.020786615088582,0.0,0.0,-0.4383379220962524,-0.4452592134475708
-0.121933177113533,0.8365064859390259,0.0440818928182125,-0.0242682006210088,-0.2690543830394745,-0.0282781776040792,0.0,0.0,-0.6476543545722961,-0.4845410585403442
-0.1215096488595008,0.8358532786369324,0.0440923199057579,-0.0293506272137165,-0.270835816860199,-0.035629354417324,0.0,0.0,-0.281712532043457,0.0308088064193725
-0.1210900321602821,0.835087239742279,0.044051818549633,-0.0344330333173275,-0.2729772627353668,-0.0428285039961338,0.0,0.0,-0.5928633213043213,-0.6610761880874634
-0.1207209601998329,0.8342217803001404,0.0381755456328392,-0.038702692836523,-0.2742725312709808,-0.0259055644273757,0.0,0.0,-0.7105923295021057,-0.6275705695152283
-0.120391845703125,0.8332633376121521,0.0335596464574337,-0.0427214540541172,-0.2749404609203338,-0.0133584709838032,0.0,0.0,0.012539267539978,-0.4241738319396972
-0.1199523955583572,0.8328841328620911,0.0449830964207649,-0.0170457921922206,-0.2760067582130432,-0.0213259141892194,0.0,0.0,-0.2157087326049804,-0.5364528894424438
-0.1195485144853591,0.8324112296104431,0.0409215092658996,-0.0211221892386674,-0.2765606343746185,-0.0110772382467985,0.0,0.0,-0.4585504531860351,-0.1491650342941284
-0.1191510185599327,0.8318254351615906,0.0406008884310722,-0.0262034516781568,-0.2774271965026855,-0.0173311010003089,0.0,0.0,-0.7090798616409302,0.0248993635177612
-0.1187602058053016,0.83112633228302,0.040219884365797,-0.0312845073640346,-0.2785950601100921,-0.023357244208455,0.0,0.0,-0.1872178316116333,-0.6768224239349365
-0.1184215545654296,0.8303396701812744,0.0340727493166923,-0.0350021570920944,-0.2788119912147522,-0.0043388353660702,0.0,0.0,-0.5572192072868347,-0.6578563451766968
-0.1181344985961914,0.8294553160667419,0.0280656311661005,-0.0391842611134052,-0.2781527936458587,0.0131842168048024,0.0,0.0,-0.40550297498703,0.1004097461700439
-0.1178557425737381,0.8284577131271362,0.0274972114711999,-0.0442644320428371,-0.2777566611766815,0.0079223569482564,0.0,0.0,-0.2163878679275512,0.102773904800415
-0.1175856590270996,0.827346920967102,0.0268646720796823,-0.049344252794981,-0.2776095271110534,0.0029428363777697,0.0,0.0,-0.6995763778686523,-0.2609304189682007
-0.1173248291015625,0.8261227011680603,0.026167407631874,-0.0544237121939659,-0.2776965498924255,-0.0017404574900865,0.0,0.0,-0.661807119846344,-0.2343538999557495
-0.1170737296342849,0.8247851729393005,0.025404954329133,-0.0595028214156627,-0.2780022323131561,-0.0061135469004511,0.0,0.0,-0.0325159430503845,-0.4576758146286011
-0.1168329268693924,0.8233341574668884,0.0245769899338483,-0.0645815730094909,-0.2785103619098663,-0.0101625006645917,0.0,0.0,0.2279819250106811,-0.850350558757782
-0.1164466887712478,0.8224996328353882,0.0375579185783863,-0.0368899144232273,-0.277419775724411,0.0218118149787187,0.0,0.0,-0.4938198924064636,-0.0284574627876281
-0.1160717010498046,0.8215516209602356,0.0365985333919525,-0.0419679470360279,-0.2764971554279327,0.0184526331722736,0.0,0.0,-0.2402899265289306,0.2426651716232299
