x_pos,y_pos,x_vel,y_vel,angle,ang_vel,leg_1,leg_2,main_booster,lat_booster
-0.0015315056079998,1.4031566381454468,-0.155140608549118,-0.3450402319431305,0.0017862761160358,0.0352375917136669,0.0,0.0,-0.90944508950871,-0.9184984735448238
-0.0031374930404126,1.3949440717697144,-0.1640369445085525,-0.3650113940238952,0.0051961145363748,0.068203791975975,0.0,0.0,0.4667631606764084,-0.5651396800007591
-0.0046700476668775,1.3867980241775513,-0.1581653654575348,-0.3620730340480804,0.0100533012300729,0.0971525534987449,0.0,0.0,-0.3719956284359738,-0.6043196984227841
-0.0062685967423021,1.3781816959381104,-0.1662271916866302,-0.3830077946186065,0.0163499638438224,0.1259448528289795,0.0,0.0,0.0839925312320957,0.5333273934062859
-0.0077483179047703,1.3697446584701538,-0.1534579247236251,-0.3750465214252472,0.0217793006449937,0.108596958220005,0.0,0.0,0.5508299467885924,0.5196942032827976
-0.0090700145810842,1.361609697341919,-0.1370141506195068,-0.3616285324096679,0.0265714991837739,0.0958527773618698,0.0,0.0,0.9711849492556952,-0.5033477207504993
-0.0104882242158055,1.354037880897522,-0.1475921422243118,-0.3366435170173645,0.032277975231409,0.1141400933265686,0.0,0.0,0.0591349707444828,-0.9998274857955968
-0.0118938442319631,1.3466250896453855,-0.148313820362091,-0.3296397030353546,0.0399393811821937,0.1532420516014099,0.0,0.0,0.5859617123656544,-0.7515090224661479
-0.0134147647768259,1.3399535417556765,-0.161311000585556,-0.2967924773693084,0.0490713156759738,0.1826554983854293,0.0,0.0,-0.1171047044244528,0.7520779962397972
-0.0148880006745457,1.3328238725662231,-0.1550437361001968,-0.3171452581882477,0.0567223243415355,0.1530338823795318,0.0,0.0,0.0051665138906349,0.6710331573810595
-0.0162803642451763,1.325778841972351,-0.1456931233406067,-0.3133654594421386,0.0631111562252044,0.1277883052825927,0.0,0.0,0.3867235666946356,0.8109969093263603
-0.017581844702363,1.3189409971237185,-0.1350714713335037,-0.3041226267814636,0.0679933428764343,0.0976527333259582,0.0,0.0,-0.1097666990496786,0.8764027695053209
-0.0188114158809185,1.3116486072540283,-0.1257654428482055,-0.3242423832416534,0.070769302546978,0.0555243417620658,0.0,0.0,-0.1050375055464631,-0.7941728452677257
-0.0201079361140728,1.303875207901001,-0.1338776499032974,-0.3456869125366211,0.0749544948339462,0.083711601793766,0.0,0.0,-0.0387516782079464,-0.7526815677334995
-0.0214625354856252,1.2956370115280151,-0.1408372819423675,-0.3664187788963318,0.080292098224163,0.10676159709692,0.0,0.0,-0.3399805781081169,-0.7182544791878938
-0.0228752139955759,1.2869175672531128,-0.1478428840637207,-0.3878974914550781,0.0868099331855773,0.1303685903549194,0.0,0.0,-0.9848200839886124,-0.6952391880843511
-0.0243432037532329,1.2777334451675415,-0.1544518023729324,-0.4086399674415588,0.0944013148546218,0.1518416553735733,0.0,0.0,0.6354744813411901,0.9672081469789496
-0.0256241802126169,1.2686611413955688,-0.1340190172195434,-0.4035940170288086,0.1002870798110961,0.1177259236574173,0.0,0.0,0.8921671079057831,-0.837802940294736
-0.0269550327211618,1.2605100870132446,-0.1409554928541183,-0.3628165423870086,0.108100302517414,0.1562788933515548,0.0,0.0,-0.3973331838485248,0.6541641937099111
-0.0282546039670705,1.2518986463546753,-0.1366858482360839,-0.3832317292690277,0.1147935464978218,0.1338768303394317,0.0,0.0,-0.8572976151924296,-0.8572688258678122
-0.0296209342777729,1.2428171634674072,-0.1447158753871917,-0.4042568504810333,0.1228420659899711,0.1609848439693451,0.0,0.0,0.942710370816794,0.5542604773179016
-0.0310061462223529,1.2340508699417114,-0.1455402225255966,-0.390202909708023,0.1298379600048065,0.1399303823709488,0.0,0.0,0.650521644774928,-0.5776042103673368
-0.0323820114135742,1.2256438732147217,-0.1461240649223327,-0.3744037747383117,0.1383523494005203,0.1703028380870819,0.0,0.0,-0.5710886330335112,0.6953906858972425
-0.0337100028991699,1.2167749404907229,-0.1397855877876281,-0.3948380649089813,0.1453286409378051,0.1395383924245834,0.0,0.0,0.8661689854128469,-0.8221693573348174
-0.0353953354060649,1.208467721939087,-0.1768096685409546,-0.3700274229049682,0.1536022871732711,0.1654875725507736,0.0,0.0,-0.5941901406753287,0.9227491577605736
-0.0370379462838172,1.1996901035308838,-0.1711498796939849,-0.3908489346504211,0.1604836583137512,0.1376278102397918,0.0,0.0,0.3380212709772834,-0.9873343962599788
-0.0388622283935546,1.1913049221038818,-0.1913003772497177,-0.3736587762832641,0.1693503558635711,0.1773338317871093,0.0,0.0,-0.8106695465854612,0.6083344093653905
-0.0406639091670513,1.1824686527252195,-0.1880717426538467,-0.3936452865600586,0.1772691905498504,0.158376857638359,0.0,0.0,-0.7817314119918779,-0.6127024761344093
-0.0425379760563373,1.1731551885604858,-0.1967873275279998,-0.4150877594947815,0.1866895407438278,0.1884065270423889,0.0,0.0,0.4309289773161937,-0.7163343565700253
-0.0445792190730571,1.1639735698699951,-0.2149016559123993,-0.4094628691673279,0.1975248903036117,0.2167070806026458,0.0,0.0,0.1470647169257959,-0.7255580915511892
-0.0467926040291786,1.1551861763000488,-0.2335487306118011,-0.3922300338745117,0.2098363637924194,0.246229812502861,0.0,0.0,-0.984439492225647,0.9953548908233644
-0.0489521026611328,1.1459485292434692,-0.2264247685670852,-0.4120878577232361,0.2204180657863617,0.2116341590881347,0.0,0.0,-0.9366405606269836,0.9830186367034912
-0.0510614402592182,1.136275291442871,-0.2197159826755523,-0.4312567114830017,0.2292936146259308,0.1775110512971878,0.0,0.0,-0.7666759490966797,0.9614474773406982
-0.0531173720955848,1.1261496543884275,-0.2126500904560089,-0.4511358141899109,0.2364522069692611,0.143172413110733,0.0,0.0,-0.9762355089187622,0.9948701858520508
-0.0551092140376567,1.11558735370636,-0.204197809100151,-0.4702537357807159,0.2415565252304077,0.1020864620804786,0.0,0.0,-0.8720371127128601,0.9955552816390992
-0.0570374503731727,1.1045937538146973,-0.1958069056272506,-0.4890972673892975,0.2445926815271377,0.0607227385044097,0.0,0.0,-0.972287654876709,0.994387149810791
-0.0589056983590126,1.0931549072265625,-0.1879419386386871,-0.5085808038711548,0.2457208484411239,0.0225637704133987,0.0,0.0,-0.965879201889038,0.9957802295684814
-0.0607080459594726,1.0812863111495972,-0.1792459785938263,-0.5273330807685852,0.2447122186422348,-0.0201725661754608,0.0,0.0,-0.960464596748352,0.996112585067749
-0.0624547973275184,1.0689873695373535,-0.1718301475048065,-0.546150267124176,0.2418218255043029,-0.0578079596161842,0.0,0.0,-0.9987351894378662,0.9977086782455444
-0.0641355514526367,1.0562516450881958,-0.1631530374288559,-0.5652279257774353,0.2368293553590774,-0.0998493283987045,0.0,0.0,-0.9951122999191284,0.9779936075210572
-0.065769575536251,1.0430790185928345,-0.1568847000598907,-0.5844118595123291,0.2302142232656479,-0.1323029398918151,0.0,0.0,-0.9878201484680176,0.9970632791519164
-0.0673246383666992,1.0294699668884275,-0.1466000825166702,-0.6034859418869019,0.2211861759424209,-0.1805611848831176,0.0,0.0,-0.9715843796730042,0.9988757371902466
-0.0688025504350662,1.015413761138916,-0.1365607529878616,-0.6230747103691101,0.2098376154899597,-0.2269706726074218,0.0,0.0,-0.955921471118927,0.9430606365203856
-0.0702091231942176,1.0009173154830933,-0.1272184550762176,-0.6424421668052673,0.1962878853082656,-0.2709948420524597,0.0,0.0,-0.9592970013618468,0.2712699174880981
-0.071629524230957,0.9859554171562196,-0.1285677701234817,-0.663245439529419,0.1827450394630432,-0.2708570063114166,0.0,0.0,-0.942529320716858,0.739134669303894
-0.0730008110404014,0.9705380797386168,-0.1220506802201271,-0.6834210753440857,0.1676180213689804,-0.3025405406951904,0.0,0.0,-0.8989121913909912,0.3550615310668945
-0.0743858367204666,0.9546563029289246,-0.1233858689665794,-0.7042282223701477,0.1524975895881652,-0.3024082779884338,0.0,0.0,-0.8958464860916138,-0.1468653678894043
-0.0757844001054763,0.9383096694946288,-0.1247136443853378,-0.7250354886054993,0.1373836249113083,-0.3022794127464294,0.0,0.0,-0.9378599524497986,-0.4137699604034424
-0.077196404337883,0.9214982986450196,-0.1260333210229873,-0.7458427548408508,0.1222759187221527,-0.3021539449691772,0.0,0.0,-0.964120864868164,-0.7967286109924316
-0.0786863341927528,0.904207706451416,-0.1354542225599289,-0.767417311668396,0.1088217422366142,-0.2690834701061249,0.0,0.0,-0.5847395658493042,-0.1338366866111755
-0.0801894217729568,0.886451780796051,-0.1367563158273697,-0.7882207036018372,0.0953734442591667,-0.2689661979675293,0.0,0.0,-0.1119055747985839,-0.0235529541969299
-0.0817054733633995,0.8682306408882141,-0.1380480974912643,-0.8090239763259888,0.0819308161735534,-0.2688523232936859,0.0,0.0,0.6112055778503418,-0.9411042332649232
-0.0832241997122764,0.8501923084259033,-0.1403424441814422,-0.8011154532432556,0.0705227777361869,-0.2281608879566192,0.0,0.0,-0.5952406525611877,-0.5901078581809998
-0.0848021507263183,0.8316883444786072,-0.147451251745224,-0.821946918964386,0.0602873414754867,-0.2047087401151657,0.0,0.0,0.7417162656784058,-0.2415034770965576
-0.0862668976187706,0.8135017156600952,-0.1368586421012878,-0.8079375624656677,0.0507835708558559,-0.1900756210088729,0.0,0.0,0.7458757162094116,-0.7838054299354553
-0.0879417434334755,0.7955775260925293,-0.1592347472906112,-0.7963663935661316,0.042625356465578,-0.163164272904396,0.0,0.0,0.1639865636825561,-0.9214453101158142
-0.0896484404802322,0.7780367732048035,-0.1642855852842331,-0.7794238924980164,0.0363238304853439,-0.1260305941104889,0.0,0.0,-0.9325264096260072,0.5922778844833374
-0.0913097411394119,0.7600343227386475,-0.1582823246717453,-0.7999335527420044,0.0285782609134912,-0.1549112945795059,0.0,0.0,-0.1942849159240722,-0.0081713199615478
-0.0929829627275466,0.7415651679039001,-0.1594819128513336,-0.8207266926765442,0.0208370443433523,-0.1548242568969726,0.0,0.0,0.7861530780792236,0.2465767860412597
-0.0947679504752159,0.723900318145752,-0.170278787612915,-0.7850056886672974,0.0127190919592976,-0.1623590141534805,0.0,0.0,-0.426616907119751,0.6839382648468018
-0.0965058356523513,0.7057641744613647,-0.1640717685222625,-0.8060007691383362,0.0031296859961003,-0.191788375377655,0.0,0.0,-0.0002694129943847,-0.3475178480148315
-0.0982551574707031,0.6871615052223206,-0.1652199327945709,-0.8267966508865356,-0.0064558782614767,-0.1917113363742828,0.0,0.0,-0.1404759287834167,-0.5578936338424683
-0.1000509262084961,0.6680910587310791,-0.1707533746957779,-0.8476362228393555,-0.015155971981585,-0.1740017831325531,0.0,0.0,0.82843017578125,0.4935457706451416
-0.1018213257193565,0.6495708227157593,-0.1683477461338043,-0.8232375383377075,-0.0237319562584161,-0.1715200245380401,0.0,0.0,-0.3221057057380676,0.1094777584075927
-0.1036025062203407,0.630583643913269,-0.1694379150867462,-0.8440319895744324,-0.0323046520352363,-0.1714541912078857,0.0,0.0,0.9844849109649658,-0.718058168888092
-0.1055884361267089,0.6122049689292908,-0.1909675002098083,-0.8170149922370911,-0.0398402251303195,-0.1507109850645065,0.0,0.0,0.963904857635498,0.4129595756530761
-0.107518769800663,0.5948825478553772,-0.1855295598506927,-0.770106315612793,-0.0472548641264438,-0.1482929289340973,0.0,0.0,0.1174821853637695,0.5008437633514404
-0.1093496307730674,0.5773764252662659,-0.174707680940628,-0.7783369421958923,-0.055543415248394,-0.1657708585262298,0.0,0.0,0.2370520830154419,-0.4558534622192383
-0.1111348122358322,0.5603591203689575,-0.1702334582805633,-0.756654679775238,-0.0637358352541923,-0.16384819149971,0.0,0.0,0.2268754243850708,0.0546575784683227
-0.1129771247506141,0.5434079170227051,-0.1756197810173034,-0.7537790536880493,-0.0722491815686225,-0.1702669709920883,0.0,0.0,0.2555693387985229,0.5474824905395508
-0.114824578166008,0.5267657041549683,-0.1748857200145721,-0.7401571869850159,-0.0820066034793853,-0.1951485723257064,0.0,0.0,-0.9218482971191406,-0.3268476724624634
-0.116681195795536,0.509657084941864,-0.1758157312870025,-0.7609533071517944,-0.0917620509862899,-0.1951090991497039,0.0,0.0,-0.0293169617652893,0.6034815311431885
-0.1185089126229286,0.4920836687088012,-0.1719881296157837,-0.7817383408546448,-0.1024589911103248,-0.21393883228302,0.0,0.0,0.971278429031372,0.4266175031661987
-0.1201876625418663,0.4750585556030273,-0.1575047969818115,-0.7574120759963989,-0.1127488613128662,-0.2057975530624389,0.0,0.0,0.8561916351318359,-0.7718105912208557
-0.1219274550676345,0.4582331776618957,-0.1650865375995636,-0.7484906315803528,-0.1215889304876327,-0.1768017560243606,0.0,0.0,0.6067118644714355,-0.7195923328399658
-0.1236222237348556,0.4414012730121612,-0.1621724665164947,-0.7486987709999084,-0.1288510262966156,-0.1452420651912689,0.0,0.0,0.970055103302002,0.0873892307281494
-0.1253102272748947,0.4247115850448608,-0.1613290607929229,-0.7424244284629822,-0.1362864971160888,-0.1487098038196563,0.0,0.0,0.5410172939300537,-0.2371901273727417
-0.1269129812717437,0.4086560904979706,-0.1527809053659439,-0.714284360408783,-0.1437574028968811,-0.149418368935585,0.0,0.0,0.562385082244873,-0.5602773427963257
-0.1283749639987945,0.3932761549949646,-0.1400485336780548,-0.6841596961021423,-0.1499036103487014,-0.122924230992794,0.0,0.0,0.5402796268463135,-0.6223756074905396
-0.1298908293247223,0.3786017596721649,-0.1464264839887619,-0.652723491191864,-0.1550532579421997,-0.1029929891228675,0.0,0.0,0.0339903831481933,0.3820476531982422
-0.131461426615715,0.3637860119342804,-0.1515332013368606,-0.659065306186676,-0.1605774015188217,-0.1104824319481849,0.0,0.0,0.1105591058731079,-0.397729218006134
-0.1329267472028732,0.3492831289768219,-0.1411382853984832,-0.64516282081604,-0.1659762412309646,-0.10797680914402,0.0,0.0,0.4300274848937988,0.2621104717254638
-0.1344023644924163,0.3350716531276703,-0.1417764276266098,-0.6322799324989319,-0.1717811077833175,-0.1160974279046058,0.0,0.0,0.8044893741607666,-0.055414080619812
-0.1358164846897125,0.3215023875236511,-0.1353380233049392,-0.6037923693656921,-0.1778634637594223,-0.121647261083126,0.0,0.0,-0.4866950511932373,-0.5640302300453186
-0.1372805535793304,0.3074807226657867,-0.1414939910173416,-0.6237840056419373,-0.182791382074356,-0.098558709025383,0.0,0.0,0.912179470062256,-0.3697611689567566
-0.1385283470153808,0.2939572334289551,-0.1203298717737197,-0.6015962362289429,-0.1872534453868866,-0.0892415568232536,0.0,0.0,0.7143924236297607,-0.6651632785797119
-0.1397412270307541,0.2804905474185943,-0.1182375103235244,-0.5989097356796265,-0.1903249621391296,-0.0614300966262817,0.0,0.0,0.964224100112915,-0.5964063405990601
-0.140799805521965,0.2672369480133056,-0.1043121442198753,-0.5892462134361267,-0.1918778121471405,-0.0310571491718292,0.0,0.0,0.9666435718536376,-0.0941855907440185
-0.1415613144636154,0.2544665336608886,-0.0754111036658287,-0.5676719546318054,-0.1926220804452896,-0.0148854851722717,0.0,0.0,0.9910705089569092,-0.3677477836608886
-0.1420710533857345,0.2418798357248306,-0.0510164909064769,-0.5594033598899841,-0.1925909519195556,0.0006225829129107,0.0,0.0,0.9921724796295166,-0.408554196357727
-0.1424181908369064,0.2301611453294754,-0.0347086414694786,-0.520832896232605,-0.1925933063030243,-4.6954795834608376e-05,0.0,0.0,0.9907239675521852,-0.4975012540817261
-0.1425573378801345,0.2193096429109573,-0.0140903014689683,-0.4822677373886108,-0.19242525100708,0.0033611778635531,0.0,0.0,0.938359260559082,-0.4397298693656921
-0.1424068510532379,0.2091007977724075,0.0142091494053602,-0.4536192119121551,-0.1915835291147232,0.0168345365673303,0.0,0.0,0.9790247678756714,-0.8265901803970337
-0.1421210318803787,0.1989724934101104,0.025827357545495,-0.4497899413108825,-0.1888096779584884,0.0554769933223724,0.0,0.0,0.8023495674133301,-0.1839308738708496
-0.1417900025844574,0.1892112642526626,0.030601467937231,-0.4335176348686218,-0.1863034665584564,0.0501243062317371,0.0,0.0,0.6274243593215942,-0.6284756064414978
-0.1412632912397384,0.1802312284708023,0.0487132929265499,-0.3986192941665649,-0.1823254972696304,0.0795590355992317,0.0,0.0,0.7769066095352173,-0.829133927822113
-0.1407195031642913,0.1717118173837661,0.0488100685179233,-0.3779676258563995,-0.1767390370368957,0.1117290630936622,0.0,0.0,-0.0045305490493774,-0.4838756322860718
-0.1401778161525726,0.1627250462770462,0.0485953129827976,-0.3987584710121155,-0.1711554676294326,0.1116713881492614,0.0,0.0,0.4334050416946411,0.3985621929168701
-0.1394604742527008,0.1541466265916824,0.0658105909824371,-0.3805927336215973,-0.1652256697416305,0.1185963153839111,0.0,0.0,0.6148957014083862,-0.3076827526092529
-0.1386757791042328,0.1461989283561706,0.0727857276797294,-0.3526124656200409,-0.1595410406589508,0.1136923283338546,0.0,0.0,0.3937077522277832,-0.6393904089927673
-0.1379173249006271,0.1387542635202407,0.0690254122018814,-0.3301565051078796,-0.1527241915464401,0.1363372355699539,0.0,0.0,-0.0977567434310913,-0.7405133843421936
-0.1372205764055252,0.1308541148900985,0.061304397881031,-0.3502804338932037,-0.1443693041801452,0.1670977622270584,0.0,0.0,0.4336601495742798,0.2428148984909057
-0.1365499496459961,0.1232836320996284,0.0591570325195789,-0.335719496011734,-0.1364861726760864,0.1576624363660812,0.0,0.0,0.5191102027893066,-0.3690398335456848
-0.1359516084194183,0.1159901022911071,0.0525564849376678,-0.3235099613666534,-0.1292466074228286,0.1447913497686386,0.0,0.0,0.8044784069061279,0.4072268009185791
-0.1351381242275238,0.1093747019767761,0.0735389441251754,-0.2933614552021026,-0.1214755401015281,0.1554214209318161,0.0,0.0,0.0480854511260986,-0.2245060205459594
-0.1342581808567047,0.1026338413357734,0.0800034999847412,-0.2989646792411804,-0.1135281398892402,0.1589478999376297,0.0,0.0,0.2549865245819092,0.673243522644043
-0.1331373155117035,0.0962649211287498,0.1052483096718788,-0.2825606167316437,-0.1067396774888038,0.1357692778110504,0.0,0.0,0.1600576639175415,-0.3035521507263183
-0.1319746077060699,0.0902440398931503,0.1095088869333267,-0.2671248316764831,-0.1000293344259262,0.1342068314552307,0.0,0.0,-0.1963867545127868,0.1642200946807861
-0.1308119744062423,0.0837560966610908,0.1094987839460372,-0.2879168391227722,-0.0933228209614753,0.1341303884983062,0.0,0.0,0.588428258895874,0.2589489221572876
-0.1295243203639984,0.0776230692863464,0.1216571927070617,-0.2721542119979858,-0.0862809270620346,0.1408380717039108,0.0,0.0,0.6220769882202148,0.4360253810882568
-0.1281745880842209,0.07222181558609,0.1279096603393554,-0.2396654188632965,-0.0792757049202919,0.1401044577360153,0.0,0.0,-0.0619944930076599,-0.1952506303787231
-0.1268244683742523,0.0663534253835678,0.1279344111680984,-0.2604577243328094,-0.0722743645310401,0.1400266587734222,0.0,0.0,0.4244098663330078,0.1061291694641113
-0.1253762245178222,0.0606018416583538,0.1374284476041793,-0.2552852630615234,-0.0649556219577789,0.1463746726512909,0.0,0.0,0.399776816368103,-0.5720987319946289
-0.1240512877702713,0.0551839210093021,0.1242004781961441,-0.2404609024524688,-0.0567497089505195,0.1641183197498321,0.0,0.0,0.6187996864318848,0.2632532119750976
-0.1228227615356445,0.0500651225447654,0.1151439100503921,-0.2272306233644485,-0.0491294562816619,0.1524049490690231,0.0,0.0,0.4485539197921753,0.5430437326431274
-0.1215468421578407,0.0452177636325359,0.1210237592458725,-0.215237945318222,-0.0426424331963062,0.1297404766082763,0.0,0.0,0.5265228748321533,0.2551150321960449
-0.1202254295349121,0.0406402684748172,0.1254727095365524,-0.2032653242349624,-0.0360482521355152,0.1318836063146591,0.0,0.0,0.2568979263305664,0.6986380815505981
-0.1187271103262901,0.0359903201460838,0.1444098651409149,-0.2065446376800537,-0.0306903067976236,0.1071589812636375,0.0,0.0,0.8538427352905273,0.6695773601531982
-0.1170335784554481,0.0320183597505092,0.1649820804595947,-0.176447719335556,-0.0263773389160633,0.0862595811486244,0.0,0.0,0.2328451871871948,-0.6787180304527283
-0.1153560653328895,0.0284894332289695,0.1619786620140075,-0.1567515581846237,-0.0206872373819351,0.1138023510575294,0.0,0.0,0.2480764389038086,-0.888888955116272
