x_pos,y_pos,x_vel,y_vel,angle,ang_vel,leg_1,leg_2,main_booster,lat_booster
-0.0014506339794024,1.403007984161377,-0.1468085050582885,-0.3516467213630676,0.0015665157698094,0.0308863017708063,0.0,0.0,-0.3358688354492187,0.7413221597671509
-0.0027652741409838,1.3944991827011108,-0.1312407255172729,-0.3781673312187195,0.0013504396192729,-0.0043214177712798,0.0,0.0,-0.4195480346679687,0.7842720746994019
-0.0039322851225733,1.3853679895401,-0.1144230589270591,-0.4058317840099334,-0.000904039829038,-0.0450939461588859,0.0,0.0,-0.1282433271408081,0.7801673412322998
-0.004978465847671,1.375617742538452,-0.1009457856416702,-0.4333487451076507,-0.0045352475717663,-0.0726310163736343,0.0,0.0,0.057488203048706,-0.3390021920204162
-0.0058693885803222,1.3658767938613892,-0.085684061050415,-0.4329430758953094,-0.0079033086076378,-0.0673675015568733,0.0,0.0,-0.1925339698791504,-0.1929473876953125
-0.0066903112456202,1.3555196523666382,-0.0785661190748214,-0.4603451192378998,-0.0113981878384947,-0.0699039250612258,0.0,0.0,-0.1543463468551635,-0.1368040442466735
-0.0074423789046704,1.3445461988449097,-0.0715527758002281,-0.4877403676509857,-0.0150130772963166,-0.0723042860627174,0.0,0.0,0.3924100399017334,-0.8796907067298889
-0.0080446247011423,1.3337751626968384,-0.0583822019398212,-0.4787318110466003,-0.0168311148881912,-0.0363639183342456,0.0,0.0,-0.4419865608215332,-0.7769519686698914
-0.008642578497529,1.3223975896835327,-0.0594334006309509,-0.5056722164154053,-0.0171882212162017,-0.0071429261006414,0.0,0.0,-0.5604420900344849,-0.8661710023880005
-0.0092434883117675,1.3104108572006226,-0.0613697580993175,-0.5327272415161133,-0.0159292351454496,0.0251823477447032,0.0,0.0,-0.14705491065979,-0.818072497844696
-0.0098359109833836,1.2978098392486572,-0.061826579272747,-0.5600243210792542,-0.0133775426074862,0.0510386303067207,0.0,0.0,-0.4906224012374878,-0.8629458546638489
-0.0104263303801417,1.2845919132232666,-0.0630524456501007,-0.5874331593513489,-0.0094067119061946,0.0794236212968826,0.0,0.0,-0.7442559003829956,-0.6429073810577393
-0.0109960557892918,1.2707617282867432,-0.0619080066680908,-0.6146533489227295,-0.0045214365236461,0.0977143570780754,0.0,0.0,-0.8420527577400208,-0.2770485877990722
-0.0115072252228856,1.2563153505325315,-0.0559733994305133,-0.6420515179634094,0.0002851910830941,0.0961413085460662,0.0,0.0,-0.6420639753341675,-0.217995285987854
-0.0119617460295557,1.241252899169922,-0.0502442196011543,-0.669449508190155,0.0050196582451462,0.0946980640292167,0.0,0.0,-0.6533888578414917,-0.2414790391921997
-0.0123619083315134,1.2255743741989136,-0.0447367839515209,-0.6968474984169006,0.0096878577023744,0.0933724790811538,0.0,0.0,-0.1409151554107666,0.0730693340301513
-0.0127099994570016,1.2092797756195068,-0.0394679754972457,-0.7242454886436462,0.0142959486693143,0.0921700447797775,0.0,0.0,-0.4950315952301025,0.7021180391311646
-0.0129400249570608,1.19236421585083,-0.0258517023175954,-0.7518268823623657,0.0171272419393062,0.0566306598484516,0.0,0.0,-0.3598962426185608,-0.0680270791053772
-0.0131228445097804,1.1748325824737549,-0.0211073756217956,-0.7792240381240845,0.0199115145951509,0.0556905157864093,0.0,0.0,-0.3328454494476318,-0.1240074038505554
-0.0132617000490427,1.156684398651123,-0.0166555065661668,-0.8066210150718689,0.0226537194103002,0.0548491664230823,0.0,0.0,0.4924609661102295,0.1582478284835815
-0.013259601779282,1.1389424800872805,-0.0030711262952536,-0.7885825634002686,0.0258979313075542,0.0648896247148513,0.0,0.0,0.0852919816970825,0.1099929809570312
-0.013219547457993,1.1210203170776367,0.0007228082977235,-0.7966041564941406,0.0291477162390947,0.0650013536214828,0.0,0.0,-0.0377967357635498,0.4962303638458252
-0.0131451608613133,1.102481722831726,0.0041901366785168,-0.8240010142326355,0.0323738157749176,0.0645275935530662,0.0,0.0,0.0829994678497314,0.4766395092010498
-0.0130005832761526,1.0836360454559326,0.0109959663823246,-0.837668240070343,0.0357944816350936,0.0684195011854171,0.0,0.0,0.5245497226715088,0.8280588388442993
-0.0129311559721827,1.065062165260315,0.0053862580098211,-0.8255473375320435,0.0373362340033054,0.0308376587927341,0.0,0.0,-0.084488570690155,0.1799337863922119
-0.0128377918154001,1.0458502769470217,0.0077809719368815,-0.8538995385169983,0.0388724654912948,0.0307248141616582,0.0,0.0,0.8161389827728271,0.5828671455383301
-0.0127056119963526,1.0272254943847656,0.0128304781392216,-0.8277738094329834,0.039260346442461,0.0077576250769197,0.0,0.0,0.4742614030838012,0.0936421155929565
-0.0127034187316894,1.0090813636779783,0.0003605988167691,-0.8064011335372925,0.0391140282154083,-0.0029266239143908,0.0,0.0,0.0179121494293212,-0.1097427606582641
-0.0127891544252634,0.9910314679145812,-0.0080611575394868,-0.8022035360336304,0.0386063903570175,-0.0101527413353323,0.0,0.0,0.6293706893920898,0.028810977935791
-0.0129072191193699,0.9730846881866456,-0.0112182581797242,-0.7976153492927551,0.0380186885595321,-0.0117538394406437,0.0,0.0,-0.1469353437423706,-0.2790033221244812
-0.0130228996276855,0.954521656036377,-0.0109820738434791,-0.8250100612640381,0.0374516919255256,-0.0113399941474199,0.0,0.0,0.7146557569503784,-0.0538572072982788
-0.0132378581911325,0.9360195994377136,-0.020572954788804,-0.822296679019928,0.036536518484354,-0.0183035545051097,0.0,0.0,0.6996877193450928,0.0556408166885376
-0.0135738374665379,0.9181326031684875,-0.0323065742850303,-0.7949453592300415,0.0352581031620502,-0.0255683809518814,0.0,0.0,0.6946251392364502,-0.5913836359977722
-0.0140501018613576,0.900172233581543,-0.0473773069679737,-0.7982298135757446,0.0350125506520271,-0.0049111628904938,0.0,0.0,0.5780717134475708,0.5278663635253906
-0.0145033840090036,0.8824978470802307,-0.0441008582711219,-0.7854993343353271,0.0337978117167949,-0.0242948699742555,0.0,0.0,0.2153693437576294,-0.6664246320724487
-0.0150320054963231,0.8650442957878113,-0.0530295856297016,-0.7757163643836975,0.0339707136154174,0.0034579592756927,0.0,0.0,0.7726702690124512,0.4372169971466064
-0.0156278610229492,0.8477053642272949,-0.059672825038433,-0.7706223130226135,0.0340572223067283,0.0017301400657743,0.0,0.0,0.565943717956543,0.8876664638519287
-0.0161641128361225,0.8308442234992981,-0.0520334169268608,-0.7493512630462646,0.0324789024889469,-0.0315662063658237,0.0,0.0,0.2931393384933471,-0.4911913871765136
-0.0167828556150198,0.814353883266449,-0.0601772367954254,-0.7328653335571289,0.0308068729937076,-0.0334406606853008,0.0,0.0,0.4047801494598388,-0.5194584727287292
-0.0174664501100778,0.7980221509933472,-0.0678237602114677,-0.7258436679840088,0.0302811749279499,-0.0105140227824449,0.0,0.0,0.0465571880340576,0.0261315107345581
-0.0182697288691997,0.7818105816841125,-0.0795337781310081,-0.7205018997192383,0.0294945705682039,-0.015732130035758,0.0,0.0,-0.6673895716667175,-0.4511287212371826
-0.019113540649414,0.7649826407432556,-0.083634614944458,-0.7478965520858765,0.0287609584629535,-0.0146723631769418,0.0,0.0,0.2013895511627197,-0.1916597485542297
-0.0199368484318256,0.7478832602500916,-0.0819679051637649,-0.7599649429321289,0.0284077189862728,-0.0070648780092597,0.0,0.0,-0.042205274105072,-0.0889391899108886
-0.0208065994083881,0.73016756772995,-0.0866678655147552,-0.7873595952987671,0.0281081870198249,-0.0059906924143433,0.0,0.0,0.6471395492553711,0.4396741390228271
-0.0217741969972848,0.7122738361358643,-0.0963254123926162,-0.7952607870101929,0.0276746097952127,-0.0086714318022131,0.0,0.0,0.5401821136474609,0.9269747734069824
-0.0226802825927734,0.6942266821861267,-0.0884129256010055,-0.8020578622817993,0.0255084410309791,-0.0433234758675098,0.0,0.0,0.8495831489562988,0.47691810131073
-0.0235849376767873,0.6763160824775696,-0.0886450037360191,-0.7959998250007629,0.0237097702920436,-0.0359733887016773,0.0,0.0,0.6832702159881592,0.8820469379425049
-0.0246238708496093,0.6590704321861267,-0.100146435201168,-0.7664167284965515,0.0200037006288766,-0.0741213709115982,0.0,0.0,0.4577142000198364,0.4928919076919555
-0.0258522033691406,0.6422480344772339,-0.1185809820890426,-0.7476108074188232,0.0158042069524526,-0.0839895382523536,0.0,0.0,-0.0094178318977355,0.6904964447021484
-0.0270881652832031,0.6248087882995605,-0.1180441156029701,-0.7750255465507507,0.0103256544098258,-0.109571024775505,0.0,0.0,-0.316105306148529,0.5827310085296631
-0.0283290855586528,0.6067545413970947,-0.1171344518661499,-0.8023803234100342,0.0034552461002022,-0.1374080032110214,0.0,0.0,0.9510700702667236,-0.5688642859458923
-0.0297540668398141,0.5893925428390503,-0.1365182846784591,-0.7716400027275085,-0.0024505518376827,-0.1181159168481826,0.0,0.0,0.8878219127655029,0.3839303255081177
-0.0311182029545307,0.5721762180328369,-0.1310499161481857,-0.7651907801628113,-0.0077421446330845,-0.1058318391442298,0.0,0.0,0.6325271129608154,0.6860442161560059
-0.0324851050972938,0.5555318593978882,-0.1299847066402435,-0.7397965788841248,-0.0143580120056867,-0.1323172748088836,0.0,0.0,0.4199726581573486,-0.3263561725616455
-0.0337859168648719,0.5388974547386169,-0.1240015774965286,-0.7393773198127747,-0.0203531850129365,-0.1199036389589309,0.0,0.0,0.1617285013198852,0.4899709224700928
-0.0352162346243858,0.5221461653709412,-0.1366685777902603,-0.74460369348526,-0.0266354884952306,-0.1256461888551712,0.0,0.0,0.94757342338562,0.7432785034179688
-0.0365128517150878,0.5061874985694885,-0.1221058592200279,-0.7094249725341797,-0.0340948961675167,-0.149187833070755,0.0,0.0,0.6074929237365723,0.1836386919021606
-0.0377241149544715,0.4905900657176971,-0.1142160668969154,-0.6933925747871399,-0.0409196093678474,-0.136494368314743,0.0,0.0,0.7069339752197266,0.3961551189422607
-0.0388955101370811,0.4756470024585724,-0.110609546303749,-0.6643296480178833,-0.0473792888224124,-0.129193440079689,0.0,0.0,-0.0634709000587463,0.835787296295166
-0.040082074701786,0.4600914120674133,-0.1106530800461769,-0.6916325688362122,-0.0552882850170135,-0.1581799685955047,0.0,0.0,-0.0761016011238098,0.138491153717041
-0.0413424484431743,0.4439203441143036,-0.1180344671010971,-0.719032347202301,-0.0632012337446212,-0.1582590043544769,0.0,0.0,0.6883585453033447,0.2496438026428222
-0.0427343361079692,0.4282165467739105,-0.1307006776332855,-0.6983291506767273,-0.071598544716835,-0.1679461598396301,0.0,0.0,0.0940890312194824,0.3917132616043091
-0.0440953262150287,0.412400871515274,-0.1279825270175933,-0.7033275961875916,-0.0796344876289367,-0.1607187837362289,0.0,0.0,0.8300738334655762,-0.1684554815292358
-0.0454521179199218,0.3969818353652954,-0.1276634782552719,-0.6857389807701111,-0.0875735506415367,-0.1587810218334198,0.0,0.0,0.5861494541168213,-0.2514395713806152
-0.0468441024422645,0.3815213441848755,-0.1311984956264495,-0.6876229643821716,-0.0955088213086128,-0.1587054580450058,0.0,0.0,0.5830483436584473,-0.4222260117530823
-0.048377227038145,0.3663078546524048,-0.1447116285562515,-0.6767226457595825,-0.1040310263633728,-0.1704443097114563,0.0,0.0,-0.2677213549613952,0.2534021139144897
-0.0499876961112022,0.3504791259765625,-0.1524148881435394,-0.7041235566139221,-0.1125989481806755,-0.1713587343692779,0.0,0.0,0.8852365016937256,-0.4397614002227783
-0.0515454299747943,0.3345166146755218,-0.1475344598293304,-0.710087239742279,-0.1207869723439216,-0.1637606173753738,0.0,0.0,0.9808350801467896,-0.7352485060691833
-0.0530802719295024,0.3194752931594848,-0.1467624306678772,-0.6690629124641418,-0.1274808943271637,-0.1338781863451004,0.0,0.0,0.9496939182281494,-0.7235945463180542
-0.0547989830374717,0.3046799898147583,-0.1662329733371734,-0.6580613255500793,-0.1330882459878921,-0.1121470555663108,0.0,0.0,0.9916527271270752,-0.4938394427299499
-0.0565980896353721,0.2905045747756958,-0.1736920475959777,-0.6305893659591675,-0.1392848044633865,-0.1239314228296279,0.0,0.0,0.8933866024017334,-0.4740688800811767
-0.0583427436649799,0.2767654955387115,-0.1683212667703628,-0.6112110018730164,-0.1454035192728042,-0.1223746761679649,0.0,0.0,0.827681303024292,-0.5873441696166992
-0.0602276809513568,0.2638470530509949,-0.1830485761165619,-0.5746977925300598,-0.1508458852767944,-0.108847439289093,0.0,0.0,0.6757032871246338,0.7301632165908813
-0.0619669929146766,0.2511500418186188,-0.1670839786529541,-0.5650190114974976,-0.1576840728521347,-0.1367640346288681,0.0,0.0,0.8103735446929932,-0.2025783061981201
-0.0637557953596115,0.2384811490774154,-0.1717558354139328,-0.5638349652290344,-0.1648031324148178,-0.1423815339803695,0.0,0.0,0.7380423545837402,0.4674438238143921
-0.0654983520507812,0.2256851494312286,-0.1673603653907776,-0.5694921612739563,-0.1717095524072647,-0.1381284743547439,0.0,0.0,0.9321478605270386,-0.2126195430755615
-0.0672902092337608,0.2128698378801345,-0.1720042377710342,-0.5704166293144226,-0.1789134889841079,-0.1440785974264145,0.0,0.0,0.822274923324585,0.4668325185775757
-0.0690165534615516,0.2007329612970352,-0.1652685403823852,-0.5403192043304443,-0.1862949430942535,-0.1476294696331024,0.0,0.0,0.8226888179779053,-0.5366470217704773
-0.0706058517098426,0.1892983019351959,-0.1527836173772812,-0.5089944005012512,-0.1924738883972168,-0.1235789209604263,0.0,0.0,0.8070497512817383,-0.1527571082115173
-0.0722259506583213,0.1785995811223983,-0.1551559567451477,-0.4764054119586944,-0.1993718892335891,-0.1379600316286087,0.0,0.0,0.7189974784851074,-0.0727691650390625
-0.0739912018179893,0.1678322702646255,-0.1689089238643646,-0.4795921146869659,-0.2070520371198654,-0.1536029130220413,0.0,0.0,0.7996464967727661,-0.73249351978302
-0.0756699591875076,0.1577232033014297,-0.1616694629192352,-0.4501749575138092,-0.2133174538612365,-0.1253081858158111,0.0,0.0,0.588956356048584,-0.0164360404014587
-0.0774085968732833,0.1478412300348281,-0.1670443266630172,-0.4402014315128326,-0.2202090322971344,-0.1378316581249237,0.0,0.0,0.931105136871338,0.0172858238220214
-0.0791185349225997,0.1385247260332107,-0.1637175977230072,-0.4151716828346252,-0.2275802046060562,-0.1474238783121109,0.0,0.0,0.7964911460876465,-0.4995207786560058
-0.0807516127824783,0.129708707332611,-0.155793696641922,-0.3930040299892425,-0.2352024465799331,-0.1524445116519928,0.0,0.0,0.6684869527816772,-0.1006913185119628
-0.082244299352169,0.1211039647459983,-0.1419663578271865,-0.3836193084716797,-0.24261574447155,-0.1482659727334976,0.0,0.0,0.9380526542663574,-0.4050682783126831
-0.0836956053972244,0.1124588102102279,-0.1377772390842437,-0.3854616284370422,-0.2501063346862793,-0.1498109996318817,0.0,0.0,0.9664677381515504,-0.5407986044883728
-0.0850393325090408,0.1038637235760688,-0.1282175928354263,-0.3830667734146118,-0.2563782036304474,-0.1254375427961349,0.0,0.0,0.9805090427398682,-0.8600032925605774
-0.086170770227909,0.0955987274646759,-0.1088760942220687,-0.3680852651596069,-0.2607403695583343,-0.0872432738542556,0.0,0.0,0.9657800197601318,-0.579062283039093
-0.0871381759643554,0.0873435363173484,-0.0938794165849685,-0.3674078583717346,-0.2636658549308777,-0.0585099533200264,0.0,0.0,0.979621410369873,-0.7473579049110413
-0.0880165100097656,0.0798076018691062,-0.0862096920609474,-0.3352225422859192,-0.2653244733810425,-0.0331722050905227,0.0,0.0,0.9690804481506348,-0.8726460337638855
-0.0887664780020713,0.0729822739958763,-0.0749530047178268,-0.3033536672592163,-0.2653705775737762,-0.0009221296641044,0.0,0.0,0.9109611511230468,0.1626781225204467
-0.0892577171325683,0.0666016936302185,-0.049485545605421,-0.2835170328617096,-0.264996737241745,0.0074770329520106,0.0,0.0,0.9386885166168212,-0.8774850964546204
-0.0896741896867752,0.0601273402571678,-0.0437443405389785,-0.2873703241348266,-0.2628572881221771,0.0427883937954902,0.0,0.0,0.936658263206482,-0.7585430145263672
-0.0901409164071083,0.0539495311677455,-0.0498584173619747,-0.2739993035793304,-0.2595937252044678,0.0652714520692825,0.0,0.0,0.8931599855422974,-0.2919202446937561
-0.0903425216674804,0.048552356660366,-0.0235452093183994,-0.2392810732126236,-0.2561453580856323,0.0689676478505134,0.0,0.0,0.6545906066894531,-0.6531701683998108
-0.0905566215515136,0.0433960072696208,-0.0257724672555923,-0.2284192144870758,-0.2517023384571075,0.0888604745268821,0.0,0.0,0.8568527698516846,-0.4637722969055176
-0.0907660499215126,0.0389754399657249,-0.0243964679539203,-0.1958810985088348,-0.2481805384159088,0.0704360157251358,0.0,0.0,0.7017831802368164,-0.256215751171112
-0.0907943695783615,0.0349516980350017,-0.0064258822239935,-0.1782291680574417,-0.2445233017206192,0.073145106434822,0.0,0.0,0.726893424987793,-0.3255659341812134
-0.0907694846391677,0.0314743369817733,-0.0005731525598093,-0.154043972492218,-0.2414089143276214,0.0622878596186637,0.0,0.0,0.6103559732437134,-0.5743452310562134
-0.0907800644636154,0.0284960847347974,-0.0047668786719441,-0.1317620128393173,-0.237634003162384,0.0754982009530067,0.0,0.0,0.2354407310485839,-0.3938239216804504
-0.0908031463623046,0.0254519563168287,-0.0056544281542301,-0.1347579807043075,-0.2342380583286285,0.067918948829174,0.0,0.0,0.359301209449768,-0.3622317910194397
-0.0908195525407791,0.0233695600181818,-0.0213230233639478,-0.0895677804946899,-0.2142437249422073,0.399973064661026,1.0,0.0,0.3697646856307983,0.7011687755584717
-0.0908222198486328,0.0213607642799615,-0.0189373847097158,-0.0867031142115593,-0.1953665614128112,0.3776120841503143,1.0,0.0,0.3797522783279419,0.8537068367004395
-0.0905424132943153,0.0195787772536277,0.0108245098963379,-0.0770417153835296,-0.1780927330255508,0.3455239236354828,1.0,0.0,0.2192325592041015,0.3297904729843139
-0.0901601761579513,0.0176430083811283,0.0191665533930063,-0.0838749855756759,-0.1589709818363189,0.3824939131736755,1.0,0.0,0.2111114263534546,-0.0143300890922546
-0.0895859748125076,0.0158959962427616,0.0379026569426059,-0.0756757035851478,-0.1394729316234588,0.3899603486061096,1.0,0.0,0.1798539161682129,-0.2387263178825378
-0.0889503508806228,0.0143642043694853,0.0440596118569374,-0.066370390355587,-0.1200511008501052,0.3884361684322357,1.0,0.0,0.0825182199478149,-0.1883395910263061
-0.088154412806034,0.0130380485206842,0.0596078336238861,-0.0574504844844341,-0.1001973748207092,0.3970741629600525,0.0,0.0,-0.5443759560585022,0.5649672746658325
-0.0873900428414344,0.011093339882791,0.0579965896904468,-0.0852995589375495,-0.0819132104516029,0.3656834363937378,0.0,0.0,-0.1977723836898803,0.9799113273620604
-0.0866302475333213,0.0085368016734719,0.0597525835037231,-0.1128136664628982,-0.0658589005470275,0.321086585521698,0.0,0.0,0.684971809387207,0.9393868446350098
-0.0857554450631141,0.0065635181963443,0.07335165143013,-0.0871417224407196,-0.0518825724720954,0.2795268297195434,0.0,0.0,0.1635152101516723,0.4490399360656738
-0.0848885551095008,0.0044558737426996,0.0725975409150123,-0.093244194984436,-0.0379545129835605,0.2785612046718597,0.0,0.0,-0.007073163986206,0.9542727470397948
-0.0840425491333007,0.001732466276735,0.0723429173231124,-0.1207743883132934,-0.0258529633283615,0.2420310229063034,0.0,0.0,0.652005672454834,0.9698333740234376
-0.0832884758710861,-0.0005284214275889,0.057319700717926,-0.1002712771296501,-0.0079752560704946,0.3575755059719085,1.0,0.0,0.4667224884033203,0.2340354919433593
-0.0825492888689041,-0.002650620881468,0.0558982491493225,-0.0943201035261154,0.0098144132643938,0.3557966351509094,1.0,1.0,-0.1117485165596008,0.3017681837081909
-0.0818132385611534,-0.0045450474135577,0.0586256310343742,-0.0845753625035286,0.0237519480288028,0.277664840221405,1.0,1.0,-0.1840103268623352,0.0643109083175659
-0.0811488181352615,-0.0059396531432867,0.0556901469826698,-0.0621880106627941,0.0343687199056148,0.2123260498046875,1.0,1.0,-0.60395348072052,-0.2203990221023559
-0.0806152373552322,-0.0069006346166133,0.0459840111434459,-0.0428995750844478,0.0416421964764595,0.1454515159130096,1.0,1.0,-0.2433835864067077,-0.0108137130737304
-0.0802113562822341,-0.0074327494949102,0.0363200083374977,-0.023770647123456,0.0456522107124328,0.08018509298563,1.0,1.0,-0.377362310886383,0.0524762868881225
