x_pos,y_pos,x_vel,y_vel,angle,ang_vel,leg_1,leg_2,main_booster,lat_booster
-0.0015973091358318,1.4029334783554075,-0.1618217378854751,-0.3549648523330688,0.0018638717010617,0.0367743372917175,0.0,0.0,-0.2511739730834961,0.9726933240890504
-0.003183078719303,1.394274353981018,-0.1583488583564758,-0.3848489820957184,0.0016336356056854,-0.004604591988027,0.0,0.0,0.4731724262237549,0.975114107131958
-0.004624939057976,1.3854575157165527,-0.1421833932399749,-0.3918605744838714,-0.0003388418117538,-0.0394531637430191,0.0,0.0,0.3029026985168457,0.3941730260848999
-0.0062253000214695,1.3765404224395752,-0.1576252579689026,-0.3963125646114349,-0.0027226810343563,-0.0476814024150371,0.0,0.0,0.2701770067214966,0.8284342288970947
-0.0077073099091649,1.36768639087677,-0.1442968696355819,-0.3935268223285675,-0.0065831472165882,-0.0772166773676872,0.0,0.0,0.1390448808670044,0.2366763353347778
-0.0091497423127293,1.3587020635604858,-0.1408414244651794,-0.3993236720561981,-0.0099546359851956,-0.0674358159303665,0.0,0.0,0.0202871561050415,0.7423181533813477
-0.010600185021758,1.349561095237732,-0.1401742845773697,-0.4063040316104889,-0.0147733334451913,-0.0963827818632125,0.0,0.0,-0.1350845098495483,0.2308413982391357
-0.0121005056425929,1.3397293090820312,-0.1451844125986099,-0.4370218813419342,-0.0195583254098892,-0.0957086607813835,0.0,0.0,0.6172385215759277,0.373509407043457
-0.013642025180161,1.3304357528686523,-0.1492976695299148,-0.4131215512752533,-0.0243692137300968,-0.0962266772985458,0.0,0.0,0.6493003368377686,0.83640456199646
-0.015142154879868,1.3215415477752686,-0.1434992849826812,-0.3954199254512787,-0.0308099407702684,-0.1288262456655502,0.0,0.0,0.3201997280120849,-0.3730607032775879
-0.0165955536067485,1.3126657009124756,-0.1391763240098953,-0.394621878862381,-0.0368969738483428,-0.1217521652579307,0.0,0.0,0.0520641803741455,0.6309261322021484
-0.0179679878056049,1.3035966157913208,-0.1299166232347488,-0.403265118598938,-0.0441456101834774,-0.1449859291315078,0.0,0.0,-0.2482049465179443,-0.5378345847129822
-0.0194006916135549,1.293842077255249,-0.1368160545825958,-0.4337402582168579,-0.0505358055233955,-0.1278157830238342,0.0,0.0,0.0277698040008544,0.2907088994979858
-0.0208016391843557,1.283724665641785,-0.1338582634925842,-0.4498840272426605,-0.0567058809101581,-0.123412474989891,0.0,0.0,0.3240045309066772,0.5402535200119019
-0.0220166202634573,1.2738977670669556,-0.1144871339201927,-0.4370393753051758,-0.0636507049202919,-0.1389093101024627,0.0,0.0,-0.6290459632873535,-0.3639911413192749
-0.0232436172664165,1.2633800506591797,-0.1156955584883689,-0.4677647948265075,-0.0705835074186325,-0.138668954372406,0.0,0.0,-0.869702935218811,-0.1620311141014099
-0.0244770999997854,1.2521722316741943,-0.1163700968027114,-0.4984805285930633,-0.0775079876184463,-0.1385020911693573,0.0,0.0,-0.5358102321624756,0.1931421756744384
-0.0257119182497262,1.2402735948562622,-0.1165039539337158,-0.5291988849639893,-0.0844275802373886,-0.1384042203426361,0.0,0.0,0.0486097335815429,-0.9350663423538208
-0.0268993377685546,1.228454828262329,-0.1136358007788658,-0.5255751013755798,-0.0894944965839386,-0.1013477072119712,0.0,0.0,-0.057991087436676,-0.8853238224983215
-0.0281561855226755,1.215955376625061,-0.1225906759500503,-0.55572509765625,-0.0925675556063652,-0.0614667236804962,0.0,0.0,-0.1714809536933899,0.4507757425308227
-0.0293980594724416,1.2027647495269775,-0.1210843697190284,-0.5864381194114685,-0.0956478863954544,-0.0616122707724571,0.0,0.0,-0.5676475763320923,-0.9424684643745422
-0.0306924823671579,1.1888885498046875,-0.1281831562519073,-0.6168066263198853,-0.096899926662445,-0.0250429175794124,0.0,0.0,0.83534836769104,-0.2286135554313659
-0.0317590720951557,1.1752032041549685,-0.106049045920372,-0.6082737445831299,-0.0974971875548362,-0.0119463298469781,0.0,0.0,-0.7224171161651611,-0.9212890267372132
-0.0328591354191303,1.1608259677886963,-0.1110144108533859,-0.6389247179031372,-0.0964944437146186,0.020056527107954,0.0,0.0,-0.5925652980804443,-0.0836377143859863
-0.0339225754141807,1.1457576751708984,-0.1073353663086891,-0.6696361899375916,-0.0955155193805694,0.0195803381502628,0.0,0.0,-0.295940637588501,-0.1538146734237671
-0.0349455848336219,1.1299769878387451,-0.103263534605503,-0.7013004422187805,-0.0945636630058288,0.0190371628850698,0.0,0.0,0.2639422416687011,-0.3743132352828979
-0.0358663573861122,1.1143349409103394,-0.0930088311433792,-0.6951456069946289,-0.0936293825507164,0.0186853930354118,0.0,0.0,-0.5796960592269897,-0.7345818877220154
-0.0368049629032611,1.0980193614959717,-0.0965667814016342,-0.7249676585197449,-0.0909454971551895,0.0536779165267944,0.0,0.0,-0.5070229172706604,-0.1535755395889282
-0.0376867279410362,1.0810130834579468,-0.090843379497528,-0.755681037902832,-0.0882998630404472,0.0529128015041351,0.0,0.0,-0.1128231883049011,0.1535884141921997
-0.0385068878531456,1.063315749168396,-0.0846451595425605,-0.7863943576812744,-0.0856958851218223,0.0520793385803699,0.0,0.0,0.3515348434448242,-0.6675459146499634
-0.0392369255423545,1.045974850654602,-0.0769614949822425,-0.770487904548645,-0.0817751735448837,0.0784141421318054,0.0,0.0,0.1022654771804809,0.283287763595581
-0.0399243347346782,1.0283865928649902,-0.0724066421389579,-0.781505823135376,-0.078142762184143,0.0726483613252639,0.0,0.0,0.2157958745956421,0.5471041202545166
-0.0405139923095703,1.0109974145889282,-0.0613551847636699,-0.7727274298667908,-0.0757815614342689,0.0472239404916763,0.0,0.0,0.2943568229675293,-0.4147068858146667
-0.0410534851253032,0.9933456182479858,-0.0560407564043998,-0.7844168543815613,-0.0737055465579032,0.0415204539895057,0.0,0.0,0.1608471870422363,-0.1398823261260986
-0.0414665229618549,0.9756609201431274,-0.0434036329388618,-0.7858827710151672,-0.0716336071491241,0.0414388552308082,0.0,0.0,-0.0133326053619384,-0.4348223209381103
-0.0417935363948345,0.9572854042053224,-0.03473586961627,-0.8165960311889648,-0.0696212202310562,0.040247805416584,0.0,0.0,0.1284818649291992,0.1391310691833496
-0.0420272834599018,0.9386860728263856,-0.025263711810112,-0.8265475034713745,-0.0677538216114044,0.0373479798436164,0.0,0.0,0.4503275156021118,-0.0687728524208068
-0.0420896522700786,0.9203926920890808,-0.0082227066159248,-0.8129587769508362,-0.0657963082194328,0.0391503795981407,0.0,0.0,-0.364358901977539,0.26453697681427
-0.0420563705265522,0.9014081954956056,0.0014205636689439,-0.8436720371246338,-0.0639054253697395,0.0378177426755428,0.0,0.0,0.0454583168029785,0.4414442777633667
-0.041882038116455,0.8823068737983704,0.0155102405697107,-0.8488664627075195,-0.0620005652308464,0.0380971655249595,0.0,0.0,-0.2059766054153442,0.4636793136596679
-0.0416064262390136,0.8625146150588989,0.0257108714431524,-0.8795797228813171,-0.0601663962006568,0.036683551967144,0.0,0.0,0.4552812576293945,0.7482173442840576
-0.0410195365548133,0.8427038788795471,0.0582111664116382,-0.8804563283920288,-0.0596967637538909,0.009392449632287,0.0,0.0,-0.3908948898315429,0.2747402191162109
-0.0403264984488487,0.8222020864486694,0.0688999965786933,-0.9111692905426024,-0.0593013688921928,0.0079080555588006,0.0,0.0,-0.0776320099830627,0.1121158599853515
-0.0395251289010047,0.801009476184845,0.079808697104454,-0.9418821930885316,-0.0589817725121974,0.0063918964006006,0.0,0.0,0.1349902153015136,0.0769896507263183
-0.0386294350028038,0.7794313430786133,0.0894585996866226,-0.9590264558792114,-0.0588686279952526,0.0022627585567533,0.0,0.0,-0.1861035227775573,-0.4658033847808838
-0.0376214012503623,0.7571621537208557,0.1007624119520187,-0.9897393584251404,-0.05883414670825,0.0006898186984471,0.0,0.0,0.4612016677856445,-0.4773063063621521
-0.036422349512577,0.7347889542579651,0.1197020187973976,-0.994350016117096,-0.0586300194263458,0.0040826532058417,0.0,0.0,0.4407789707183838,-0.7638624310493469
-0.0352340713143348,0.7128369212150574,0.1173304170370101,-0.975591480731964,-0.0571546927094459,0.0295066572725772,0.0,0.0,0.4201180934906006,-0.8636555075645447
-0.0340868011116981,0.6912330389022827,0.1117281690239906,-0.960063636302948,-0.0541900210082531,0.0592936463654041,0.0,0.0,0.5671869516372681,-0.8052918910980225
-0.0328807830810546,0.6696656346321106,0.1160964220762252,-0.958394169807434,-0.0497430190443992,0.0889402776956558,0.0,0.0,0.9261474609375,-0.8985934257507324
-0.0314088836312294,0.6483964920043945,0.1406069695949554,-0.9450935125350952,-0.0432445183396339,0.1299703270196914,0.0,0.0,0.8405482769012451,-0.6672140955924988
-0.0299023631960153,0.6276792883872986,0.1429980248212814,-0.9205639958381652,-0.0356727242469787,0.1514356881380081,0.0,0.0,0.7745664119720459,-0.6609817147254944
-0.028182029724121,0.6069802045822144,0.1628091484308242,-0.9197694063186646,-0.0265679154545068,0.1820960044860839,0.0,0.0,0.8393852710723877,-0.7497377395629883
-0.0263703353703022,0.5869320631027222,0.1705214381217956,-0.8908710479736328,-0.0160493534058332,0.2103712558746338,0.0,0.0,0.8440643548965454,-0.4713152647018432
-0.0242594722658395,0.5670067071914673,0.1997422277927398,-0.8854865431785583,-0.0048486422747373,0.2240139544010162,0.0,0.0,0.923499584197998,-0.5522971749305725
-0.0221828464418649,0.5472137331962585,0.1956348568201065,-0.8796917796134949,0.0070221307687461,0.2374153137207031,0.0,0.0,0.7512946128845215,-0.2014542818069458
-0.0198867805302143,0.5279998779296875,0.2172066420316696,-0.8540512323379517,0.0192655939608812,0.2448693215847015,0.0,0.0,0.9435670375823976,-0.6092002987861633
-0.0173542983829975,0.509293258190155,0.2392249107360839,-0.8316429853439331,0.0331049151718616,0.276786744594574,0.0,0.0,0.944377899169922,-0.1084574460983276
-0.0146389007568359,0.4913552403450012,0.2572039663791656,-0.7976236343383789,0.0472618006169796,0.2831378579139709,0.0,0.0,0.8121640682220459,0.0855951309204101
-0.0119199752807617,0.4740141630172729,0.2580501437187195,-0.7712071537971497,0.0609427765011787,0.2736194431781769,0.0,0.0,0.7968759536743164,-0.2688426971435547
-0.0090417861938476,0.4565925896167755,0.2738222181797027,-0.7749188542366028,0.0747915804386138,0.2769761383533478,0.0,0.0,0.8952752351760864,-0.0404927134513855
-0.0062096593901515,0.4396730661392212,0.2698585093021393,-0.7526991367340088,0.0880183801054954,0.2645361423492431,0.0,0.0,0.814547061920166,-0.4095057249069214
-0.0031630515586584,0.422931432723999,0.2907751798629761,-0.7449467778205872,0.1017826572060585,0.2752854526042938,0.0,0.0,0.8947356939315796,-0.4395309686660766
-3.137588646495715e-05,0.4065543115139007,0.2992708086967468,-0.7288787364959717,0.1155818328261375,0.2759838104248047,0.0,0.0,0.9576364755630492,-0.5419071912765503
0.0031431198585778,0.390186607837677,0.3025409877300262,-0.7286700010299683,0.1304027587175369,0.2964189350605011,0.0,0.0,0.9914827346801758,-0.593818187713623
0.0061512948013842,0.3741505742073059,0.2852778732776642,-0.7141427993774414,0.1458730697631836,0.3094066381454468,0.0,0.0,0.9881398677825928,0.7692711353302002
0.0092272758483886,0.3589828014373779,0.2936761975288391,-0.6755459904670715,0.1597750037908554,0.2780390381813049,0.0,0.0,0.9779050350189208,0.4183073043823242
0.0124754905700683,0.3436683118343353,0.3105712831020355,-0.6822364330291748,0.1740417331457138,0.2853344976902008,0.0,0.0,0.983433723449707,0.6759088039398193
0.0157634727656841,0.3292097747325897,0.3159378170967102,-0.6441622972488403,0.1869485080242157,0.258135437965393,0.0,0.0,0.9381532669067384,-0.0735030770301818
0.0189713481813669,0.3148497343063354,0.3085492253303528,-0.6398155093193054,0.1992552578449249,0.2461351901292801,0.0,0.0,0.9664745330810548,-0.2071410417556762
0.022044276818633,0.3009528815746307,0.2956798672676086,-0.6192464232444763,0.2109673619270324,0.2342419624328613,0.0,0.0,0.9837049245834352,-0.0494794249534606
0.0251288414001464,0.2874741554260254,0.2967896461486816,-0.6007644534111023,0.2227615416049957,0.235883742570877,0.0,0.0,0.8275461196899414,0.1301789283752441
0.028000259771943,0.274625301361084,0.2762385904788971,-0.5727455615997314,0.2338080704212188,0.2209310084581375,0.0,0.0,0.8842263221740723,0.4320271015167236
0.0309329032897949,0.2620769441127777,0.2820990085601806,-0.5595206022262573,0.2451541423797607,0.226921409368515,0.0,0.0,0.8580378293991089,-0.0681112408638
0.0338544845581054,0.2494650483131408,0.2812804281711578,-0.5623809695243835,0.256237119436264,0.2216595113277435,0.0,0.0,0.8866651058197021,0.7095024585723877
0.0369512550532817,0.2367478758096695,0.3001206815242767,-0.5669088959693909,0.2660017907619476,0.1952935308218002,0.0,0.0,0.9776694774627686,0.6484744548797607
0.0400854125618934,0.2239263355731964,0.3053471744060516,-0.5713319778442383,0.2742663919925689,0.1652922928333282,0.0,0.0,0.9095523357391356,0.0033366680145263
0.0430949218571186,0.2117342352867126,0.2930227816104889,-0.5433797240257263,0.282399833202362,0.1626685559749603,0.0,0.0,0.923703670501709,0.2969787120819092
0.0460622794926166,0.2002589553594589,0.2884846329689026,-0.5116288065910339,0.290878415107727,0.169571191072464,0.0,0.0,0.7196112871170044,-0.0898758769035339
0.0488066673278808,0.1892654001712799,0.266826182603836,-0.4901411235332489,0.2987311482429504,0.1570554077625274,0.0,0.0,0.6907879114151001,0.0621763467788696
0.0514577850699424,0.1780087798833847,0.2581939101219177,-0.5017350912094116,0.3058864176273346,0.1431052237749099,0.0,0.0,0.8505909442901611,0.2266445159912109
0.054018497467041,0.1673483252525329,0.249045580625534,-0.475294291973114,0.3131661117076874,0.1455941647291183,0.0,0.0,0.4620376825332641,0.1760540008544922
0.0564701072871685,0.1566824316978454,0.2386326044797897,-0.4754626154899597,0.3199470043182373,0.1356177479028701,0.0,0.0,0.5014057159423828,-0.624877393245697
0.0587622635066509,0.1461565792560577,0.2216731607913971,-0.4694999754428863,0.3278022408485412,0.1571044921875,0.0,0.0,0.6955132484436035,0.6313962936401367
0.0609901435673236,0.1359797865152359,0.2166174203157425,-0.4537157416343689,0.33424973487854,0.1289494782686233,0.0,0.0,0.1706109046936035,-0.1924115419387817
0.0632742866873741,0.1257267296314239,0.2220535576343536,-0.457179844379425,0.3409005403518677,0.1330161690711975,0.0,0.0,0.5193461179733276,-0.2860317230224609
0.0656066909432411,0.1152387931942939,0.2268767803907394,-0.4676518738269806,0.3475703001022339,0.1333950459957122,0.0,0.0,0.5603746175765991,-0.1509143710136413
0.0680248290300369,0.1046411395072937,0.2351566851139068,-0.472632884979248,0.3545640110969543,0.1398744136095047,0.0,0.0,0.8803679943084717,-0.6558036804199219
0.0704706162214279,0.0943337306380271,0.2363175600767135,-0.4601657092571258,0.3632687032222748,0.1740935742855072,0.0,0.0,0.7859325408935547,-0.3430044651031494
0.0730383843183517,0.0840141624212265,0.247954174876213,-0.4609117805957794,0.3725903332233429,0.1864333897829055,0.0,0.0,0.9595515727996826,-0.2145233750343322
0.0754079818725586,0.0742453411221504,0.2282675504684448,-0.4364557564258575,0.3818015456199646,0.1842242181301117,0.0,0.0,0.7714188098907471,-0.0841994285583496
0.0776374787092208,0.0649369359016418,0.2142285108566284,-0.4160693883895874,0.3910875618457794,0.1857211887836456,0.0,0.0,0.9251060485839844,0.1143972873687744
0.0798367485404014,0.0560990907251834,0.2106973826885223,-0.3953640758991241,0.4009670317173004,0.1975892186164856,0.0,0.0,0.9254982471466064,0.5773029327392578
0.082177922129631,0.0471904389560222,0.2257770746946334,-0.3983200490474701,0.4099267423152923,0.1791944205760955,0.0,0.0,0.985968828201294,0.3735520839691162
0.0843489617109298,0.0383957959711551,0.2091242969036102,-0.3932072222232818,0.4185180366039276,0.1718260794878006,0.0,1.0,0.9993888139724731,0.9993329048156738
0.0862844437360763,0.0314470157027244,0.2006529867649078,-0.3076280057430267,0.4076005816459656,-0.223082810640335,0.0,1.0,0.9999980926513672,0.9919781684875488
0.0878833755850792,0.0256771184504032,0.1880597174167633,-0.2489635497331619,0.3763756155967712,-0.6261510848999023,0.0,1.0,0.9977848529815674,-0.9352522492408752
0.0887821167707443,0.0212285853922367,0.1354580372571945,-0.1864877641201019,0.3282967805862427,-0.961700439453125,0.0,1.0,0.9983558654785156,-0.98353773355484
0.0893740653991699,0.0178001504391431,0.1141415610909462,-0.1409688293933868,0.2713549435138702,-1.1389940977096558,0.0,1.0,0.9937412738800048,-0.985667645931244
0.0895609855651855,0.015033540315926,0.0741097033023834,-0.1137169748544693,0.2148389220237732,-1.1304632425308228,0.0,1.0,0.97124981880188,-0.9648791551589966
0.0894018188118934,0.012836274690926,0.0368449389934539,-0.0908682569861412,0.1617635935544967,-1.0615499019622805,0.0,1.0,0.823411226272583,-0.8951108455657959
0.0890518203377723,0.0107708312571048,0.0164548233151435,-0.0870269984006881,0.1104616373777389,-1.0260803699493408,0.0,0.0,-0.8032553791999817,-0.6506264805793762
0.0887705832719802,0.0080393413081765,0.0221271254122257,-0.1184518337249755,0.0606373213231563,-0.9965270757675172,0.0,0.0,-0.3559873104095459,-0.9862635731697084
0.0885229110717773,0.0046379421837627,0.023222666233778,-0.1499267071485519,0.0131960734724998,-0.948863685131073,0.0,0.0,0.9223968982696532,-0.9922584295272828
0.0884542465209961,0.0018359279492869,0.0389952063560485,-0.1247628778219223,-0.0321045592427253,-0.9060497283935548,0.0,0.0,0.8559072017669678,-0.9999913573265076
0.0885979682207107,-0.0002865934511646,0.0390098765492439,-0.0950737744569778,-0.0563614480197429,-0.4850287437438965,1.0,0.0,0.6878314018249512,-0.6312910318374634
0.089025117456913,-0.0012487912317737,0.0459815189242363,-0.0429018475115299,-0.0595268830657005,-0.0632297247648239,1.0,0.0,-0.4998335838317871,-0.5387796759605408
0.0895200744271278,-0.0022612714674323,0.0335635505616664,-0.0444526933133602,-0.0436994507908821,0.3166408240795135,1.0,0.0,-0.762202262878418,0.6664884090423584
0.0901564583182334,-0.0035025619436055,0.0364479646086692,-0.0546027310192585,-0.0167766455560922,0.5385564565658569,1.0,0.0,-0.6473187804222107,0.302104115486145
0.0908291786909103,-0.0051930691115558,0.0335525274276733,-0.0750971287488937,0.0165930110961198,0.6675055027008057,1.0,1.0,0.8074842691421509,-0.7345247268676758
0.0912426933646202,-0.005727722775191,0.0220995247364044,-0.0242751501500606,0.0345578975975513,0.3579708039760589,1.0,0.0,-0.4740927219390869,0.656524658203125
0.0915003791451454,-0.0062713171355426,0.0252767149358987,-0.0241833217442035,0.0350649319589138,0.0101622967049479,1.0,0.0,-0.8972216248512268,0.1362627744674682
0.0916627869009971,-0.0065827392973005,0.0228465981781482,-0.0137118343263864,0.0285610668361186,-0.1300395429134369,1.0,0.0,-0.6873235106468201,-0.328609824180603
0.0917353630065918,-0.006533064879477,0.0142787043005228,0.0023255422711372,0.0216921214014291,-0.1373144090175628,1.0,0.0,-0.8289632201194763,-0.1324882507324218
0.0918176621198654,-0.0061859870329499,0.0126968752592802,,0.0172640327364206,-0.0885918140411377,1.0,0.0,-0.9659463763237,-0.0781008601188659
0.0919335335493087,-0.0055669331923127,0.013263626024127,0.0275283381342887,0.0156114166602492,-0.0330540463328361,1.0,0.0,-0.9782650470733644,0.1818016767501831
0.0920750647783279,-0.0046915672719478,0.0136753153055906,0.0388998836278915,0.0160727929323911,0.0092247929424047,1.0,0.0,-0.9856933951377868,0.1253858804702758
0.0922237411141395,-0.0036128545179963,0.0137848332524299,0.0479311794042587,0.0171448774635791,0.021437507122755,1.0,0.0,-0.9894140362739564,0.2121611833572387
0.0922782868146896,-0.0027186060324311,0.0122029716148972,0.0398073643445968,0.0104752872139215,-0.133390724658966,1.0,0.0,-0.9797179698944092,-0.1777199506759643
0.0923430472612381,-0.0019451641710475,0.0123706385493278,0.0344065763056278,0.0046608848497271,-0.1162874475121498,1.0,0.0,-0.96625953912735,-0.2924118041992187
0.0924241989850997,-0.0013563656248152,0.0126414541155099,0.0261737462133169,0.0001839074102463,-0.0895393639802932,1.0,0.0,-0.9432582259178162,0.0604931116104126
