x_pos,y_pos,x_vel,y_vel,angle,ang_vel,leg_1,leg_2,main_booster,lat_booster
-0.0015399933326989,1.4032459259033203,-0.1560440063476562,-0.341074138879776,0.0018286610720679,0.0360770523548126,0.0,0.0,-0.2334466203008305,0.7381193107283242
-0.0030338286887854,1.395213007926941,-0.1496327966451645,-0.357020229101181,0.0020717463921755,0.004862867295742,0.0,0.0,-0.7384439325692052,-0.7722742846663746
-0.0045917509123682,1.386795163154602,-0.1572911292314529,-0.3741248250007629,0.0035499390214681,0.0295667704194784,0.0,0.0,0.1189956302424761,0.5378604121718248
-0.0062147141434252,1.3785043954849243,-0.1625800132751464,-0.36847785115242,0.0038314522244036,0.0056306282058358,0.0,0.0,-0.4513906683439801,0.6331464081775962
-0.0077943801879882,1.369837522506714,-0.1567602008581161,-0.3851982951164245,0.0026390803977847,-0.0238494351506233,0.0,0.0,0.5083820401137187,-0.952809548052219
-0.0093251224607229,1.361534595489502,-0.1540035903453827,-0.3690160512924194,0.003548813983798,0.0181965213268995,0.0,0.0,-0.811766973959194,0.6215339953152095
-0.0108263967558741,1.3528534173965454,-0.1498892307281494,-0.385831743478775,0.0033181901089847,-0.004612848162651,0.0,0.0,0.9223398169352,-0.6688714280496377
-0.0122133251279592,1.3449255228042605,-0.1403595954179763,-0.352355033159256,0.0049591111019253,0.0328214988112449,0.0,0.0,-0.8636261826259533,-0.6626537553259773
-0.0136713981628417,1.3366258144378662,-0.1488580405712127,-0.3688900768756866,0.0079824952408671,0.0604731030762195,0.0,0.0,0.2815246403972291,0.8056544764502078
-0.0150890350341796,1.3287986516952517,-0.1432497799396515,-0.3478826284408569,0.0094537315890192,0.0294272638857364,0.0,0.0,-0.1638371086773966,-0.8353655724061975
-0.0165810585021972,1.3205928802490234,-0.1521648317575454,-0.3647314310073852,0.0123898806050419,0.0587282367050647,0.0,0.0,0.2960274966777205,-0.75047403731147
-0.0180929191410541,1.3126286268234253,-0.1557952463626861,-0.3540081083774566,0.0169456340372562,0.0911234095692634,0.0,0.0,0.6791347750028465,-0.8497563190721023
-0.0195551868528127,1.30535888671875,-0.1528457403182983,-0.3231897950172424,0.0234916992485523,0.1309330612421035,0.0,0.0,0.1827067796081201,0.8595489491854393
-0.0209166519343853,1.298088550567627,-0.1411239504814148,-0.3232123255729675,0.0284149944782257,0.0984745696187019,0.0,0.0,-0.1870356457966937,0.9535341893367646
-0.0222037322819232,1.2904536724090576,-0.1313796639442443,-0.3393778800964355,0.0310480240732431,0.0526655837893486,0.0,0.0,0.2519084841692658,-0.5552335407124654
-0.0234689712524414,1.2827739715576172,-0.1305288970470428,-0.341410368680954,0.0350186899304389,0.0794203430414199,0.0,0.0,0.3302618308954101,0.5493916415939669
-0.0246127136051654,1.2757632732391355,-0.1175974160432815,-0.3116606473922729,0.0382119007408618,0.0638698935508728,0.0,0.0,-0.7803847161004023,0.9870258717785064
-0.025678252801299,1.268371343612671,-0.1073855608701706,-0.3285575211048126,0.0390269234776496,0.0163017828017473,0.0,0.0,-0.0036629325146353,-0.5242322427335193
-0.0267971046268939,1.2606037855148315,-0.1136388629674911,-0.3452711999416351,0.0407587587833404,0.0346399098634719,0.0,0.0,-0.9731802378468208,-0.7640237414666831
-0.0280030257999897,1.252453327178955,-0.124110497534275,-0.3623453676700592,0.0442534163594245,0.0698992684483528,0.0,0.0,0.1368282086933334,0.6107547293212077
-0.0291042327880859,1.2447137832641602,-0.1126255020499229,-0.344051718711853,0.0467272885143756,0.0494815707206726,0.0,0.0,-0.931156313592614,-0.8165340823871968
-0.0302871707826852,1.2365868091583252,-0.1224443092942237,-0.3613352179527282,0.0508355647325515,0.0821729227900505,0.0,0.0,0.6597160899834067,-0.8315496828507393
-0.031437873840332,1.2289060354232788,-0.1211800426244735,-0.341589480638504,0.0568874441087245,0.1210481151938438,0.0,0.0,-0.1886763022867614,-0.5803737120971547
-0.0326476097106933,1.2208369970321655,-0.128155916929245,-0.3589032590389251,0.0640000775456428,0.1422653794288635,0.0,0.0,0.2929368478830394,-0.9711805314736814
-0.0341142639517784,1.213127374649048,-0.1557721942663192,-0.3430609107017517,0.0730243325233459,0.1805015355348587,0.0,0.0,-0.0730056435825048,0.8929581929754749
-0.0355455391108989,1.2050293684005735,-0.1509156376123428,-0.3603102266788482,0.080737680196762,0.1542666554450988,0.0,0.0,0.5493776288443268,-0.919994309468925
-0.0371192917227745,1.1975699663162231,-0.1670511215925216,-0.332082599401474,0.0903243348002433,0.1917329132556915,0.0,0.0,-0.6645029602586483,-0.7513497640561091
-0.0387843139469623,1.189731478691101,-0.1780461370944976,-0.3491131067276001,0.1017669960856437,0.2288532257080078,0.0,0.0,0.6794150308542957,0.9207194659461062
-0.04062395170331,1.182687282562256,-0.1934532225131988,-0.3137601315975189,0.1111902073025703,0.1884640455245971,0.0,0.0,0.1387105572943319,-0.9078292876905116
-0.042607594281435,1.175748586654663,-0.2097059190273285,-0.309267520904541,0.1224558800458908,0.2253133803606033,0.0,0.0,-0.5167258649995499,-0.9507480616620896
-0.0446834564208984,1.1684308052062988,-0.2207785844802856,-0.3263721764087677,0.1355882138013839,0.2626469731330871,0.0,0.0,-0.9280906915664672,0.9923062324523926
-0.0467100143432617,1.1607446670532229,-0.214130014181137,-0.3426903486251831,0.1470275670289993,0.2287869900465011,0.0,0.0,-0.9680794477462769,0.9994122982025146
-0.0486889854073524,1.1527056694030762,-0.2076551467180252,-0.3582741320133209,0.1567666083574295,0.1947809755802154,0.0,0.0,-0.9924964904785156,0.9980705976486206
-0.0506162643432617,1.1442971229553225,-0.2007135897874832,-0.3745798468589782,0.1647523641586303,0.1597153097391128,0.0,0.0,-0.9648717045783995,0.9996941089630128
-0.0524826049804687,1.1355328559875488,-0.1925838738679886,-0.390201061964035,0.1707067638635635,0.1190879195928573,0.0,0.0,-0.9521514177322388,0.9949625730514526
-0.0542889609932899,1.1264182329177856,-0.1845415532588958,-0.4055465459823608,0.1746270805597305,0.0784060209989547,0.0,0.0,-0.9850684404373168,0.9976390600204468
-0.0560392364859581,1.116939902305603,-0.1770556569099426,-0.4214959144592285,0.1766604930162429,0.0406683310866355,0.0,0.0,-0.9527097940444946,0.9847970008850098
-0.0577278137207031,1.1071124076843262,-0.1688106805086136,-0.4367682039737701,0.1766106635332107,-0.0009966304060071,0.0,0.0,-0.937801480293274,0.9935871362686156
-0.059364415705204,1.096936821937561,-0.1617616713047027,-0.452026903629303,0.1747108846902847,-0.0379958115518093,0.0,0.0,-0.9875708818435668,0.9864039421081544
-0.0609396919608116,1.0864053964614868,-0.1535763442516327,-0.4676057398319244,0.1707571893930435,-0.0790739506483078,0.0,0.0,-0.9511463046073914,0.9800063371658324
-0.0624719634652137,1.0755200386047363,-0.1476763188838958,-0.4831600785255432,0.1651978939771652,-0.1111859828233718,0.0,0.0,-0.9855575561523438,0.9975628852844238
-0.0639291778206825,1.0642781257629397,-0.1377718150615692,-0.4987748563289642,0.1572455912828445,-0.159045934677124,0.0,0.0,-0.9965083003044128,0.9878864288330078
-0.0653145760297775,1.0526695251464844,-0.1282972395420074,-0.514892041683197,0.1470143944025039,-0.204624056816101,0.0,0.0,-0.9976873397827148,0.8772518634796143
-0.0666388496756553,1.0406999588012695,-0.1201289147138595,-0.530810534954071,0.1347498148679733,-0.2452915608882904,0.0,0.0,-0.998803734779358,0.6649686098098755
-0.0679328888654708,1.0283561944961548,-0.1158406510949134,-0.5474407076835632,0.1212575733661651,-0.2698448300361633,0.0,0.0,-0.966278612613678,0.4609643220901489
-0.0692458152770996,1.0156364440917969,-0.117720678448677,-0.5642776489257812,0.1077710464596748,-0.2697306275367737,0.0,0.0,-0.9988214373588562,0.8802294731140137
-0.0705010443925857,1.0025484561920166,-0.1099918037652969,-0.5806372165679932,0.0923566669225692,-0.3082875907421112,0.0,0.0,-0.97968190908432,-0.8898255228996277
-0.0718590766191482,0.9890828132629396,-0.1223614811897277,-0.5977006554603577,0.079045683145523,-0.2662196755409241,0.0,0.0,-0.9696653485298156,-0.9624843001365662
-0.0733288750052452,0.9752382040023804,-0.135899469256401,-0.6147748231887817,0.0680720955133438,-0.2194718569517135,0.0,0.0,-0.9030200839042664,0.5482149124145508
-0.0747756958007812,0.9610194563865662,-0.1325147598981857,-0.631438672542572,0.0560444742441177,-0.2405523359775543,0.0,0.0,-0.9853076338768004,-0.8841487169265747
-0.0762943252921104,0.9464192390441896,-0.1410481035709381,-0.6485331058502197,0.0453545302152633,-0.2137989103794098,0.0,0.0,-0.9933319687843324,-0.0908696055412292
-0.0778315514326095,0.9314420819282532,-0.1428989470005035,-0.6653645038604736,0.0346602201461792,-0.2138860523700714,0.0,0.0,-0.9858837127685548,-0.5958402752876282
-0.0794258117675781,0.9160823822021484,-0.149574726819992,-0.6824552416801453,0.0249305684119462,-0.1945930421352386,0.0,0.0,-0.9811750054359436,-0.910300076007843
-0.081110380589962,0.9003509283065796,-0.1604129523038864,-0.6990612149238586,0.0169937349855899,-0.158736765384674,0.0,0.0,-0.9748179316520692,-0.8993614315986633
-0.0828667655587196,0.8842369318008423,-0.1689572036266327,-0.7161150574684143,0.0103945173323154,-0.131984144449234,0.0,0.0,-0.9732761979103088,-0.7272490859031677
-0.0847081169486045,0.8677406907081604,-0.1791411638259887,-0.7331424951553345,0.0054612732492387,-0.0986648425459861,0.0,0.0,-0.6997609734535217,-0.7746625542640686
-0.0866194739937782,0.8508729338645935,-0.18744458258152,-0.7496733069419861,0.0018168120877817,-0.0728893727064132,0.0,0.0,-0.6529739499092102,-0.679690957069397
-0.0885904282331466,0.8336294293403625,-0.1944466531276703,-0.7663799524307251,-0.00079796515638,-0.0522954761981964,0.0,0.0,-0.5715519189834595,0.2669770717620849
-0.0905794128775596,0.8160073757171631,-0.1962349563837051,-0.7832024097442627,-0.0034258742816746,-0.0525581054389476,0.0,0.0,-0.6197230815887451,0.2290154695510864
-0.0925863236188888,0.7980071306228638,-0.1980109065771103,-0.8000248670578003,-0.0060678930021822,-0.0528404042124748,0.0,0.0,0.4420639276504516,0.828648567199707
-0.0944931954145431,0.7801049947738647,-0.1863926649093628,-0.7956722974777222,-0.0103063713759183,-0.0847696661949157,0.0,0.0,-0.5345110893249512,0.4134982824325561
-0.0964177101850509,0.7618246078491211,-0.1881408244371414,,-0.014560773037374,-0.0850879400968551,0.0,0.0,-0.418461799621582,0.8396859169006348
-0.0982795730233192,0.7431623339653015,-0.1798284351825714,-0.8295108675956726,-0.0208444092422723,-0.1256724894046783,0.0,0.0,0.1324509382247924,0.7172515392303467
-0.1000749617815017,0.7247509360313416,-0.1717268675565719,-0.8184095621109009,-0.0285530723631382,-0.1541735827922821,0.0,0.0,0.4548609256744385,0.2374951839447021
-0.1018704399466514,0.7064908742904663,-0.171759158372879,-0.8117260336875916,-0.0362481698393821,-0.1539017111063003,0.0,0.0,0.4186620712280273,-0.248926043510437
-0.1037707328796386,0.6886197924613953,-0.1817211806774139,-0.7944969534873962,-0.0444539412856102,-0.1641154736280441,0.0,0.0,0.0991804599761962,0.0715062618255615
-0.1056480407714843,0.6712233424186707,-0.1794855147600174,-0.7734441161155701,-0.0526132993400096,-0.1631870716810226,0.0,0.0,-0.7649979591369629,-0.4287967681884765
-0.1075420379638671,0.6534492373466492,-0.1811190545558929,-0.7902716398239136,-0.0607929192483425,-0.1635923534631729,0.0,0.0,0.2217248678207397,-0.1352874040603637
-0.1093938797712326,0.6362408995628357,-0.1769887506961822,-0.7651687264442444,-0.0689009800553321,-0.1621611416339874,0.0,0.0,0.4533407688140869,0.4289642572402954
-0.1113156303763389,0.6192865967750549,-0.1835746765136718,-0.7539399266242981,-0.0774134621024131,-0.1702496707439422,0.0,0.0,-0.5556831359863281,-0.1372193694114685
-0.1132532134652137,0.6019549369812012,-0.1851283609867096,-0.7707680463790894,-0.085947997868061,-0.1706906706094741,0.0,0.0,0.1038527488708496,-0.4274278283119201
-0.1151498779654502,0.5848645567893982,-0.1811286658048629,-0.7600894570350647,-0.0944100990891456,-0.1692421287298202,0.0,0.0,0.0785855054855346,-0.1660717725753784
-0.1170933693647384,0.5682317614555359,-0.18539959192276,-0.7398210763931274,-0.1032843962311744,-0.1774862706661224,0.0,0.0,-0.3747657537460327,-0.1422802209854126
-0.1190515533089637,0.5512216687202454,-0.1868545114994049,-0.7566497921943665,-0.1121824085712432,-0.1779602468013763,0.0,0.0,0.6991360187530518,0.0916471481323242
-0.1210134476423263,0.5344394445419312,-0.1870521157979965,-0.7465859055519104,-0.121265061199665,-0.1816532760858535,0.0,0.0,0.4612536430358886,-0.0205562710762023
-0.1228949576616287,0.5176970362663269,-0.1792598366737365,-0.7448508143424988,-0.130094289779663,-0.1765844821929931,0.0,0.0,0.8938491344451904,0.0116969347000122
-0.1247751265764236,0.5011629462242126,-0.1789688169956207,-0.73566073179245,-0.1391163617372512,-0.1804418414831161,0.0,0.0,0.2166292667388916,-0.7260937690734863
-0.1266506165266037,0.4851390123367309,-0.1799177080392837,-0.712906539440155,-0.1467182040214538,-0.1520368158817291,0.0,0.0,0.0081156492233276,-0.0341088771820068
-0.1284174919128418,0.4694653451442718,-0.1692745238542556,-0.6973589658737183,-0.1541205197572708,-0.1480462551116943,0.0,0.0,-0.3033100366592407,-0.6596987843513489
-0.1302569359540939,0.4534344673156738,-0.1780768781900406,-0.7130991220474243,-0.1599801331758499,-0.1171921864151954,0.0,0.0,0.3471183776855469,0.1721900701522827
-0.1321690529584884,0.4374508559703827,-0.1848367899656295,-0.7110812664031982,-0.166355162858963,-0.1275006979703903,0.0,0.0,0.4520068168640136,-0.585421085357666
-0.1339841783046722,0.4221240580081939,-0.1763694584369659,-0.6817756295204163,-0.1714970916509628,-0.1028386726975441,0.0,0.0,-0.1674641370773315,-0.3209161758422851
-0.1358097046613693,0.4064191281795501,-0.177389845252037,-0.6985999941825867,-0.1766675114631652,-0.1034083217382431,0.0,0.0,0.5287537574768066,-0.2497314810752868
-0.1375846862792968,0.3912757337093353,-0.1720831543207168,-0.6736958622932434,-0.182101622223854,-0.1086822897195816,0.0,0.0,0.3934636116027832,-0.0514508485794067
-0.139271929860115,0.3766271471977234,-0.1632408201694488,,-0.1876120120286941,-0.1102077737450599,0.0,0.0,0.1994904279708862,0.1997627019882202
-0.1408267021179199,0.3622051477432251,-0.1502610594034195,-0.6416451334953308,-0.1928597092628479,-0.1049536317586898,0.0,0.0,0.0615985393524169,-0.2965079545974731
-0.1423322707414627,0.347724586725235,-0.1453793346881866,-0.6442636847496033,-0.1980676054954528,-0.1041579246520996,0.0,0.0,0.801398515701294,-0.4054687023162842
-0.1436593979597091,0.3334817886352539,-0.1279753893613815,-0.6336573362350464,-0.2028388679027557,-0.095425397157669,0.0,0.0,0.9018769264221193,-0.8871713876724243
-0.1447464972734451,0.3197910785675049,-0.10605950653553,-0.6088401079177856,-0.2055112868547439,-0.0534484982490539,0.0,0.0,0.9458551406860352,-0.910063862800598
-0.1456387490034103,0.3063639998435974,-0.0886949226260185,-0.596835732460022,-0.206055611371994,-0.0108865313231945,0.0,0.0,0.9965314865112304,-0.7048020958900452
-0.1464113295078277,0.2939158380031585,-0.0780685096979141,-0.5531381368637085,-0.2052305042743683,0.016502246260643,0.0,0.0,0.9093893766403198,-0.5860064625740051
-0.1470166146755218,0.2823835611343384,-0.0625971406698226,-0.5122627019882202,-0.2031527459621429,0.0415553003549575,0.0,0.0,0.6672629117965698,0.7002406120300293
-0.1473008096218109,0.2714061737060547,-0.029335806146264,-0.4877560436725616,-0.2022243589162826,0.0185677967965602,0.0,0.0,0.6958823204040527,-0.8637234568595886
-0.1474757194519043,0.2605198919773102,-0.0202892087399959,-0.4834559559822082,-0.199413001537323,0.0562270991504192,0.0,0.0,0.922111988067627,-0.1067358255386352
-0.1475951224565506,0.2501444816589355,-0.014418376609683,-0.4607956707477569,-0.1969195157289505,0.0498695001006126,0.0,0.0,0.4032492637634277,-0.5977828502655029
-0.147540658712387,0.2404666244983673,0.0016515288734808,-0.4296257793903351,-0.1930922418832779,0.0765454322099685,0.0,0.0,0.4545075893402099,0.3867334127426147
-0.1474103927612304,0.2311540693044662,0.0093471482396125,-0.4134164154529571,-0.1893961131572723,0.0739229172468185,0.0,0.0,-0.2533326745033264,-0.52138352394104
-0.1473278999328613,0.2214820235967636,0.0033459458500146,-0.4292478263378143,-0.1844706833362579,0.0985084399580955,0.0,0.0,0.039954662322998,0.5041172504425049
-0.1470646858215332,0.2120544463396072,0.0223537683486938,-0.4185129404067993,-0.1804849505424499,0.0797149538993835,0.0,0.0,0.4965608119964599,-0.2731404304504394
-0.1467251777648925,0.2032646685838699,0.0302341617643833,-0.390211671590805,-0.1767611503601074,0.0744756683707237,0.0,0.0,0.1946820020675659,0.1355026960372924
-0.1463467627763748,0.1949119120836258,0.0344424359500408,-0.3708318769931793,-0.1733521819114685,0.0681795552372932,0.0,0.0,-0.0766381025314331,-0.5340302586555481
-0.1460084021091461,0.186190515756607,0.0293517149984836,-0.3870981335639953,-0.1688683480024337,0.0896767079830169,0.0,0.0,0.7473809719085693,-0.5691305994987488
-0.1457337439060211,0.1780768781900406,0.0222441907972097,-0.3600220680236816,-0.1636328399181366,0.1047102957963943,0.0,0.0,0.2902809381484985,-0.2035952806472778
-0.1455036103725433,0.170219212770462,0.0183623414486646,-0.3487254083156585,-0.1589803099632263,0.0930506289005279,0.0,0.0,-0.1686776876449585,-0.0603181719779968
-0.1452681571245193,0.1619834005832672,0.0189323481172323,-0.3655495643615722,-0.1543675363063812,0.092255562543869,0.0,0.0,0.2613126039505005,0.4219121932983398
-0.144937127828598,0.1537761986255645,0.0283078197389841,-0.364275187253952,-0.1495782285928726,0.0957857519388198,0.0,0.0,0.4331272840499878,0.6168332099914551
-0.1443161964416504,0.1461354792118072,0.0582873299717903,-0.3392090499401092,-0.1457759141921997,0.0760463178157806,0.0,0.0,0.3291047811508178,-0.817687451839447
-0.1436812430620193,0.1390685439109802,0.0580983273684978,-0.3135694563388824,-0.1403988748788833,0.1075407862663269,0.0,0.0,0.231715440750122,-0.3633862733840942
-0.1428442001342773,0.1325474083423614,0.0778594240546226,-0.2892877161502838,-0.1345708668231964,0.1165599226951599,0.0,0.0,-0.2838281393051147,-0.6875640749931335
-0.1420459747314453,0.1256580650806427,0.0728079751133918,-0.3055768609046936,-0.1275844871997833,0.1397275179624557,0.0,0.0,0.0251655578613281,-0.1099560856819152
-0.1411789953708648,0.1191455945372581,0.0797394514083862,-0.2888663411140442,-0.1206604018807411,0.1384818255901336,0.0,0.0,-0.0673524141311645,0.2953473329544067
-0.1403028517961502,0.1122552454471588,0.0806933417916297,-0.3056926131248474,-0.1137780919671058,0.1376460939645767,0.0,0.0,0.1118191480636596,0.4333151578903198
-0.139328196644783,0.1054377183318138,0.0903309732675552,-0.3024738132953644,-0.1066869646310806,0.1418227702379226,0.0,0.0,-0.1496757268905639,-0.2167813777923584
-0.1383434236049652,0.0982424616813659,0.0913722366094589,-0.3193002343177795,-0.0996379628777504,0.1409801989793777,0.0,0.0,0.7725253105163574,0.1670678853988647
-0.1374302804470062,0.0915141925215721,0.084887608885765,-0.2986206710338592,-0.0932682752609252,0.127393752336502,0.0,0.0,0.4262492656707763,0.6700402498245239
-0.1364287436008453,0.0851297453045845,0.0951621383428573,-0.2834493815898895,-0.0883148312568664,0.0990687608718872,0.0,0.0,0.60866379737854,0.6765041351318359
-0.1352894753217697,0.0791312530636787,0.1102737337350845,-0.2663902342319488,-0.0846934765577316,0.0724272355437278,0.0,0.0,0.0907988548278808,-0.0933337211608886
-0.1340327262878418,0.0730983614921569,0.1216605529189109,-0.2679058015346527,-0.0807157382369041,0.0795546099543571,0.0,0.0,0.2434190511703491,-0.0563881397247314
-0.1326495110988617,0.0674478411674499,0.1340006291866302,-0.2509089708328247,-0.0764412209391594,0.0854905396699905,0.0,0.0,0.3977906703948974,-0.5235527753829956
-0.1312203407287597,0.0624469146132469,0.1375366300344467,-0.2219950407743454,-0.0711104497313499,0.1066153794527053,0.0,0.0,0.2058299779891967,-0.4687555432319641
-0.1297161132097244,0.0574037171900272,0.1448499858379364,-0.223888099193573,-0.0656071826815605,0.1100653856992721,0.0,0.0,0.3553436994552612,-0.3229687213897705
