x_pos,y_pos,x_vel,y_vel,angle,ang_vel,leg_1,leg_2,main_booster,lat_booster
-0.0015897750854492,1.4031829833984375,-0.1604730486869812,-0.3438681066036224,0.0013360700104385,0.0263236109167337,0.0,0.0,-0.3589983549910047,-0.9572587070003624
-0.0033156394492834,1.3950228691101074,-0.1751733720302581,-0.3626728653907776,0.003893747460097,0.0511590726673603,0.0,0.0,-0.3145879780374188,0.8647327295044385
-0.0050261495634913,1.3864152431488037,-0.1710549890995025,-0.3825660347938537,0.0038942079991102,9.144313480646817e-06,0.0,0.0,-0.7443743493901378,0.9938228080995604
-0.0067420005798339,1.3773630857467651,-0.1695184260606765,-0.4023104906082153,0.0018564007477834,-0.0407598949968814,0.0,0.0,0.8248894251721612,-0.656493214610596
-0.0084256175905466,1.368952393531799,-0.167555958032608,-0.373806893825531,0.0010674691293388,-0.0157804545015096,0.0,0.0,0.2142507373775899,-0.6390622618476955
-0.0101161003112792,1.360698103904724,-0.169276937842369,-0.3668603003025055,0.0012881520669907,0.0044139674864709,0.0,0.0,0.3029842034200138,0.6078797857102737
-0.0118478778749704,1.3526854515075684,-0.1716861426830291,-0.3561124205589294,-0.0001763804320944,-0.0292937196791172,0.0,0.0,0.6829002110630957,-0.508730710143054
-0.0135261537507176,1.3452215194702148,-0.1674117743968963,-0.3317336738109588,-0.000590463518165,-0.0082822600379586,0.0,0.0,0.0412751188028974,-0.8382431727436945
-0.0153479576110839,1.3381162881851196,-0.1830130815505981,-0.3157871961593628,0.0002255862782476,0.016322711482644,0.0,0.0,-0.7208720901365135,0.6943658868779127
-0.0171841625124216,1.3305739164352417,-0.1826315820217132,-0.33521369099617,-0.0007497907499782,-0.0195091590285301,0.0,0.0,0.9155509527397284,0.6049576191401023
-0.018934154883027,1.3236243724822998,-0.1726913154125213,-0.3088671267032623,-0.0030283234082162,-0.0455748438835144,0.0,0.0,0.9659224388648968,-0.861960878974072
-0.0207265857607126,1.3171743154525757,-0.1784642338752746,-0.2866684794425964,-0.0037985483650118,-0.0154060674831271,0.0,0.0,0.7186062837481855,-0.9762615279643778
-0.0225092880427837,1.3113789558410645,-0.1792927384376526,-0.2575735747814178,-0.0027998678851872,0.019975509494543,0.0,0.0,-0.7527852610308912,-0.8995500199129383
-0.0244231224060058,1.305133819580078,-0.1936053335666656,-0.2775545418262481,-0.0005997620173729,0.0440062507987022,0.0,0.0,0.4825828716291132,0.7438179896081157
-0.0262051578611135,1.2995647192001345,-0.1788248121738433,-0.2475152611732483,1.024971243168693e-05,0.0122014004737138,0.0,0.0,-0.9782513367144074,-0.9999165117756414
-0.0281189922243356,1.2935422658920288,-0.1932944059371948,-0.2676636874675751,0.0018905826145783,0.0376105830073356,0.0,0.0,-0.6172451625671134,0.7998084119247242
-0.0300222393125295,1.28708815574646,-0.1899014562368393,-0.2868511378765106,0.0014795210445299,-0.0082218525931239,0.0,0.0,0.3979400230796928,0.6246464398830505
-0.0318104736506938,1.280663251876831,-0.1771009713411331,-0.2855500280857086,-0.0002245689101982,-0.0340851545333862,0.0,0.0,0.9356866639184926,0.9971848217028452
-0.0334587097167968,1.2752171754837036,-0.1609950810670852,-0.2420559227466583,-0.0040068384259939,-0.0756526216864585,0.0,0.0,-0.2330021060343576,-0.5187006362440587
-0.0352180488407611,1.2693294286727903,-0.1729964762926101,-0.2616800665855407,-0.006916785147041,-0.0582040958106517,0.0,0.0,-0.4606115247608455,-0.6818725621741383
-0.03708391264081,1.2630062103271484,-0.1844377964735031,-0.2810477316379547,-0.0090397335588932,-0.0424625799059867,0.0,0.0,-0.6242634876066289,0.7497411273858667
-0.0389525406062603,1.256236553192139,-0.1829112023115158,-0.3009004592895508,-0.0129447737708687,-0.0781080871820449,0.0,0.0,0.5866117725397357,0.9296346926430852
-0.0406625755131244,1.2498047351837158,-0.1651198416948318,-0.2859205603599548,-0.0187601018697023,-0.1163169741630554,0.0,0.0,0.0531719512878587,0.6349077112119448
-0.0423295982182025,1.243220567703247,-0.1593735516071319,-0.2927390336990356,-0.0260037090629339,-0.1448851972818374,0.0,0.0,0.4411049210718052,0.9253431092838548
-0.0441099181771278,1.237042784690857,-0.168503075838089,-0.2747514545917511,-0.0354337580502033,-0.1886180937290191,0.0,0.0,-0.7271312539821957,-0.790030171546465
-0.0460274703800678,1.2304117679595947,-0.183994635939598,,-0.0430976152420043,-0.1532768309116363,0.0,0.0,-0.1025208163902846,0.8795868037638466
-0.0479329116642475,1.223341464996338,-0.1808469444513321,-0.3145469725131988,-0.0526880882680416,-0.1918094605207443,0.0,0.0,-0.9659896069001634,0.8411620153401633
-0.0498430244624614,1.2158359289169312,-0.179838553071022,-0.3340130150318146,-0.0637325122952461,-0.2208883315324783,0.0,0.0,0.31691712526529,-0.5654581539839909
-0.051927376538515,1.208834886550903,-0.1980488002300262,-0.3116432130336761,-0.0740101188421249,-0.2055520564317703,0.0,0.0,-0.5740377178542024,0.899453848376561
-0.053997803479433,1.2013829946517944,-0.1948154866695404,-0.3318435549736023,-0.0861170068383216,-0.2421376258134842,0.0,0.0,0.7922156981581872,-0.650632445457861
-0.0560711845755577,1.1948754787445068,-0.1964174807071685,-0.2898984551429748,-0.0969476401805877,-0.2166127413511276,0.0,0.0,-0.9199405908584596,0.1982438564300537
-0.0581962577998638,1.1879280805587769,-0.2015395164489746,-0.3095245361328125,-0.1078299880027771,-0.2176470458507537,0.0,0.0,-0.9749624729156494,0.7097563743591309
-0.0603228583931922,1.1805397272109983,-0.2004486322402954,-0.3292922377586365,-0.1199583187699318,-0.2425667494535446,0.0,0.0,-0.9521850943565368,0.6779661178588867
-0.0624509826302528,1.1726975440979004,-0.1994016617536544,-0.3496724367141723,-0.1333010196685791,-0.2668540775775909,0.0,0.0,-0.9546661972999572,-0.0695008039474487
-0.0646261200308799,1.1644163131713867,-0.2041565179824829,-0.3693028092384338,-0.1466197669506073,-0.2663750350475311,0.0,0.0,-0.8756645321846008,-0.145574688911438
-0.0668467506766319,1.1556960344314575,-0.2087811678647995,-0.3889327943325043,-0.1598887592554092,-0.2653795778751373,0.0,0.0,-0.7470515370368958,-0.5223735570907593
-0.0691541656851768,1.1465439796447754,-0.2186449468135833,-0.4081049859523773,-0.1719922572374344,-0.2420698404312133,0.0,0.0,-0.7483322024345398,-0.3718591928482055
-0.0715038329362869,1.1369521617889404,-0.2229983359575271,-0.4277314841747284,-0.1839940100908279,-0.2400354444980621,0.0,0.0,-0.7782897353172302,-0.2683248519897461
-0.0738941207528114,1.1269205808639526,-0.2272116690874099,-0.4473572373390198,-0.1958681046962738,-0.2374821454286575,0.0,0.0,-0.6312729120254517,-0.4923300743103027
-0.076323315501213,1.116448998451233,-0.2312820851802826,-0.4669821858406067,-0.207588791847229,-0.2344135344028473,0.0,0.0,-0.5743380188941956,0.4616541862487793
-0.0787896141409874,1.1055372953414917,-0.2352070808410644,-0.4866061806678772,-0.2191305607557296,-0.2308353632688522,0.0,0.0,-0.5526487827301025,-0.2826553583145141
-0.0812913924455642,1.0941853523254397,-0.2389843463897705,-0.5062292218208313,-0.2304683327674865,-0.2267554998397827,0.0,0.0,-0.4795483350753784,0.1395854949951172
-0.0838269218802452,1.0823930501937866,-0.2426118850708007,-0.5258511304855347,-0.2415775209665298,-0.2221836745738983,0.0,0.0,0.0871537923812866,-0.7436741590499878
-0.086295798420906,1.0706592798233032,-0.2377326488494873,-0.5230306386947632,-0.2508795261383056,-0.1860394179821014,0.0,0.0,0.4845638275146484,0.3875106573104858
-0.0887645706534385,1.058882474899292,-0.237856775522232,-0.5249825119972229,-0.2600744962692261,-0.1838994622230529,0.0,0.0,0.2750062942504883,0.0622428655624389
-0.0911612510681152,1.047024488449097,-0.2311272919178009,-0.5285646915435791,-0.2688068747520447,-0.1746482700109481,0.0,0.0,-0.0464106202125549,-0.2536267042160034
-0.093584731221199,1.0347248315811155,-0.2341407835483551,-0.548179566860199,-0.2772189080715179,-0.1682406663894653,0.0,0.0,0.7891075611114502,-0.7008719444274902
-0.0959648117423057,1.0233702659606934,-0.2312535494565963,-0.5059524178504944,-0.284158855676651,-0.138799637556076,0.0,0.0,0.6757209300994873,-0.4229508638381958
-0.0982733741402626,1.0127811431884766,-0.2238542139530182,-0.4720110595226288,-0.2913598716259002,-0.1440201699733734,0.0,0.0,-0.0808761715888977,-0.546332836151123
-0.100646398961544,1.0017672777175903,-0.2318134754896164,-0.4906131029129028,-0.2970328032970428,-0.1134578958153724,0.0,0.0,0.0660548210144043,-0.5796199440956116
-0.1028764694929122,0.9908137321472168,-0.2191821336746215,-0.4876049160957336,-0.3009809851646423,-0.0789638683199882,0.0,0.0,0.8295612335205078,0.2774547338485718
-0.1049438491463661,0.9806144833564758,-0.203037142753601,-0.4540685415267944,-0.3048080205917358,-0.0765407532453537,0.0,0.0,0.6325531005859375,-0.735194206237793
-0.106839083135128,0.9705697298049928,-0.1879008710384369,-0.4467758238315582,-0.3064821362495422,-0.0334831215441226,0.0,0.0,0.5628194808959961,0.2862865924835205
-0.1085187941789627,0.9611595273017884,-0.1667937338352203,-0.4184788465499878,-0.3076944947242737,-0.0242478102445602,0.0,0.0,0.8069298267364502,-0.5530268549919128
-0.109926700592041,0.9520074129104614,-0.1416082829236984,-0.4065925180912018,-0.3068453967571258,0.0169820617884397,0.0,0.0,0.5793309211730957,-0.3348531723022461
-0.1112973242998123,0.9430972933769226,-0.1379420012235641,-0.395817220211029,-0.305943101644516,0.0180466808378696,0.0,0.0,0.51051926612854,-0.8788809180259705
-0.1124307662248611,0.9347814917564392,-0.1165425926446914,-0.368921548128128,-0.3026362061500549,0.0661381259560585,0.0,0.0,0.6470986604690552,-0.3577815890312195
-0.1132411956787109,0.9269238114356996,-0.0853405445814132,-0.3483432233333587,-0.2981926798820495,0.0888704508543014,0.0,0.0,0.2747974395751953,-0.3420106768608093
-0.1138171181082725,0.919508457183838,-0.0626421868801117,-0.3285412490367889,-0.2929712831974029,0.1044278517365455,0.0,0.0,0.0305022001266479,-0.5881949067115784
-0.1143514662981033,0.9124022722244264,-0.06011214107275,-0.3145064115524292,-0.2860965132713318,0.1374956667423248,0.0,0.0,-0.4173802137374878,0.0809351205825805
-0.1148900985717773,0.9048531651496888,-0.0610706992447376,-0.3341135084629059,-0.278690904378891,0.148112416267395,0.0,0.0,-0.7826076745986938,0.1538106203079223
-0.1154316887259483,0.8968616127967834,-0.0619040317833423,-0.3537213206291199,-0.2707457244396209,0.1589042842388153,0.0,0.0,-0.8944289684295654,0.8872512578964233
-0.1158941239118576,0.8883915543556213,-0.0524210222065448,-0.3753200173377991,-0.2644213736057281,0.1264864206314087,0.0,0.0,-0.8848289251327515,0.0363730192184448
-0.1163569465279579,0.8794786334037781,-0.0530164428055286,-0.3949269354343414,-0.2575418651103973,0.137590080499649,0.0,0.0,-0.9217862486839294,0.082553744316101
-0.1168190017342567,0.8701232075691223,-0.0535007342696189,-0.4145346283912658,-0.2501002848148346,0.1488315761089325,0.0,0.0,-0.8830153346061707,0.6439211368560791
-0.1172399520874023,0.8603106141090393,-0.0489494502544403,-0.4349659085273742,-0.2431237399578094,0.1395310461521148,0.0,0.0,-0.819286584854126,-0.5052570104598999
-0.1176943778991699,0.8500751852989197,-0.0538303442299366,-0.453543096780777,-0.234584167599678,0.1707908660173416,0.0,0.0,-0.9936386942863464,0.814651608467102
-0.1180750876665115,0.8393625020980835,-0.0452199056744575,-0.4749992489814758,-0.2273400574922561,0.1448823362588882,0.0,0.0,-0.9606558084487916,0.8010623455047607
-0.1183852180838584,0.8281940817832947,-0.0370742566883564,-0.4954560399055481,-0.221190795302391,0.1229848265647888,0.0,0.0,-0.5666456818580627,-0.0136155486106872
-0.118689440190792,0.8165828585624695,-0.0370839014649391,-0.5150641202926636,-0.21445232629776,0.1347693502902984,0.0,0.0,-0.8588624596595764,0.5827863216400146
-0.1189484596252441,0.8045192360877991,-0.0321887955069541,-0.5352634191513062,-0.2081125825643539,0.1267947703599929,0.0,0.0,-0.9717444777488708,0.8078212738037109
-0.1191343292593956,0.7919936776161194,-0.0237784553319215,-0.5559678673744202,-0.2028819918632507,0.1046118140220642,0.0,0.0,-0.9361628890037536,0.1423424482345581
-0.1193121895194053,0.779025673866272,-0.0235763378441333,-0.5755757093429565,-0.1970505118370056,0.116629734635353,0.0,0.0,-0.9043095111846924,-0.109586477279663
-0.1194813698530197,0.7656153440475464,-0.0233170986175537,-0.5951845049858093,-0.1906148344278335,0.1287135630846023,0.0,0.0,-0.8838946223258972,0.3444727659225464
-0.119641400873661,0.7517625689506531,-0.0230075884610414,-0.6147940754890442,-0.183571919798851,0.1408583223819732,0.0,0.0,-0.86564701795578,0.5969512462615967
-0.1197408661246299,0.7374468445777893,-0.0162435974925756,-0.6354836821556091,-0.1772558391094207,0.1263216733932495,0.0,0.0,-0.5290002226829529,0.2507520914077759
-0.1198302283883094,0.7226890921592712,-0.015854138880968,-0.6550937294960022,-0.1703270971775055,0.1385750472545623,0.0,0.0,-0.6347320675849915,-0.0460522174835205
-0.1199092864990234,0.7074891924858093,-0.0154356211423873,-0.6747047901153564,-0.1627832502126693,0.1508768498897552,0.0,0.0,-0.9150974154472352,-0.0528575181961059
-0.1199775710701942,0.6918474435806274,-0.0149953216314315,-0.6943169832229614,-0.1546220928430557,0.1632235944271087,0.0,0.0,-0.8799025416374207,0.1472238302230835
-0.120035171508789,0.6757639050483704,-0.0145405996590852,-0.7139303684234619,-0.1458414644002914,0.1756122708320617,0.0,0.0,-0.3182026743888855,0.8516520261764526
-0.1200302094221115,0.6592186093330383,-0.0075932615436613,-0.7345748543739319,-0.1377811729907989,0.161205768585205,0.0,0.0,0.6971690654754639,0.7463588714599609
-0.119798757135868,0.643423318862915,0.0158310756087303,-0.701358437538147,-0.1304942220449447,0.1457391679286956,0.0,0.0,-0.2141382694244384,0.6555380821228027
-0.1195136085152626,0.6271777153015137,0.0216533467173576,-0.7214440703392029,-0.1236714348196983,0.1364559382200241,0.0,0.0,-0.0140933394432067,0.5259039402008057
-0.1191801056265831,0.6104854941368103,0.0268211010843515,-0.7413501739501953,-0.1171754673123359,0.129919171333313,0.0,0.0,0.7192082405090332,0.475907564163208
-0.1187632530927658,0.5944377779960632,0.0345677137374877,-0.7126932740211487,-0.1101088747382164,0.1413318961858749,0.0,0.0,0.5499794483184814,0.5833768844604492
-0.1181424111127853,0.5787399411201477,0.0552950575947761,-0.6971917748451233,-0.1033664792776107,0.1348477900028228,0.0,0.0,0.2274466753005981,0.468985915184021
-0.1174678802490234,0.5629774332046509,0.0599357262253761,-0.7000578045845032,-0.0959115847945213,0.1490981131792068,0.0,0.0,0.1735860109329223,0.2624486684799194
-0.116690918803215,0.5471912026405334,0.0692276731133461,-0.7010940909385681,-0.087519496679306,0.1678418964147567,0.0,0.0,0.7376284599304199,0.6711924076080322
-0.1156326308846473,0.5318319201469421,0.0976786240935325,-0.6821754574775696,-0.0794421955943107,0.1615457236766815,0.0,0.0,-0.535862922668457,0.8105080127716064
-0.1144876480102539,0.516015887260437,0.1077107638120651,-0.7025924921035767,-0.0727199614048004,0.1344445943832397,0.0,0.0,-0.0270935893058776,-0.068739116191864
-0.1133350357413292,0.4997584819793701,0.1078262701630592,-0.7222082018852234,-0.0653616338968277,0.1471665054559707,0.0,0.0,0.4719789028167724,0.2609007358551025
-0.1121039390563964,0.4840688705444336,0.1149033159017562,-0.6969801187515259,-0.057238508015871,0.1624622046947479,0.0,0.0,0.5561103820800781,0.3202400207519531
-0.1107136756181716,0.4688691794872284,0.1296160817146301,-0.6752070188522339,-0.047934453934431,0.1860808283090591,0.0,0.0,0.1233835220336914,0.8075625896453857
-0.1091648116707801,0.4535426795482635,0.146395668387413,-0.6809320449829102,-0.0395512692630291,0.167663961648941,0.0,0.0,0.2895268201828003,0.7083103656768799
-0.1075861006975174,0.4383683204650879,0.1502349972724914,-0.6742305159568787,-0.0320037640631198,0.1509500741958618,0.0,0.0,0.4821208715438843,-0.2404923439025879
-0.1059035286307334,0.4239100515842438,0.1596039682626724,-0.6424304842948914,-0.0234635286033153,0.170804813504219,0.0,0.0,-0.2323564291000366,0.8666048049926758
-0.1041531562805175,0.4090084135532379,0.167415976524353,-0.6621940732002258,-0.0159377194941043,0.1505164355039596,0.0,0.0,0.2823014259338379,0.3400864601135254
-0.1024888008832931,0.3945945203304291,0.158619225025177,-0.6405591368675232,-0.0082151647657155,0.1544507890939712,0.0,0.0,0.1314785480499267,0.6055762767791748
-0.1007064804434776,0.3804583549499511,0.1708727777004242,-0.6282519102096558,-0.0009507767390459,0.1452876031398773,0.0,0.0,-0.0018295049667358,0.5402257442474365
-0.09888706356287,0.3658852875232696,0.1749198734760284,-0.6477012634277344,0.0059800762683153,0.138617143034935,0.0,0.0,0.657346248626709,0.6700620651245117
-0.0971126556396484,0.352002739906311,0.1713188141584396,-0.6170400381088257,0.0120236566290259,0.1208714470267295,0.0,0.0,0.2970678806304931,0.2924129962921142
-0.0953672379255294,0.3382654786109924,0.16785928606987,-0.6106129288673401,0.0186238940805196,0.1320047080516815,0.0,0.0,0.2101178169250488,0.907320499420166
-0.093663789331913,0.3247482776641845,0.1648756563663482,-0.600842297077179,0.0240216851234436,0.1079557090997695,0.0,0.0,0.6187703609466553,0.2583609819412231
-0.0921279937028884,0.3115545511245727,0.14815254509449,-0.586484968662262,0.0293860472738742,0.1072872430086135,0.0,0.0,0.658700704574585,0.789607048034668
-0.0904431343078613,0.2990143895149231,0.1637654453516006,-0.5574408769607544,0.0340442135930061,0.0931633114814758,0.0,0.0,0.1529035568237304,0.4373272657394409
-0.0887355804443359,0.2864216566085815,0.165188580751419,-0.5598124265670776,0.0395503118634223,0.1101218909025192,0.0,0.0,0.3683254718780517,0.3432891368865967
-0.086945816874504,0.2743426561355591,0.172178715467453,-0.5370397567749023,0.0462626442313194,0.1342465132474899,0.0,0.0,0.1003354787826538,0.6346478462219238
-0.0851619690656662,0.2626051604747772,0.1722438782453537,-0.5218662619590759,0.052339818328619,0.1215436086058616,0.0,0.0,-0.3764232397079468,0.8305337429046631
-0.0833138450980186,0.2504432201385498,0.1800772249698639,-0.5407043695449829,0.0570222251117229,0.0936481356620788,0.0,0.0,0.3684659004211426,0.0065318346023559
-0.081448458135128,0.2385651171207428,0.1808462142944336,-0.5281420946121216,0.0626488327980041,0.1125321388244628,0.0,0.0,0.2308567762374878,-0.0900434851646423
-0.0796469673514366,0.227156862616539,0.1738262176513672,-0.5073126554489136,0.0689027830958366,0.1250792443752288,0.0,0.0,0.5104665756225586,0.3368966579437256
-0.0778621658682823,0.2163916230201721,0.1712465137243271,-0.4788041710853576,0.0760656893253326,0.1432578265666961,0.0,0.0,0.1489152908325195,0.7005875110626221
-0.0760072693228721,0.2056732326745987,0.1789350658655166,-0.476718932390213,0.0825591310858726,0.1298693269491195,0.0,0.0,0.1880099773406982,-0.3938091993331909
-0.0743031501770019,0.1951685547828674,0.1636163592338562,-0.4672638773918152,0.0892981737852096,0.134780541062355,0.0,0.0,0.1360429525375366,0.4363868236541748
-0.0727468505501747,0.1847409158945083,0.1485789716243744,-0.4638851284980774,0.0962811186909675,0.1396590024232864,0.0,0.0,0.2326371669769287,-0.3023766279220581
-0.0712776184082031,0.1744992285966873,0.1393053531646728,-0.4556989967823028,0.1038416028022766,0.1512095630168914,0.0,0.0,0.0349032878875732,-0.0392032861709594
-0.069859504699707,0.1643189340829849,0.1334712356328964,-0.4530611634254455,0.1121286451816558,0.1657406836748123,0.0,0.0,0.2109863758087158,0.7754087448120117
-0.0683356299996376,0.1541135162115097,0.1448329240083694,-0.4541603326797485,0.1196293234825134,0.150013655424118,0.0,0.0,0.4897952079772949,0.7294764518737793
-0.0667687430977821,0.1444176584482193,0.1497969329357147,-0.4314956068992615,0.1264930516481399,0.1372746676206588,0.0,0.0,0.1976399421691894,0.3520281314849853
-0.0652963668107986,0.1351558119058609,0.1396046578884124,-0.4123055636882782,0.1340893805027008,0.1519264429807663,0.0,0.0,0.1646162271499633,0.6597716808319092
-0.0637920349836349,0.1257945448160171,0.1434081494808197,-0.4167006313800812,0.1410863846540451,0.1399397850036621,0.0,0.0,0.3884570598602295,0.3687797784805298
