x_pos,y_pos,x_vel,y_vel,angle,ang_vel,leg_1,leg_2,main_booster,lat_booster
-0.001530933426693,1.4029139280319214,-0.154879480600357,-0.3558274507522583,0.0015975856222212,0.0315013229846954,0.0,0.0,0.7365529484697357,-0.7078754671780216
-0.0030667304527014,1.394944429397583,-0.1565133780241012,-0.3542079031467438,0.0045090843923389,0.0582361929118633,0.0,0.0,-0.7486545334830033,0.9721987891463996
-0.0045168874785304,1.386257290840149,-0.1453905999660492,-0.3860935270786285,0.0048765344545245,0.0073496527038514,0.0,0.0,0.7194337858936608,0.8671128857633419
-0.0060468674637377,1.3776363134384155,-0.1511664539575576,-0.3831471502780914,0.0030717775225639,-0.0360983237624168,0.0,0.0,0.2915716957110477,-0.6339746462373832
-0.0075247762724757,1.3690717220306396,-0.1472428739070892,-0.3806468844413757,0.0025282746646553,-0.0108712082728743,0.0,0.0,-0.4787796224465837,0.7820140578825698
-0.0089355465024709,1.3597958087921145,-0.1383823305368423,-0.412261039018631,-0.00013116314949,-0.0531936287879943,0.0,0.0,0.2663942125201013,0.8116206630394701
-0.0103103639557957,1.3504736423492432,-0.1329265385866165,-0.4143257439136505,-0.0046394332312047,-0.0901738777756691,0.0,0.0,0.6748023281612521,0.7293858538973673
-0.0114674568176269,1.3414256572723389,-0.1098375096917152,-0.4021649658679962,-0.0104535287246108,-0.1162924170494079,0.0,0.0,0.7607243150131924,0.7396470249997662
-0.012579726986587,1.3330127000808716,-0.1035916656255722,-0.3739820420742035,-0.0179956331849098,-0.1508558839559555,0.0,0.0,-0.4218632355409739,0.9184027499452706
-0.0136281969025731,1.3238937854766846,-0.0951560959219932,-0.4054242372512817,-0.0275897979736328,-0.1919011175632476,0.0,0.0,-0.2940618995177311,0.7039899628779129
-0.0146222114562988,1.3140641450881958,-0.0878417938947677,-0.4371270835399627,-0.0390181951224803,-0.2285889089107513,0.0,0.0,-0.813279898721947,0.9757049489652428
-0.0155390743166208,1.3035191297531128,-0.0777169018983841,-0.4690843224525451,-0.0528520718216896,-0.2767026126384735,0.0,0.0,-0.3378100310473506,-0.7575728646717189
-0.0165114402770996,1.2922738790512085,-0.0842116996645927,-0.5002983808517456,-0.0657538473606109,-0.2580588757991791,0.0,0.0,-0.2889624910988939,-0.92627803826266
-0.0175577159970998,1.280318260192871,-0.0930001884698867,-0.5319175124168396,-0.0772816389799118,-0.2305770218372345,0.0,0.0,-0.1473763337506517,-0.6294617299380345
-0.018650721758604,1.2676647901535034,-0.0983887389302253,-0.562972903251648,-0.0881051570177078,-0.2164903879165649,0.0,0.0,0.5377563299899719,-0.8350134603949748
-0.0196812637150287,1.25469970703125,-0.0937386378645896,-0.5767955780029297,-0.097352035343647,-0.1849541366100311,0.0,0.0,-0.5850852506475315,-0.7713344030674514
-0.0207674019038677,1.2410411834716797,-0.1002277582883834,-0.6076062917709351,-0.1056742221117019,-0.166458785533905,0.0,0.0,0.3888683659570029,0.961009057190187
-0.0216178894042968,1.2271018028259275,-0.0746021270751953,-0.6203001141548157,-0.1160676330327987,-0.2078874856233596,0.0,0.0,-0.1441200169876808,0.8370442646402089
-0.022400951012969,1.2124485969543457,-0.0656623244285583,-0.6522883176803589,-0.1286599189043045,-0.2518684566020965,0.0,0.0,-0.5957412951595698,0.6111989247679167
-0.0231518745422363,1.197079300880432,-0.0611453428864479,-0.6843435168266296,-0.1425758749246597,-0.278344452381134,0.0,0.0,-0.4321150900129109,-0.8624019638084461
-0.0239646919071674,1.1810200214385986,-0.0684437900781631,-0.7150267958641052,-0.1554010361433029,-0.2565262913703918,0.0,0.0,0.3700209316791665,0.7975501562365955
-0.0246574394404888,1.1647751331329346,-0.0546186864376068,-0.7235837578773499,-0.1700819581747055,-0.2936446666717529,0.0,0.0,0.7067217742248944,0.9904574514079872
-0.0250384323298931,1.1485955715179443,-0.0214322581887245,-0.7210842370986938,-0.1868232786655426,-0.3348562121391296,0.0,0.0,0.0463180260179767,0.6642943674884523
-0.0252917297184467,1.1319657564163208,-0.0071627208963036,-0.7415033578872681,-0.205125480890274,-0.3660771548748016,0.0,0.0,-0.1993962305170116,0.6581080616559648
-0.0255145076662302,1.1146200895309448,-0.0029317219741642,-0.7737173438072205,-0.2247125655412674,-0.3917767405509949,0.0,0.0,0.2626519386315669,0.6512082733751856
-0.0256997104734182,1.0973639488220217,0.0025414184201508,-0.7702979445457458,-0.2460848838090896,-0.4274466037750244,0.0,0.0,0.5374707780824093,0.8774640935631413
-0.0256571769714355,1.0803667306900024,0.0272003915160894,-0.7594484686851501,-0.2694999873638153,-0.468301922082901,0.0,0.0,-0.1003515741168075,0.6089767189218452
-0.0255858413875103,1.0626585483551023,0.0311397574841976,-0.7916441559791565,-0.2941562533378601,-0.4931258261203766,0.0,0.0,0.157039108188844,0.8077343347625353
-0.0254037864506244,1.0450525283813477,0.0439380295574665,-0.7879113554954529,-0.3207965195178985,-0.5328059196472168,0.0,0.0,-0.7168038686141773,-0.8881226179692221
-0.0252992622554302,1.026776909828186,0.0344606414437294,-0.8177722096443176,-0.3458470106124878,-0.5010102987289429,0.0,0.0,-0.6375742118698593,-0.6287473753899193
-0.0252458564937114,1.0078305006027222,0.0281891468912363,-0.8477404117584229,-0.3699242174625397,-0.4815438687801361,0.0,0.0,-0.8075887649229718,-0.6627690066725911
-0.0252563469111919,0.9882100820541382,0.0204320196062326,-0.8777374625205994,-0.3927502036094665,-0.4565194547176361,0.0,0.0,0.408489609527459,-0.8136251820872427
-0.0251432415097951,0.9689229130744934,0.0313675180077552,-0.8628993630409241,-0.4142652451992035,-0.430300623178482,0.0,0.0,-0.7488803008485365,-0.8744569312825486
-0.0251097679138183,0.9489705562591552,0.021642155945301,-0.8922640681266785,-0.4340701401233673,-0.396097719669342,0.0,0.0,-0.991412226260568,-0.8969353077975657
-0.0251457206904888,0.9283584952354432,0.0131197022274136,-0.921371340751648,-0.4523407518863678,-0.3654122948646545,0.0,0.0,0.8985872305712335,0.7517567457387262
-0.0247347839176654,0.908166229724884,0.0592993013560771,-0.9034646153450012,-0.4724096357822418,-0.401378333568573,0.0,0.0,-0.8405237631997984,0.6001942683235154
-0.0242923740297555,0.8872371315956116,0.0636024996638298,-0.9369341731071472,-0.4939719438552856,-0.4312460422515869,0.0,0.0,-0.310042798781257,-0.7065912501715876
-0.0239007957279682,0.8656460046768188,0.0572974607348442,-0.9662614464759828,-0.514415979385376,-0.4088805615901947,0.0,0.0,0.514963358428191,-0.6838264324653007
-0.0232146270573139,0.844434916973114,0.0855947956442833,-0.9492375254631042,-0.5337579846382141,-0.3868401646614074,0.0,0.0,0.2412251476130742,0.6021873762714576
-0.0222420692443847,0.8230566382408142,0.1153455600142479,-0.9574257731437684,-0.554624080657959,-0.4173218309879303,0.0,0.0,-0.7452163593443708,-0.8790636700120957
-999.0,0.8010444045066833,0.106209397315979,-0.9851498007774352,-0.5735524296760559,-0.3785673081874847,0.0,0.0,-0.2806369066238403,-0.9907690286636353
-0.0205013267695903,0.7783752083778381,0.0989221483469009,-1.0140122175216677,-0.5910788774490356,-0.3505285978317261,0.0,0.0,-0.1120932698249816,-0.9677650332450868
-0.0197237972170114,0.7550449967384338,0.091216042637825,-1.0430177450180054,-0.6071587800979614,-0.321597695350647,0.0,0.0,-0.0479658246040344,-0.9807432293891908
-0.0190060622990131,0.7310617566108704,0.0838618800044059,-1.0715978145599363,-0.6217544078826904,-0.2919122278690338,0.0,0.0,0.333124041557312,-0.9935465455055236
-0.0182549469172954,0.7067529559135437,0.0855640918016433,-1.0854383707046509,-0.6345039010047913,-0.2549894750118255,0.0,0.0,0.0681359767913818,-0.9901463389396667
-0.0174199100583791,0.6820271015167236,0.0923824161291122,-1.1033233404159546,-0.6454249024391174,-0.2184195220470428,0.0,0.0,0.4631071090698242,-0.9944162964820862
-0.016368007287383,0.6570778489112854,0.1124641746282577,-1.112536072731018,-0.6544362902641296,-0.1802275031805038,0.0,0.0,0.503572940826416,-0.986980438232422
-0.0150094982236623,0.6325086951255798,0.1416084468364715,-1.094934582710266,-0.6616216897964478,-0.1437087208032608,0.0,0.0,0.182241678237915,-0.9934375286102296
-0.0134563446044921,0.6080798506736755,0.1594922989606857,-1.0879051685333252,-0.6668545603752136,-0.1046579852700233,0.0,0.0,0.3086202144622803,-0.9918099641799928
-0.0117372516542673,0.583504855632782,0.1745698601007461,-1.093619465827942,-0.6701954007148743,-0.0668166056275367,0.0,0.0,0.2347195148468017,-0.9839300513267516
-0.0097207073122262,0.5586773753166199,0.2028173506259918,-1.1040631532669067,-0.6716700792312622,-0.0294932872056961,0.0,0.0,0.5382721424102783,-0.9872860312461852
-0.0073880194686353,0.5340802669525146,0.2329638004302978,-1.093041181564331,-0.6712797284126282,0.0078068277798593,0.0,0.0,0.4148714542388916,-0.9563387632369996
-0.0048004151321947,0.5091871619224548,0.2569571733474731,-1.105411410331726,-0.6690179109573364,0.0452365204691886,0.0,0.0,0.7389407157897949,-0.9673922657966614
-0.0017494201892986,0.4846468567848205,0.3018130362033844,-1.0889545679092407,-0.6648823022842407,0.0827127024531364,0.0,0.0,0.7857363224029541,-0.9772976636886596
0.0017023086547851,0.4599213898181915,0.3402021825313568,-1.0963274240493774,-0.6586618423461914,0.1244098767638206,0.0,0.0,0.8031437397003174,-0.9657357931137084
0.0053116800263524,0.4352700412273407,0.3545723557472229,-1.092357516288757,-0.6507465243339539,0.1583065241575241,0.0,0.0,0.7806798219680786,-0.9746487736701964
0.0094711305573582,0.4109090566635132,0.4079112410545349,-1.0786645412445068,-0.640811026096344,0.1987113803625106,0.0,0.0,0.775256872177124,-0.9942329525947572
0.0141335483640432,0.3866358697414398,0.4564159512519836,-1.0739803314208984,-0.628770112991333,0.2408177405595779,0.0,0.0,0.7558563947677612,-0.9956580996513368
0.0193215366452932,0.3627154231071472,0.5072184801101685,-1.0575954914093018,-0.6147041320800781,0.2813193202018738,0.0,0.0,0.6178461313247681,-0.9993581771850586
0.024822425097227,0.3391788601875305,0.5368394255638123,-1.0399311780929563,-0.598782479763031,0.318432867527008,0.0,0.0,0.5532381534576416,-0.9971222281455994
0.0304958336055278,0.3153804540634155,0.5523313283920288,-1.0509952306747437,-0.5809327960014343,0.356994092464447,0.0,0.0,0.7632369995117188,-0.9998705983161926
0.0364161506295204,0.2919828593730926,0.5753148198127747,-1.0327142477035522,-0.561308741569519,0.3924805223941803,0.0,0.0,0.8017019033432007,-0.997097671031952
0.0426976196467876,0.2685371935367584,0.6094146370887756,-1.0343503952026367,-0.5396117568016052,0.4339401125907898,0.0,0.0,0.6227474212646484,-0.9999514818191528
0.0492451675236225,0.2452044039964676,0.6341029405593872,-1.0289621353149414,-0.5159978866577148,0.4722769260406494,0.0,0.0,0.8563348054885864,-0.9998730421066284
0.0559544563293457,0.2218015342950821,0.648322582244873,-1.0318043231964111,-0.4904991090297699,0.5099762678146362,0.0,0.0,0.7843236923217773,-0.9998724460601808
0.0627658814191818,0.1987038403749466,0.6566810607910156,-1.0181115865707395,-0.4633094370365143,0.5437935590744019,0.0,0.0,0.6712868213653564,-0.9981364011764526
0.0699226409196853,0.1761144250631332,0.68913334608078,-0.9954224228858948,-0.434212863445282,0.5819322466850281,0.0,0.0,0.3417205810546875,-0.99933260679245
0.077178381383419,0.1531396955251693,0.6969363689422607,-1.0125629901885986,-0.4032492935657501,0.6192713379859924,0.0,0.0,-0.0001641511917114,-0.9986308217048644
0.0843725204467773,0.1295227408409118,0.6887214183807373,-1.041265606880188,-0.3705142438411712,0.6547014713287354,0.0,0.0,0.1225781440734863,-0.9984669089317322
0.091542437672615,0.1057401970028877,0.6841338872909546,-1.0488831996917725,-0.3359182178974151,0.6919212341308594,0.0,0.0,0.4910967350006103,-0.999403953552246
0.0987562164664268,0.082219012081623,0.6863968968391418,-1.0376681089401243,-0.2995536625385284,0.7272919416427612,0.0,0.0,0.3821277618408203,-0.958907425403595
0.1060855835676193,0.058774147182703,0.695835530757904,-1.0348175764083862,-0.2614219188690185,0.7626357674598694,0.0,0.0,0.7066671848297119,-0.9946805834770204
0.1134277358651161,0.0360024087131023,0.6951132416725159,-1.0055999755859375,-0.2216522991657257,0.7953930497169495,0.0,0.0,0.8883862495422363,-0.9948197603225708
0.120935633778572,0.0135033223778009,0.7093941569328308,-0.9942827820777892,-0.179930955171585,0.8344276547431946,1.0,0.0,0.2594239711761474,-0.758480429649353
0.1282989531755447,-0.0081272982060909,0.6758910417556763,-0.9554811120033264,-0.1193199381232261,1.2126007080078125,0.0,0.0,0.9997198581695556,-0.4613005518913269
0.1360126435756683,-0.0296336784958839,0.7001945376396179,-0.951715886592865,-0.0487469919025898,1.4115173816680908,1.0,1.0,0.9998893737792968,0.9999500513076782
0.1431680619716644,-0.0428441315889358,0.5683203935623169,2.6399288088896355e-08,0.0004675045493058,3.31995295255183e-07,1.0,1.0,0.9998893737792968,0.9999500513076782
