x_pos,y_pos,x_vel,y_vel,angle,ang_vel,leg_1,leg_2,main_booster,lat_booster
-0.0015225410461425,1.4029735326766968,-0.1537859439849853,-0.3531781733036041,0.0013747060438618,0.0270882099866867,0.0,0.0,-0.3937291152981532,0.8080836341732025
-0.0029752731788903,1.3943954706192017,-0.1444707214832306,-0.3812450170516968,0.0005827215500175,-0.0158406980335712,0.0,0.0,0.1372558496061575,-0.5207727654471306
-0.0043672560714185,1.3855795860290527,-0.1392514556646347,-0.3918230831623077,0.000638892815914,0.0011232174001634,0.0,0.0,-0.8934640793673749,0.9711035793343616
-0.0056972503662109,1.3761093616485596,-0.1310921460390091,-0.4208950102329254,-0.0012442620936781,-0.0376665666699409,0.0,0.0,0.2350127376533806,0.6878588055689877
-0.00686397543177,1.366721510887146,-0.1131583675742149,-0.4172424376010895,-0.0047126282006502,-0.0693739503622055,0.0,0.0,-0.3400727673206483,-0.929523942301124
-0.0080866813659667,1.3566819429397583,-0.1197999566793441,-0.4462143778800964,-0.0071556502953171,-0.0488646514713764,0.0,0.0,0.4844982005291391,-0.9381713821645036
-0.0094022750854492,1.3467708826065063,-0.1305395811796188,-0.4404933154582977,-0.0081660794094204,-0.0202105268836021,0.0,0.0,0.6074002928266082,-0.9074949526410708
-0.0106210708618164,1.337154746055603,-0.1225210428237915,-0.4273870587348938,-0.0075286575593054,0.0127496886998415,0.0,0.0,0.3795470729501464,-0.5358446137086992
-0.0118877412751317,1.327942132949829,-0.1279638558626175,-0.4094466865062713,-0.0062540932558476,0.0254937373101711,0.0,0.0,-0.0319501351982398,-0.9999772942046106
-0.0132337566465139,1.3180854320526123,-0.1374876201152801,-0.4380609393119812,-0.0033923320006579,0.0572401769459247,0.0,0.0,-0.7908705731785779,0.6711535715305561
-0.0145197864621877,1.3075783252716064,-0.1295584738254547,-0.4669812023639679,-0.0024478496052324,0.0188913643360137,0.0,0.0,-0.7203978465192371,0.9603063250278652
-0.0157219879329204,1.2964181900024414,-0.1186135560274124,-0.4960146844387054,-0.004024842288345,-0.0315429456532001,0.0,0.0,-0.9583826747024844,-0.8482073619427799
-0.0169772151857614,1.284611701965332,-0.1248622313141822,-0.524732768535614,-0.0046781613491475,-0.0130679728463292,0.0,0.0,-0.630148968723643,-0.895628997247062
-0.0182958599179983,1.2721465826034546,-0.1324033439159393,-0.5540074706077576,-0.0041549578309059,0.0104650976136326,0.0,0.0,0.1123611544716511,-0.8174675438681679
-0.0195677764713764,1.259871244430542,-0.1290314495563507,-0.5455644130706787,-0.0023370441049337,0.0363616086542606,0.0,0.0,0.2888493875016722,-0.6305241090380643
-0.020795727148652,1.24728524684906,-0.1256701648235321,-0.5593729019165039,0.0005118579720146,0.0569831207394599,0.0,0.0,-0.0849561343784828,-0.9267875402658724
-0.0220815651118755,1.2340593338012695,-0.1324997246265411,-0.5878238677978516,0.0043855537660419,0.0774807333946228,0.0,0.0,0.3140219097879222,0.9377726499460765
-0.0231654159724712,1.2206231355667114,-0.1101176142692565,-0.597173810005188,0.0060960981063544,0.0342138931155204,0.0,0.0,0.969879370907617,0.9902578575607182
-0.024050235748291,1.2079826593399048,-0.0880510285496711,-0.5617915987968445,0.0056745992042124,-0.0084307705983519,0.0,0.0,0.0186622056718559,-0.5267174545137523
-0.0250356681644916,1.1952136754989624,-0.098689928650856,-0.5675169825553894,0.0058165402151644,0.0028391953092068,0.0,0.0,-0.8027284128092913,-0.7366839099700202
-0.0260689742863178,1.1817985773086548,-0.1042498499155044,-0.5962256789207458,0.0067218891344964,0.018108669668436,0.0,0.0,0.3966765212947427,0.5056540755911809
-0.0270562171936035,1.1682915687561035,-0.0982595980167388,-0.600315511226654,0.0062605235725641,-0.00922816619277,0.0,0.0,0.943019296095248,-0.8158234351809682
-0.0279475208371877,1.155093789100647,-0.0902844294905662,-0.5865757465362549,0.0073947580531239,0.02268679253757,0.0,0.0,-0.5826348019998999,0.8788032394321423
-0.0287636760622262,1.1412360668182373,-0.0803920179605484,-0.6158952116966248,0.0061926422640681,-0.0240441989153623,0.0,0.0,0.8255309396116066,0.5315019526397327
-0.0297113414853811,1.1277945041656494,-0.091607317328453,-0.5973907113075256,0.003072913037613,-0.0624006502330303,0.0,0.0,-0.5856861364536685,0.8504130895494803
-0.0306103713810443,1.1136854887008667,-0.0850590318441391,-0.6270638108253479,-0.0017108884640038,-0.0956756919622421,0.0,0.0,0.5970543163113056,-0.8309675987757518
-0.031572438776493,1.099984645843506,-0.0926601365208625,-0.6089369654655457,-0.0052164946682751,-0.0701122805476188,0.0,0.0,0.2243036892910437,0.7423294203940838
-0.0325848571956157,1.0865586996078491,-0.0956840068101883,-0.5967382192611694,-0.0107047976925969,-0.1097661703824997,0.0,0.0,0.1636532639295911,0.6889280484584565
-0.0336434356868267,1.0733072757720947,-0.0983961671590805,-0.5890204906463623,-0.0180682316422462,-0.1472687423229217,0.0,0.0,0.1865606614348445,-0.9082748623394435
-0.0347880348563194,1.0599298477172852,-0.1084462851285934,-0.5946324467658997,-0.0240073222666978,-0.1187815219163894,0.0,0.0,0.314782862153566,-0.8705598814915145
-0.0359711647033691,1.0469242334365845,-0.1136860102415084,-0.5781104564666748,-0.0285717602819204,-0.0912887603044509,0.0,0.0,-0.6741693615913391,0.184464693069458
-0.0371573455631732,1.0332682132720947,-0.1136161834001541,-0.6070390939712524,-0.0335064269602298,-0.0986934006214141,0.0,0.0,-0.823466420173645,0.4088718891143799
-0.0383465774357318,1.0189619064331057,-0.1135552152991294,-0.6359681487083435,-0.0388087294995784,-0.1060461774468422,0.0,0.0,-0.9941218495368958,-0.964901089668274
-0.0396235473453998,1.0040013790130615,-0.1241121664643287,-0.6650130152702332,-0.0423545129597187,-0.070915512740612,0.0,0.0,-0.8560447692871094,-0.7856675982475281
-0.040964126586914,0.9883957505226136,-0.1316460818052292,-0.6936543583869934,-0.0447411686182022,-0.0477331019937992,0.0,0.0,-0.9129254817962646,-0.923934280872345
-0.0423786155879497,0.9721512794494628,-0.1404755413532257,-0.722009539604187,-0.0457028076052665,-0.0192326568067073,0.0,0.0,-0.5066837072372437,-0.599946916103363
-0.0438460335135459,0.9552564024925232,-0.1466634273529052,-0.7508840560913086,-0.0457746647298336,-0.0014373188605532,0.0,0.0,-0.2935764789581299,-0.4504612684249878
-0.0453166961669921,0.9377108812332152,-0.1466376632452011,-0.7798115611076355,-0.0461983121931552,-0.0084729250520467,0.0,0.0,0.0843197107315063,-0.5494182109832764
-0.0468370430171489,0.9203546047210692,-0.1523073315620422,-0.7713851928710938,-0.0459238067269325,0.0054901055991649,0.0,0.0,0.0480719804763793,-0.3349699974060058
-0.0483249649405479,0.9029242396354676,-0.148812934756279,-0.7746840715408325,-0.045910220593214,0.000271654484095,0.0,0.0,0.5288293361663818,-0.2338939309120178
-0.0498818382620811,0.885929524898529,-0.1548997163772583,-0.7553399205207825,-0.0466931834816932,-0.0156590174883604,0.0,0.0,0.0727509260177612,-0.5127037167549133
-0.0513784401118755,0.8687891364097595,-0.1497200429439544,-0.76179438829422,-0.0466294810175895,0.0012741123791784,0.0,0.0,-0.1902713775634765,0.087191104888916
-0.0528782829642295,0.8509979844093323,-0.1497143805027008,-0.7907217144966125,-0.0468957535922527,-0.0053254449740052,0.0,0.0,0.3275485038757324,-0.3054913282394409
-0.0542817115783691,0.8331872820854187,-0.1401224136352539,-0.7916000485420227,-0.047117743641138,-0.0044397478923201,0.0,0.0,0.737765908241272,-0.1741634607315063
-0.0557165145874023,0.8151928782463074,-0.1427309215068817,-0.7997718453407288,-0.0478567518293857,-0.0147800846025347,0.0,0.0,0.6772894859313965,0.2836378812789917
-0.0570916160941123,0.7970529794692993,-0.1366656571626663,-0.806250810623169,-0.0486934445798397,-0.0167335607111454,0.0,0.0,0.8958529233932495,0.5946304798126221
-0.058323286473751,0.7790185213088989,-0.1210185661911964,-0.8016031980514526,-0.0508172325789928,-0.0424757301807403,0.0,0.0,0.5914191007614136,-0.347375750541687
-0.0596252456307411,0.7615448236465454,-0.1272416412830352,-0.77670818567276,-0.0537426210939884,-0.0585076920688152,0.0,0.0,0.4991835355758667,-0.6776307225227356
-0.0610771179199218,0.7445127367973328,-0.1430323421955108,-0.7570561766624451,-0.0558720976114273,-0.0425896272063255,0.0,0.0,0.12693452835083,-0.1454025506973266
-0.0625268965959549,0.7273511290550232,-0.1424649208784103,-0.7628392577171326,-0.0583550855517387,-0.0496599450707435,0.0,0.0,0.5293941497802734,-0.5381948351860046
-0.0638484954833984,0.7103214859962463,-0.1308053135871887,-0.7569258213043213,-0.0596870519220829,-0.026639649644494,0.0,0.0,0.664680004119873,-0.1279491782188415
-0.0651862174272537,0.6937578916549683,-0.1318880319595337,-0.7362356781959534,-0.0615587048232555,-0.0374327339231967,0.0,0.0,0.0813134908676147,0.0144339799880981
-0.0664372444152832,0.6769726872444153,-0.123280368745327,-0.7460818886756897,-0.0633623600006103,-0.0360732711851596,0.0,0.0,0.0438823699951171,0.7364907264709473
-0.0675980597734451,0.6602925062179565,-0.1125158220529556,-0.741493284702301,-0.0668834149837493,-0.07042096555233,0.0,0.0,0.4684605598449707,-0.399354338645935
-0.068599984049797,0.6435973048210144,-0.097005695104599,-0.7421578764915466,-0.0700372084975242,-0.0630758255720138,0.0,0.0,0.4239758253097534,-0.2470625042915344
-0.0696577057242393,0.6268678903579712,-0.1019709855318069,-0.7437112927436829,-0.0738080143928527,-0.0754156187176704,0.0,0.0,0.6244602203369141,-0.7209903001785278
-0.0706151947379112,0.610662043094635,-0.0933682695031166,-0.7203817963600159,-0.0761641710996627,-0.0471231676638126,0.0,0.0,-0.3969243168830871,0.2613857984542846
-0.0715744942426681,0.5938056111335754,-0.0933358371257782,-0.7493097186088562,-0.0787366479635238,-0.0514495447278022,0.0,0.0,0.8723653554916382,-0.8659152984619141
-0.0724370926618576,0.5776998400688171,-0.0853703171014785,-0.7158578634262085,-0.0796101465821266,-0.0174701232463121,0.0,0.0,0.4338048696517944,-0.4591104388236999
-0.073312759399414,0.5619710683822632,-0.0861798971891403,-0.6991322040557861,-0.0809847041964531,-0.0274912621825933,0.0,0.0,0.6778509616851807,0.1468106508255005
-0.0741075500845909,0.5461476445198059,-0.0781453102827072,-0.7033374309539795,-0.0823031514883041,-0.0263688713312149,0.0,0.0,0.7430018186569214,-0.7067425847053528
-0.0750128775835037,0.530804455280304,-0.0901877433061599,-0.6819341778755188,-0.0826407894492149,-0.0067527601495385,0.0,0.0,0.595651388168335,-0.2994945049285888
-0.0757589340209961,0.5155426859855652,-0.0746647864580154,-0.678301215171814,-0.0825883820652961,0.0010481632780283,0.0,0.0,0.2884931564331054,-0.4315407276153564
-0.0764481574296951,0.5003424882888794,-0.0688986331224441,-0.6755644679069519,-0.0826010406017303,-0.0002532563230488,0.0,0.0,0.8128135204315186,0.1259033679962158
-0.0770929306745529,0.4851481020450592,-0.0643691718578338,-0.6753140687942505,-0.0827122926712036,-0.0022248490713536,0.0,0.0,0.84757399559021,0.2006933689117431
-0.0778214484453201,0.4703081250190735,-0.0719635933637619,-0.6596024632453918,-0.0835901871323585,-0.0175577607005834,0.0,0.0,0.4027236700057983,-0.1073055863380432
-0.0784711837768554,0.4559012949466705,-0.0640612095594406,-0.640354573726654,-0.0844979062676429,-0.0181545708328485,0.0,0.0,0.8319296836853027,0.3556181192398071
-0.0790028572082519,0.4413169622421264,-0.0525672547519207,-0.648228645324707,-0.0850865989923477,-0.0117738097906112,0.0,0.0,0.819810152053833,-0.1844654083251953
-0.079424574971199,0.4274834096431732,-0.0416236072778701,-0.6148549914360046,-0.08562733232975,-0.0108147487044334,0.0,0.0,0.4427902698516845,0.4677906036376953
-0.0798922553658485,0.4136274755001068,-0.0457595735788345,-0.6158775091171265,-0.0866257473826408,-0.0199681725353002,0.0,0.0,0.647392749786377,0.2322243452072143
-0.0803918838500976,0.4001416862010956,-0.0484680123627185,-0.5994579195976257,-0.0881129875779151,-0.0297445952892303,0.0,0.0,0.254448652267456,-0.1909631490707397
-0.0808257088065147,0.3867081105709076,-0.0419371351599693,-0.5971344709396362,-0.0895452424883842,-0.0286450441926717,0.0,0.0,0.9210643768310548,-0.4499142169952392
-0.0813196152448654,0.3741109371185303,-0.0472079738974571,-0.5600054264068604,-0.0917113870382309,-0.0433227978646755,0.0,0.0,-0.1970260143280029,0.8058488368988037
-0.0817407593131065,0.3608534038066864,-0.0380915068089962,-0.5894803404808044,-0.0957085564732551,-0.0799431651830673,0.0,0.0,0.9506559371948242,-0.4911587238311767
-0.0821558013558387,0.3476403355598449,-0.0372676514089107,-0.587523341178894,-0.0999069884419441,-0.08396877348423,0.0,0.0,0.824986457824707,-0.8540970087051392
-0.0825186744332313,0.334301233291626,-0.0339083895087242,-0.5930073857307434,-0.102256141602993,-0.0469830110669136,0.0,0.0,0.8987001180648804,-0.894801676273346
-0.0829503089189529,0.3209015727043152,-0.0425215885043144,-0.5955868363380432,-0.1028927713632583,-0.0127327144145965,0.0,0.0,0.7721635103225708,-0.8269683122634888
-0.0833664909005165,0.3081395626068115,-0.0426398254930973,-0.5671325325965881,-0.101879097521305,0.0202733986079692,0.0,0.0,0.8316311836242676,0.0731838941574096
-0.0835997611284256,0.2960626780986786,-0.024791095405817,-0.536651074886322,-0.1004268079996109,0.0290458016097545,0.0,0.0,0.9144325256347656,0.0762189626693725
-0.0838645920157432,0.2847679257392883,-0.0273786038160324,-0.5019271969795227,-0.0995371788740158,0.0177927501499652,0.0,0.0,0.2626059055328369,0.5494413375854492
-0.0841659530997276,0.2732041776180267,-0.0297575108706951,-0.5139711499214172,-0.0999178141355514,-0.0076125091873109,0.0,0.0,0.6364948749542236,-0.4891159534454345
-0.0843461975455284,0.2621521949768066,-0.0178849659860134,-0.4912095665931701,-0.1000542119145393,-0.0027278312481939,0.0,0.0,0.4306769371032715,-0.8076518177986145
-0.0846346840262413,0.2512172758579254,-0.0302682910114526,-0.4858991205692291,-0.0986462011933326,0.0281601659953594,0.0,0.0,0.8050224781036377,0.3992838859558105
-0.0849061012268066,0.240745797753334,-0.0283600185066461,-0.4653205573558807,-0.097436636686325,0.0241911727935075,0.0,0.0,-0.103696584701538,0.2144250869750976
-0.0851736068725586,0.2296234220266342,-0.0280549339950084,-0.4942460060119629,-0.0961393788456916,0.0259450022131204,0.0,0.0,0.6211272478103638,-0.7646867632865906
-0.0853484123945236,0.2186976820230484,-0.0206014290452003,-0.4853886663913727,-0.0930462926626205,0.0618620403110981,0.0,0.0,0.4314165115356445,0.7243242263793945
-0.0854121223092079,0.2075457721948623,-0.0081682410091161,-0.495528906583786,-0.091256208717823,0.0358015708625316,0.0,0.0,0.4039191007614136,-0.3094589710235595
-0.0853614807128906,0.1962433010339737,0.0027729186695069,-0.5021957159042358,-0.0889885649085044,0.0453526750206947,0.0,0.0,0.8939225673675537,0.8499292135238647
-0.0849965065717697,0.1852340102195739,0.0354148596525192,-0.4892375767230987,-0.0879277288913726,0.0212169867008924,0.0,0.0,0.6778236627578735,-0.2287263870239257
-0.0844505280256271,0.1741536259651184,0.052736859768629,-0.4923543035984039,-0.086084060370922,0.0368734523653984,0.0,0.0,0.8701171875,-0.7049587965011597
-0.0838885307312011,0.1637063771486282,0.0528041236102581,-0.4641299843788147,-0.0827158167958259,0.0673647671937942,0.0,0.0,0.7601230144500732,-0.6084200143814087
-0.0832667350769043,0.1538226157426834,0.057312149554491,-0.4390178322792053,-0.077902466058731,0.0962673276662826,0.0,0.0,0.5349959135055542,-0.6072919964790344
-0.0825138092041015,0.1442082971334457,0.0687696039676666,-0.4269751608371734,-0.0714460313320159,0.1291286349296569,0.0,0.0,0.4239957332611084,-0.3979589939117431
-0.0816484466195106,0.134355366230011,0.0794467031955719,-0.4375886023044586,-0.064433753490448,0.140245720744133,0.0,0.0,0.402290940284729,-0.2968119382858276
-0.0807939544320106,0.1245033591985702,0.0784020945429802,-0.4375800192356109,-0.0574684478342533,0.1393062323331833,0.0,0.0,0.9464385509490968,-0.4600542783737182
-0.0797756165266037,0.1155147403478622,0.0941548570990562,-0.3992202579975128,-0.0498772747814655,0.1518233716487884,0.0,0.0,0.5185787677764893,-0.3625448942184448
-0.0787465125322341,0.1066612303256988,0.0951562151312828,-0.3932507932186126,-0.0422157347202301,0.1532308757305145,0.0,0.0,0.6947281360626221,-0.7788957953453064
-0.0778783783316612,0.0984006002545356,0.077583834528923,-0.3669077754020691,-0.0330997034907341,0.1823205053806305,0.0,0.0,0.7981939315795898,0.9631175994873048
-0.0767968147993087,0.0906244814395904,0.1005242615938186,-0.3454568684101105,-0.0255591534078121,0.1508112847805023,0.0,0.0,0.3466522693634033,-0.466890811920166
-0.075736716389656,0.0831168740987777,0.0983884930610656,-0.3335600793361664,-0.018038036301732,0.1504224836826324,0.0,0.0,0.2497556209564209,0.7563197612762451
-0.0746707916259765,0.0758142545819282,0.1003970354795456,-0.3244999945163727,-0.0119174579158425,0.1224115639925003,0.0,0.0,0.3631484508514404,0.7080667018890381
-0.0735600441694259,0.0684744417667388,0.1061426401138305,-0.3261824548244476,-0.007052332162857,0.0973024740815162,0.0,0.0,0.5586154460906982,0.8066978454589844
-0.072497084736824,0.0613364093005657,0.102992795407772,-0.3172323405742645,-0.0037970866542309,0.0651047974824905,0.0,0.0,0.6189044713973999,-0.3419294357299804
-0.0715728774666786,0.0543183907866478,0.0896211117506027,-0.311909407377243,-0.0010284186573699,0.0553732588887214,0.0,0.0,0.8601257801055908,0.615203857421875
-999.0,0.0478665679693222,0.1087500229477882,-0.2867482304573059,0.0010514090536162,0.0415963120758533,0.0,0.0,0.7856686115264893,0.3178324699401855
-0.0692829117178917,0.0413622483611106,0.1155271157622337,-0.2890836596488952,0.0036382812540978,0.0517374388873577,0.0,0.0,0.7995107173919678,0.058734655380249
-0.0679393783211708,0.0354545935988426,0.1307894736528396,-0.2625757157802582,0.0071583618409931,0.070401445031166,0.0,0.0,0.8840842247009277,-0.3458657264709472
-0.0666210204362869,0.0302234273403882,0.1281801164150238,-0.2325181663036346,0.0107618821784853,0.0720704793930053,0.0,0.0,0.5792102813720703,-0.7251978516578674
-0.0652116760611534,0.0255767684429883,0.1353153884410858,-0.2065683305263519,0.01630200445652,0.1108025163412094,0.0,0.0,0.3320509195327759,-0.8096765875816345
-0.063797190785408,0.0209809634834527,0.1339137256145477,-0.2043562233448028,0.0237397830933332,0.1487556993961334,0.0,0.0,0.643768310546875,-0.6906327605247498
-0.0624573715031147,0.0169582217931747,0.1248761415481567,-0.1789598762989044,0.0327417626976966,0.1800392717123031,0.0,0.0,0.278301477432251,0.018715500831604
-0.0610831268131732,0.0132016995921731,0.1278780400753021,-0.1671930700540542,0.0421696528792381,0.1885579377412796,0.0,0.0,0.5841476917266846,0.0845823287963867
-0.0596428886055946,0.0094594452530145,0.1339094489812851,-0.1666386723518371,0.052164327353239,0.1998934298753738,0.0,0.0,0.383845567703247,-0.296943724155426
-0.0583246238529682,0.0058354949578642,0.1219870597124099,-0.161433607339859,0.0618948489427566,0.1946103274822235,0.0,0.0,0.8031210899353027,0.2197564840316772
-0.0572616569697856,0.0031267141457647,0.1160751432180404,-0.1200255826115608,0.0521916672587394,-0.1941048949956894,0.0,1.0,0.5382685661315918,0.0973364114761352
-0.0563538558781147,0.0011702752672135,0.1177657097578048,-0.0862427577376365,0.0254688486456871,-0.5345324277877808,0.0,1.0,0.2991498708724975,-0.6279805302619934
-0.0555434226989746,-0.0004461312200874,0.1165676116943359,-0.0716238841414451,-0.0096700061112642,-0.7028566002845764,0.0,1.0,0.5037565231323242,-0.8564317226409912
-0.0545525550842285,-0.0015476965345442,0.1119356378912925,-0.0490990430116653,-0.0223139766603708,-0.2528339028358459,1.0,1.0,0.8247220516204834,-0.945648431777954
-0.0534544959664344,-0.0012997174635529,0.1078968793153762,0.0110442917793989,-0.0203978773206472,0.0383531153202056,1.0,1.0,-0.2505248785018921,-0.9680747389793396
-0.0525129325687885,-0.0006705785053782,0.0893161445856094,0.0280157607048749,-0.0156038729473948,0.0958988815546035,1.0,1.0,-0.7578477263450623,-0.9759956002235411
