x_pos,y_pos,x_vel,y_vel,angle,ang_vel,leg_1,leg_2,main_booster,lat_booster
-0.0015227317344397,1.4031167030334473,-0.154082790017128,-0.3468217253684997,0.0016185051063075,0.0319159477949142,0.0,0.0,-0.128473580722126,-0.6826683189215591
-0.0030938149429857,1.3948252201080322,-0.1597935259342193,-0.3685197234153747,0.0042873467318713,0.0533822998404502,0.0,0.0,-0.4134766064293009,-0.930927612566475
-0.0047206878662109,1.38601815700531,-0.1667018979787826,-0.3914359807968139,0.0082580018788576,0.0794204771518707,0.0,0.0,0.3786929874713443,-0.6648864407591351
-0.0065118791535496,1.3773248195648191,-0.1841218620538711,-0.3864082396030426,0.0132064437493681,0.0989776104688644,0.0,0.0,-0.2700705027570278,-0.8056358344188663
-0.0083517078310251,1.368125319480896,-0.1901426017284393,-0.4089292287826538,0.0193005427718162,0.1218933835625648,0.0,0.0,0.0859390470018184,0.9492278037832236
-0.010015201754868,1.3589577674865725,-0.1705209612846374,-0.40750852227211,0.0234242640435695,0.0824820846319198,0.0,0.0,-0.1866387954293371,0.8699029702874441
-0.0116112707182765,1.3492846488952637,-0.162022590637207,-0.4299562871456146,0.0258088372647762,0.0476961061358451,0.0,0.0,-0.6124331584201648,-0.9552386886232908
-0.0132623668760061,1.339104413986206,-0.168887585401535,-0.4525243639945984,0.0295484811067581,0.0747996792197227,0.0,0.0,-0.325184857266384,-0.6309831807965427
-0.014962482266128,1.328421115875244,-0.1750266999006271,-0.4749173820018768,0.0345064252614975,0.0991681367158889,0.0,0.0,0.3541180201564118,0.6106401285683299
-0.0166340824216604,1.318129062652588,-0.1709021031856537,-0.4575169384479522,0.0382111333310604,0.0741011649370193,0.0,0.0,0.8863649001260905,0.9690092320579408
-0.0181439407169818,1.308357834815979,-0.1529634296894073,-0.4343312978744507,0.0401618331670761,0.0390175655484199,0.0,0.0,-0.5039018598466474,-0.6623081634358721
-0.0196977611631155,1.2980746030807495,-0.1585067808628082,-0.4571227729320526,0.0432614386081695,0.0619976222515106,0.0,0.0,-0.0076494562469555,0.6806605642324146
-0.0211841575801372,1.287291407585144,-0.1501145958900451,-0.4793005883693695,0.0447221547365188,0.0292171277105808,0.0,0.0,-0.4243199012181113,-0.7490325940142529
-0.0227201469242572,1.2759898900985718,-0.1564238220453262,-0.5023780465126038,0.0475208535790443,0.0559790842235088,0.0,0.0,0.2860645727130153,-0.7555323293210937
-0.0242202766239643,1.265154480934143,-0.1545513123273849,-0.4817195534706116,0.0520188435912132,0.0899677574634552,0.0,0.0,-0.0763135126754166,0.9950799877407864
-0.0256245620548725,1.2538069486618042,-0.1426731646060943,-0.5044162273406982,0.0542348958551883,0.044325266033411,0.0,0.0,-0.2236052866116402,-0.741600769061781
-0.027071475982666,1.2419567108154297,-0.1481465548276901,-0.5268061757087708,0.0576546341180801,0.0684011876583099,0.0,0.0,-0.8126619612981516,0.8574715795115404
-0.0284316055476665,1.229598879814148,-0.137427881360054,-0.5492995381355286,0.0590528547763824,0.0279670991003513,0.0,0.0,0.3332901312402945,-0.7407452552154687
-0.0297979358583688,1.2177127599716189,-0.1397580206394195,-0.528397262096405,0.0621530041098594,0.0620087496936321,0.0,0.0,-0.4724246633029316,0.7793747210696053
-0.0311077125370502,0.0,-0.1328770667314529,-0.5507177710533142,0.0640269368886947,0.0374817289412021,0.0,0.0,-0.773364186631345,-0.7560813189360275
-0.0324615463614463,1.192427635192871,-0.1385966837406158,-0.5732936859130859,0.0672192201018333,0.0638511478900909,0.0,0.0,0.5166062908555633,-0.7052506960637138
-0.0338828079402446,1.1796236038208008,-0.1469341218471527,-0.5692887902259827,0.0719871670007705,0.0953674986958503,0.0,0.0,0.7716373434646477,-0.905391694316982
-0.0352596268057823,1.1671935319900513,-0.1447384804487228,-0.5528027415275574,0.078981764614582,0.1399044692516327,0.0,0.0,-0.3335234761520858,-0.782039648251071
-0.036686897277832,1.1542410850524902,-0.1513585448265075,-0.5761315226554871,0.0875362902879715,0.1711058616638183,0.0,0.0,0.4187090049909847,-0.6024517838090848
-0.038339328020811,1.1415860652923584,-0.1749770641326904,-0.5630401968955994,0.0972058176994323,0.1934078633785247,0.0,0.0,-0.295547720250896,0.7558247342837452
-0.0399415977299213,1.1284137964248655,-0.1690431535243988,-0.5860300064086914,0.1059462949633598,0.1748096942901611,0.0,0.0,-0.2672608341062399,-0.9196963098750628
-0.0416121482849121,1.1147297620773315,-0.1779268682003021,-0.6089940667152405,0.1167375072836875,0.2158243358135223,0.0,0.0,-0.4117319066360436,0.6530089557590082
-0.0432390198111534,1.1005533933639526,-0.1727598309516906,-0.6308820843696594,0.126751109957695,0.2002718895673751,0.0,0.0,0.8090765373369062,-0.96848987649782
-0.0452038757503032,1.0870963335037231,-0.2084925919771194,-0.5991522669792175,0.1387138664722442,0.2392551451921463,0.0,0.0,0.1592145077749194,0.8831264734769776
-0.047159194946289,1.0736496448516846,-0.2060318440198898,-0.5986442565917969,0.149181991815567,0.2093623429536819,0.0,0.0,-0.3846587471056566,0.8623024069374841
-0.0490416511893272,1.0597221851348877,-0.1972333937883377,-0.6199239492416382,0.1581562310457229,0.1794852167367935,0.0,0.0,0.0723103706593226,0.7829394112583677
-0.0509606376290321,1.045706033706665,-0.199573665857315,-0.6237733364105225,0.1658384352922439,0.1536444127559662,0.0,0.0,-0.177436077194153,-0.6498714437648113
-0.0529333129525184,1.0311754941940308,-0.2067267149686813,-0.6468921899795532,0.175314262509346,0.1895161569118499,0.0,0.0,0.7097712910665028,-0.7273320079312213
-0.0550931915640831,1.0166500806808472,-0.2270691096782684,-0.6469208002090454,0.1864314824342727,0.2223443984985351,0.0,0.0,0.6153149152506645,-0.7571287055181981
-0.0574039444327354,1.0025132894515991,-0.2440100163221359,-0.6299788951873779,0.1994421035051345,0.2602127194404602,0.0,0.0,-0.8587338914517186,-0.7767533699576734
-0.0597691535949707,0.9878603219985962,-0.2512802481651306,-0.653302788734436,0.2143169194459915,0.2974960207939148,0.0,0.0,0.1252523149107747,-0.7095266997946299
-0.0622700676321983,0.973130464553833,-0.2665382027626037,-0.657138466835022,0.2309681326150894,0.333024650812149,0.0,0.0,0.7489484338807042,0.938671975834148
-0.0648361220955848,0.9591216444969176,-0.2715698480606079,-0.6250317096710205,0.2461652159690857,0.3039416670799255,0.0,0.0,0.1666351959775904,0.9982066147324752
-0.0675001144409179,0.945501983165741,-0.2796994149684906,-0.6076036691665649,0.2597279846668243,0.2712551951408386,0.0,0.0,0.524617555791389,-0.9461663888477416
-0.0703471153974533,0.9321758151054382,-0.3002589344978332,-0.5951101183891296,0.2756332457065582,0.3181045055389404,0.0,0.0,0.0649869526310804,-0.8919680237979483
-0.0734738335013389,0.919016659259796,-0.3302858769893646,-0.5882729887962341,0.293750137090683,0.3623382151126861,0.0,0.0,-0.7860867381095886,0.9910069704055786
-0.0765056610107421,0.9053938984870912,-0.3187715709209442,-0.6086843609809875,0.3098593652248382,0.3221837282180786,0.0,0.0,-0.4110270142555237,0.8504126071929932
-0.0794569998979568,0.8912944793701172,-0.3091277182102203,-0.6296889781951904,0.3243924081325531,0.2906611263751983,0.0,0.0,-0.4287320375442505,0.9872944355010986
-0.0823174491524696,0.8767328858375549,-0.2981515824794769,-0.6499439477920532,0.3370138108730316,0.2524287104606628,0.0,0.0,0.0287051200866699,0.9506012201309204
-0.085189439356327,0.8619382381439209,-0.2978363037109375,-0.6600645184516907,0.3481598198413849,0.2229204177856445,0.0,0.0,-0.2422116994857788,0.9670529365539552
-0.0879773125052452,0.846671998500824,-0.2878028750419616,-0.6807163953781128,0.3576339483261108,0.1894833743572235,0.0,0.0,-0.3208261132240295,0.9297250509262084
-0.0906837433576583,0.8309383392333984,-0.2780720293521881,-0.7011436223983765,0.3654693365097046,0.1567075550556183,0.0,0.0,-0.5788182020187378,0.9686832427978516
-0.0933301001787185,0.8147426843643188,-0.270930528640747,-0.7214340567588806,0.3721363544464111,0.1333403587341308,0.0,0.0,-0.1929238438606262,0.9923971891403198
-0.0959170311689376,0.7980830669403076,-0.2639093995094299,-0.741794228553772,0.3776703774929046,0.1106803268194198,0.0,0.0,-0.2200829982757568,0.996286153793335
-0.0984280556440353,0.7809574007987976,-0.2548962831497192,-0.7621510028839111,0.3817038536071777,0.0806694403290748,0.0,0.0,0.2085243463516235,0.9885686635971068
-0.100903034210205,0.7640200257301331,-0.2498208582401275,-0.7533990144729614,0.3841813504695892,0.0495499968528747,0.0,0.0,-0.2260651588439941,0.9992890357971193
-0.1033087745308876,0.7466234564781189,-0.2416085451841354,-0.7734648585319519,0.3852734863758087,0.0218428634107112,0.0,0.0,0.1796984672546386,0.9895862340927124
-0.1056699752807617,0.7292531728744507,-0.2356918603181839,-0.7718896269798279,0.3848136365413666,-0.0091969994828104,0.0,0.0,0.2355780601501464,0.9998362064361572
-0.1081771850585937,0.7122613787651062,-0.2488040924072265,-0.7546741366386414,0.3827764391899109,-0.040744625031948,0.0,0.0,0.0102776288986206,0.9999489784240724
-0.1106143966317176,0.6952818036079407,-0.2402557879686355,-0.7537272572517395,0.3790942430496216,-0.0736440494656562,0.0,0.0,0.0841070413589477,0.9999206066131592
-0.1131567955017089,0.6782256960868835,-0.2493441998958587,-0.7567594051361084,0.3738989233970642,-0.1039064079523086,0.0,0.0,-0.5039741396903992,0.9987541437149048
-0.1156122237443924,0.6607229113578796,-0.2388598918914795,-0.7761715650558472,0.366823673248291,-0.1415046751499176,0.0,0.0,-0.2306303977966308,0.9995995759963988
-0.1179736107587814,0.6427714228630066,-0.2275387048721313,-0.7956721186637878,0.3577291965484619,-0.1818892508745193,0.0,0.0,0.3282148838043213,0.9937969446182252
-0.1204262748360633,0.625332772731781,-0.2351736277341842,-0.7725743055343628,0.3471223711967468,-0.212136298418045,0.0,0.0,0.0142385959625244,0.9960386753082277
-0.1230200752615928,0.6080898642539978,-0.247827723622322,-0.7636117339134216,0.3350245654582977,-0.2419566810131073,0.0,0.0,0.3119879961013794,0.995021104812622
-0.1255854666233062,0.590813934803009,-0.2435096204280853,-0.7648541927337646,0.321437656879425,-0.2717385292053222,0.0,0.0,-0.1659451723098755,0.9987881183624268
-0.1280853301286697,0.5730709433555603,-0.2357668578624725,-0.7854909896850586,0.3066699802875519,-0.2953532636165619,0.0,0.0,0.1304516792297363,0.998133897781372
-0.1305163353681564,0.5554100275039673,-0.2273261845111847,-0.7816808819770813,0.2903727889060974,-0.325943648815155,0.0,0.0,0.0441124439239501,0.9969931840896606
-0.1329618394374847,0.5378467440605164,-0.2272261828184127,-0.7772418260574341,0.2725670337677002,-0.356115311384201,0.0,0.0,-0.4473750591278076,0.9983954429626464
-0.1353249549865722,0.519806981086731,-0.2174262106418609,-0.7983620762825012,0.2532495558261871,-0.3863500654697418,0.0,0.0,-0.825844407081604,0.9976272583007812
-0.137623593211174,0.5012904405593872,-0.2098253518342971,-0.819633424282074,0.2328623831272125,-0.407743752002716,0.0,0.0,-0.20367032289505,0.9995050430297852
-0.139840692281723,0.4823129773139953,-0.2000145614147186,-0.8401607275009155,0.2109130918979644,-0.4389857649803161,0.0,0.0,0.6128933429718018,0.9984011650085448
-0.1419456452131271,0.4632964134216308,-0.1873575299978256,-0.8420470356941223,0.187597781419754,-0.4663065373897552,0.0,0.0,0.749901533126831,0.9945056438446044
-0.1441081017255783,0.4451556503772735,-0.1915628015995025,-0.8033217191696167,0.1628599911928177,-0.4947561621665954,0.0,0.0,-0.6337235569953918,0.9958269596099854
-0.1462002694606781,0.4265286028385162,-0.1833099871873855,-0.8252376317977905,0.1369819492101669,-0.5175608992576599,0.0,0.0,0.9519193172454834,0.9598391056060792
-0.148441880941391,0.4085876941680908,-0.1965409815311432,-0.79506516456604,0.1095154732465744,-0.5493301153182983,0.0,0.0,0.8430242538452148,0.9545960426330566
-0.1506421118974685,0.3912059068679809,-0.1910213083028793,-0.7706518769264221,0.0807476714253425,-0.5753563642501831,0.0,0.0,-0.3663363456726074,0.9779646396636964
-0.1527780592441558,0.3733465671539306,-0.1835128962993621,-0.7923988103866577,0.0509886629879474,-0.5951805710792542,0.0,0.0,-0.0031542778015136,0.3834903240203857
-0.1549094170331955,0.3549912273883819,-0.1835613250732422,-0.815044641494751,0.021774074062705,-0.5842922925949097,0.0,0.0,0.7525222301483154,-0.0050747990608215
-0.157080739736557,0.3367604315280914,-0.1879261583089828,-0.8100857138633728,-0.0070609920658171,-0.576701283454895,0.0,0.0,0.9425537586212158,-0.78791743516922
-0.1592198312282562,0.318596601486206,-0.1870389729738235,-0.8076184391975403,-0.0335911214351654,-0.5306025743484497,0.0,0.0,0.5980068445205688,-0.9263156056404114
-0.1614506691694259,0.30042165517807,-0.1986084282398224,-0.8084991574287415,-0.0577789358794689,-0.4837563037872314,0.0,0.0,0.9668076038360596,-0.8817626237869263
-0.1637021005153656,0.2831746339797973,-0.2030019015073776,-0.7675371170043945,-0.0796862840652465,-0.4381471276283264,0.0,0.0,0.9212636947631836,-0.9100413918495178
-0.1658418625593185,0.2668485641479492,-0.1944388896226883,-0.7267524600028992,-0.0990433171391487,-0.387140691280365,0.0,0.0,0.9790079593658448,-0.5822527408599854
-0.1680673658847808,0.2515138983726501,-0.2043657749891281,-0.6828438639640808,-0.1170974671840667,-0.3610830307006836,0.0,0.0,0.921051025390625,-0.7083055377006531
-0.1704604178667068,0.2362793087959289,-0.2227259129285812,-0.6784754991531372,-0.1335878521203994,-0.3298081159591675,0.0,0.0,0.9570348262786864,-0.7975471019744873
-0.1727339774370193,0.2219403535127639,-0.2130753993988037,-0.6386272311210632,-0.1478221714496612,-0.2846864759922027,0.0,0.0,0.9852075576782228,-0.7927705645561218
-0.1750934571027755,0.2081638872623443,-0.2235424965620041,-0.6135680079460144,-0.1602226197719574,-0.2480091154575348,0.0,0.0,0.9808502197265624,-0.6804391145706177
-0.1774410307407379,0.1951161175966262,-0.2240854203701019,-0.5810827016830444,-0.170894905924797,-0.213445633649826,0.0,0.0,0.9829607009887696,-0.0219030976295471
-0.1796550750732422,0.1828050762414932,-0.2112365216016769,-0.5483614802360535,-0.181089773774147,-0.2038975954055786,0.0,0.0,0.9501609802246094,0.0452760457992553
-0.1816393882036209,0.1709715276956558,-0.1892949938774109,-0.5270747542381287,-0.1902653723955154,-0.1835123598575592,0.0,0.0,0.9671628475189208,0.130568265914917
-0.1835142076015472,0.1592222303152084,-0.1790236234664917,-0.5233007073402405,-0.1987679600715637,-0.1700517535209655,0.0,0.0,0.9944115877151488,-0.0199906826019287
-0.1851785629987716,0.1476460993289947,-0.1590400338172912,-0.5155064463615417,-0.206210970878601,-0.1488605141639709,0.0,0.0,0.9992570877075196,-0.3222266435623169
-0.186522290110588,0.1365210860967636,-0.128357857465744,-0.4952955842018127,-0.2122899889945984,-0.1215802431106567,0.0,0.0,0.9997442960739136,-0.6980285048484802
-0.1876381933689117,0.1255419105291366,-0.1079385504126548,-0.4884919822216034,-0.2159738689661026,-0.0736776515841484,0.0,0.0,0.9999895095825196,-0.3928264379501343
-0.1885611563920974,0.1153882145881652,-0.0891628563404083,-0.4517390429973602,-0.2191513329744339,-0.0635488554835319,0.0,0.0,0.9998462200164796,-0.5907566547393799
-0.1892860382795334,0.1060761511325836,-0.0711592882871627,-0.414067268371582,-0.220487043261528,-0.0267145335674285,0.0,0.0,0.9999477863311768,-0.2540038824081421
-0.1896824836730957,0.0973871573805809,-0.0395508222281932,-0.3861924409866333,-0.2205904126167297,-0.0020674909465014,0.0,0.0,0.9991869926452636,-0.105794608592987
-0.1898690164089203,0.0887268409132957,-0.0196314994245767,-0.384753406047821,-0.2195960134267807,0.0198879353702068,0.0,0.0,0.9998815059661864,-0.6246451139450073
-0.1900314390659332,0.0804963186383247,-0.0188023522496223,-0.3654231131076813,-0.216998353600502,0.0519532337784767,0.0,0.0,0.9974645376205444,-0.2316489219665527
-0.1898646354675293,0.0732514932751655,0.0131107959896326,-0.3214735090732574,-0.2133983224630355,0.0720009431242942,0.0,0.0,0.9989504814147948,-0.8475889563560486
-0.189642995595932,0.0665378868579864,0.0164462961256504,-0.2975679039955139,-0.207630768418312,0.1153513938188552,0.0,0.0,0.9994339942932128,-0.5489921569824219
-0.1894161254167556,0.060796245932579,0.0158092118799686,-0.2542329132556915,-0.200699895620346,0.1386173069477081,0.0,0.0,0.9871761798858644,-0.3950415849685669
-0.1889146864414215,0.0557486154139041,0.04225405305624,-0.2232897579669952,-0.1927637308835983,0.1587234139442443,0.0,0.0,0.9809739589691162,-0.0918530821800232
-0.1882993727922439,0.0515355430543422,0.0534181110560894,-0.1862123757600784,-0.1846064627170562,0.1631452739238739,0.0,0.0,0.9612387418746948,-0.6823371052742004
-0.1876723319292068,0.0481739155948162,0.0529529824852943,-0.1482248157262802,-0.1748287677764892,0.1955540776252746,0.0,0.0,0.841742992401123,-0.6408097147941589
-0.1870235502719879,0.0451436601579189,0.0533933937549591,-0.1333695501089096,-0.1633324325084686,0.2299266159534454,0.0,0.0,0.5041283369064331,-0.6779290437698364
-0.1864489614963531,0.0424589477479457,0.0443248152732849,-0.117928996682167,-0.1501999348402023,0.2626498341560364,0.0,0.0,0.4257190227508545,0.217146635055542
-0.1859302520751953,0.0399672128260135,0.0387918278574943,-0.1094795987010002,-0.1371660977602005,0.2606766819953918,0.0,0.0,0.4711010456085205,0.8049216270446777
-0.1851514875888824,0.0378895364701747,0.0657470822334289,-0.0912670269608497,-0.1250882893800735,0.2415560781955719,0.0,0.0,0.3727011680603027,-0.3170242309570312
-0.1842793524265289,0.0357520692050457,0.0743403881788253,-0.0939695313572883,-0.1122830212116241,0.2561054229736328,0.0,0.0,0.343401551246643,-0.0726345181465148
-0.1832158118486404,0.034013282507658,0.092414952814579,-0.0762915536761283,-0.0984463989734649,0.276732325553894,0.0,0.0,0.3868542909622192,0.7579948902130127
-0.1820449829101562,0.0327413417398929,0.104199543595314,-0.0557312443852424,-0.0856706649065017,0.2555147409439087,0.0,0.0,-0.020111083984375,0.5292677879333496
-0.1808176040649414,0.0309625007212162,0.1106701046228408,-0.0784098207950592,-0.0737247020006179,0.2389194518327713,0.0,0.0,0.5134156942367554,0.8605391979217529
-0.1794005334377288,0.029455242678523,0.1307908594608307,-0.0664847865700721,-0.0629210099577903,0.2160735577344894,0.0,0.0,0.0235259532928466,-0.3684931993484497
-0.1779517233371734,0.0281990393996238,0.1335153430700302,-0.0553893223404884,-0.0516806282103061,0.2248076945543289,0.0,0.0,0.0119895935058593,0.0235297679901123
-0.1764365136623382,0.0271563380956649,0.1395176351070404,-0.0459715537726879,-0.0398197136819362,0.2372180521488189,0.0,0.0,-0.1397695541381836,-0.2352100610733032
-0.1749170273542404,0.0256075244396924,0.1394937932491302,-0.0685514435172081,-0.0275195445865392,0.2460033446550369,0.0,0.0,0.2225292921066284,0.3125851154327392
-0.1735403090715408,0.0247585866600275,0.1395964473485946,-0.0377654768526554,-0.0294200684875249,-0.0380103811621665,0.0,1.0,-0.5642460584640503,0.237173318862915
-0.1721815168857574,0.0235360711812973,0.1415343731641769,-0.0544567666947841,-0.0350057072937488,-0.1117127910256385,0.0,1.0,-0.2487173080444336,0.2702754735946655
-0.1708404570817947,0.0219381190836429,0.1434392035007476,-0.0712602064013481,-0.0442301891744136,-0.1844897121191024,0.0,1.0,-0.1781727075576782,0.1636987924575805
-0.16951684653759,0.0199622251093387,0.1452888548374176,-0.0882499068975448,-0.0570148862898349,-0.2556936144828796,0.0,1.0,0.1485830545425415,0.3481409549713135
-0.1680923402309417,0.0178761817514896,0.1557686477899551,-0.0932720750570297,-0.0701875612139701,-0.2634534239768982,0.0,1.0,0.2925977706909179,0.21797776222229
-0.1665541678667068,0.0160769559442996,0.1667712181806564,-0.080619066953659,-0.0830074623227119,-0.2563978135585785,0.0,1.0,0.1921664476394653,0.2140111923217773
-0.1649495065212249,0.0146399354562163,0.1733151972293853,-0.0646272301673889,-0.0957436189055442,-0.2547232210636139,0.0,0.0,-0.2760957479476928,-0.778902530670166
-0.1633961647748947,0.0126957986503839,0.1663600206375122,-0.0871496349573135,-0.1066759005188942,-0.2186456173658371,0.0,0.0,0.0876706838607788,-0.8494120240211487
