x_pos,y_pos,x_vel,y_vel,angle,ang_vel,leg_1,leg_2,main_booster,lat_booster
-0.001561164855957,1.4029161930084229,-0.1584998369216919,-0.3557280898094177,0.0021374004427343,0.0421901829540729,0.0,0.0,-0.7749879542883478,0.1083972161702241
-0.0031610489822924,1.3942272663116455,-0.1624390482902526,-0.3861785531044006,0.0045649106614291,0.0485556237399578,0.0,0.0,-0.1167454974100745,-0.9993938151846952
-0.0048614502884447,1.384822130203247,-0.1743938028812408,-0.418026715517044,0.008878287859261,0.0862751230597496,0.0,0.0,0.9990744753466232,0.4954993117467434
-0.0067514418624341,1.3756136894226074,-0.1930099427700042,-0.409288078546524,0.0128501830622553,0.0794451683759689,0.0,0.0,0.8371352820806857,-0.7511383324315407
-0.0085944179445505,1.3667893409729004,-0.1905517131090164,-0.3922654688358307,0.0190329384058713,0.1236663088202476,0.0,0.0,-0.0645793634057469,-0.9420440109612928
-0.0105360988527536,1.3572542667388916,-0.2022325098514557,-0.4239031672477722,0.0270131230354309,0.1596183627843856,0.0,0.0,-0.3888797666716976,0.6261184934352414
-0.0124722477048635,1.34701406955719,-0.2008454501628875,-0.4552744925022125,0.0341609269380569,0.1429695338010788,0.0,0.0,-0.7304143240955512,-0.3671392047355966
-0.0144507410004735,1.3360663652420044,-0.2054546773433685,-0.486756831407547,0.0416740626096725,0.1502768695354461,0.0,0.0,-0.543554611278771,0.368827330867514
-0.0164722446352243,1.324411392211914,-0.210110992193222,-0.5182401537895203,0.0495544597506523,0.1576225906610489,0.0,0.0,0.3159224670356557,0.7679856420185773
-0.0185061451047658,1.3129253387451172,-0.2101790010929107,-0.5107390284538269,0.0562808029353618,0.1345392763614654,0.0,0.0,0.2057498575193352,-0.2052720166259259
-0.0205450057983398,1.3013865947723389,-0.2113660871982574,-0.5131271481513977,0.0636792927980423,0.1479834616184234,0.0,0.0,-0.3300563816608157,0.0987282319497946
-0.022627830505371,1.2891409397125244,-0.2161267697811126,-0.5446134209632874,0.0714528113603591,0.1554844975471496,0.0,0.0,-0.0126758466098557,-0.511615634297125
-0.024786377325654,1.2761871814727783,-0.2248823642730713,-0.576168954372406,0.0803998410701751,0.1789568960666656,0.0,0.0,-0.6821548354932385,0.2070324896308908
-0.0269892700016498,1.2625267505645752,-0.2296916246414184,-0.6076564788818359,0.0897262841463089,0.1865460574626922,0.0,0.0,-0.0246688910062913,0.1620058287139306
-0.0292367935180664,1.2481597661972046,-0.234515979886055,-0.6391445398330688,0.0994345620274543,0.1941830813884735,0.0,0.0,-0.1678943866442921,-0.4076902862892483
-0.0315287597477436,1.233086347579956,-0.2393505275249481,-0.6706336736679077,0.1095262020826339,0.2018508911132812,0.0,0.0,-0.6302665853095402,-0.6417177667176389
-0.0339048393070697,1.2173078060150146,-0.249117761850357,-0.7021515965461731,0.1209852024912834,0.2292008101940155,0.0,0.0,-0.9926362893049924,0.2814068344118159
-0.0363256447017192,1.200823426246643,-0.253961980342865,-0.7336454391479492,0.1328298151493072,0.2369135916233062,0.0,0.0,0.0250929815164919,-0.275589262571523
-0.038797378540039,1.1843860149383545,-0.2597060203552246,-0.7317216396331787,0.1453438252210617,0.2503030896186828,0.0,0.0,-0.0713752308656745,0.80062914686844
-0.041259478777647,1.1672542095184326,-0.2577313184738159,-0.7625786662101746,0.1568610966205597,0.2303660213947296,0.0,0.0,0.44362157184055,0.0832095072220691
-0.0437586791813373,1.150416374206543,-0.2623170614242553,-0.7497043013572693,0.169288232922554,0.2485652267932891,0.0,0.0,0.8183010051382196,0.2236521448037643
-0.0463714599609375,1.1335961818695068,-0.2741076350212097,-0.7490731477737427,0.1821643114089965,0.2575447559356689,0.0,0.0,-0.1515401987294793,-0.1855982177194985
-0.049028493463993,1.1160709857940674,-0.278885006904602,-0.7805764675140381,0.1954306811094284,0.2653513550758362,0.0,0.0,-0.7495084856720389,0.6715000747012616
-0.0516703613102436,1.0978504419326782,-0.2762452363967895,-0.8114396333694458,0.2075880467891693,0.2431695014238357,0.0,0.0,0.2900483608639821,-0.1036445926598658
-0.054568100720644,1.0796278715133667,-0.3016635775566101,-0.8116101026535034,0.2196225970983505,0.2407121658325195,0.0,0.0,-0.1126459035725211,0.8539508967562708
-0.0574565902352333,1.0606999397277832,-0.2998235821723938,-0.842915415763855,0.2307421267032623,0.2223902940750122,0.0,0.0,0.9904386670194882,-0.248213983985204
-0.0605832114815712,1.0423462390899658,-0.3240207731723785,-0.8175411820411682,0.2422748059034347,0.2306535542011261,0.0,0.0,-0.9344028859925786,-0.5356196039267244
-0.0638028159737587,1.023274302482605,-0.3349614143371582,-0.8498315811157227,0.2555100321769714,0.2647046446800232,0.0,0.0,-0.0802069216637293,0.0864231575297094
-0.0670642852783203,1.003498077392578,-0.3394787907600403,-0.8813303112983704,0.2691356539726257,0.2725124955177307,0.0,0.0,0.8724537013971667,0.8275325300611419
-0.0704756751656532,0.9838287234306335,-0.353119283914566,-0.8764453530311584,0.2814253866672516,0.2457947432994842,0.0,0.0,0.0550624918347488,-0.2568132978878416
-0.0740664452314376,0.9642385840415956,-0.3714495897293091,-0.8731051683425903,0.2941584587097168,0.2546616494655609,0.0,0.0,0.4866666793823242,0.9758715629577636
-0.0778135284781456,0.9445027709007264,-0.3854282200336456,-0.8793431520462036,0.3052326440811157,0.221483826637268,0.0,0.0,0.3284493684768677,0.7684391736984253
-0.0818088501691818,0.9249844551086426,-0.4089803695678711,-0.8694950938224792,0.315027117729187,0.1958895325660705,0.0,0.0,0.4552606344223022,0.9830670356750488
-0.0859270095825195,0.9052115082740784,-0.4196465611457824,-0.8805302977561951,0.3231623470783233,0.1627046912908554,0.0,0.0,0.3498039245605469,0.9965460300445556
-0.0901575088500976,0.8855077624320984,-0.4292711615562439,-0.8771180510520935,0.3296485841274261,0.1297245323657989,0.0,0.0,-0.1491334438323974,0.9997409582138062
-0.0943503379821777,0.8651444315910339,-0.4238289296627044,-0.9060838222503662,0.3344008326530456,0.0950447097420692,0.0,0.0,0.3522207736968994,0.9994218349456788
-0.0986499786376953,0.8446243405342102,-0.4329123497009277,-0.912689208984375,0.337481290102005,0.0616089813411235,0.0,0.0,0.3382667303085327,0.943240761756897
-0.1030876189470291,0.8243318200111389,-0.4452326893806457,-0.9022354483604432,0.3390182256698608,0.0307384245097637,0.0,0.0,0.3913230895996094,0.9999544620513916
-0.1077605262398719,0.8043670058250427,-0.4671333432197571,-0.8872836828231812,0.3388476371765136,-0.0034120385535061,0.0,0.0,0.2856484651565552,0.9998998641967772
-0.1125266104936599,0.7844181060791016,-0.4748487472534179,-0.8862045407295227,0.3370031118392944,-0.036889873445034,0.0,0.0,0.220266580581665,0.9990298748016356
-0.1175312995910644,0.7645778059959412,-0.4970966279506683,-0.8810110092163086,0.3334676325321197,-0.0707098543643951,0.0,0.0,0.5548596382141113,0.9980347156524658
-0.1225299835205078,0.7448305487632751,-0.4949895441532135,-0.8765332102775574,0.328374296426773,-0.1018667221069336,0.0,0.0,0.692650556564331,0.9919371604919434
-0.1274812668561935,0.7249149680137634,-0.4887747764587402,-0.8837058544158936,0.3217574954032898,-0.1323362588882446,0.0,0.0,0.8002963066101074,0.998753786087036
-0.1324552595615387,0.7052059769630432,-0.4895715713500976,-0.8742382526397705,0.313622236251831,-0.1627052128314972,0.0,0.0,0.8751691579818726,0.9730513095855712
-0.1375353783369064,0.6852690577507019,-0.4985270500183105,-0.8840703368186951,0.3037853240966797,-0.1967383325099945,0.0,0.0,0.9265310764312744,0.9879839420318604
-0.1426278054714203,0.6652361750602722,-0.4981984496116638,-0.8880775570869446,0.2923865914344787,-0.2279743701219558,0.0,0.0,0.904137372970581,0.9766349792480468
-0.1477468460798263,0.6453001499176025,-0.4993552267551422,-0.8835788369178772,0.2794721126556396,-0.2582893967628479,0.0,0.0,0.965912699699402,0.9917004108428956
-0.1532358229160308,0.6260712146759033,-0.5344207882881165,-0.8519148230552673,0.264626532793045,-0.2969118356704712,0.0,0.0,0.9159679412841796,0.9844982624053956
-0.1590815484523773,0.6074337363243103,-0.5681147575378418,-0.8254573345184326,0.2478355914354324,-0.3358185291290283,0.0,0.0,0.7795226573944092,0.999502182006836
-0.1650343835353851,0.5889064073562622,-0.577059268951416,-0.8204679489135742,0.229315772652626,-0.3703964352607727,0.0,0.0,0.9397399425506592,0.9917616844177246
-0.1709051132202148,0.5707462430000305,-0.567405104637146,-0.8041810393333435,0.2094157040119171,-0.3980017900466919,0.0,0.0,0.9562476873397828,0.9714289903640748
-0.1769800186157226,0.553170919418335,-0.5859557390213013,-0.7782208323478699,0.1877373307943344,-0.4335676729679107,0.0,0.0,0.5374354124069214,0.9998077154159546
-0.1829615533351898,0.5355536341667175,-0.5749496817588806,-0.7802210450172424,0.1644640415906906,-0.4654662013053894,0.0,0.0,0.9528777599334716,0.9988691806793212
-0.189037412405014,0.5186611413955688,-0.5825715065002441,-0.7482020258903503,0.1394854485988617,-0.4995725154876709,0.0,0.0,0.602773904800415,0.9875576496124268
-0.1949586868286132,0.5018190145492554,-0.5655199289321899,-0.7462583780288696,0.1130004748702049,-0.5296999216079712,0.0,0.0,0.8568108081817627,0.9972468614578248
-0.2009986937046051,0.4850572049617767,-0.5754017233848572,-0.7430548071861267,0.084623135626316,-0.5675471425056458,0.0,0.0,0.4234166145324707,0.9742697477340698
-0.2069452255964279,0.4686554670333862,-0.5643554925918579,-0.7275242209434509,0.0546409003436565,-0.5996451377868652,0.0,0.0,0.0722978115081787,0.9957497119903564
-0.2127458155155182,0.4522334039211273,-0.5479273200035095,-0.7290046811103821,0.0228938236832618,-0.6349420547485352,0.0,0.0,-0.139556348323822,0.999875783920288
-0.2184725701808929,0.4351308345794678,-0.5385030508041382,-0.759937584400177,-0.0108422990888357,-0.6747228503227234,0.0,0.0,-0.4546436071395874,0.9943019151687622
-0.2241441756486892,0.4173434376716614,-0.5314816236495972,-0.7911855578422546,-0.0460690073668956,-0.7045348286628723,0.0,0.0,0.0200976133346557,0.9920858144760132
-0.2297009527683258,0.3991909623146057,-0.5182698965072632,-0.8083409667015076,-0.0830679312348365,-0.7399791479110718,0.0,0.0,0.7840018272399902,-0.1377190351486206
-0.2353134602308273,0.3814940452575683,-0.5236669182777405,-0.7890393137931824,-0.1203549429774284,-0.7457410097122192,0.0,0.0,0.7756832838058472,-0.185747742652893
-0.2407368123531341,0.3639104068279266,-0.5057269930839539,-0.7848538160324097,-0.1568283438682556,-0.7294687032699585,0.0,0.0,0.7418153285980225,-0.616233766078949
-0.246088832616806,0.346598356962204,-0.5002866983413696,-0.7734798789024353,-0.1918156147003173,-0.699745774269104,0.0,0.0,0.6309230327606201,-0.0018191933631896
-0.2513647675514221,0.3291740119457245,-0.4931127429008484,-0.7792516946792603,-0.2265961617231369,-0.6956111788749695,0.0,0.0,0.8704819679260254,-0.6873680949211121
-0.2566963136196136,0.3121038675308227,-0.5001052618026733,-0.7641056776046753,-0.260198712348938,-0.6720513105392456,0.0,0.0,0.896568775177002,-0.6303129196166992
-0.2618010938167572,0.2957789897918701,-0.4791646599769592,-0.7314326167106628,-0.2923106551170349,-0.6422387361526489,0.0,0.0,0.8445870876312256,-0.7584294080734253
-0.2667791843414306,0.2792007327079773,-0.4685962796211242,-0.7429589033126831,-0.3225526213645935,-0.6048396825790405,0.0,0.0,0.8373939990997314,-0.8012286424636841
-0.2714861333370209,0.2632984519004822,-0.4435034394264221,-0.7130839228630066,-0.3509763479232788,-0.5684750080108643,0.0,0.0,0.8558598756790161,-0.7964205145835876
-0.2761808931827545,0.2475347071886062,-0.4439675807952881,-0.7070726752281189,-0.3779148161411285,-0.5387698411941528,0.0,0.0,0.8643443584442139,-0.6223558783531189
-0.2807436883449554,0.23222716152668,-0.4320369362831116,-0.6869687438011169,-0.4037796258926391,-0.5172959566116333,0.0,0.0,0.7615792751312256,-0.8112339377403259
-0.28507199883461,0.2171516567468643,-0.4105233252048492,-0.6765669584274292,-0.4278434216976166,-0.4812756478786468,0.0,0.0,0.8621083498001099,-0.7427096366882324
-0.2892002463340759,0.2028152793645858,-0.3918991684913635,-0.6437059640884399,-0.4506570994853973,-0.4562738537788391,0.0,0.0,0.8642990589141846,-0.6654259562492371
-0.2930116653442383,0.1886320412158966,-0.3619059324264526,-0.6367250084877014,-0.4718500673770904,-0.4238596558570862,0.0,0.0,0.8232414722442627,-0.7235795259475708
-0.29671511054039,0.1743832975625991,-0.3525843322277069,-0.6394537091255188,-0.4916223585605621,-0.3954457640647888,0.0,0.0,0.8361272811889648,-0.774056077003479
-0.3002310693264007,0.1598857045173645,-0.3355843126773834,-0.6501673460006714,-0.5096318125724792,-0.3601889014244079,0.0,0.0,0.9582427740097046,-0.8829901218414307
-0.3036492764949798,0.1452831774950027,-0.3274864852428436,-0.6544317603111267,-0.5259027481079102,-0.3254183828830719,0.0,0.0,0.9807671308517456,-0.8252071738243103
-0.306651771068573,0.1312723308801651,-0.287519633769989,,-0.5404916405677795,-0.2917778193950653,0.0,0.0,0.9965100288391112,-0.907652735710144
-0.309112548828125,0.1178040578961372,-0.2352290153503418,-0.6029818654060364,-0.5530208349227905,-0.2505829632282257,0.0,0.0,0.9999518394470216,-0.8874116539955139
-0.3112346231937408,0.1050717905163765,-0.202761173248291,-0.569807231426239,-0.5640124678611755,-0.2198329418897628,0.0,0.0,0.999061107635498,-0.874900758266449
-0.3133467137813568,0.0923257172107696,-0.2030400931835174,-0.569970428943634,-0.5735825300216675,-0.1914009153842926,0.0,0.0,0.9998613595962524,-0.7255445718765259
-0.3149389624595642,0.0800873339176178,-0.1524221301078796,-0.5468827486038208,-0.5815961360931396,-0.1602718830108642,1.0,0.0,0.9720727205276488,-0.9958977103233336
-0.316185861825943,0.0692930519580841,-0.1311249136924743,-0.478406012058258,-0.5702930688858032,0.2322121411561966,1.0,0.0,0.9955906867980956,-0.9610456824302672
-0.3167917728424072,0.0594296790659427,-0.0889317542314529,-0.4266216456890106,-0.5376346707344055,0.6528151035308838,1.0,0.0,0.9996196031570436,-0.702261209487915
-0.3167624473571777,0.0505685918033123,-0.0440365485846996,-0.3761827349662781,-0.4844838380813598,1.0629281997680664,1.0,0.0,0.9987530708312988,-0.2285109758377075
-0.3160917162895202,0.0423419326543808,0.0037858537398278,-0.3451386392116546,-0.4149346053600311,1.3911018371582031,1.0,1.0,0.9948673248291016,0.999046802520752
-0.3150392174720764,0.0348883979022502,0.0483127050101757,-0.3159500658512115,-0.3550103306770324,1.1976075172424316,1.0,1.0,0.9899895191192628,0.9987790584564208
-0.3135959506034851,0.028236661106348,0.0970850214362144,-0.284803181886673,-0.3057113289833069,0.9859641790390016,1.0,1.0,0.9068280458450316,0.9953441619873048
-0.3116682171821594,0.0225986577570438,0.1552195996046066,-0.2431927621364593,-0.2670636475086212,0.7729445695877075,1.0,1.0,0.9983062744140624,0.9697321653366088
-0.3093243539333343,0.0177193265408277,0.2057519704103469,-0.2119255512952804,-0.2378688901662826,0.5838916301727295,1.0,1.0,0.9192454814910888,0.8317687511444092
-0.3067123889923095,0.0159339047968387,0.2675142586231231,-0.0803891345858573,-0.244293600320816,-0.1284952759742736,1.0,1.0,0.9192454814910888,0.8317687511444092
