x_pos,y_pos,x_vel,y_vel,angle,ang_vel,leg_1,leg_2,main_booster,lat_booster
-0.0015318871010094,1.403361678123474,-0.1551175564527511,-0.3359311521053314,0.0017250358359888,0.0340253636240959,0.0,0.0,-0.4902854595737118,-0.9093582243857832
-0.0031368255149573,1.3955590724945068,-0.163805603981018,-0.3467906415462494,0.0050013698637485,0.0655334368348121,0.0,0.0,0.1759759406235324,-0.7942388395243567
-0.0047035217285156,1.387919306755066,-0.1616354882717132,-0.3395713567733764,0.0099126230925321,0.0982341021299362,0.0,0.0,0.5843738409315065,-0.8308128444352112
-0.0064734457992017,1.380730152130127,-0.1833491623401641,-0.3195765316486358,0.016204236075282,0.1258436143398285,0.0,0.0,-0.4011065234562279,0.6057724542115853
-0.008190631866455,1.3732815980911257,-0.1765769869089126,-0.3311012089252472,0.0210077669471502,0.0960796698927879,0.0,0.0,-0.3790271133232468,-0.724962832336777
-0.0099559780210256,1.3655683994293213,-0.1824937760829925,-0.3429040014743805,0.0268941689282655,0.1177385076880455,0.0,0.0,0.1041834726121602,-0.8722850413060087
-0.0118213649839162,1.358168363571167,-0.1942065954208374,-0.3290520906448364,0.034478984773159,0.1517104804515838,0.0,0.0,0.7955685404553936,0.612709765982887
-0.0134909627959132,1.3515732288360596,-0.1738655865192413,-0.2932854890823364,0.0413094200193882,0.1366215646266937,0.0,0.0,0.2626215808166703,-0.8476055558836448
-0.015265941619873,1.3456790447235107,-0.1860783696174621,-0.2622270882129669,0.0498022586107254,0.16987244784832,0.0,0.0,0.1615233685303854,-0.9442880817395712
-0.0171420089900493,1.3402884006500244,-0.1980780363082885,-0.2399640381336212,0.0601670034229755,0.2073139399290084,0.0,0.0,-0.4121760840685933,0.6619770338919005
-0.018958281725645,1.334641933441162,-0.1905859261751175,-0.2513348460197449,0.0690408498048782,0.177493155002594,0.0,0.0,0.3807720018267799,0.7324394409210853
-0.0206802375614643,1.329405665397644,-0.1798167526721954,-0.2330928295850753,0.0765913724899292,0.1510244607925415,0.0,0.0,0.8178345231760265,-0.7927871249032334
-0.0223649032413959,1.3250733613967896,-0.1780320703983307,-0.19306281208992,0.0860816165804863,0.189822107553482,0.0,0.0,0.3346046465556425,0.870383160386585
-0.023938750848174,1.3209166526794434,-0.1653085500001907,-0.1852076649665832,0.093947447836399,0.1573308110237121,0.0,0.0,-0.1727324790197935,0.7068254882225661
-0.0254403110593557,1.3165152072906494,-0.1563851684331894,-0.1960299611091613,0.1001269221305847,0.1236006245017051,0.0,0.0,0.9774581701266588,-0.8641182599094674
-0.026896571740508,1.3123836517333984,-0.1539447903633117,-0.1841948181390762,0.1083938777446746,0.165354311466217,0.0,0.0,0.7858893096207191,0.8068897807040487
-0.0282217971980571,1.309415340423584,-0.1396177858114242,-0.1324551701545715,0.115452229976654,0.1411803215742111,0.0,0.0,-0.7498019121130026,0.7861732484598153
-0.0294634811580181,1.306191325187683,-0.129393845796585,-0.1437065750360489,0.1206602379679679,0.1041691675782203,0.0,0.0,0.3242031229833715,0.6548950800632104
-0.0306384079158306,1.3036940097808838,-0.1216604262590408,-0.111331507563591,0.124809019267559,0.0829832404851913,0.0,0.0,-0.1130335447866717,-0.838177950045798
-0.0318792350590229,1.3009198904037476,-0.1302507817745208,-0.1238230839371681,0.1309591978788375,0.1230146735906601,0.0,0.0,-0.5777783150726115,-0.8356256138995135
-0.0331628806889057,1.2978795766830444,-0.1359697133302688,-0.1358057111501693,0.138538122177124,0.1515922248363495,0.0,0.0,-0.7743925884964331,-0.8926868381981465
-0.0345047004520893,1.2945584058761597,-0.1436550915241241,-0.1485164165496826,0.1479980051517486,0.1892146915197372,0.0,0.0,-0.4925630880226299,-0.6400800328649483
-0.0358752235770225,1.290966272354126,-0.1476552486419677,-0.1607377380132675,0.1586048603057861,0.2121557891368866,0.0,0.0,-0.5445820433382997,0.6361385070080344
-0.0371785163879394,1.2871190309524536,-0.1396536529064178,-0.1720016300678253,0.1679513752460479,0.1869468688964843,0.0,0.0,-0.551322319253827,0.6832775804960237
-0.0384294502437114,1.2830227613449097,-0.1335397809743881,-0.1830344200134277,0.1764214634895324,0.1694169342517852,0.0,0.0,0.4404093115887577,-0.9556165099773378
-0.0399911887943744,1.2794973850250244,-0.1665759533643722,-0.1579516977071762,0.1868640631437301,0.2088516950607299,0.0,0.0,0.4427804049221659,0.694082175696388
-0.0416006073355674,1.2766666412353516,-0.1701445430517196,-0.1269976496696472,0.1961159110069275,0.1850370019674301,0.0,0.0,-0.1146009046538467,-0.9650451748359438
-0.0432887077331543,1.2735579013824463,-0.1805350482463836,-0.1397654563188552,0.2079319953918457,0.2363222539424896,0.0,0.0,-0.7711126104904134,0.6616115203268415
-0.0449233055114746,1.2702066898345947,-0.1743545234203338,-0.1505135595798492,0.2189282178878784,0.2199245691299438,0.0,0.0,0.5986834633657654,-0.9769274734577924
-0.0467430129647254,1.2672498226165771,-0.1949868649244308,-0.1333978325128555,0.2321091145277023,0.2636179029941559,0.0,0.0,0.0190709419153585,-0.8524226034503928
-0.0487216003239154,1.2647868394851685,-0.2127709090709686,-0.1118878871202468,0.2472553998231887,0.3029255270957947,0.0,0.0,-0.3406244414312309,0.6730332139825795
-0.0506395325064659,1.262078046798706,-0.2057441174983978,-0.1228103190660476,0.2614896595478058,0.284684956073761,0.0,0.0,-0.2720451681207496,0.6610942942632662
-0.0524993911385536,1.259133219718933,-0.1990310102701187,-0.1332683563232422,0.2748464941978454,0.2671369910240173,0.0,0.0,-0.9942418319143712,-0.8437400446415856
-0.0544123649597168,1.255892038345337,-0.2064448297023773,-0.1469736248254776,0.2903989255428314,0.3110487461090088,0.0,0.0,0.0312619617231944,-0.7344978565518953
-0.0564659126102924,1.252937078475952,-0.222163125872612,-0.1347765773534774,0.3077593743801117,0.347208708524704,0.0,0.0,0.5836842210151079,-0.6499230073407272
-0.0587543472647666,1.250751256942749,-0.2471863031387329,-0.101147323846817,0.3268035054206848,0.3808824717998504,0.0,0.0,0.4386135635726269,0.845035367302582
-0.0611141212284565,1.2488871812820437,-0.2528354227542877,-0.0867617353796958,0.3444336950778961,0.3526037633419037,0.0,0.0,-0.4424691085082171,-0.8464414608407617
-0.063517190515995,1.246740698814392,-0.2589394152164459,-0.0999760925769805,0.3640323579311371,0.3919734358787536,0.0,0.0,0.0703908822475625,-0.9740684843799812
-0.0662006363272667,1.2450568675994873,-0.2890586256980896,-0.0802616253495216,0.3859976232051849,0.4393055438995361,0.0,0.0,0.0948930555386946,-0.941185650775021
-0.0690673813223838,1.2436503171920776,-0.3093600869178772,-0.0688496679067611,0.4102764725685119,0.485577255487442,0.0,0.0,-0.9308673046387236,-0.6852439485289337
-0.0719774216413497,1.2419581413269043,-0.3153465986251831,-0.0824838653206825,0.4366099834442138,0.5266700387001038,0.0,0.0,-0.9671677947044371,0.9986222982406616
-0.0747852325439453,1.240071177482605,-0.3029034733772278,-0.0909486934542656,0.460843563079834,0.4846715331077575,0.0,0.0,-0.9417850375175476,0.9966835975646972
-0.0774915665388107,1.237980842590332,-0.2907232344150543,-0.0997147634625434,0.4830865561962127,0.44486004114151,0.0,0.0,-0.9743988513946532,0.9620068073272704
-0.0801025405526161,1.2356950044631958,-0.2792399823665619,-0.1080739945173263,0.5034047961235046,0.4063659608364105,0.0,0.0,-0.9649330377578736,0.9843015670776368
-0.0826293006539344,1.233195424079895,-0.2693102657794952,-0.1173205524682998,0.522243320941925,0.3767710328102112,0.0,0.0,-0.9949048161506652,0.9788055419921876
-0.0850633606314659,1.2304928302764893,-0.2583320438861847,-0.1259448230266571,0.5393162965774536,0.3414590358734131,0.0,0.0,-0.981095552444458,0.9772703647613524
-0.0874051079154014,1.2275936603546145,-0.2473921328783035,-0.1342036724090576,0.5545710325241089,0.3050949871540069,0.0,0.0,-0.9306701421737672,0.9923328161239624
-0.0896788612008094,1.2244961261749268,-0.2393627166748047,-0.1426978409290313,0.5685594081878662,0.2797671258449554,0.0,0.0,-0.9567990899086,0.9594745635986328
-0.0918876677751541,1.2211952209472656,-0.2318131476640701,-0.1514230072498321,0.5814162492752075,0.2571374177932739,0.0,0.0,-0.9842036366462708,0.9537860155105592
-0.09401635825634,1.217693328857422,-0.2224766016006469,-0.1598861366510391,0.5927959680557251,0.22759410738945,0.0,0.0,-0.9749280214309692,0.9030452966690063
-0.0960534065961837,1.2140063047409058,-0.2116522490978241,-0.1674626618623733,0.6022730469703674,0.1895410269498825,0.0,0.0,-0.7120096683502197,0.9778724908828736
-0.0980167388916015,1.2101248502731323,-0.203055664896965,-0.1756088584661483,0.6103445291519165,0.1614293158054351,0.0,0.0,-0.9428842663764954,0.943623185157776
-0.0998871773481369,1.2060555219650269,-0.1921714842319488,-0.183269664645195,0.6165376305580139,0.1238613277673721,0.0,0.0,-0.9648983478546144,0.9388470649719238
-0.1016812324523925,1.2017982006072998,-0.1832459717988968,-0.1910412013530731,0.6212040185928345,0.0933277010917663,0.0,0.0,-0.9959447383880616,0.7581992149353027
-0.1033940315246582,1.1973443031311035,-0.1738850176334381,-0.1991990953683853,0.6243652701377869,0.0632246434688568,0.0,0.0,-0.9911519289016724,0.8169548511505127
-0.1050416976213455,1.1926758289337158,-0.1665955185890197,-0.2083710134029388,0.6265895366668701,0.0444852896034717,0.0,0.0,-0.9988637566566468,0.5872495174407959
-0.10662841796875,1.1877994537353516,-0.1597318351268768,-0.2172410190105438,0.6278862357139587,0.0259334780275821,0.0,0.0,-0.9622942805290222,0.3827986717224121
-0.1081944480538368,1.1826647520065308,-0.1581297814846038,-0.2289476990699768,0.6297446489334106,0.0371699854731559,0.0,0.0,-0.9780120253562928,0.7636712789535522
-0.1096892356872558,1.1773366928100586,-0.1499284505844116,-0.2370170801877975,0.6302944421768188,0.0109955314546823,0.0,0.0,-0.9892580509185792,-0.0832394957542419
-0.1111632362008094,1.171750545501709,-0.1483235657215118,-0.2487244307994842,0.63141930103302,0.0224966295063495,0.0,0.0,-0.959990620613098,0.5670411586761475
-0.1125760078430175,1.1659443378448486,-0.1415819823741912,-0.2581994533538818,0.6317975521087646,0.0075644901953637,0.0,0.0,-0.9893259406089784,0.0925770998001098
-0.1139677986502647,1.1598801612854004,-0.1399755030870437,-0.2699074447154999,0.6327627301216125,0.0193032827228307,0.0,0.0,-0.9958264827728271,0.1794949769973755
-0.1153388023376464,1.1535578966140747,-0.138368621468544,-0.2816157937049866,0.6343202590942383,0.031150858849287,0.0,0.0,-0.9850410223007202,0.6690013408660889
-0.1166458129882812,1.1470261812210083,-0.131227359175682,-0.2905551195144653,0.6349626779556274,0.0128485988825559,0.0,0.0,-0.9842571020126344,0.2254077196121215
-0.1179319396615028,1.140236496925354,-0.1296207010746002,-0.302264004945755,0.6362074613571167,0.0248952452093362,0.0,0.0,-0.9914852380752563,0.3750858306884765
-0.1191968917846679,1.1331888437271118,-0.1280145198106765,-0.3139732182025909,0.6380590796470642,0.0370324477553367,0.0,0.0,-0.7536170482635498,0.1689890623092651
-0.1204410567879676,1.1258833408355713,-0.126408964395523,-0.3256828188896179,0.640521764755249,0.0492542088031768,0.0,0.0,-0.9813898801803588,0.1970846652984619
-0.1216641440987587,1.118320107460022,-0.1248042806982994,-0.3373929262161255,0.6435995101928711,0.0615547075867652,0.0,0.0,-0.992534041404724,0.642472505569458
-0.1228276267647743,1.1105515956878662,-0.1181515008211135,-0.3461652994155884,0.6458207964897156,0.0444255173206329,0.0,0.0,-0.9307161569595336,0.3060368299484253
-0.123970128595829,1.1025254726409912,-0.1165498718619346,-0.3578759133815765,0.648664116859436,0.0568665452301502,0.0,0.0,-0.985489785671234,0.6818052530288696
-0.1250572204589843,1.0942842960357666,-0.1104804128408432,-0.3671693503856659,0.6508675217628479,0.0440684519708156,0.0,0.0,-0.9959084391593932,0.2554950714111328
-0.126123234629631,1.0857856273651123,-0.1088830232620239,-0.3788804411888122,0.6536989808082581,0.0566278398036956,0.0,0.0,-0.9863031506538392,0.4900193214416504
-0.1271682679653167,1.0770293474197388,-0.1072879657149314,-0.3905920386314392,0.6571609377861023,0.0692386031150817,0.0,0.0,-0.9973795413970948,0.400107741355896
-0.1281924247741699,1.0680155754089355,-0.1056954637169838,-0.4023041129112243,0.6612557172775269,0.0818953737616539,0.0,0.0,-0.9970089197158812,0.4374575614929199
-0.1291957795619964,1.0587445497512815,-0.1041057705879211,-0.4140168130397796,0.6659853458404541,0.0945931896567344,0.0,0.0,-0.9928380846977234,0.5811601877212524
-0.1301362961530685,1.049257755279541,-0.097204178571701,-0.4232934415340423,0.6699464321136475,0.079221487045288,0.0,0.0,-0.9789531230926514,0.5381731986999512
-0.1310228407382965,1.0395461320877075,-0.0914214178919792,-0.4330925643444061,0.6734377145767212,0.0698255449533462,0.0,0.0,-0.9579340815544128,0.1174259185791015
-0.1318885833024978,1.0295772552490234,-0.0898438468575477,-0.4448056519031524,0.6775684952735901,0.0826160758733749,0.0,0.0,-0.940461039543152,0.5509514808654785
-0.1326984465122223,1.0194005966186523,-0.0836579874157905,-0.4537311196327209,0.6809597611427307,0.0678257495164871,0.0,0.0,-0.94719135761261,0.4429433345794678
-0.1334877014160156,1.0089668035507202,-0.082090362906456,-0.4654445946216583,0.6849924325942993,0.0806529074907302,0.0,0.0,-0.9608659744262696,0.4680593013763428
-0.134256362915039,0.9982756972312928,-0.0805279687047004,-0.4771586060523987,0.6896670460700989,0.093490794301033,0.0,0.0,-0.8817158341407776,0.1349239349365234
-0.1350046098232269,0.987327754497528,-0.0789711773395538,-0.488873153924942,0.6949837803840637,0.1063344255089759,0.0,0.0,-0.9773331880569458,0.5790183544158936
-0.1357040405273437,0.976158320903778,-0.0737352818250656,-0.4985427856445312,0.6998811960220337,0.0979479923844337,0.0,0.0,-0.9930267930030824,0.7376662492752075
-0.1363448202610016,0.9647841453552246,-0.067217469215393,-0.5072850584983826,0.7039352655410767,0.0810813456773758,0.0,0.0,-0.9350913763046264,0.5979588031768799
-0.1369322836399078,0.9531991481781006,-0.0613647401332855,-0.5163779854774475,0.7073307037353516,0.0679088458418846,0.0,0.0,-0.9751439690589904,0.8378865718841553
-0.1374434530735016,0.9414291977882384,-0.0525847598910331,-0.5239495038986206,0.709246039390564,0.0383062697947025,0.0,0.0,-0.9770585298538208,0.6676812171936035
-0.1378908157348632,0.929449498653412,-0.0455396398901939,-0.5328857898712158,0.7102779746055603,0.0206384677439928,0.0,0.0,-0.9803335666656494,0.085193395614624
-0.1383183449506759,0.9172126650810242,-0.0440330244600772,-0.5445996522903442,0.7119482755661011,0.0334061905741691,0.0,0.0,-0.9894417524337769,0.540554404258728
-0.1386866569519043,0.9047691822052002,-0.0374593846499919,-0.5534012317657471,0.7127670049667358,0.0163743142038583,0.0,0.0,-0.9783746600151062,0.3659094572067261
-0.1390352249145507,0.8920685648918152,-0.0359745100140571,-0.5651149749755859,0.7142205834388733,0.0290712378919124,0.0,0.0,-0.9827858209609984,0.4019473791122436
-0.1393643319606781,0.8791108131408691,-0.0345015376806259,-0.5768287777900696,0.7163068056106567,0.0417239218950271,0.0,0.0,-0.95912104845047,0.6581306457519531
-0.1396359503269195,0.8659519553184509,-0.0280616730451583,-0.5853583812713623,0.7174811363220215,0.0234868004918098,0.0,0.0,-0.965179979801178,0.4624308347702026
-0.1398883759975433,0.8525359034538269,-0.0266153551638126,-0.5970718860626221,0.7192826867103577,0.0360314734280109,0.0,0.0,-0.9765766859054564,0.8286302089691162
-0.1400616616010666,0.8389298915863037,-0.0175547804683446,-0.6048462986946106,0.7195792198181152,0.005930078215897,0.0,0.0,-0.9751408696174622,0.729252815246582
-0.1401765793561935,0.8251157402992249,-0.0110623510554432,-0.6137168407440186,0.7190240621566772,-0.0111031169071793,0.0,0.0,-0.9740631580352784,0.667046070098877
-0.1402321755886078,0.8111080527305603,-0.0043111322447657,-0.6218354105949402,0.717384397983551,-0.0327932201325893,0.0,0.0,-0.940971851348877,0.5082849264144897
-0.1402408629655838,0.7968800067901611,0.0007444553775712,-0.6314216256141663,0.7152743339538574,-0.0422013327479362,0.0,0.0,-0.9552244544029236,0.9014675617218018
-0.140193372964859,0.7824549078941345,0.0071248905733227,-0.6397430300712585,0.7121725678443909,-0.0620348677039146,0.0,0.0,-0.8888841867446899,0.8761188983917236
-0.1400713920593261,0.7678516507148743,0.0158341862261295,-0.6469561457633972,0.7074453830718994,-0.0945423170924186,0.0,0.0,-0.7746149897575378,0.6229039430618286
-0.1399004012346267,0.7530369758605957,0.0212567597627639,-0.6560675501823425,0.7020516991615295,-0.10787383466959,0.0,0.0,-0.858838677406311,0.7036375999450684
-0.1396786719560623,0.7380141615867615,0.0269545279443264,-0.6650062799453735,0.695898711681366,-0.1230592504143714,0.0,0.0,-0.8976536989212036,0.8369913101196289
-0.1393909454345703,0.7227915525436401,0.0344813056290149,-0.6733996272087097,0.6885647177696228,-0.1466792523860931,0.0,0.0,-0.9229460954666138,0.898865818977356
-0.1390438973903656,0.7073657512664795,0.0412669107317924,-0.6820248365402222,0.6802098155021667,-0.1670964062213897,0.0,0.0,-0.939490556716919,0.8833818435668945
-0.1386398375034332,0.6917294263839722,0.0477050058543682,-0.6910408139228821,0.6709709167480469,-0.184778407216072,0.0,0.0,-0.8763386011123657,0.8555545806884766
-0.1381610929965973,0.6759125590324402,0.0565393157303333,-0.698426365852356,0.6600773334503174,-0.2178715467453003,0.0,0.0,-0.8726788759231567,0.8794810771942139
-0.1376048028469085,0.6599016785621643,0.0656437948346138,-0.7064682841300964,0.6476288437843323,-0.2489698678255081,0.0,0.0,-0.8848196268081665,0.7555220127105713
-0.1369782388210296,0.6437047123908997,0.0739935562014579,-0.7142228484153748,0.6336668133735657,-0.2792405486106872,0.0,0.0,-0.7054592967033386,0.2860081195831299
-0.1363373696804046,0.6272510886192322,0.0751058757305145,-0.7259410619735718,0.6202348470687866,-0.2686392664909363,0.0,0.0,-0.3926959037780761,0.5869531631469727
-0.1356395781040191,0.6105955243110657,0.0817995592951774,-0.7346105575561523,0.605737030506134,-0.2899560630321502,0.0,0.0,-0.1733903884887695,0.186664342880249
-0.1349282264709472,0.5936832427978516,0.0828423202037811,-0.7463280558586121,0.5917458534240723,-0.2798237800598144,0.0,0.0,0.3229101896286011,-0.0224746465682983
-0.1345731765031814,0.5773229598999023,0.0469234175980091,-0.7220733165740967,0.5782215595245361,-0.2704854905605316,0.0,0.0,-0.720696210861206,0.5835355520248413
-0.1341656744480133,0.5607508420944214,0.0530537255108356,-0.7312667369842529,0.5637902617454529,-0.2886263430118561,0.0,0.0,-0.4339701533317566,0.3150584697723388
-0.1337460577487945,0.5439214706420898,0.0539798438549041,-0.7429810762405396,0.5498239994049072,-0.2793249189853668,0.0,0.0,0.0940093994140625,0.5571849346160889
-0.1335684806108474,0.5273228287696838,0.0306214392185211,-0.7325349450111389,0.5349841713905334,-0.2967965304851532,0.0,0.0,-0.4932265281677246,0.6790554523468018
-0.1333435028791427,0.5104972720146179,0.036096803843975,-0.7425100207328796,0.5194442868232727,-0.3107975423336029,0.0,0.0,0.0427109003067016,0.7054688930511475
-0.1332503259181976,0.4939071238040924,0.0239991601556539,-0.7318384051322937,0.5028163194656372,-0.3325595557689667,0.0,0.0,-0.4218595027923584,0.8203375339508057
-0.1330885887145996,0.4771071970462799,0.0322618260979652,-0.7408784627914429,0.4847808480262756,-0.3607096076011657,0.0,0.0,0.1731010675430297,0.845526933670044
-0.1328812539577484,0.4605041742324829,0.0381890684366226,-0.7319144606590271,0.4653989374637604,-0.3876389861106872,0.0,0.0,0.5537377595901489,0.8040971755981445
-0.1328082084655761,0.444621205329895,0.0260044522583484,-0.6997879147529602,0.4448347985744476,-0.4112829566001892,0.0,0.0,0.0767178535461425,0.9425945281982422
-0.1328724920749664,0.4292631149291992,0.0139679182320833,-0.6762639284133911,0.4226193726062774,-0.4443088471889496,0.0,0.0,-0.2320425510406494,0.9527570009231568
-0.1328522711992263,0.4136915504932403,0.0243867468088865,-0.6855575442314148,0.3985412716865539,-0.4815618991851806,0.0,0.0,0.519660472869873,0.9474530220031738
