x_pos,y_pos,x_vel,y_vel,angle,ang_vel,leg_1,leg_2,main_booster,lat_booster
-0.0014110564952716,1.403472900390625,-0.142118901014328,-0.3309806585311889,0.0009000149439089,0.017689686268568,0.0,0.0,-0.1740250587463379,0.0001188516616821
-0.0027109147049486,1.3958975076675415,-0.1300586462020874,-0.336683064699173,0.0009818420512601,0.0016372486716136,0.0,0.0,-0.6125617027282715,0.1004232168197631
-0.0039009093306958,1.3881702423095703,-0.1182861477136612,-0.3434364199638366,0.0002719007607083,-0.0142000839114189,0.0,0.0,-0.200041651725769,0.5881876945495605
-0.0049461363814771,1.3802895545959473,-0.1020518764853477,-0.3502547442913055,-0.0021614653524011,-0.0486722700297832,0.0,0.0,-0.3557032346725464,0.0434427261352539
-0.0058855055831372,1.3722574710845947,-0.0906854942440986,-0.3569853007793426,-0.0053818169981241,-0.0644131377339363,0.0,0.0,-0.3881070613861084,-0.2710003852844238
-0.0067214965820312,1.3640742301940918,-0.0795518532395362,-0.3637163341045379,-0.009387481957674,-0.0801207423210144,0.0,0.0,-0.4590998291969299,-0.7030457854270935
-0.0075139999389648,1.3557407855987549,-0.0758713036775589,-0.3704032301902771,-0.0127318510785698,-0.0668936818838119,0.0,0.0,-0.527348518371582,-0.4204553365707397
-0.0082084657624363,1.3472563028335571,-0.0652690008282661,-0.3771350681781769,-0.0168566070497035,-0.0825026109814643,0.0,0.0,-0.5590066313743591,-0.6704788208007812
-0.008861350826919,1.3386292457580566,-0.0617103204131126,-0.3834680616855621,-0.0204024631530046,-0.0709236413240432,0.0,0.0,-0.6695559024810791,-0.3173441886901855
-0.0094223022460937,1.3298512697219849,-0.0517298690974712,-0.390200525522232,-0.024721760302782,-0.0863936021924018,0.0,0.0,-0.6624565720558167,-0.762614369392395
-0.0099461553618311,1.3209247589111328,-0.0485535711050033,-0.3968033492565155,-0.0285139363259077,-0.0758502855896949,0.0,0.0,-0.7258571982383728,-0.7657396793365479
-0.0104383472353219,1.3118478059768677,-0.0459792241454124,-0.4034798741340637,-0.0317309238016605,-0.0643453150987625,0.0,0.0,-0.7476646900177002,-0.5524092316627502
-0.0108838081359863,1.3026244640350342,-0.0413988307118415,-0.4099969565868377,-0.0348482355475425,-0.0623517706990242,0.0,0.0,-0.7422924637794495,-0.3901152014732361
-0.0112525941804051,1.2932502031326294,-0.0329716987907886,-0.4167303144931793,-0.0387191586196422,-0.0774250626564025,0.0,0.0,-0.782437264919281,-0.4462184906005859
-0.0115491868928074,1.2837251424789429,-0.0249987039715051,-0.4234643578529358,-0.0433370545506477,-0.0923661217093467,0.0,0.0,-0.950732409954071,-0.4481933116912842
-0.011778449639678,1.2740495204925537,-0.0175079815089702,-0.4301992654800415,-0.0486951507627964,-0.107171356678009,0.0,0.0,-0.9192570447921752,-0.964857578277588
-0.0120035167783498,1.264238715171814,-0.0178528223186731,-0.4361972510814667,-0.0533058606088161,-0.0922225266695022,0.0,0.0,0.2630397081375122,-0.9310019016265868
-0.0121038435027003,1.2546939849853516,-0.006588234566152,-0.4243331849575043,-0.056720245629549,-0.0682938247919082,0.0,0.0,-0.8811371326446533,-0.9523391723632812
-0.0122154233977198,1.2450127601623535,-0.0085867410525679,-0.4303735196590423,-0.0592617280781269,-0.0508339405059814,0.0,0.0,-0.8259586095809937,-0.9807078838348388
-0.0123690608888864,0.0,-0.0143114868551492,-0.4366926252841949,-0.0602991171181201,-0.0207498986274003,0.0,0.0,-0.4409329891204834,-0.7400534749031067
-0.0125288013368844,1.225222110748291,-0.0154008595272898,-0.4429547190666199,-0.0608715675771236,-0.0114503027871251,0.0,0.0,-0.6599936485290527,-0.645320475101471
-0.0127053260803222,1.2151062488555908,-0.0176511835306882,-0.4495970010757446,-0.0608704723417758,2.1995223505655304e-05,0.0,0.0,-0.918913722038269,-0.9169341325759888
-0.0129117015749216,1.2048434019088743,-0.0214034765958786,-0.4560980200767517,-0.0601106472313404,0.0151977045461535,0.0,0.0,-0.7693601846694946,-0.6077281832695007
-0.0131402965635061,1.1944265365600586,-0.0240439642220735,-0.4629184007644653,-0.0589420348405838,0.0233743451535701,0.0,0.0,-0.6602561473846436,-0.7645797729492188
-0.0134296417236328,1.1838676929473877,-0.0313690192997455,-0.4691901504993438,-0.0565366484224796,0.0481121763586998,0.0,0.0,-0.9654327630996704,-0.4943625926971435
-0.0137126920744776,1.173136591911316,-0.0301086492836475,-0.476876437664032,-0.0547598302364349,0.0355363972485065,0.0,0.0,-0.7790505886077881,-0.4913100600242615
-0.0139954565092921,1.1622543334960938,-0.0294509287923574,-0.483608216047287,-0.0535946898162364,0.0233028996735811,0.0,0.0,-0.8210701942443848,-0.5550357103347778
-0.0143376346677541,1.1512314081192017,-0.0361611694097518,-0.4898443818092346,-0.0516782477498054,0.0383288785815238,0.0,0.0,-0.9276967644691468,-0.0774150490760803
-0.0146928783506155,1.1400573253631592,-0.0368822291493415,-0.4965758323669433,-0.0503370128571987,0.0268248673528432,0.0,0.0,-0.8696730136871338,-0.3949818611145019
-0.0150677682831883,1.1287323236465454,-0.0382841750979423,-0.5033069849014282,-0.049550998955965,0.0157202389091253,0.0,0.0,-0.9551406502723694,-0.3320837020874023
-0.0154687883332371,1.1172564029693604,-0.0403566248714923,-0.5100379586219788,-0.0492990277707576,0.0050393580459058,0.0,0.0,-0.8888091444969177,-0.1915665864944458
-0.0159022323787212,1.1056292057037354,-0.0430859588086605,-0.516768753528595,-0.0495586432516574,-0.0051922895945608,0.0,0.0,-0.9357491731643676,-0.4960669279098511
-0.01637439802289,1.093851089477539,-0.0464556254446506,-0.5234994292259216,-0.0503060556948185,-0.0149482358247041,0.0,0.0,-0.8263118863105774,-0.6752292513847351
-0.0169503204524517,1.081920146942139,-0.057871900498867,-0.5302538275718689,-0.0500314198434352,0.0054927803575992,0.0,0.0,-0.8568767309188843,-0.5823755264282227
-0.0176212303340435,1.06984281539917,-0.0680778920650482,-0.5367429852485657,-0.0490651838481426,0.0193246752023696,0.0,0.0,-0.954030454158783,0.7342603206634521
-0.0182880405336618,1.0576152801513672,-0.0657250136137008,-0.5434747934341431,-0.0500112436711788,-0.018920961767435,0.0,0.0,-0.6562318205833435,-0.696500301361084
-0.0190735813230276,1.045237421989441,-0.0786644518375396,-0.550122857093811,-0.049890212714672,0.002420236589387,0.0,0.0,-0.9227263927459716,-0.1632018089294433
-0.0199250224977731,1.0327084064483645,-0.084910437464714,-0.5568530559539795,-0.0501168295741081,-0.0045323641970753,0.0,0.0,-0.904060423374176,0.1333347558975219
-0.0208470337092876,1.0200282335281372,-0.0916567593812942,-0.5635830760002136,-0.0506586693227291,-0.0108367409557104,0.0,0.0,-0.8037076592445374,0.0922017097473144
-0.0218441002070903,1.0071967840194702,-0.0988769084215164,-0.5703128576278687,-0.0514818839728832,-0.016464427113533,0.0,0.0,-0.7677983045578003,0.4763604402542114
-0.0229204185307025,0.9942142367362976,-0.1065443530678749,-0.5770426988601685,-0.05255126953125,-0.0213878583163023,0.0,0.0,-0.8365275859832764,-0.254078209400177
-0.024079704657197,0.9810805320739746,-0.1146328598260879,-0.5837724208831787,-0.0538303256034851,-0.0255810804665088,0.0,0.0,-0.9877511262893676,-0.295846939086914
-0.0253254882991313,0.0,-0.1231166943907737,-0.5905020236968994,-0.0552813224494457,-0.0290201213210821,0.0,0.0,-0.6831448674201965,0.0719704627990722
-0.0266612060368061,0.9543589949607848,-0.1319708377122879,-0.5972315073013306,-0.0568655095994472,-0.0316836573183536,0.0,0.0,-0.4587874412536621,-0.7875704169273376
-0.0281566623598337,0.9407677054405212,-0.1495406925678253,-0.6040589809417725,-0.0568719021975994,-0.0001277498377021,0.0,0.0,-0.1871435642242431,-0.4327334761619568
-0.0297478679567575,0.9270250797271729,-0.1590636670589447,-0.6107878088951111,-0.0569313503801822,-0.0011889713350683,0.0,0.0,-0.9313613176345824,-0.8517724871635437
-0.0314982421696186,0.9131315350532532,-0.1764933317899704,-0.617435097694397,-0.0554803796112537,0.0290191210806369,0.0,0.0,-0.8818695545196533,-0.130946397781372
-0.0333492271602153,0.8990867733955383,-0.1865963786840438,-0.624163806438446,-0.0540002174675464,0.0296033881604671,0.0,0.0,-0.8720505237579346,-0.4893220663070678
-0.0353031158447265,0.8848903775215149,-0.1969588547945022,-0.6308923363685608,-0.0524494163691997,0.0310158096253871,0.0,0.0,-0.931118905544281,0.2469769716262817
-0.0373619087040424,0.8705426454544067,-0.2075618505477905,-0.6376206874847412,-0.0507867336273193,0.0332536697387695,0.0,0.0,-0.9531358480453492,-0.6009201407432556
-0.0395635589957237,0.8560459613800049,-0.2229276895523071,-0.6442022323608398,-0.0480603724718093,0.0545271858572959,0.0,0.0,-0.8906237483024597,0.2022383213043213
-0.0418736450374126,0.8413979411125183,-0.2339595556259155,-0.6509307622909546,-0.0451408773660659,0.058390200138092,0.0,0.0,-0.3150115013122558,0.6674566268920898
-0.0442313179373741,0.8265904784202576,-0.2373701632022857,-0.6580598950386047,-0.0435583628714084,0.0316502824425697,0.0,0.0,-0.903691828250885,0.3487124443054199
-0.0467001907527446,0.8116316199302673,-0.2487684041261673,-0.6647877097129822,-0.0417046323418617,0.0370748713612556,0.0,0.0,-0.9499457478523254,0.2118492126464843
-0.0492815002799034,0.7965212464332581,-0.2603289484977722,-0.6715156435966492,-0.0395423024892807,0.0432468205690383,0.0,0.0,-0.9589651823043824,0.3203463554382324
-0.05197649076581,0.7812592387199402,-0.2720391452312469,-0.6782436370849609,-0.0370353236794471,0.0501397065818309,0.0,0.0,-0.8547680377960205,0.5397729873657227
-0.0547367110848426,0.0,-0.2776826024055481,-0.6849040985107422,-0.0353898741304874,0.0329091623425483,0.0,0.0,-0.9259007573127748,0.7966339588165283
-0.057534884661436,0.7502842545509338,-0.2799328565597534,-0.6917174458503723,-0.0352795869112014,0.0022056060843169,0.0,0.0,-0.9406784772872924,0.9767394065856934
-0.0603624358773231,0.7345743775367737,-0.2811054587364197,-0.6982542872428894,-0.0369084253907203,-0.0325765199959278,0.0,0.0,-0.9972033500671388,0.954148769378662
-0.0632410049438476,0.7187177538871765,-0.2850134074687958,-0.7048153281211853,-0.0397207960486412,-0.0562475621700286,0.0,0.0,-0.9996808767318726,0.7563196420669556
-0.0661727935075759,0.7026990056037903,-0.2891862988471985,-0.7120503187179565,-0.0436652302742004,-0.0788883194327354,0.0,0.0,-0.9999045133590698,0.9808897972106934
-0.0691582709550857,0.686529815196991,-0.2934490740299225,-0.7187883853912354,-0.0487077124416828,-0.1008498817682266,0.0,0.0,-0.999011218547821,0.9833661317825316
-0.0721693038940429,0.6702000498771667,-0.2941747307777405,-0.72600919008255,-0.0555563084781169,-0.1369718611240387,0.0,0.0,-0.9998247623443604,0.9722764492034912
-0.0752200111746788,0.6537140011787415,-0.2966995537281036,-0.7330463528633118,-0.0638400167226791,-0.1656740605831146,0.0,0.0,-0.9999197125434875,0.9945483207702636
-0.0783116370439529,0.6370622515678406,-0.2993635833263397,-0.740529477596283,-0.0735342428088188,-0.1938847601413726,0.0,0.0,-0.998117446899414,0.9817360639572144
-0.0814621895551681,0.6202536225318909,-0.3043171763420105,-0.7476168870925903,-0.0841649547219276,-0.2126143723726272,0.0,0.0,-0.9966925978660583,0.9743326902389526
-0.0846533775329589,0.6032958626747131,-0.3070070743560791,-0.7544088363647461,-0.0961677506566047,-0.2400559186935424,0.0,0.0,-0.9945919513702391,0.9946399927139282
-0.087877556681633,0.5861631631851196,-0.3087020814418793,-0.762388288974762,-0.1097758561372757,-0.272161990404129,0.0,0.0,-0.965298593044281,0.983328342437744
-0.0911416038870811,0.5688788890838623,-0.3113165199756622,-0.769368588924408,-0.1247618049383163,-0.2997191548347473,0.0,0.0,-0.9308883547782898,0.9895851612091064
-0.0944621115922927,0.5514285564422607,-0.3160076737403869,-0.7769872546195984,-0.1407351642847061,-0.3194672167301178,0.0,0.0,-0.6096789240837097,0.993572473526001
-0.0978381186723709,0.533819317817688,-0.3206110596656799,-0.7843284606933594,-0.1576949059963226,-0.3391952216625213,0.0,0.0,0.097782015800476,0.9527769088745116
-0.1011726409196853,0.5166520476341248,-0.3153077363967895,-0.7650118470191956,-0.1758567690849304,-0.3632372915744781,0.0,0.0,-0.6575709581375122,0.9653661251068116
-0.1045689582824707,0.4993311166763305,-0.3207510113716125,-0.7721635699272156,-0.1948155164718628,-0.3791750371456146,0.0,0.0,0.0507377386093139,0.9798734188079834
-0.1078854575753212,0.482363760471344,-0.3115742802619934,-0.7568731307983398,-0.2150384038686752,-0.4044581353664398,0.0,0.0,-0.3604767322540283,0.7317308187484741
-0.1112714782357215,0.4652252197265625,-0.3179947137832641,-0.7648465633392334,-0.23591910302639,-0.4176143109798431,0.0,0.0,0.6444408893585205,0.6255736351013184
-0.1145861595869064,0.4483612775802612,-0.3106011152267456,-0.7529927492141724,-0.2571517825126648,-0.4246534407138824,0.0,0.0,0.7802739143371582,0.7850701808929443
-0.1179076209664344,0.4318631291389465,-0.3105045258998871,-0.7371997237205505,-0.2793012857437134,-0.4429898858070373,0.0,0.0,0.8896054029464722,0.3398716449737549
-0.1211103424429893,0.4165289103984833,-0.2994671165943146,-0.6856468915939331,-0.3007360696792602,-0.4286959171295166,0.0,0.0,0.380653977394104,0.600267767906189
-0.1241171807050705,0.4019750952720642,-0.2797197997570038,-0.6513242125511169,-0.3224742710590362,-0.4347641468048095,0.0,0.0,0.7712202072143555,-0.3228221535682678
-0.1270828247070312,0.3885762691497803,-0.2759423553943634,-0.6002427339553833,-0.3439988195896148,-0.4304907917976379,0.0,0.0,0.7878434658050537,0.6041030883789062
-0.1301479339599609,0.3755809366703033,-0.2852432429790497,-0.582811176776886,-0.3663749098777771,-0.4475224912166595,0.0,0.0,0.8084548711776733,-0.7407739758491516
-0.1330330818891525,0.3636594116687774,-0.2696985900402069,-0.5347893238067627,-0.3863386809825897,-0.3992751538753509,0.0,0.0,0.8777793645858765,-0.9249985218048096
-0.1359794586896896,0.3526086509227752,-0.2782939374446869,-0.4956794679164886,-0.4038229882717132,-0.3496856987476349,0.0,0.0,0.1543817520141601,-0.9573859572410583
-0.1389720886945724,0.3421333730220794,-0.2856011986732483,-0.4695315361022949,-0.4185313582420349,-0.2941671013832092,0.0,0.0,-0.2473183870315551,-0.8810896873474121
-0.1421507894992828,0.3315516710281372,-0.3067507147789001,-0.4736470878124237,-0.4305798411369324,-0.2409698516130447,0.0,0.0,-0.6358955502510071,-0.541143000125885
-0.1454856842756271,0.3208384215831756,-0.3240264356136322,-0.4790750741958618,-0.4408738613128662,-0.2058804333209991,0.0,0.0,-0.1629642248153686,-0.9535584449768066
-0.1490113288164138,0.3100077211856842,-0.345613420009613,-0.4835709631443023,-0.4484774768352508,-0.15207239985466,0.0,0.0,0.1318995952606201,-0.7337577939033508
-0.1525286734104156,0.2993798851966858,-0.3469777405261993,-0.4738863408565521,-0.4537024199962616,-0.1044981032609939,0.0,0.0,0.1725653409957885,-0.0203715562820434
-0.1558978110551834,0.2890739738941192,-0.3333189189434051,-0.4592106640338897,-0.4576454758644104,-0.0788608342409133,0.0,0.0,0.1211626529693603,-0.3003207445144653
-0.1591866463422775,0.2789096236228943,-0.3264363408088684,-0.4525605142116546,-0.4603500664234161,-0.054091565310955,0.0,0.0,0.1160581111907959,-0.2981352806091308
-0.1623764038085937,0.2692736387252807,-0.3172261118888855,-0.428841233253479,-0.4622695446014404,-0.0383903458714485,0.0,0.0,0.4131686687469482,-0.4511533975601196
-0.1653755158185959,0.2603349387645721,-0.299015462398529,-0.3975752592086792,-0.4632622003555298,-0.0198528710752725,0.0,0.0,0.5367546081542969,-0.2120914459228515
-0.1681160032749176,0.2519949674606323,-0.2743666768074035,-0.3705582320690155,-0.4629130661487579,0.0069829709827899,0.0,0.0,0.4652689695358276,-0.2112817168235778
-0.1707691252231598,0.243827536702156,-0.2667365670204162,-0.3625254333019256,-0.4613429009914398,0.031403798609972,0.0,0.0,0.510035514831543,0.1481983661651611
-0.173379510641098,0.2361611425876617,-0.2630090117454529,-0.3400807976722717,-0.459186315536499,0.0431318022310733,0.0,0.0,0.5385942459106445,0.5251739025115967
-0.17564058303833,0.2293410450220108,-0.2279933393001556,-0.3024924397468567,-0.4570994675159454,0.0417364239692688,0.0,0.0,0.4461774826049804,-0.348585307598114
-0.1778206825256347,0.2230489403009414,-0.2205659449100494,-0.2788168489933014,-0.4542964696884155,0.0560598783195018,0.0,0.0,0.4109957218170166,-0.689213216304779
-0.1799750328063964,0.2176349461078643,-0.2198695689439773,-0.2391837686300277,-0.4494266808032989,0.0973958298563957,0.0,0.0,0.5664472579956055,-0.603945791721344
-0.1819227188825607,0.2129345089197158,-0.2012994587421417,-0.206823855638504,-0.4422800540924072,0.1429322808980941,0.0,0.0,0.7132011651992798,-0.9395530223846436
-0.1837769448757171,0.2092268317937851,-0.1944523155689239,-0.1619664579629898,-0.4324349164962768,0.1969029456377029,0.0,0.0,0.4777075052261352,-0.9214770197868348
-0.1856084764003753,0.2063809782266616,-0.1946802288293838,-0.122986800968647,-0.4199285507202148,0.2501268982887268,0.0,0.0,0.4314453601837158,-0.9979923963546752
-0.187476247549057,0.2040325701236724,-0.2010464668273925,-0.1002045422792434,-0.4045551121234894,0.3074687123298645,0.0,0.0,0.5833151340484619,-0.9995321035385132
-0.1894219368696212,0.2024489939212799,-0.2115285098552703,-0.0656539425253868,-0.3864132761955261,0.3628368079662323,0.0,0.0,0.1326655149459839,-0.99893456697464
-0.1915345191955566,0.2013251930475235,-0.2310833185911178,-0.0447140336036682,-0.3653607666492462,0.4210501313209533,0.0,0.0,-0.1791481375694275,-0.9998506903648376
-0.1938200891017913,0.2000925093889236,-0.250948965549469,-0.0492568165063858,-0.3417925536632538,0.4713643193244934,0.0,0.0,-0.4307565689086914,-0.3740626573562622
-0.1962187737226486,0.1987119317054748,-0.2632280886173248,-0.056006271392107,-0.3174095451831817,0.4876604676246643,0.0,0.0,-0.5848696827888489,-0.7761873602867126
-0.1987721472978592,0.1972123235464096,-0.2808558344841003,-0.0612878389656543,-0.2910033166408539,0.5281238555908203,0.0,0.0,-0.7110337615013123,-0.9728260636329652
-0.2015109956264495,0.1956100016832351,-0.3024100363254547,-0.0657890513539314,-0.2617228627204895,0.5856099724769592,0.0,0.0,-0.8361084461212158,-0.6931129693984985
-0.2043983489274978,0.193889245390892,-0.3193463683128357,-0.0713173896074295,-0.2305508255958557,0.6234407424926758,0.0,0.0,-0.7921179533004761,0.1842689514160156
-0.2073942720890045,0.1920275092124939,-0.3312375247478485,-0.0781094580888748,-0.1985655128955841,0.6397066712379456,0.0,0.0,-0.7087278962135315,0.8985745906829834
-0.210427850484848,0.1900132745504379,-0.3342472612857818,-0.0856759771704673,-0.1675450354814529,0.6204097867012024,0.0,0.0,-0.5519142746925354,0.3763778209686279
-0.2135680168867111,0.1878588497638702,-0.3458902239799499,-0.0924726203083992,-0.1357125788927078,0.6366498470306396,0.0,0.0,-0.6941086649894714,0.8594954013824463
-0.2167378365993499,0.1855445057153701,-0.3478473126888275,-0.100337766110897,-0.1050186529755592,0.6138789057731628,0.0,0.0,-0.4303107857704162,0.9070446491241456
-0.2199551165103912,0.1830823719501495,-0.3520593643188476,-0.1075707972049713,-0.0749559625983238,0.6012542843818665,0.0,0.0,-0.2409212589263916,0.8025615215301514
-0.2232259213924408,0.180472195148468,-0.3570236265659332,-0.114776462316513,-0.0453431159257888,0.5922574996948242,0.0,0.0,-0.1376370787620544,0.9059386253356934
-0.2265295535326004,0.1777161657810211,-0.359403520822525,-0.1218608245253562,-0.0166617091745138,0.573628306388855,0.0,0.0,-0.0295574069023132,0.9627065658569336
-0.2298541516065597,0.1748153120279312,-0.3603058457374573,-0.1288470774888992,0.0108273057267069,0.549780547618866,0.0,0.0,-0.1689153909683227,0.9306570291519164
-0.2331878691911697,0.1717656701803207,-0.3597432374954223,-0.135936364531517,0.0368673466145992,0.5208011269569397,0.0,0.0,0.1516932249069214,0.9925111532211304
-0.2364772260189056,0.1693013310432434,-0.3540904819965362,-0.110332079231739,0.0617276057600975,0.4972054064273834,0.0,0.0,0.1149772405624389,0.9907779693603516
-0.2397973537445068,0.1675277054309845,-0.3559413552284241,-0.0799842625856399,0.0854076147079467,0.4736005365848541,0.0,0.0,-0.4062485694885254,0.9579006433486938
