x_pos,y_pos,x_vel,y_vel,angle,ang_vel,leg_1,leg_2,main_booster,lat_booster
-0.0015155791770666,1.4030170440673828,-0.1534872949123382,-0.3512438237667084,0.0017256148857995,0.0340367965400218,0.0,0.0,0.7871271971740521,-0.7896104607454336
-0.0030249594710767,1.3952745199203491,-0.1543298959732055,-0.3441182971000671,0.0050791697576642,0.0670779794454574,0.0,0.0,0.8692460219917362,0.7201229765600292
-0.0043090819381177,1.3876062631607056,-0.1307695657014846,-0.3408243060111999,0.0074075302109122,0.0465715117752552,0.0,0.0,0.5753958975133493,-0.0715375914613448
-0.0057033537887036,1.3800437450408936,-0.1412418484687805,-0.3361167311668396,0.0091962339356541,0.0357776619493961,0.0,0.0,-0.4975872130572571,0.6459767157251208
-0.0070295333862304,1.371876835823059,-0.1328727751970291,-0.3629761040210724,0.0094535974785685,0.0051475320942699,0.0,0.0,0.7818554282807781,0.6229500029290543
-0.0081467628479003,1.3639832735061646,-0.1112126260995864,-0.3508221507072449,0.0089400047436356,-0.0102724824100732,0.0,0.0,0.2779427176530795,-0.2106597511940263
-0.0092799188569188,1.3561519384384155,-0.1127545088529586,-0.3480547666549682,0.0083911539986729,-0.0109779052436351,0.0,0.0,0.7736138214739998,-0.5981585379405074
-0.0102886203676462,1.3487584590911863,-0.1020583510398864,-0.3286113440990448,0.0095598399639129,0.0233757607638835,0.0,0.0,-0.8982226139328988,0.0993889313898049
-0.0112928394228219,1.3407573699951172,-0.1016762480139732,-0.3556107878684997,0.010802561417222,0.0248566828668117,0.0,0.0,-0.4456698614034913,-0.9832631131286768
-0.0123706813901662,1.3321539163589478,-0.1110961288213729,-0.3823982775211334,0.0140838753432035,0.0656323581933975,0.0,0.0,-0.7105797651475374,-0.460009052889333
-0.0134451864287257,1.3229434490203855,-0.1108606085181236,-0.4093929529190063,0.0174644012004137,0.0676164254546165,0.0,0.0,0.6748682779366599,-0.506039017255996
-0.0144897457212209,1.3139289617538452,-0.1092212423682212,-0.400710254907608,0.022182248532772,0.0943652540445327,0.0,0.0,0.8280420987240502,-0.4645230427493929
-0.0154050830751657,1.3054726123809814,-0.0971262902021408,-0.3759250044822693,0.0277041420340538,0.1104480475187301,0.0,0.0,0.341215145263221,0.3087208750528742
-0.0162711143493652,1.2968440055847168,-0.0925819650292396,-0.383615642786026,0.0336246639490127,0.1184211373329162,0.0,0.0,-0.585808196351012,0.7790393610612593
-0.017060661688447,1.2876204252243042,-0.0831650495529174,-0.4100403189659118,0.037781897932291,0.0831520184874534,0.0,0.0,0.6080697738293259,0.9329527562931124
-0.0176671985536813,1.2782232761383057,-0.0633134245872497,-0.4177150428295135,0.040410466492176,0.0525762550532817,0.0,0.0,0.3205153287822007,-0.8409078098402478
-0.0182433128356933,1.2692571878433228,-0.0622590668499469,-0.3986236155033111,0.0450080037117004,0.0919591933488845,0.0,0.0,0.4885233910979747,0.2555670398587004
-0.0187077522277832,1.2601985931396484,-0.0518744587898254,-0.4027777314186096,0.050380278378725,0.1074551567435264,0.0,0.0,-0.0806465240690634,-0.5437615444859629
-0.0192105285823345,1.2505357265472412,-0.0568005740642547,-0.4296992123126983,0.0568407252430915,0.1292208433151245,0.0,0.0,-0.5004691182303966,-0.0203369357105469
-0.0197161678224802,1.24026620388031,-0.0572815015912056,-0.4566961824893951,0.0634922459721565,0.1330423057079315,0.0,0.0,-0.4105129104907186,0.0070987399054633
-0.0202255249023437,1.2293899059295654,-0.0578453615307807,-0.4836947619915008,0.0703430250287056,0.1370278298854828,0.0,0.0,-0.1994750248097927,-0.932518527988118
-0.0208109859377145,1.217894434928894,-0.0675143077969551,-0.5113537907600403,0.0792206898331642,0.17756949365139,0.0,0.0,-0.2863855388984284,0.0944396948277129
-0.0214018821716308,1.2057929039001465,-0.0682501494884491,-0.538356602191925,0.0883108153939247,0.1818188279867172,0.0,0.0,-0.8809381342363702,-0.948063616357588
-0.0220643039792776,1.193066120147705,-0.0772911608219146,-0.5663164258003235,0.0992938205599784,0.219679519534111,0.0,0.0,-0.9363556268727502,0.4692476597824794
-0.0227334015071392,1.1797341108322144,-0.0781960859894752,-0.5933242440223694,0.1105016991496086,0.2241777628660202,0.0,0.0,0.3904733492136252,-0.8193849138409329
-0.0236761085689067,1.1666297912597656,-0.1072533577680587,-0.5834275484085083,0.123403251171112,0.258030891418457,0.0,0.0,-0.2651913700813282,0.5773609526295537
-0.0245817191898822,1.1529324054718018,-0.1025894880294799,-0.609803318977356,0.135381281375885,0.239560529589653,0.0,0.0,0.6324018542192082,-0.0454406553129881
-0.0257340427488088,1.1398160457611084,-0.1268982589244842,-0.5840522050857544,0.1470049917697906,0.232473999261856,0.0,0.0,-0.3777666593367683,-0.2042900418723123
-0.0268960949033498,1.1260948181152344,-0.1280860602855682,-0.6110584139823914,0.1588761210441589,0.2374225556850433,0.0,0.0,0.754127006774743,0.7833499676501202
-0.0281129833310842,1.1125409603118896,-0.132191002368927,-0.6035496592521667,0.1693838089704513,0.2101538181304931,0.0,0.0,0.6598462172867776,-0.2031434006004314
-0.0294656753540039,1.0996441841125488,-0.1460972130298614,-0.5744584798812866,0.1802334934473037,0.2169936597347259,0.0,0.0,-0.94095116853714,0.9715116024017334
-0.0307636260986328,1.086154580116272,-0.1391706764698028,-0.6007077693939209,0.1896484047174453,0.1882983297109604,0.0,0.0,-0.9788923263549804,0.9967436790466307
-0.0320083610713481,1.0720877647399902,-0.1323749125003814,-0.6262287497520447,0.1975917071104049,0.1588660180568695,0.0,0.0,-0.9913047552108764,0.4942665100097656
-0.0332660675048828,1.057415008544922,-0.133919209241867,-0.6532303094863892,0.2057985812425613,0.1641378104686737,0.0,0.0,-0.9761228561401368,0.9476491212844848
-0.0344624519348144,1.0421619415283203,-0.1260919272899627,-0.6788293719291687,0.2123129069805145,0.1302866637706756,0.0,0.0,-0.9351431131362916,0.95816969871521
-0.035597801208496,1.0263341665267944,-0.1182793602347374,-0.7041400074958801,0.2171032279729843,0.0958060845732688,0.0,0.0,-0.7733818888664246,0.9918373823165894
-0.0366740226745605,1.00991952419281,-0.1107379421591758,-0.7300060987472534,0.2202565222978592,0.0630663186311721,0.0,0.0,-0.7260396480560303,0.982373833656311
-0.0376861579716205,0.9929327368736268,-0.1025133952498436,-0.7551645636558533,0.2215703874826431,0.0262773148715496,0.0,0.0,0.3164780139923095,0.9869778156280518
-0.038822840899229,0.9763462543487548,-0.1132479310035705,-0.7371146082878113,0.2211430370807647,-0.0085474262014031,0.0,0.0,-0.256695032119751,0.9915413856506348
-0.0398961082100868,0.9591814279556274,-0.105104386806488,-0.7625488638877869,0.218894675374031,-0.0449672266840934,0.0,0.0,0.3999061584472656,0.9923527240753174
-0.0411561951041221,0.9423757791519164,-0.1219991892576217,-0.7463233470916748,0.214848130941391,-0.0809312909841537,0.0,0.0,0.6249480247497559,0.994415283203125
-0.0423319824039936,0.9257854223251344,-0.112006589770317,-0.7365463376045227,0.2092234790325164,-0.1124928370118141,0.0,0.0,-0.3266024589538574,0.9847617149353028
-0.043435763567686,0.9086068272590636,-0.1027861088514328,-0.7624461650848389,0.2015761286020279,-0.1529469490051269,0.0,0.0,0.1342817544937133,0.705366849899292
-0.044499684125185,0.8913941979408264,-0.0977538749575614,-0.7638481855392456,0.1928622424602508,-0.1742777973413467,0.0,0.0,-0.395811915397644,-0.0249525308609008
-0.0455824844539165,0.8735760450363159,-0.0998774692416191,-0.7908506393432617,0.1844154149293899,-0.1689363420009613,0.0,0.0,-0.0608514547348022,0.7769336700439453
-0.0466184616088867,0.8551626205444336,-0.0937793180346489,-0.8171834945678711,0.1745615303516388,-0.1970775723457336,0.0,0.0,0.4230800867080688,0.6835546493530273
-0.0476300232112407,0.8367380499839783,-0.0903233289718627,-0.8176332712173462,0.1637075245380401,-0.2170802354812622,0.0,0.0,0.4968611001968384,-0.7182584404945374
-0.0489523895084857,0.818792462348938,-0.1228751093149185,-0.7965863347053528,0.1543458402156829,-0.1872335970401764,0.0,0.0,-0.8816609382629395,0.55985426902771
-0.0502614006400108,0.8002540469169617,-0.1209067851305008,-0.8229275345802307,0.1443665474653244,-0.1995860636234283,0.0,0.0,-0.3536655902862549,0.963007926940918
-0.0515180602669715,0.7811233401298523,-0.1140438541769981,-0.8491680026054382,0.1327865719795227,-0.2315996140241623,0.0,0.0,0.2659341096878052,-0.5454902648925781
-0.0527770034968853,0.7620531916618347,-0.1158636659383773,-0.846705973148346,0.122797816991806,-0.1997748017311096,0.0,0.0,-0.052738606929779,0.4758775234222412
-0.0540572181344032,0.7423774003982544,-0.1182141900062561,-0.8737086653709412,0.1130582317709922,-0.194791778922081,0.0,0.0,0.9823343753814696,0.613447904586792
-0.0552312843501567,0.7229194045066833,-0.1070060729980468,-0.8640453219413757,0.1027260050177574,-0.2066445797681808,0.0,0.0,0.904005527496338,0.0753165483474731
-0.0565176010131835,0.7042281031608582,-0.1184795722365379,-0.8300606608390808,0.0926522240042686,-0.2014754116535186,0.0,0.0,0.4395570755004883,0.6690545082092285
-0.0576699264347553,0.6855905055999756,-0.1042399555444717,-0.8276990056037903,0.0817536413669586,-0.2179717570543289,0.0,0.0,0.0026006698608398,0.8776876926422119
-0.0588671676814556,0.6667712926864624,-0.1071940436959266,-0.8357778787612915,0.0693497061729431,-0.2480785846710205,0.0,0.0,0.8282437324523926,-0.2191227078437805
-0.0600440986454486,0.6486774682998657,-0.1058694124221801,-0.8036707639694214,0.0576550513505935,-0.2338929623365402,0.0,0.0,0.0544683933258056,0.2897074222564697
-0.0611804947257041,0.6306304335594177,-0.1024442538619041,-0.8017030358314514,0.0465908981859684,-0.2212831228971481,0.0,0.0,0.4245122671127319,0.6559152603149414
-0.0622502341866493,0.613057017326355,-0.0948153734207153,-0.7807127237319946,0.0345743745565414,-0.240330308675766,0.0,0.0,-0.5257971882820129,0.3510969877243042
-0.0633429512381553,0.5948781967163086,-0.0973242744803428,-0.8077174425125122,0.0227703098207712,-0.2360811233520507,0.0,0.0,0.5565004348754883,-0.1789118647575378
-0.0644185990095138,0.5766186714172363,-0.0960446745157241,-0.8113992214202881,0.0113961640745401,-0.2274830043315887,0.0,0.0,0.9568164348602296,-0.1687012910842895
-0.0656458884477615,0.558997631072998,-0.1108442544937133,-0.7831062078475952,-0.0003264170954935,-0.234451487660408,0.0,0.0,0.2981185913085937,-0.191471517086029
-0.066799446940422,0.5413805246353149,-0.1041278466582298,-0.7830213904380798,-0.0114051438868045,-0.2215746194124221,0.0,0.0,0.8771543502807617,0.2099946737289428
-0.0679418593645095,0.5242018103599548,-0.1033383384346962,-0.7636173367500305,-0.0221712999045848,-0.215323120355606,0.0,0.0,0.287920594215393,-0.0107249021530151
-0.0690951347351074,0.5068855285644531,-0.1046326011419296,-0.7698002457618713,-0.0327268578112125,-0.211111381649971,0.0,0.0,0.9087855815887452,-0.0560811758041381
-0.0703928917646408,0.4899941682815552,-0.1185991764068603,-0.7510059475898743,-0.0437681600451469,-0.2208258807659149,0.0,0.0,-0.6009175777435303,0.185224175453186
-0.0717146843671798,0.4724969565868377,-0.1211858615279197,-0.7780075073242188,-0.0546402111649513,-0.2174410820007324,0.0,0.0,0.7751994132995605,-0.1732930541038513
-0.0729556083679199,0.4548573195934295,-0.1136688739061355,-0.7843974232673645,-0.0649418458342552,-0.2060325592756271,0.0,0.0,0.9766199588775636,-0.4874212741851806
-0.0741222351789474,0.4381372034549713,-0.1065624803304672,-0.7435846924781799,-0.0749383866786956,-0.1999310255050659,0.0,0.0,0.7243335247039795,0.3593690395355224
-0.0753743201494216,0.4215610027313232,-0.1148048043251037,-0.7372732162475586,-0.0852407217025756,-0.2060463726520538,0.0,0.0,0.671666145324707,-0.6028129458427429
-0.0767398849129676,0.4054239094257355,-0.1272652745246887,-0.7177583575248718,-0.0944464728236198,-0.1841149777173996,0.0,0.0,0.9185001850128174,0.1025514602661132
-0.0780263915657997,0.3897545933723449,-0.1196750625967979,-0.6970059871673584,-0.1033526435494422,-0.1781234741210937,0.0,0.0,0.2847589254379272,-0.008449375629425
-0.0793697386980056,0.3744742274284363,-0.1250160634517669,-0.6797979474067688,-0.1125950366258621,-0.1848479807376861,0.0,0.0,-0.2709438800811767,-0.2985402345657348
-0.0807378739118576,0.358587384223938,-0.1276411712169647,-0.706795871257782,-0.1217174753546714,-0.182448998093605,0.0,0.0,0.7553982734680176,-0.7393563985824585
-0.0821780189871788,0.3427248895168304,-0.1363541185855865,-0.7056472897529602,-0.129336878657341,-0.1523879915475845,0.0,0.0,0.9617636203765868,-0.2811104655265808
-0.0835134536027908,0.3268140256404876,-0.1263727247714996,-0.707787275314331,-0.1364773660898208,-0.1428096890449524,0.0,0.0,0.9152014255523682,-0.6095470190048218
-0.0849077254533767,0.310892790555954,-0.1334754228591919,-0.7081679105758667,-0.1424101293087005,-0.1186552047729492,0.0,0.0,0.9863373041152954,-0.6091492772102356
-0.0862497314810752,0.2957983911037445,-0.1295389384031295,-0.6713160276412964,-0.1470610052347183,-0.0930174887180328,0.0,0.0,0.983912706375122,-0.626568078994751
-0.0874203667044639,0.2815446853637695,-0.1140293851494789,-0.6338006258010864,-0.1500937640666961,-0.060655303299427,0.0,0.0,0.9807286262512208,-0.8928447365760803
-0.0886849388480186,0.2681946754455566,-0.1249983683228492,-0.5934796929359436,-0.1515485793352127,-0.0290963444858789,0.0,0.0,0.9407761096954346,0.6932048797607422
-0.0900248512625694,0.2548319697380066,-0.1308056563138961,-0.594228982925415,-0.1547293812036514,-0.0636161491274833,0.0,0.0,0.8466973304748535,0.1524782180786132
-0.0912096947431564,0.2421609908342361,-0.1155719608068466,-0.563460648059845,-0.157638743519783,-0.058187436312437,0.0,0.0,0.9694950580596924,0.5094196796417236
-0.0923988372087478,0.2299196124076843,-0.1146463379263877,-0.5445200204849243,-0.1618989109992981,-0.0852036923170089,0.0,0.0,0.978472113609314,-0.1068601608276367
-0.0935476273298263,0.2182884812355041,-0.1103652864694595,-0.51743483543396,-0.166413351893425,-0.0902892723679542,0.0,0.0,0.965650200843811,0.3551371097564697
-0.0945983901619911,0.2072844803333282,-0.1005473583936691,-0.4895803332328796,-0.170950785279274,-0.0907486602663993,0.0,0.0,0.2362341880798339,-0.801485002040863
-0.0955900177359581,0.1963141113519668,-0.0963434129953384,-0.4879009127616882,-0.1737764477729797,-0.0565129816532135,0.0,0.0,0.666600227355957,0.2830977439880371
-0.0965243354439735,0.1852403730154037,-0.0907494649291038,-0.4924825727939605,-0.1764612048864364,-0.0536952801048755,0.0,0.0,0.795507550239563,-0.4431618452072143
-0.0973084419965744,0.1741789430379867,-0.0762246996164321,-0.4918801188468933,-0.1786553859710693,-0.0438835620880126,0.0,0.0,0.9882065057754515,0.1764811277389526
-0.0978221893310546,0.16347736120224,-0.0500170774757862,-0.4757871329784393,-0.1800121665000915,-0.0271357633173465,0.0,0.0,0.8589098453521729,-0.7787975072860718
-0.0981753319501876,0.1527880728244781,-0.0358902290463447,-0.4750100672245025,-0.1794342100620269,0.0115589993074536,0.0,0.0,0.848257303237915,-0.0988197326660156
-0.0984107032418251,0.1427335888147354,-0.0240860860794782,-0.4468002021312713,-0.1788782030344009,0.011120063252747,0.0,0.0,0.9550039768218994,-0.6750403642654419
-0.0985253304243087,0.1334055066108703,-0.0134733561426401,-0.41434246301651,-0.1768633723258972,0.0402964875102043,0.0,0.0,0.9155774116516112,-0.1288286447525024
-0.0983877182006836,0.124574027955532,0.0110951317474246,-0.3921913802623749,-0.1741832941770553,0.0536014810204505,0.0,0.0,0.8092782497406006,-0.916382133960724
-0.0981657058000564,0.1156411245465278,0.0175036713480949,-0.3964754045009613,-0.1694765239953994,0.0941354408860206,0.0,0.0,0.6200345754623413,-0.5678883194923401
-0.0979844108223915,0.1068633645772934,0.0124494573101401,-0.3894864022731781,-0.1637837588787078,0.1138549223542213,0.0,0.0,0.9395966529846193,-0.2879620790481567
-0.0975655540823936,0.0989534258842468,0.0357462279498577,-0.3508879840373993,-0.1576472967863083,0.1227292045950889,0.0,0.0,0.2774561643600464,-0.2217784523963928
-0.0971211418509483,0.0910929068922996,0.038403145968914,-0.3487298190593719,-0.1516139209270477,0.1206678375601768,0.0,0.0,0.3515665531158447,-0.4898049831390381
-0.096704676747322,0.0836135447025299,0.0360974334180355,-0.3318605422973633,-0.1460746675729751,0.110784962773323,0.0,0.0,0.743689775466919,-0.5019791722297668
-0.0961489677429199,0.0766103342175483,0.0487553738057613,-0.3106017708778381,-0.1392770260572433,0.1359527707099914,0.0,0.0,0.5788817405700684,0.0560852289199829
-0.0955698043107986,0.0700761899352073,0.0513622090220451,-0.2898093163967132,-0.1327454894781112,0.1306303888559341,0.0,0.0,0.5631930828094482,-0.2129186391830444
-0.0949996933341026,0.0640041679143905,0.0508406274020671,-0.2693304419517517,-0.1266081780195236,0.1227464526891708,0.0,0.0,0.205283522605896,0.3822853565216064
-0.0944270119071006,0.0578693486750125,0.0512230582535266,-0.2721551060676574,-0.1205892190337181,0.1203793734312057,0.0,0.0,0.5706758499145508,0.3891164064407348
-0.0939206108450889,0.0519991740584373,0.0451349541544914,-0.2604629099369049,-0.1151197478175163,0.1093894839286804,0.0,0.0,0.2657287120819092,0.4443686008453369
-0.0935075730085372,0.046139869838953,0.0363750308752059,-0.2600430846214294,-0.1102216690778732,0.0979616492986679,0.0,0.0,0.6886364221572876,0.7713944911956787
-0.0928591713309288,0.0407433360815048,0.0612652786076068,-0.2395843416452407,-0.1066701263189315,0.0710309594869613,0.0,0.0,0.5701055526733398,0.1188511848449707
-0.0921399146318435,0.0352534614503383,0.0681123882532119,-0.2437280565500259,-0.1028894037008285,0.075614146888256,0.0,0.0,0.7287476062774658,0.4507572650909424
-0.0912119895219802,0.0303242783993482,0.0883152335882186,-0.2187737971544265,-0.0984478816390037,0.0888307839632034,0.0,0.0,0.5815458297729492,0.2017486095428466
-0.0902568846940994,0.0259002074599266,0.0911782532930374,-0.1963464617729187,-0.0941492170095443,0.0859735161066055,0.0,0.0,0.7078921794891357,0.4871330261230469
-0.0890954956412315,0.0221675019711256,0.1111466661095619,-0.1655930131673813,-0.0892098918557167,0.0987864881753921,0.0,0.0,0.4173452854156494,-0.5418581962585449
-0.0878854766488075,0.0185671895742416,0.1148064583539962,-0.1596591621637344,-0.0830660909414291,0.1228760033845901,0.0,0.0,0.2689874172210693,-0.8655880689620972
-0.0867204666137695,0.0153156379237771,0.10859265178442,-0.1440962105989456,-0.0752409100532531,0.1565035432577133,0.0,0.0,0.2651709318161011,-0.8075888752937317
-0.0855435356497764,0.0123681398108601,0.108150765299797,-0.1305458694696426,-0.0657922104001045,0.1889736950397491,0.0,0.0,-0.054345965385437,-0.2426879405975341
-0.084388829767704,0.0088145351037383,0.1059515848755836,-0.1575454920530319,-0.0563816726207733,0.1882109493017196,0.0,0.0,0.5817196369171143,-0.558058500289917
-0.0833925232291221,0.0055567598901689,0.0893356129527092,-0.1444320231676101,-0.0462127849459648,0.2033778131008148,0.0,0.0,0.5257207155227661,0.1770298480987548
-0.082514189183712,0.0024135685525834,0.0781342983245849,-0.139427050948143,-0.0366265326738357,0.1917251348495483,0.0,0.0,0.742891788482666,0.7804538011550903
-0.0815382003784179,-1.722812703519594e-05,0.0780357122421264,-0.1076880693435669,-0.0172371938824653,0.3878733813762665,1.0,0.0,0.0615061521530151,-0.5072640180587769
-0.0805777534842491,-0.0025365375913679,0.0753996223211288,-0.1118708327412605,0.0031954094301909,0.4087104797363281,1.0,1.0,0.1808550357818603,0.2957713603973388
-0.0796073898673057,-0.0046744728460907,0.0871082916855812,-0.0952285230159759,0.0124866422265768,0.1851813644170761,1.0,1.0,-0.5486573576927185,-0.9850252270698548
-0.0787769332528114,-0.006440439261496,0.0803805887699127,-0.0785215348005294,0.0151613680645823,0.0535610504448413,1.0,1.0,0.2316018342971801,-0.9759970903396606
-0.07814522087574,-0.0068674110807478,0.0628146231174469,-0.0189902912825346,0.0155386058613657,0.0075771892443299,1.0,1.0,-0.5681889653205872,-0.8617928624153137
-0.0776908844709396,-0.0068175219930708,0.045158602297306,0.0022056065499782,0.0158364959061145,0.0059798387810587,1.0,1.0,-0.7220765948295593,-0.6022723913192749
