x_pos,y_pos,x_vel,y_vel,angle,ang_vel,leg_1,leg_2,main_booster,lat_booster
-0.0015591621631756,1.4031825065612793,-0.1575035005807876,-0.343892902135849,0.0014077788218855,0.0277436859905719,0.0,0.0,0.0888832807540893,0.872183084487915
-0.0030461312271654,1.3954782485961914,-0.1479629278182983,-0.3424166142940521,0.0006839904817752,-0.0144764902070164,0.0,0.0,0.1667215824127197,0.2211658954620361
-0.0044744489714503,1.3877593278884888,-0.1421677321195602,-0.3430617451667785,2.6334793801652268e-05,-0.0131541965529322,0.0,0.0,0.2254683971405029,0.5852799415588379
-0.0059896470047533,1.3801523447036743,-0.1490846276283264,-0.3380874395370483,-0.0023724432103335,-0.0479802265763282,0.0,0.0,-0.1262281537055969,0.2077269554138183
-0.0075397491455078,1.3721034526824951,-0.1521992981433868,-0.357732892036438,-0.005157456267625,-0.0557056777179241,0.0,0.0,-0.309147834777832,0.2916090488433838
-0.0091246608644723,1.3636127710342407,-0.1552914381027221,-0.3773742318153381,-0.0083301411941647,-0.0634592324495315,0.0,0.0,0.3531872034072876,0.8380798101425171
-0.0106952665373682,1.3553894758224487,-0.1517596989870071,-0.3655205965042114,-0.0135754654183983,-0.1049160733819007,0.0,0.0,-0.3470674753189087,0.3785233497619629
-0.0123002054169774,1.346724510192871,-0.1547956615686416,-0.385170966386795,-0.0192070472985506,-0.1126420944929122,0.0,0.0,-0.1834712028503418,-0.2414861917495727
-0.0139390947297215,1.337618350982666,-0.1578042805194854,-0.4048138558864593,-0.0252260658890008,-0.1203915104269981,0.0,0.0,0.5838906764984131,0.7107248306274414
-0.0155389783903956,1.3291175365447998,-0.1520783454179763,-0.377968430519104,-0.0330416597425937,-0.1563263535499572,0.0,0.0,-0.3763935565948486,0.1273891925811767
-0.0171721465885639,1.3201755285263062,-0.1550223529338836,-0.3976245522499084,-0.0412432737648487,-0.1640473306179046,0.0,0.0,-0.4933456182479858,0.5682193040847778
-0.0187882427126169,1.310788631439209,-0.1516649723052978,-0.417493611574173,-0.0510907545685768,-0.1969678103923797,0.0,0.0,-0.4729951024055481,0.3653981685638428
-0.0204368587583303,1.3009614944458008,-0.1545380502939224,-0.4371451139450073,-0.0613238997757434,-0.2046809941530227,0.0,0.0,-0.2266868948936462,0.2997347116470337
-0.0221178047358989,1.290694236755371,-0.157375305891037,-0.4567980766296386,-0.0719432458281517,-0.2124062329530716,0.0,0.0,-0.0132811665534973,0.5284228324890137
-0.0237789154052734,1.27998685836792,-0.153712123632431,-0.4765190482139587,-0.0842420682311058,-0.2459989339113235,0.0,0.0,-0.4257609248161316,0.6669325828552246
-0.0254098884761333,1.2688250541687012,-0.1487367153167724,-0.4969617128372192,-0.098494715988636,-0.2850790619850158,0.0,0.0,-0.0328345298767089,0.3209998607635498
-0.0270715709775686,1.2572243213653564,-0.1514479666948318,-0.5166246294975281,-0.1131317466497421,-0.2927668988704681,0.0,0.0,0.2824954986572265,-0.6630246639251709
-0.0286611560732126,1.245600700378418,-0.145392507314682,-0.5176874995231628,-0.1266289949417114,-0.2699697613716125,0.0,0.0,0.2405822277069091,-0.1697492599487304
-0.0301320068538188,1.2344212532043457,-0.1335148066282272,-0.4980762302875519,-0.1401701867580413,-0.2708483636379242,0.0,0.0,0.0080293416976928,-0.7881380915641785
-0.0317027084529399,1.2233400344848633,-0.1446910351514816,-0.493705004453659,-0.1525417268276214,-0.2474527359008789,0.0,0.0,-0.2032873630523681,-0.7895222902297974
-0.0333504676818847,1.2118364572525024,-0.1532714068889618,-0.5124896764755249,-0.164050742983818,-0.230201169848442,0.0,0.0,0.1526585817337036,-0.3377327919006347
-0.0349681861698627,1.2003483772277832,-0.149952083826065,-0.511930525302887,-0.1759057193994522,-0.2371210604906082,0.0,0.0,-0.7276541590690613,-0.8225575089454651
-0.0366641990840435,1.188433051109314,-0.1587104350328445,-0.5309001803398132,-0.1868516355752945,-0.2189381420612335,0.0,0.0,0.0092099905014038,-0.824779212474823
-0.0383681282401084,1.176354169845581,-0.1607846915721893,-0.5380767583847046,-0.196526437997818,-0.193513423204422,0.0,0.0,0.2401150465011596,-0.8244054913520813
-0.0401879325509071,1.1646029949188232,-0.1735479533672332,-0.5234137773513794,-0.2050308734178543,-0.1701041609048843,0.0,0.0,-0.2765567898750305,-0.7979166507720947
-0.0421133041381835,1.152418613433838,-0.1857046484947204,-0.542487382888794,-0.2119227945804596,-0.1378383636474609,0.0,0.0,0.4056308269500732,-0.3605616092681885
-0.0439315810799598,1.1406993865966797,-0.1746506243944168,-0.521899938583374,-0.2191827595233917,-0.1451993882656097,0.0,0.0,0.1361088752746582,-0.6276165843009949
-0.0457976348698139,1.1294262409210205,-0.1801729053258896,-0.5019985437393188,-0.2256981581449508,-0.1303078234195709,0.0,0.0,-0.2816202640533447,-0.1788410544395446
-0.0476887710392475,1.1177129745483398,-0.1823046952486038,-0.5216497778892517,-0.2325955182313919,-0.1379476338624954,0.0,0.0,0.5714708566665649,-0.7360243201255798
-0.0495757088065147,1.1062614917755127,-0.182940661907196,-0.5098809599876404,-0.2384329289197921,-0.1167480945587158,0.0,0.0,0.1056023836135864,-0.7875532507896423
-0.0513974204659462,1.0952208042144775,-0.1776312738656997,-0.49144047498703,-0.2430457323789596,-0.0922560840845108,0.0,0.0,0.3032518625259399,0.0879310369491577
-0.0532186515629291,1.0842649936676023,-0.176930546760559,-0.4877833724021911,-0.2483219057321548,-0.1055238246917724,0.0,0.0,0.1336040496826172,-0.1874428987503051
-0.0549818985164165,1.0736896991729736,-0.1705219447612762,-0.4710057377815246,-0.2542386054992676,-0.1183344349265098,0.0,0.0,-0.2016913890838623,-0.6196460723876953
-0.0568202026188373,1.062689185142517,-0.179015040397644,-0.4897581040859222,-0.2591521441936493,-0.0982705876231193,0.0,0.0,0.2309683561325073,-0.5415470004081726
-0.0585880279541015,1.0519381761550903,-0.1727051436901092,-0.4785486161708832,-0.2633184790611267,-0.0833268612623214,0.0,0.0,-0.2221620082855224,0.0108845233917236
-0.0603761672973632,1.0407469272613523,-0.1743806451559066,-0.4981988072395324,-0.2678591907024383,-0.0908133834600448,0.0,0.0,0.832679033279419,-0.8162379264831543
-0.0621439926326274,1.029879808425903,-0.1735277771949768,-0.4835762679576874,-0.2711857259273529,-0.0665310844779014,0.0,0.0,0.4324498176574707,0.4509148597717285
-0.0637220367789268,1.0195127725601196,-0.1543532609939575,-0.4613974392414093,-0.2747302651405334,-0.0708903521299362,0.0,0.0,0.0624438524246215,-0.0789166688919067
-0.0651957541704177,1.009498119354248,-0.1434413790702819,-0.4458426237106323,-0.2787602543830871,-0.0805999785661697,0.0,0.0,-0.7538341283798218,-0.491388201713562
-0.0666870102286338,0.9990430474281312,-0.1448398232460022,-0.4654929339885711,-0.2831562459468841,-0.087920144200325,0.0,0.0,0.2268545627593994,-0.5086828470230103
-0.0681539550423622,0.9890374541282654,-0.1429023742675781,-0.4454337358474731,-0.2870627045631408,-0.0781294181942939,0.0,0.0,-0.5653734803199768,-0.2500309944152832
-0.0696370154619216,0.9785916209220886,-0.1441612392663955,-0.4650840759277344,-0.2913294434547424,-0.0853348076343536,0.0,0.0,-0.2354663014411926,-0.5222928524017334
-0.0711695700883865,0.9677147269248962,-0.1496288925409317,-0.4841474592685699,-0.2950688004493713,-0.0747876316308975,0.0,0.0,0.1199451684951782,-0.7608582377433777
-0.0725962668657302,0.9569026231765748,-0.140259176492691,-0.4810271263122558,-0.2975598573684692,-0.0498210042715072,0.0,0.0,-0.251067042350769,-0.7327824234962463
-0.0740975365042686,0.9456688165664672,-0.1489092409610748,-0.4995272755622864,-0.2988179326057434,-0.0251616835594177,0.0,0.0,0.0589563846588134,-0.949962317943573
-0.0755887031555175,0.9343099594116212,-0.1494245678186416,-0.5047823786735535,-0.2985092997550964,0.0061727729625999,0.0,0.0,0.1454565525054931,-0.7008881568908691
-0.0770091041922569,0.9229541420936584,-0.1434300690889358,-0.50441575050354,-0.2970672249794006,0.0288414396345615,0.0,0.0,0.2795989513397217,-0.7210150361061096
-0.0783982276916503,0.9121592044830322,-0.1412861496210098,-0.4792922437191009,-0.2946140766143799,0.0490631237626075,0.0,0.0,-0.1317468881607055,-0.8192611336708069
-0.0798721313476562,0.9009649157524108,-0.151435986161232,-0.4967108964920044,-0.2904491722583771,0.0832979157567024,0.0,0.0,-0.4439468383789062,-0.8270354866981506
-0.0814213752746582,0.8893570303916931,-0.1603511571884155,-0.5148385167121887,-0.2848685681819916,0.1116122007369995,0.0,0.0,0.0483345985412597,-0.2439327239990234
-0.0827910453081131,0.8777920603752136,-0.1424999833106994,-0.5129315257072449,-0.2791808247566223,0.113755464553833,0.0,0.0,-0.6967179775238037,-0.2859625816345215
-0.0841695815324783,0.865786612033844,-0.1430979967117309,-0.5325817465782166,-0.2737989425659179,0.1076376438140869,0.0,0.0,-0.85809326171875,-0.3528568744659424
-0.0855563133955001,0.853340744972229,-0.1436364948749542,-0.5522314310073853,-0.2687142491340637,0.101694069802761,0.0,0.0,-0.8607301115989685,-0.1253874897956848
-0.0869505852460861,0.8404542803764343,-0.1441172510385513,-0.5718805193901062,-0.2639172673225403,0.0959398746490478,0.0,0.0,-0.8002963662147522,-0.4039190411567688
-0.0883517265319824,0.8271271586418152,-0.1445421278476715,-0.5915290117263794,-0.2593977451324463,0.0903910771012306,0.0,0.0,-0.6360298991203308,-0.3306702971458435
-0.0897591561079025,0.8133592009544373,-0.1449131220579147,-0.6111770272254944,-0.2551445066928863,0.0850643217563629,0.0,0.0,-0.9240373969078064,-0.5198202133178711
-0.0912048369646072,0.7991682887077332,-0.1493686437606811,-0.6298856735229492,-0.2502544820308685,0.0978006720542907,0.0,0.0,-0.8333485722541809,-0.5238121747970581
-0.0926861763000488,0.7845504283905029,-0.1534892618656158,-0.6487794518470764,-0.2447881996631622,0.1093254685401916,0.0,0.0,-0.5116407871246338,-0.1428678631782531
-0.094171717762947,0.7694916129112244,-0.1537118256092071,-0.6684271693229675,-0.2395496666431427,0.1047705188393592,0.0,0.0,-0.6983574628829956,-0.1403811573982238
-0.0956610664725303,0.7539920210838318,-0.1538892090320587,-0.6880742311477661,-0.2345242202281952,0.1005092412233352,0.0,0.0,-0.3127147555351257,0.1477046012878418
-0.0971537604928016,0.7380513548851013,-0.1540238261222839,-0.7077207565307617,-0.2296962291002273,0.0965598374605178,0.0,0.0,-0.5780371427536011,-0.4692407846450805
-0.0986490249633789,0.721669614315033,-0.1541180908679962,-0.7273666858673096,-0.2250492125749588,0.092940367758274,0.0,0.0,0.0332504510879516,-0.1352447271347046
-0.0999990478157997,0.7052939534187317,-0.1397788822650909,-0.7270885109901428,-0.220208466053009,0.096814677119255,0.0,0.0,-0.1302668452262878,-0.4015645980834961
-0.1013505905866622,0.6884769797325134,-0.1397999823093414,-0.7467336654663086,-0.2155131697654724,0.0939059033989906,0.0,0.0,0.7029184103012085,0.2885398864746094
-0.1026070564985275,0.6718217134475708,-0.1302006393671035,-0.7395802736282349,-0.2109070420265197,0.0921221375465393,0.0,0.0,-0.0402998924255371,0.3846518993377685
-0.1038639992475509,0.6547249555587769,-0.1301586329936981,-0.7592244744300842,-0.2064077705144882,0.0899851769208908,0.0,0.0,0.8210302591323853,0.1438783407211303
-0.1049046516418457,0.6385642886161804,-0.1085460931062698,-0.7176254391670227,-0.2018856555223465,0.0904422476887703,0.0,0.0,0.2328188419342041,-0.1810343265533447
-0.1058410629630088,0.6222646236419678,-0.0983553156256675,-0.7237967848777771,-0.1971460729837417,0.0947917252779007,0.0,0.0,0.8300755023956299,-0.1982994079589843
-0.1065621376037597,0.6069056391716003,-0.0769143551588058,-0.6819924712181091,-0.1923126876354217,0.0966676622629165,0.0,0.0,-0.796040415763855,-0.2213192582130432
-0.1072821617126464,0.5911051034927368,-0.0767772868275642,-0.7016354203224182,-0.1875026226043701,0.0962013825774192,0.0,0.0,0.5627734661102295,0.062295913696289
-0.1079663261771202,0.5758311152458191,-0.0728155225515365,-0.6782980561256409,-0.1830961257219314,0.0881302431225776,0.0,0.0,0.2602405548095703,-0.1716922521591186
-0.1085392013192176,0.5608090758323669,-0.061801940202713,-0.6670922636985779,-0.1785612553358078,0.0906978100538253,0.0,0.0,-0.7247870564460754,-0.1168417334556579
-0.1091096848249435,0.5453453660011292,-0.0616205558180809,-0.6867340207099915,-0.1739851087331771,0.0915229171514511,0.0,0.0,0.4735028743743896,-0.1039984822273254
-0.1095239669084549,0.5301838517189026,-0.0463601499795913,-0.6732791662216187,-0.1690433770418167,0.0988350659608841,0.0,0.0,0.2464960813522339,-0.4629935026168823
-0.1099107712507247,0.5150231122970581,-0.0435869805514812,-0.6732578873634338,-0.164135992527008,0.098147839307785,0.0,0.0,0.5735130310058594,-0.1400982737541198
-0.1101799979805946,0.4998629093170166,-0.0322342738509178,-0.6732093095779419,-0.1588253229856491,0.1062130182981491,0.0,0.0,0.8429408073425293,0.0184448957443237
-0.1104208007454872,0.4848301112651825,-0.0293573383241891,-0.6675721406936646,-0.1535542458295822,0.1054214984178543,0.0,0.0,0.7030489444732666,-0.6133307814598083
-0.1105894073843956,0.470586359500885,-0.0235032718628644,-0.6323887705802917,-0.1469332575798034,0.1324197351932525,0.0,0.0,0.1885334253311157,0.8670430183410645
-0.1105338111519813,0.4567503929138183,0.000455493980553,-0.6144359111785889,-0.1418448388576507,0.1017683520913124,0.0,0.0,0.3216445446014404,-0.0775107145309448
-0.1104708686470985,0.4434624910354614,0.0014272939879447,-0.5901190638542175,-0.1369930356740951,0.0970357209444046,0.0,0.0,0.2451233863830566,0.0964337587356567
-0.1104664802551269,0.4301234781742096,-0.0041806055232882,-0.5924274325370789,-0.1323969513177871,0.0919218808412551,0.0,0.0,0.7079412937164307,-0.2013617753982544
-0.1103090271353721,0.4175492823123932,0.0107299145311117,-0.5584144592285156,-0.1273966431617736,0.1000061407685279,0.0,0.0,-0.4692703485488891,0.2814037799835205
-0.110147476196289,0.4045332074165344,0.0108975367620587,-0.5780547261238098,-0.1221700385212898,0.1045319214463234,0.0,0.0,0.5880942344665527,0.8313658237457275
-0.1098952293395996,0.3920471966266632,0.0214849803596735,-0.5546303391456604,-0.1184539124369621,0.0743225291371345,0.0,0.0,0.0954978466033935,-0.6883352994918823
-0.1096469908952713,0.379824548959732,0.0194576494395732,-0.5428111553192139,-0.1131182387471199,0.1067133769392967,0.0,0.0,0.1926689147949218,0.6442698240280151
-0.1092268973588943,0.3677654862403869,0.0375579111278057,-0.5356281399726868,-0.1086968779563903,0.0884272530674934,0.0,0.0,0.3348549604415893,0.1242743730545044
-0.108753964304924,0.3556736707687378,0.0424708612263202,-0.5370710492134094,-0.1039092540740966,0.0957525521516799,0.0,0.0,0.3359100818634033,0.2115130424499511
-0.1081689819693565,0.3436139523983001,0.0530340895056724,-0.5356174111366272,-0.0984861925244331,0.1084612756967544,0.0,0.0,0.2431743144989013,0.3291441202163696
-0.1074280738830566,0.3317374885082245,0.0678105130791664,-0.5274423360824585,-0.0922525525093078,0.1246727257966995,0.0,0.0,0.3493108749389648,0.0352687835693359
-0.1065406799316406,0.3198846876621246,0.0816061347723007,-0.5263681411743164,-0.0851845368742942,0.1413602530956268,0.0,0.0,-0.0258387327194213,0.2959386110305786
-0.1056501418352127,0.3075903058052063,0.0815987810492515,-0.5460106730461121,-0.0778001993894577,0.1476865857839584,0.0,0.0,0.3018122911453247,0.6034324169158936
-0.1046355217695236,0.2957440316677093,0.0948294028639793,-0.5261712670326233,-0.0712412223219871,0.1311798840761184,0.0,0.0,0.233831524848938,0.5097018480300903
-0.1034414321184158,0.2841882109642029,0.1132502779364585,-0.5133119225502014,-0.0651447474956512,0.1219292730093002,0.0,0.0,-0.1801434755325317,0.6181087493896484
-0.102188304066658,0.2721785604953766,0.1202672570943832,-0.5335531234741211,-0.0601481422781944,0.0999322608113288,0.0,0.0,0.6098402738571167,-0.0727396011352539
-0.1009542495012283,0.2604745626449585,0.1182385310530662,-0.5199783444404602,-0.0550437793135643,0.1020869836211204,0.0,0.0,0.5304734706878662,-0.1880171298980713
-0.0995962172746658,0.249519407749176,0.1299203634262085,-0.4866911470890045,-0.0492264218628406,0.1163471192121505,0.0,0.0,-0.0015901327133178,-0.2834950685501098
-0.0982367545366287,0.2381225228309631,0.1297010481357574,-0.5063331723213196,-0.0430534668266773,0.1234592646360397,0.0,0.0,0.5894656181335449,-0.1851565837860107
-0.0969628319144249,0.227438747882843,0.1213369145989418,-0.4746734797954559,-0.0370737537741661,0.1195941716432571,0.0,0.0,0.1491343975067138,0.1836105585098266
-0.0956097617745399,0.217037633061409,0.1286012381315231,-0.4621218740940094,-0.0304490178823471,0.1324947625398636,0.0,0.0,0.4188020229339599,-0.5760623216629028
-0.094332218170166,0.2071697562932968,0.1196212023496627,-0.4384306371212005,-0.0224197525531053,0.1605853736400604,0.0,0.0,-0.3156148195266723,0.5569782257080078
-0.0930167213082313,0.1968632787466049,0.1240052580833435,-0.457969605922699,-0.0149728339165449,0.1489384323358535,0.0,0.0,0.3931174278259277,0.1944694519042968
-0.0917165726423263,0.1867459118366241,0.1221986189484596,-0.4496041536331177,-0.0072464481927454,0.1545274555683136,0.0,0.0,0.6039251089096069,0.8011784553527832
-0.0904751792550087,0.1770644932985305,0.1177583709359169,-0.4302701652050018,-0.000948860833887,0.1259517818689346,0.0,0.0,0.1886775493621826,-0.2260599732398986
-0.0893430709838867,0.1675069630146026,0.1069429367780685,-0.4247856140136719,0.0052306526340544,0.1235902905464172,0.0,0.0,0.2475124597549438,-0.1267605423927307
-0.0881358161568641,0.1583227217197418,0.1137023121118545,-0.4082288444042206,0.0121656404808163,0.1386998742818832,0.0,0.0,-0.1323572397232055,0.5768287181854248
-0.086880587041378,0.148693099617958,0.1193853989243507,-0.4280466437339782,0.0182249452918767,0.1211859807372093,0.0,0.0,0.7213926315307617,0.6951954364776611
-0.0854233726859092,0.1398256421089172,0.1402181982994079,-0.3941869437694549,0.0236577987670898,0.1086569428443908,0.0,0.0,-0.1543372869491577,-0.9489493370056152
-0.0840476006269455,0.1305220872163772,0.1296953111886978,-0.4136343002319336,0.0314415246248245,0.1556746661663055,0.0,0.0,0.733291745185852,0.9271472692489624
-0.0824636444449424,0.1221436560153961,0.1517171561717987,-0.3725294768810272,0.0380299240350723,0.1317681819200515,0.0,0.0,-0.1955289244651794,-0.3823597431182861
-0.0808841735124588,0.1133241280913353,0.1508813649415969,-0.3921749889850616,0.0450148843228817,0.1396992653608322,0.0,0.0,0.8193994760513306,0.3385877609252929
-0.0793578177690506,0.1054103970527648,0.1451947093009948,-0.3519620895385742,0.0523614436388015,0.1469310969114303,0.0,0.0,0.3781676292419433,0.8737695217132568
-0.0777450576424598,0.0980573520064354,0.1551470160484314,-0.3270278871059418,0.0584265366196632,0.1213018745183944,0.0,0.0,-0.2367115020751953,-0.9195836186408995
-0.0762008652091026,0.0902533382177352,0.1462778598070144,-0.3471849262714386,0.06647939234972,0.1610566973686218,0.0,0.0,0.8978956937789917,0.9713664054870604
-0.0747893303632736,0.0830652341246604,0.1348186433315277,-0.3197644650936126,0.0727435797452926,0.1252839267253875,0.0,0.0,0.5836244821548462,0.9065936803817748
-0.0734869018197059,0.0761645883321762,0.1255198717117309,-0.3069339394569397,0.0774228200316429,0.0935849621891975,0.0,0.0,0.3476561307907104,0.8851044178009033
-0.0721775069832801,0.0695155709981918,0.1276023834943771,-0.2956871688365936,0.0807263925671577,0.066071443259716,0.0,0.0,0.4414167404174804,0.8473385572433472
-0.0708210915327072,0.0631306990981102,0.1335642039775848,-0.2838863730430603,0.0827809497714042,0.0410909280180931,0.0,0.0,0.2990784645080566,0.2219874858856201
-0.0693941116333007,0.0567398183047771,0.1397353410720825,-0.2842050194740295,0.0857179537415504,0.0587399303913116,0.0,0.0,0.7095438241958618,0.1112149953842163
-0.0679360404610633,0.0509780757129192,0.1419625729322433,-0.2563046514987945,0.0895298868417739,0.0762386247515678,0.0,0.0,0.5065016746520996,0.7952709197998047
-0.0664654746651649,0.0458933934569358,0.1443620771169662,-0.2261520773172378,0.0922035351395607,0.0534730032086372,0.0,0.0,0.0205879211425781,-0.6299826502799988
