x_pos,y_pos,x_vel,y_vel,angle,ang_vel,leg_1,leg_2,main_booster,lat_booster
-0.0014697074657306,1.4033275842666626,-0.1484755426645279,-0.3374399542808532,0.0013492160942405,0.0265838708728551,0.0,0.0,-0.1829257011413574,0.8555190563201904
-0.0028119087219238,1.3954576253890991,-0.1333258152008056,-0.3497787415981293,0.000460657174699,-0.017772177234292,0.0,0.0,-0.0858909487724304,0.4343111515045166
-0.0040992735885083,1.3872902393341064,-0.1274828165769577,-0.3629915118217468,-0.0007719510467723,-0.0246547646820545,0.0,0.0,-0.4192923307418823,0.4633941650390625
-0.0053313253447413,1.378826141357422,-0.1216315999627113,-0.3761854469776153,-0.0023273443803191,-0.031110817566514,0.0,0.0,-0.2331970930099487,0.1505244970321655
-0.0065078735351562,1.3700653314590454,-0.1157728433609008,-0.3893754184246063,-0.0041824337095022,-0.0371056422591209,0.0,0.0,-0.2157668471336364,0.028746485710144
-0.0076286317780613,1.361007809638977,-0.1099076718091964,-0.4025653004646301,-0.0063137509860098,-0.042630411684513,0.0,0.0,-0.1118481755256652,0.2618824243545532
-0.0086931232362985,1.3516535758972168,-0.1040372624993324,-0.4157553613185882,-0.0086970711126923,-0.0476708859205246,0.0,0.0,-0.666361391544342,0.50606369972229
-0.009651375003159,1.3420034646987915,-0.0919270142912864,-0.4289160072803497,-0.012557603418827,-0.0772178322076797,0.0,0.0,-0.7692010998725891,0.1061453819274902
-0.0105528831481933,1.332056999206543,-0.0860454589128494,-0.4421070516109466,-0.0166191440075635,-0.0812384635210037,0.0,0.0,-0.4836632013320923,-0.1264808177947998
-0.011397361755371,1.3218140602111816,-0.0801618099212646,-0.4552982151508331,-0.0208566635847091,-0.08475823700428,0.0,0.0,0.082152247428894,-0.4895920157432556
-0.0121199609711766,1.311856746673584,-0.06808852404356,-0.4426112771034241,-0.0249759461730718,-0.0823931843042373,0.0,0.0,-0.9412873387336732,-0.7477102875709534
-0.0128368381410837,1.301603078842163,-0.0687309801578521,-0.4557676315307617,-0.0279102511703968,-0.0586915016174316,0.0,0.0,-0.6910070180892944,-0.2339773774147033
-0.013495922088623,1.291053056716919,-0.0628501549363136,-0.4689562618732452,-0.0309417899698019,-0.0606360360980033,0.0,0.0,-0.9431081414222716,-0.7931522727012634
-0.0141526218503713,1.2802013158798218,-0.0639307647943496,-0.4823319613933563,-0.0326509922742843,-0.0341871939599514,0.0,0.0,-0.8650920987129211,-0.6694684028625488
-0.0147912027314305,1.2690619230270386,-0.0631147176027298,-0.4951041936874389,-0.0333864130079746,-0.0147097436711192,0.0,0.0,-0.8814046382904053,-0.1510456800460815
-0.0153713226318359,1.257625699043274,-0.057245910167694,-0.5082944631576538,-0.0341397821903228,-0.0150690656155347,0.0,0.0,-0.3817102909088135,-0.5454084873199463
-0.0159256942570209,1.2459006309509275,-0.0555296130478382,-0.52110755443573,-0.0340488962829113,0.0018178591271862,0.0,0.0,-0.5552982091903687,-0.630551815032959
-0.0164592750370502,1.2338755130767822,-0.0544495657086372,-0.5344274640083313,-0.0329694040119648,0.0215919204056262,0.0,0.0,-0.893322765827179,-0.588237464427948
-0.016972541809082,1.221561074256897,-0.0534718222916126,-0.5472620129585266,-0.0308511890470981,0.0423684492707252,0.0,0.0,-0.8745104670524597,-0.3734558820724487
-0.0174264907836914,1.2089498043060305,-0.0476276278495788,-0.5604522228240967,-0.0286505185067653,0.0440173670649528,0.0,0.0,-0.3640347719192505,-0.6990719437599182
-0.0178646091371774,1.1960490942001345,-0.0472404733300209,-0.5733109712600708,-0.0252479296177625,0.0680578127503395,0.0,0.0,-0.8892818093299866,-0.515288770198822
-0.0182829853147268,1.182850003242493,-0.0464262142777442,-0.5865480899810791,-0.0207127705216407,0.0907113477587699,0.0,0.0,-0.9076514840126038,-0.2596262693405151
-0.0186416618525981,1.1693545579910278,-0.0406077802181243,-0.5997393727302551,-0.0160264484584331,0.0937347635626792,0.0,0.0,-0.8342500925064087,0.0315320491790771
-0.0189405437558889,1.1555626392364502,-0.0347970202565193,-0.6129310727119446,-0.0111671593040227,0.0971942022442817,0.0,0.0,-0.8574882745742798,0.5075068473815918
-0.0191487316042184,1.1414750814437866,-0.0251446366310119,-0.6260891556739807,-0.0068856365978717,0.0856377780437469,0.0,0.0,-0.6855331659317017,0.0873243808746337
-0.0192968361079692,1.1270694732666016,-0.0193594582378864,-0.6402342915534973,-0.0023904461413621,0.0899036824703216,0.0,0.0,-0.851879358291626,0.4379727840423584
-0.0193845741450786,1.1123673915863037,-0.0135621670633554,-0.6534239053726196,0.0023377609904855,0.0945643931627273,0.0,0.0,-0.4733529090881347,0.4101400375366211
-0.0194118507206439,1.0973690748214722,-0.007775136269629,-0.666613757610321,0.0073174182325601,0.0995931923389434,0.0,0.0,-0.8694190382957458,0.5915026664733887
-0.0193419456481933,1.082079529762268,0.0025991417933255,-0.6795644760131836,0.0116444751620292,0.0865413099527359,0.0,0.0,-0.9194344878196716,0.8311644792556763
-0.0191481597721576,1.0664913654327393,0.016330374404788,-0.6928314566612244,0.0146620003506541,0.0603503473103046,0.0,0.0,-0.7503008246421814,0.6005750894546509
-0.0188447944819927,1.050614595413208,0.0282230731099843,-0.7056595087051392,0.0167489871382713,0.0417396575212478,0.0,0.0,-0.9239978194236756,0.0557030439376831
-0.0184808727353811,1.034440994262695,0.0339600145816803,-0.7188482880592346,0.01915218308568,0.0480637997388839,0.0,0.0,-0.5291393399238586,0.6126062870025635
-0.018014620989561,1.017977952957153,0.0449226275086402,-0.7317145466804504,0.0208339393138885,0.0336349830031394,0.0,0.0,-0.6274035573005676,0.3975294828414917
-0.0174878127872943,1.001218318939209,0.0506279245018959,-0.7449034452438354,0.0228592064231634,0.0405055209994316,0.0,0.0,-0.8748564124107361,-0.2102516293525695
-0.0169005393981933,0.9841621518135072,0.0563153736293315,-0.75809246301651,0.0252404920756816,0.047625608742237,0.0,0.0,-0.7322058081626892,0.8037505149841309
-0.0161874778568744,0.9668179154396056,0.0701929479837417,-0.7708756923675537,0.0263420864939689,0.0220315195620059,0.0,0.0,-0.1001295447349548,0.3601295948028564
-0.0154141429811716,0.9491769671440125,0.0758399814367294,-0.784064531326294,0.0278224237263202,0.0296065509319305,0.0,0.0,-0.8408625721931458,0.1541597843170166
-0.0145805357024073,0.931239664554596,0.0814641416072845,-0.7972536683082581,0.0296918246895074,0.0373882129788398,0.0,0.0,-0.1493563652038574,-0.2151349782943725
-0.0136870387941598,0.9130056500434875,0.0870634317398071,-0.8104429841041565,0.0319600030779838,0.0453634746372699,0.0,0.0,-0.6994030475616455,0.7561676502227783
-0.0126709938049316,0.8944792151451111,0.1004905849695205,-0.8234223127365112,0.0330612063407897,0.0220238305628299,0.0,0.0,0.1124325990676879,0.4639197587966919
-0.0116844177246093,0.8764386177062988,0.0974530950188636,-0.8018302917480469,0.0342461206018924,0.0236985944211483,0.0,0.0,-0.1582597494125366,0.2961102724075317
-0.0106384279206395,0.8581016063690186,0.1029636263847351,-0.8150196075439453,0.0358552746474742,0.0321831926703453,0.0,0.0,-0.0946457982063293,0.7613823413848877
-0.0094632152467966,0.8394633531570435,0.1172334551811218,-0.8283731937408447,0.036138255149126,0.0056593753397464,0.0,0.0,0.0918294191360473,-0.0612615942955017
-0.0081762317568063,0.8210558295249939,0.1276595145463943,-0.8181372880935669,0.037163283675909,0.0205007307231426,0.0,0.0,-0.7895803451538086,-0.3808087110519409
-0.0068307877518236,0.8023518919944763,0.1330549567937851,-0.8313267230987549,0.0386333093047142,0.0294003933668136,0.0,0.0,-0.5040935277938843,-0.682744026184082
-0.005476951599121,0.783341646194458,0.1321652829647064,-0.8449867963790894,0.0418098382651805,0.0635306984186172,0.0,0.0,-0.632419228553772,0.235095739364624
-0.0040655136108398,0.7640349268913269,0.1374654918909073,-0.8581771850585938,0.0454429723322391,0.0726625546813011,0.0,0.0,-0.4166780710220337,0.1326441764831543
-0.0025970458518713,0.7444321513175964,0.1427114307880401,-0.8713680505752563,0.0495379231870174,0.0818987861275672,0.0,0.0,-0.3950258493423462,-0.7073429226875305
-0.0011404037941247,0.7245344519615173,0.1393174827098846,-0.8845651149749756,0.0558159314095974,0.1255599558353424,0.0,0.0,0.0413801670074462,0.7715452909469604
0.00039997100248,0.7048225998878479,0.1487717479467392,-0.8762893676757812,0.0610222667455673,0.1041269525885582,0.0,0.0,0.1611706018447876,-0.4034080505371094
0.0020718574523925,0.6854249835014343,0.1609686911106109,-0.8623844981193542,0.0671704038977623,0.1229625195264816,0.0,0.0,-0.3487738370895386,-0.2370779514312744
0.003798198653385,0.6657316088676453,0.1659438610076904,-0.8755783438682556,0.0737978592514991,0.1325490176677703,0.0,0.0,0.69339919090271,-0.8674789667129517
0.0056007383391261,0.6464258432388306,0.171121135354042,-0.8585129976272583,0.0828417688608169,0.1808779537677765,0.0,0.0,0.6979329586029053,0.9420909881591796
0.0074657439254224,0.6280685067176819,0.1787784993648529,-0.8163238763809204,0.0904977917671203,0.1531205922365188,0.0,0.0,0.2130684852600097,0.3855472803115845
0.0094594005495309,0.6099657416343689,0.1906317174434662,-0.8051233887672424,0.0991494357585907,0.1730328500270843,0.0,0.0,0.1166675090789794,0.5571303367614746
0.011445140466094,0.5920365452766418,0.1905980408191681,-0.7974027395248413,0.1070611104369163,0.1582339704036712,0.0,0.0,-0.0420929193496704,0.6084206104278564
0.0135354045778512,0.5738266110420227,0.2019826620817184,-0.8098554015159607,0.1140628233551979,0.1400341093540191,0.0,0.0,0.158934473991394,-0.2089943885803222
0.0157166477292776,0.5560429692268372,0.2101199179887771,-0.7910166382789612,0.1220100820064544,0.1589451432228088,0.0,0.0,-0.1211864352226257,0.265575647354126
0.0179449077695608,0.5379642248153687,0.2143375426530838,-0.8042150139808655,0.1304574161767959,0.1689466536045074,0.0,0.0,0.6581318378448486,-0.475259780883789
0.0200406070798635,0.5207485556602478,0.2009287625551223,-0.765916645526886,0.1390534043312072,0.171920046210289,0.0,0.0,0.5958271026611328,0.940981388092041
0.0222604759037494,0.5037882924079895,0.2146707326173782,-0.7544877529144287,0.1463458985090255,0.1458500176668167,0.0,0.0,0.5042598247528076,0.312970757484436
0.0243392940610647,0.4874608814716339,0.2004965543746948,-0.7264108657836914,0.1537222266197204,0.1475268304347992,0.0,0.0,0.2212786674499511,0.8774846792221069
0.0265733711421489,0.4714429378509521,0.2172102630138397,-0.7125606536865234,0.1599141359329223,0.1238380521535873,0.0,0.0,-0.0833376049995422,0.2703902721405029
0.028846263885498,0.4551299810409546,0.2205842286348343,-0.7257585525512695,0.1666155010461807,0.1340272575616836,0.0,0.0,0.7806382179260254,-0.1724962592124939
0.0310924537479877,0.4391631782054901,0.2173835039138794,-0.7104651927947998,0.173866793513298,0.1450254917144775,0.0,0.0,0.5671522617340088,0.1628937721252441
0.0331606864929199,0.4236992597579956,0.1996188908815384,-0.688144326210022,0.1810870915651321,0.144406110048294,0.0,0.0,0.4385409355163574,0.846941351890564
0.0352123267948627,0.4090734422206878,0.1991336047649383,-0.6507869958877563,0.1871416717767715,0.1210915297269821,0.0,0.0,-0.616577684879303,0.5241516828536987
0.0373409278690815,0.3941595554351806,0.2075131386518478,-0.6635258197784424,0.1925195455551147,0.1075575575232505,0.0,0.0,0.3276262283325195,0.0919078588485717
0.0393870361149311,0.3799668848514557,0.19866344332695,-0.6315715312957764,0.1985132247209549,0.1198731437325477,0.0,0.0,0.0875756740570068,0.0578159093856811
0.0413359627127647,0.3659192621707916,0.1887136399745941,-0.6251816153526306,0.2047362923622131,0.1244616955518722,0.0,0.0,0.018476128578186,0.804079532623291
0.0432189926505088,0.3521921634674072,0.1832437068223953,-0.6108024716377258,0.2098416984081268,0.1021077260375022,0.0,0.0,-0.1124105453491211,0.8936892747879028
0.0451937690377235,0.3381948173046112,0.1937862336635589,-0.6226328611373901,0.2135734260082245,0.0746345072984695,0.0,0.0,0.6153030395507812,0.2678630352020263
0.046887207776308,0.3250727951526642,0.1657136529684066,-0.5837307572364807,0.2172397822141647,0.0733273848891258,0.0,0.0,0.67069411277771,0.8958849906921387
0.048618696630001,0.3125606179237366,0.1706653386354446,-0.5564610362052917,0.2197436988353729,0.0500785000622272,0.0,0.0,0.2400763034820556,0.592656135559082
0.0503160469233989,0.3001847565174103,0.1679830849170684,-0.5503033995628357,0.2215247750282287,0.0356214977800846,0.0,0.0,0.5005872249603271,0.5371136665344238
0.0520637519657611,0.2879761457443237,0.1734011322259903,-0.5428131222724915,0.222908928990364,0.0276828948408365,0.0,0.0,0.7768938541412354,-0.3065081834793091
0.0537025444209575,0.2759950160980224,0.1621646732091903,-0.5327528715133667,0.2246521562337875,0.0348642207682132,0.0,0.0,0.8615849018096924,-0.0868817567825317
0.0551352500915527,0.2650225758552551,0.1410804986953735,-0.4879976212978363,0.226867213845253,0.044301088899374,0.0,0.0,0.8856019973754883,0.466239333152771
0.056446649134159,0.2551467418670654,0.1280341446399688,-0.4394100606441498,0.2300192713737487,0.0630412548780441,0.0,0.0,0.7564504146575928,0.9004549980163574
0.0574949271976947,0.246232584118843,0.1032253056764602,-0.3964351117610931,0.2316482663154602,0.0325799733400344,0.0,0.0,0.8277480602264404,0.329899787902832
0.0583132728934288,0.2375090420246124,0.0803759098052978,-0.3879447877407074,0.2331266105175018,0.029566828161478,0.0,0.0,0.9061710834503174,0.0175495147705078
0.0589569099247455,0.229837492108345,0.0621917769312858,-0.3413008451461792,0.2353298664093017,0.0440649911761283,0.0,0.0,0.9584131240844728,0.045866847038269
0.059312630444765,0.2228239923715591,0.0334552079439163,-0.3120520710945129,0.2374849319458007,0.0431011319160461,0.0,0.0,0.946286916732788,0.1547585725784301
0.0594032295048236,0.2166567593812942,0.0067329281009733,-0.2744762301445007,0.2398460954427719,0.0472233109176158,0.0,0.0,0.8525770902633667,0.3996734619140625
0.0592774376273155,0.2113321870565414,-0.0153376339003443,-0.2370993494987487,0.2426472455263137,0.0560230016708374,0.0,0.0,-0.3306222558021545,0.7193816900253296
0.0591951385140419,0.2057361006736755,-0.0098403934389352,-0.2489819824695587,0.2442844063043594,0.0327429622411727,0.0,0.0,0.1284935474395752,0.6786518096923828
0.0591052994132041,0.2002048045396804,-0.0097598759457468,-0.2459654361009597,0.245073065161705,0.0157731082290411,0.0,0.0,0.76332688331604,0.6764440536499023
0.0590437874197959,0.1950573325157165,-0.0063113719224929,-0.2288026958703994,0.2452388405799865,0.0033153272233903,0.0,0.0,0.2275148630142212,0.6249086856842041
0.0590188018977642,0.190294086933136,-0.0020954932551831,-0.2116319239139557,0.2448272109031677,-0.0082329753786325,0.0,0.0,0.3729554414749145,0.725399374961853
0.0590680129826068,0.185775026679039,0.0060921804979443,-0.2006531804800033,0.2436347752809524,-0.0238490439951419,0.0,0.0,0.6755882501602173,0.1037850379943847
0.0588978752493858,0.1820678561925888,-0.0162787325680255,-0.1646435111761093,0.2428934127092361,-0.0148271964862942,0.0,0.0,-0.1150753498077392,0.4549472332000732
0.0586960799992084,0.1780654340982437,-0.0199102703481912,-0.1778410822153091,0.2426243722438812,-0.0053806686773896,0.0,0.0,0.0401973724365234,0.0119584798812866
0.0584362968802452,0.1744076162576675,-0.0265351720154285,-0.1626618355512619,0.2431846857070922,0.0112064322456717,0.0,0.0,-0.2963746786117553,-0.211519718170166
0.0581416115164756,0.1704544574022293,-0.0304745621979236,-0.1758591681718826,0.2442055642604828,0.0204179771244525,0.0,0.0,-0.7229979634284973,0.6057822704315186
0.0578533187508583,0.1662202924489975,-0.0291951037943363,-0.1882458478212356,0.2445655316114425,0.0071994429454207,0.0,0.0,-0.0616822838783264,0.387423038482666
0.0575272552669048,0.1616907864809036,-0.0334018394351005,-0.2014429420232772,0.2453728467226028,0.0161466784775257,0.0,0.0,-0.2557824254035949,0.4992297887802124
0.0571621879935264,0.1568660289049148,-0.0377281568944454,-0.2146399617195129,0.2466204017400741,0.0249509736895561,0.0,0.0,-0.1806825399398803,-0.0717837214469909
0.0567570701241493,0.1517459452152252,-0.042165283113718,-0.2278369516134262,0.2483006417751312,0.0336051508784294,0.0,0.0,-0.6413990259170532,0.5505566596984863
0.0563584342598915,0.1463516354560852,-0.0406824871897697,-0.2398886680603027,0.2491302639245987,0.0165921412408351,0.0,0.0,0.5011308193206787,0.4016573429107666
0.055702306330204,0.1416348069906234,-0.0666160285472869,-0.2098036706447601,0.2501515448093414,0.0204258151352405,0.0,0.0,-0.3647571802139282,0.8095468282699585
0.0550552383065223,0.1366487592458725,-0.0647120326757431,-0.221604973077774,0.2501646876335144,0.000262901361566,0.0,0.0,-0.4674209356307983,0.89697265625
0.0544303879141807,0.1313895583152771,-0.0611894018948078,-0.2335201203823089,0.2488419711589813,-0.0264541469514369,0.0,0.0,0.0327538251876831,0.4926882982254028
0.0535972602665424,0.1263545900583267,-0.0820608586072921,-0.2235668003559112,0.2475721389055252,-0.0253969486802816,0.0,0.0,-0.2645498514175415,0.9531219005584716
0.0527734756469726,0.1210428103804588,-0.0800858661532402,-0.235695019364357,0.245240569114685,-0.0466318354010582,0.0,0.0,-0.2143964767456054,0.3429147005081177
0.0519032478332519,0.1154356300830841,-0.0850942656397819,-0.2488910257816314,0.2432800531387329,-0.0392103567719459,0.0,0.0,0.5893855094909668,0.9853789806365968
0.0510422699153423,0.1100936010479927,-0.0826451852917671,-0.2368552684783935,0.2397686839103698,-0.0702272877097129,0.0,0.0,0.2250204086303711,0.991140842437744
0.0501966476440429,0.1053608283400535,-0.0794917270541191,-0.209527388215065,0.2346170842647552,-0.1030317768454551,0.0,0.0,0.2213830947875976,0.9841201305389404
0.0492240898311138,0.1011979654431343,-0.0905412435531616,-0.1839636713266372,0.2278114706277847,-0.1361121982336044,0.0,0.0,-0.5558829307556152,0.9722522497177124
0.0482933036983013,0.0967831909656524,-0.0842842012643814,-0.1948742121458053,0.2189029455184936,-0.1781703978776931,0.0,0.0,-0.1940325498580932,0.9966475963592528
0.0473994240164756,0.0921029895544052,-0.0786492675542831,-0.2064558565616607,0.2080526202917099,-0.2170062363147735,0.0,0.0,-0.4010392427444458,0.9964711666107178
0.0465300567448139,0.0871625021100044,-0.0745052695274353,-0.2178780883550644,0.1955232620239257,-0.2505870461463928,0.0,0.0,-0.2448741197586059,0.9840631484985352
0.0456928238272666,0.0819617360830307,-0.0693840906023979,-0.2293125241994857,0.1811095625162124,-0.2882737517356872,0.0,0.0,-0.0684804916381836,0.9915986061096193
0.0448924079537391,0.0764873102307319,-0.0636928305029869,-0.2413973063230514,0.1647302657365799,-0.3275861144065857,0.0,0.0,-0.0478659272193908,0.975740909576416
0.0441008582711219,0.0707373023033142,-0.0614716634154319,-0.2536937594413757,0.1470676511526107,-0.3532527089118957,0.0,0.0,0.2884840965270996,0.9010863304138184
0.0431554801762104,0.0652792528271675,-0.0752078890800476,-0.2407841384410858,0.1277888715267181,-0.3855759799480438,0.0,0.0,-0.0425201058387756,0.7550234794616699
0.0422147735953331,0.0595406144857406,-0.0734602138400077,-0.2534106075763702,0.1073086410760879,-0.409604549407959,0.0,0.0,0.2308194637298584,-0.4302493333816528
0.0411983504891395,0.0541069619357585,-0.0813302621245384,-0.240162193775177,0.0871589109301567,-0.4029948115348816,0.0,0.0,0.2365632057189941,-0.3643478155136108
0.0402031913399696,0.0487969741225242,-0.0798592865467071,-0.2349701225757599,0.0676908418536186,-0.3893614411354065,0.0,0.0,0.1892585754394531,-0.8289094567298889
0.0391367897391319,0.0439368821680545,-0.0889006108045578,-0.2152983993291854,0.0501475743949413,-0.350865364074707,0.0,0.0,-0.2146375179290771,-0.6622863411903381
0.0379669182002544,0.0387864671647548,-0.1007191389799118,-0.2284413427114486,0.0340725965797901,-0.3214994668960571,0.0,0.0,0.4819628000259399,-0.8693835139274597
0.0367300026118755,0.0337520688772201,-0.1094419956207275,-0.2234879285097122,0.0200045350939035,-0.2813610434532165,0.0,0.0,0.6772143840789795,-0.4888315796852112
