x_pos,y_pos,x_vel,y_vel,angle,ang_vel,leg_1,leg_2,main_booster,lat_booster
-0.00147781369742,1.4032617807388306,-0.1504699289798736,-0.3403708040714264,0.0024088975042104,0.0475657656788826,0.0,0.0,0.5125638427847918,-0.2998752582389326
-0.0028640746604651,1.395897626876831,-0.141911119222641,-0.32730233669281,0.0056557515636086,0.0649439543485641,0.0,0.0,0.7339030728889582,-0.9497652147468564
-0.0041266442276537,1.3888005018234253,-0.132376492023468,-0.3154706060886383,0.0117092551663517,0.1210809797048568,0.0,0.0,-0.3506229523109481,-0.914227505702814
-0.0054323198273777,1.3813368082046509,-0.1395609080791473,-0.3318167328834533,0.0206011831760406,0.1778550446033477,0.0,0.0,-0.0306730122662135,-0.5145798223586688
-0.0067282677628099,1.3735125064849854,-0.1400728523731231,-0.3479239642620086,0.0309702064841985,0.2073995172977447,0.0,0.0,0.5600893540692415,0.1039351096406944
-0.0078701023012399,1.36610209941864,-0.1259765475988388,-0.3296249806880951,0.0426383167505264,0.2333836853504181,0.0,0.0,0.043261524431718,-0.6095531538640501
-0.0090523716062307,1.3588740825653076,-0.1319003850221634,-0.3216906189918518,0.0561724379658699,0.2707072794437408,0.0,0.0,-0.0456490174142076,-0.8591933073059355
-0.0102478982880711,1.3512848615646362,-0.1351989656686782,-0.337956428527832,0.0716713368892669,0.3100062608718872,0.0,0.0,0.6628316104603769,-0.5553308259337689
-0.0115245822817087,1.344597578048706,-0.1450496912002563,-0.2981456518173218,0.0889201387763023,0.3450077176094055,0.0,0.0,-0.880330493761694,-0.4543736566249959
-0.0127664562314748,1.3375520706176758,-0.1422507464885711,-0.3143035173416137,0.1068571433424949,0.3587730824947357,0.0,0.0,0.98493975449214,-0.7698123252668518
-0.0140001298859715,1.331223964691162,-0.1438997536897659,-0.2828448116779327,0.1272869706153869,0.4086344242095947,0.0,0.0,-0.7862911371075691,0.0788226158117688
-0.015202522277832,1.3245398998260498,-0.1414020359516143,-0.2990138828754425,0.1484077870845794,0.4224551320075989,0.0,0.0,0.7120215869876112,-0.9328993354583528
-0.0164064411073923,1.3185985088348389,-0.1442603021860122,-0.2666190862655639,0.1723167151212692,0.4782227575778961,0.0,0.0,-0.5472596016079172,0.5849941974592148
-0.0175312049686908,1.312311053276062,-0.135657325387001,-0.282306045293808,0.195619910955429,0.4661059379577636,0.0,0.0,-0.2678209734863994,0.468162187060898
-0.0186298377811908,1.305669903755188,-0.1336299031972885,-0.2984796166419983,0.2196212112903595,0.4800702631473541,0.0,0.0,-0.842597050649396,0.9072718684159456
-0.0196202285587787,1.2986924648284912,-0.121245838701725,-0.3135827183723449,0.2421749234199524,0.4511151909828186,0.0,0.0,0.9533598428940088,-0.3065172181315244
-0.0206722263246774,1.292892575263977,-0.1287225782871246,-0.2618209421634674,0.2661949396133423,0.4804446697235107,0.0,0.0,-0.1618086726411243,-0.7435387525433428
-0.02174549177289,1.2867164611816406,-0.1324941515922546,-0.2792791724205017,0.2920693457126617,0.5175343751907349,0.0,0.0,0.1970945413599651,0.4044271639081243
-0.0229001995176076,1.2810550928115845,-0.1414437741041183,-0.2570511996746063,0.3189757168292999,0.5381761193275452,0.0,0.0,0.2337935410214906,-0.495089940517741
-0.0242281910032033,1.2756165266036987,-0.158931165933609,-0.2477079927921295,0.3463045358657837,0.5466261506080627,0.0,0.0,-0.2593595571823939,-0.697179854394555
-0.025583267211914,1.269810914993286,-0.1631244868040084,-0.2649426162242889,0.375458151102066,0.5831247568130493,0.0,0.0,0.4471281407473264,-0.531389510125048
-0.0270960815250873,1.2641781568527222,-0.1802803575992584,-0.2582767307758331,0.4064408540725708,0.6197100877761841,0.0,0.0,-0.1648781892268667,0.085577957410968
-0.0285990722477436,1.258197784423828,-0.1795538514852523,-0.2745185792446136,0.4381300806999206,0.6338409781455994,0.0,0.0,0.014137901737447,-0.3267522278147616
-0.0301367752254009,1.2521581649780271,-0.183417722582817,-0.2780376076698303,0.4707262814044952,0.6519826054573059,0.0,0.0,0.8283386216898145,0.7283649919004179
-0.0320935249328613,1.2466484308242798,-0.2237913310527801,-0.254751592874527,0.5021321773529053,0.6281746625900269,0.0,0.0,0.613636864032626,0.6495760960399405
-0.0344619750976562,1.2416046857833862,-0.2636561989784241,-0.2343013882637024,0.5325486660003662,0.6083296537399292,0.0,0.0,-0.7960670718377032,-0.0715133121898284
-0.0368272773921489,1.2362138032913208,-0.263485699892044,-0.2505180835723877,0.56368088722229,0.6226458549499512,0.0,0.0,0.9995006385990636,0.3090711661189738
-0.0398589149117469,1.2316159009933472,-0.3295710384845733,-0.2158208340406417,0.5947980880737305,0.6223441362380981,0.0,0.0,-0.2973220382374035,0.9621767437936158
-0.0428456291556358,1.22672700881958,-0.3237829506397247,-0.2289464026689529,0.6249958276748657,0.6039556860923767,0.0,0.0,-0.892020414925309,-0.8486460338402305
-0.0458892807364463,1.2214292287826538,-0.3310252726078033,-0.2486879974603653,0.6578218936920166,0.6565197706222534,0.0,0.0,-0.3575684089614319,0.0509534066789785
-0.0489377975463867,1.215786099433899,-0.3314335346221924,-0.2649160623550415,0.6913659572601318,0.6708811521530151,0.0,0.0,-0.937637746334076,0.9993288516998292
-0.0519388206303119,1.20985746383667,-0.3250538110733032,-0.2776641249656677,0.7237218618392944,0.6471196413040161,0.0,0.0,-0.98847895860672,0.9987623691558838
-0.0549024567008018,1.203655481338501,-0.3197169303894043,-0.2897871732711792,0.7548669576644897,0.6229023933410645,0.0,0.0,-0.9811753034591676,0.9975788593292236
-0.0578212738037109,1.197170615196228,-0.3136515617370605,-0.302243024110794,0.7847533822059631,0.5977283120155334,0.0,0.0,-0.9942463636398317,0.9949228763580322
-0.0606959350407123,1.190422296524048,-0.3074970543384552,-0.3135967850685119,0.8130548000335693,0.5660284757614136,0.0,0.0,-0.985952377319336,0.9715118408203124
-0.0635328292846679,1.1834137439727783,-0.3020753264427185,-0.3247531652450561,0.8397942185401917,0.534786581993103,0.0,0.0,-0.96998929977417,0.9949064254760742
-0.0663309097290039,1.1761341094970703,-0.2966986894607544,-0.3364019691944122,0.8650920391082764,0.5059576630592346,0.0,0.0,-0.9871265292167664,0.9928998947143556
-0.0690937042236328,1.1686006784439087,-0.2915876507759094,-0.3470407128334045,0.8886739611625671,0.4716382920742035,0.0,0.0,-0.9984326958656312,0.9895758628845216
-0.0718318969011306,1.1608057022094729,-0.2877857387065887,-0.3581546247005462,0.9108222723007202,0.4429650902748108,0.0,0.0,-0.997318148612976,0.9877560138702391
-0.0745370835065841,1.1527533531188965,-0.2830849289894104,-0.3688811957836151,0.9312900304794312,0.4093549847602844,0.0,0.0,-0.9955369234085084,0.9708569049835204
-0.0772260650992393,1.144426941871643,-0.280429869890213,-0.380590409040451,0.9506015777587892,0.3862306475639343,0.0,0.0,-0.9921783804893494,0.9396376609802246
-0.079879954457283,1.1358520984649658,-0.275513619184494,-0.3907051086425781,0.9679865837097168,0.3477005362510681,0.0,0.0,-0.9966292977333068,0.9813442230224608
-0.0824954956769943,1.1270257234573364,-0.2703336775302887,-0.4009193778038025,0.9834314584732056,0.3088976442813873,0.0,0.0,-0.9935192465782166,0.9244720935821532
-0.0850819572806358,1.1179471015930176,-0.2662280201911926,-0.4111841917037964,0.9970587491989136,0.2725456357002258,0.0,0.0,-0.9986134767532348,0.9106066226959229
-0.0876452475786209,1.108590602874756,-0.2630662024021148,-0.4228798449039459,1.0094119310379028,0.2470632493495941,0.0,0.0,-0.9986428022384644,0.9315347671508788
-0.0901810675859451,1.0989718437194824,-0.259326159954071,-0.4336362481117248,1.0201188325881958,0.2141377925872802,0.0,0.0,-0.951784372329712,0.9702115058898926
-0.0926907509565353,1.0890998840332031,-0.2556432783603668,-0.4438776075839996,1.029009222984314,0.1778076440095901,0.0,0.0,-0.9964694380760192,0.8768341541290283
-0.0951976776123046,1.078948140144348,-0.2547793984413147,-0.4557684063911438,1.036896586418152,0.1577464193105697,0.0,0.0,-0.9978752732276917,0.8775949478149414
-0.0977028831839561,1.0685126781463623,-0.2540830671787262,-0.4678456485271454,1.0438473224639893,0.139015257358551,0.0,0.0,-0.9513463973999025,0.855843186378479
-0.1001959815621376,1.057802677154541,-0.2521926164627075,-0.4793239831924438,1.0495357513427734,0.1137686744332313,0.0,0.0,-0.9992088079452516,0.7850494384765625
-0.1026735305786132,1.046833872795105,-0.2498025447130203,-0.4898910224437713,1.0536043643951416,0.0813717767596244,0.0,0.0,-0.999748945236206,0.5697633028030396
-0.1051558479666709,1.0355629920959473,-0.2499856054782867,-0.5029969811439514,1.0571316480636597,0.0705453008413314,0.0,0.0,-0.9997931122779846,0.7459607124328613
-0.1076250076293945,1.0240228176116943,-0.2479759901762008,-0.5141502022743225,1.059251308441162,0.0423933789134025,0.0,0.0,-0.9830085635185242,-0.0156426429748535
-0.110116958618164,1.0121277570724487,-0.2505736351013183,-0.530319333076477,1.0620574951171875,0.0561230704188346,0.0,0.0,-0.9961464405059814,0.6458520889282227
-0.1126007065176963,0.9999567270278932,-0.2491521090269088,-0.54185950756073,1.0636239051818848,0.0313289687037467,0.0,0.0,-0.9978244304656982,0.7448034286499023
-0.1150829344987869,0.9874915480613708,-0.2485938370227813,-0.5544553399085999,1.064374566078186,0.0150125650689005,0.0,0.0,-0.9978035688400269,0.5176467895507812
-0.1175698265433311,0.9747329354286194,-0.2486779391765594,-0.56703782081604,1.0643587112426758,-0.0003165717353112,0.0,0.0,-0.9976913332939148,0.3273841142654419
-0.1200806647539138,0.9616195559501648,-0.2514102756977081,-0.5832054018974304,1.0650088787078855,0.013002336025238,0.0,0.0,-0.981095254421234,0.7187995910644531
-0.1225907355546951,0.9482347369194032,-0.2506906986236572,-0.5945090651512146,1.064374923706055,-0.0126782786101102,0.0,0.0,-0.995547652244568,0.724402904510498
-0.1251057684421539,0.934560477733612,-0.2507724463939667,-0.6068564057350159,1.062870740890503,-0.0300832446664571,0.0,0.0,-0.9994044303894044,0.291089653968811
-0.1276456862688064,0.9205309748649596,-0.2535667717456817,-0.6230226159095764,1.062011480331421,-0.017186215147376,0.0,0.0,-0.9980045557022096,0.5591306686401367
-0.1301950514316558,0.9061938524246216,-0.2542780935764313,-0.6364166140556335,1.0606703758239746,-0.0268226005136966,0.0,0.0,-0.9962493777275084,0.3532283306121826
-0.1327695846557617,0.8915013670921326,-0.2570966482162475,-0.6525813341140747,1.0599565505981443,-0.0142758954316377,0.0,0.0,-0.9665483236312866,0.8097660541534424
-0.1353389769792556,0.8765372037887573,-0.2558862566947937,-0.6638348698616028,1.0578479766845703,-0.0421726107597351,0.0,0.0,-0.9928497672080994,0.6080595254898071
-0.1379081755876541,0.8612760901451111,-0.2554375231266022,-0.6765259504318237,1.0548818111419678,-0.059323251247406,0.0,0.0,-0.9843798875808716,0.717115044593811
-0.1404817551374435,0.8457158207893372,-0.2554854154586792,,1.051149845123291,-0.0746386125683784,0.0,0.0,-0.9850342273712158,0.69545578956604
-0.1430585831403732,0.8298743367195129,-0.2552107572555542,-0.701204240322113,1.046269178390503,-0.0976127013564109,0.0,0.0,-0.9852930307388306,0.7165868282318115
-0.1456251144409179,0.813753068447113,-0.2534678280353546,-0.7128674983978271,1.0400296449661257,-0.1247897967696189,0.0,0.0,-0.9796886444091796,0.6783945560455322
-0.1481945961713791,0.7973487973213196,-0.2531470954418182,-0.7247830629348755,1.0326435565948486,-0.1477209329605102,0.0,0.0,-0.9520408511161804,0.6978598833084106
-0.1507653295993805,0.780644416809082,-0.2527577579021454,-0.7376489639282227,1.024399757385254,-0.1648755222558975,0.0,0.0,-0.9433877468109132,0.7644994258880615
-0.1533380448818206,0.7636480927467346,-0.252359926700592,-0.750050961971283,1.0151327848434448,-0.18533955514431,0.0,0.0,-0.8417786359786987,0.9094289541244508
-0.155899241566658,0.7463889718055725,-0.2501861453056335,-0.760766863822937,1.004099726676941,-0.2206622809171676,0.0,0.0,-0.7803475260734558,0.8561733961105347
-0.1584644317626953,0.7288429141044617,-0.249855637550354,-0.7729182839393616,0.9919409155845642,-0.2431764602661132,0.0,0.0,-0.8511847853660583,0.8320903778076172
-0.1610169410705566,0.7110297083854675,-0.2474708259105682,-0.7838779091835022,0.978040337562561,-0.2780115604400635,0.0,0.0,-0.7335367798805237,0.741382360458374
-0.1635625809431076,0.6929230093955994,-0.2459310293197631,-0.7963197827339172,0.9629406929016112,-0.3019930124282837,0.0,0.0,-0.8829108476638794,0.8328588008880615
-0.1660891473293304,0.6745421290397644,-0.2428174465894699,-0.8076425790786743,0.9460961818695068,-0.3368896842002868,0.0,0.0,-0.8029325604438782,0.7710126638412476
-0.1686055213212967,0.6558682322502136,-0.2407516688108444,-0.8200618028640747,0.9279457330703736,-0.3630087971687317,0.0,0.0,-0.5888188481330872,0.7504196166992188
-0.1711180657148361,0.636910080909729,-0.2392605245113372,-0.8321016430854797,0.90842205286026,-0.3904743790626526,0.0,0.0,-0.6398510336875916,0.8496745824813843
-0.1736166030168533,0.617688000202179,-0.2363322228193283,-0.8429827094078064,0.8869854807853699,-0.4287320971488952,0.0,0.0,-0.3910425901412964,0.8542017936706543
-0.1761128455400467,0.5981774926185608,-0.2348798811435699,-0.8553218245506287,0.8642334938049316,-0.4550402760505676,0.0,0.0,-0.3604377508163452,0.8664200305938721
-0.1785973608493805,0.5783655047416687,-0.232460930943489,-0.8683059811592102,0.8402086496353149,-0.4804966449737549,0.0,0.0,-0.3509003520011902,0.9403164386749268
-0.1810619384050369,0.5582901835441589,-0.2285890877246856,-0.8792562484741211,0.814119815826416,-0.5217764377593994,0.0,0.0,-0.4477666616439819,0.9319243431091307
-0.1835127770900726,0.5379254221916199,-0.2256123274564743,-0.8916839957237244,0.7864806652069092,-0.5527840256690979,0.0,0.0,-0.2885063886642456,0.9291183948516846
-0.1859470307826995,0.5172789692878723,-0.2221260815858841,-0.903763473033905,0.7571052312850952,-0.5875089168548584,0.0,0.0,0.1422029733657837,0.9473090171813964
-0.1886971443891525,0.4968756437301636,-0.251613587141037,-0.8924850225448608,0.7257447838783264,-0.6272105574607849,0.0,0.0,-0.1399100422859192,0.9432679414749146
-0.1914128363132476,0.4762042760848999,-0.2457278966903686,-0.9039059281349182,0.6920905113220215,-0.673085629940033,0.0,0.0,0.6458698511123657,0.932194709777832
-0.1942942589521408,0.455664187669754,-0.2600235641002655,-0.8978501558303833,0.6564968824386597,-0.7118726968765259,0.0,0.0,0.7533924579620361,0.9441630840301514
-0.1973169296979904,0.4354455471038818,-0.2718169689178467,-0.8834985494613647,0.6190246939659119,-0.7494439482688904,0.0,0.0,0.8480175733566284,0.957677721977234
-0.2005290538072586,0.4158841073513031,-0.2883853316307068,-0.8543827533721924,0.5797326564788818,-0.7858424186706543,0.0,0.0,0.8761518001556396,0.914030909538269
-0.2038061618804931,0.3967360556125641,-0.292553961277008,-0.836287260055542,0.5387330055236816,-0.8199946284294128,0.0,0.0,0.8722877502441406,0.9635841846466064
-0.2074922025203704,0.3783995509147644,-0.330660730600357,-0.8004958033561707,0.495592713356018,-0.8628067970275879,0.0,0.0,0.6277245283126831,0.9187750816345216
-0.2114704549312591,0.3607903122901916,-0.3571563363075256,-0.7686765193939209,0.4504441022872925,-0.9029736518859864,0.0,0.0,0.610525369644165,0.9314568042755128
-0.2155716866254806,0.3438611328601837,-0.3667620420455932,-0.7391719222068787,0.4033688008785248,-0.9415070414543152,0.0,0.0,0.7039031982421875,0.7834106683731079
-0.219667911529541,0.32715705037117,-0.3638879060745239,-0.7301746606826782,0.3547250032424927,-0.972877025604248,0.0,0.0,0.8185766935348511,0.8109169006347656
-0.2239838540554046,0.3109065890312195,-0.3831146359443664,-0.7110985517501831,0.3040995299816131,-1.0125113725662231,0.0,0.0,0.4311931133270263,0.7773404121398926
-0.2284140139818191,0.2954690158367157,-0.3920777440071106,-0.6763258576393127,0.251770555973053,-1.0465810298919678,0.0,0.0,0.1440297365188598,0.3578541278839111
-0.2329816371202469,0.2802698910236358,-0.4047958850860595,-0.6674705743789673,0.1991107910871505,-1.053197145462036,0.0,0.0,0.2214878797531128,-0.5549963116645813
-0.2378301620483398,0.2655698955059051,-0.4329638481140136,-0.6471886038780212,0.1470834612846374,-1.0405480861663818,0.0,0.0,0.055029273033142,-0.8328219652175903
-0.2427652776241302,0.251206487417221,-0.4425920844078064,-0.6341283321380615,0.0964241623878479,-1.013187289237976,0.0,0.0,0.1766904592514038,-0.8241060972213745
-0.2478792667388916,0.2373011261224746,-0.4615045189857483,-0.6155411005020142,0.0470375306904315,-0.9877339601516724,0.0,0.0,-0.3698893189430237,-0.8861579895019531
-0.2530898451805115,0.2230648100376129,-0.4727087616920471,-0.6318944692611694,-0.0007074048626236,-0.9548999071121216,0.0,0.0,-0.2421446442604065,-0.9137760400772096
-0.2583909928798675,0.2084923386573791,-0.4832852482795715,-0.6483359932899475,-0.0469466410577297,-0.9247857928276062,0.0,0.0,-0.5125251412391663,-0.9770516157150269
-0.2637982964515686,0.1935922056436538,-0.4959178566932678,-0.6642305850982666,-0.0912738293409347,-0.8865448832511902,0.0,0.0,-0.0831551551818847,-0.982147455215454
-0.269315093755722,0.1783656924962997,-0.5090740919113159,-0.6798749566078186,-0.1335852891206741,-0.8462300300598145,0.0,0.0,-0.1842396259307861,-0.9803844690322876
-0.2749062180519104,0.1628188192844391,-0.5179125666618347,-0.6951808333396912,-0.1747298240661621,-0.8228915333747864,0.0,0.0,0.1875663995742797,-0.9643336534500122
-0.2804867327213287,0.1473215967416763,-0.5186022520065308,-0.6938943266868591,-0.2144081890583038,-0.793567955493927,0.0,0.0,0.3817079067230224,-0.9941337704658508
-0.2858796715736389,0.1324056535959243,-0.5017479062080383,-0.6688311696052551,-0.2524873614311218,-0.7615839242935181,0.0,0.0,0.5407273769378662,-0.9935292601585388
-0.291198581457138,0.1182441562414169,-0.4961573183536529,-0.6359626054763794,-0.2890752851963043,-0.7317593097686768,0.0,0.0,0.5351769924163818,-0.994670033454895
-0.2962271571159363,0.1048597171902656,-0.4690881371498108,-0.6019418239593506,-0.3240145146846771,-0.6987848877906799,0.0,0.0,0.7880250215530396,-0.990135669708252
-0.301049530506134,0.0920145809650421,-0.4504013955593109,-0.5783733129501343,-0.357337474822998,-0.6664596796035767,0.0,0.0,0.8364112377166748,-0.9791807532310486
-0.3056393265724182,0.0801521390676498,-0.4289045929908752,-0.5350329875946045,-0.3891956210136413,-0.6371637582778931,0.0,0.0,0.9468495845794678,-0.9789494276046752
-0.3098786473274231,0.0692361891269683,-0.3957319259643554,-0.493161678314209,-0.4194512963294983,-0.6051143407821655,0.0,0.0,0.9303160905838012,-0.9755938053131104
-0.3137083947658539,0.0594930499792099,-0.3739510774612427,-0.4356422424316406,-0.4296351969242096,-0.2042685002088546,1.0,0.0,0.9995092153549194,-0.977758765220642
-0.3171773552894592,0.0511218421161174,-0.357129693031311,-0.3689122796058655,-0.4188283085823059,0.2157372683286667,1.0,0.0,0.9999790191650392,-0.4225587248802185
-0.3202821314334869,0.0438698641955852,-0.3376972377300262,-0.3144976496696472,-0.389758437871933,0.58116614818573,1.0,1.0,0.5974080562591553,0.9285387992858888
-0.3227900564670563,0.038131508976221,-0.278685063123703,-0.2481905072927475,-0.3627198040485382,0.5378683805465698,1.0,1.0,0.4572259187698364,0.8246742486953735
-0.3248271048069,0.0337499938905239,-0.2273582965135574,-0.1889521926641464,-0.3378617763519287,0.4971449971199035,1.0,1.0,-0.0502745509147644,0.689710259437561
-0.3265662789344787,0.0300275906920433,-0.1958545595407486,-0.1604727208614349,-0.3149974048137665,0.4572797417640686,1.0,1.0,0.5372776985168457,0.5153175592422485
-0.327735424041748,0.027852140367031,-0.138268768787384,-0.0922129675745964,-0.2929090559482574,0.4417611062526703,1.0,1.0,0.1432902812957763,-0.126943826675415
-0.3284421861171722,0.0270154327154159,-0.0906024724245071,-0.0333294719457626,-0.2724277973175049,0.4096185266971588,1.0,1.0,-0.3975558280944824,-0.0133060812950134
-0.3289244771003723,0.0266379211097955,-0.063375748693943,-0.0140405381098389,-0.2569423019886017,0.3097047209739685,1.0,1.0,-0.1823679208755493,0.2912030220031738
