x_pos,y_pos,x_vel,y_vel,angle,ang_vel,leg_1,leg_2,main_booster,lat_booster
-0.0014591217041015,1.4032692909240725,-0.1478284448385238,-0.3400354385375976,0.001717314356938,0.0338727459311485,0.0,0.0,-0.4335493941153263,-0.9473776634259218
-0.0029213905800133,1.3952816724777222,-0.1496649086475372,-0.3550074994564056,0.0051196198910474,0.0680527687072753,0.0,0.0,-0.9038048900546648,-0.989501572699362
-0.0043790815398097,1.38693106174469,-0.1507948040962219,-0.3711622059345245,0.0100890705361962,0.099397987127304,0.0,0.0,0.2553622311462165,-0.6129795372299645
-0.0059237480163574,1.378791093826294,-0.1605866849422454,-0.3618392944335937,0.0161473732441663,0.1211774498224258,0.0,0.0,-0.3521256901590459,0.6899276734774531
-0.0073373792693018,1.3702996969223022,-0.1459121257066726,-0.377446562051773,0.0206472296267747,0.090005375444889,0.0,0.0,0.3446282633542108,-0.8825491279824881
-0.0086368564516305,1.3621172904968262,-0.1365290284156799,-0.3637719452381134,0.0271566063165664,0.1301993578672409,0.0,0.0,-0.5585881521488447,-0.8852537800956577
-0.0099434852600097,1.3535773754119873,-0.1392348110675811,-0.3797297775745392,0.0356327891349792,0.1695393919944763,0.0,0.0,0.8478959412006477,-0.901817455845889
-0.0110973361879587,1.345777153968811,-0.1262963712215423,-0.346971333026886,0.046422716230154,0.2158186882734298,0.0,0.0,-0.4521717387262052,-0.8410388604396052
-0.0122544290497899,1.33762788772583,-0.1285125017166137,-0.3626307249069214,0.0591073222458362,0.2537152469158172,0.0,0.0,-0.1027481393110232,-0.8767204795597727
-0.0134161952883005,1.3291256427764893,-0.1309605240821838,-0.3785242140293121,0.0737503692507743,0.2928879559040069,0.0,0.0,0.4938339803258282,-0.7844769870120776
-0.0145285604521632,1.3210793733596802,-0.127962976694107,-0.3585277199745178,0.0903367176651954,0.3317576050758362,0.0,0.0,-0.7715535169619498,0.9942842135371152
-0.0154898641631007,1.3126909732818604,-0.110872782766819,-0.3737728893756866,0.1049765720963478,0.2928238809108734,0.0,0.0,0.1624898905158305,0.998380047862122
-0.0162531845271587,1.3047192096710205,-0.0893430635333061,-0.3552690744400024,0.1179145574569702,0.2587838172912597,0.0,0.0,-0.3810613935541767,-0.6516063033450592
-0.0169979091733694,1.2963809967041016,-0.088915154337883,-0.3717928826808929,0.132301315665245,0.287761390209198,0.0,0.0,0.0856224509496024,0.7767312421370959
-0.017585277557373,1.2885375022888184,-0.0719835311174392,-0.3498334288597107,0.1455244719982147,0.264487475156784,0.0,0.0,0.2196315753039854,-0.8768107510507759
-0.0181168559938669,1.2806626558303833,-0.0685280561447143,-0.3515639007091522,0.1608958095312118,0.3074544072151184,0.0,0.0,0.8176929401848274,0.8989327685658834
-0.0185028072446584,1.2738975286483765,-0.0527899041771888,-0.3022696077823639,0.1751098930835724,0.2843079566955566,0.0,0.0,-0.2105446555962813,0.9212607155533348
-0.0187381748110055,1.2667958736419678,-0.0357732102274894,-0.3171210587024688,0.187409445643425,0.2460134029388427,0.0,0.0,0.3790465223408135,0.9135770173397952
-0.0188767425715923,1.2603836059570312,-0.0246951691806316,-0.2863917946815491,0.1983299255371093,0.2184296399354934,0.0,0.0,0.7934594619636417,0.8968946335499977
-0.0191015247255563,1.2545136213302612,-0.0317371562123298,-0.262149840593338,0.207667201757431,0.1867622435092926,0.0,0.0,0.1334783180892975,-0.7098451625954181
-0.0193311683833599,1.2490665912628174,-0.0340977385640144,-0.2436947375535965,0.2189293503761291,0.2252633571624755,0.0,0.0,-0.2046566571823644,-0.9846329082498614
-0.0195752140134573,1.243237018585205,-0.0378369390964508,-0.2611328065395355,0.2325423657894134,0.2722848057746887,0.0,0.0,-0.5505394591588788,0.676900220876927
-0.0196980480104684,1.2370775938034058,-0.0244342200458049,-0.2757293879985809,0.244912564754486,0.2474263608455658,0.0,0.0,-0.5462810394007127,-0.6084282798043954
-0.0198033340275287,1.230544090270996,-0.0241423454135656,-0.2926958799362182,0.2587995231151581,0.2777641713619232,0.0,0.0,-0.7251107077604022,-0.9571687137638336
-0.0199429504573345,1.2236268520355225,-0.0302712116390466,-0.3104028701782226,0.2755081951618194,0.3342034816741943,0.0,0.0,-0.6336383726276089,0.9070461310279624
-0.0199718475341796,1.2163653373718262,-0.0182193666696548,-0.3257021307945251,0.2912590503692627,0.3150168657302856,0.0,0.0,-0.008848449843948,-0.6112655680326495
-0.0199926383793354,1.208737015724182,-0.0189456082880496,-0.3425088226795196,0.3086897730827331,0.3486146032810211,0.0,0.0,0.1017011136016625,0.6429821671394161
-0.0201732628047466,1.2015300989151,-0.0339143425226211,-0.3237591683864593,0.3251413404941559,0.3290316462516784,0.0,0.0,0.7631614435290763,0.6750712275499923
-0.0206588748842477,1.1951067447662354,-0.0631068572402,-0.2888261377811432,0.3403259515762329,0.3036925494670868,0.0,0.0,-0.4071780891199561,-0.903613972264083
-0.0211612693965435,1.188293695449829,-0.0669672787189483,-0.3068512976169586,0.3578983843326568,0.3514485955238342,0.0,0.0,-0.197816061414541,-0.6621831038414416
-0.0216621402651071,1.18111252784729,-0.0683930590748786,-0.3238506913185119,0.377254456281662,0.3871216177940368,0.0,0.0,-0.7184850268159635,-0.9875709475455824
-0.0221938136965036,1.173530101776123,-0.0739436969161033,-0.3426381349563598,0.3993954062461853,0.442818820476532,0.0,0.0,0.9685275547361584,0.9736118554814448
-0.0230814926326274,1.166910171508789,-0.1077591180801391,-0.2997013330459595,0.4198172688484192,0.4084379076957702,0.0,0.0,-0.9256963877379484,0.6190825097825939
-0.0238813403993845,1.1599639654159546,-0.0981972441077232,-0.3142666816711426,0.4395880401134491,0.3954152464866638,0.0,0.0,-0.890136518702999,-0.7795331906367479
-0.024690056219697,1.1526343822479248,-0.1008015647530555,-0.332171231508255,0.4614319801330566,0.4368790686130523,0.0,0.0,0.64771913043371,-0.7288886995417998
-0.0258258823305368,1.1459518671035769,-0.135142520070076,-0.3043349981307983,0.4853302240371704,0.4779649376869201,0.0,0.0,0.9046258984743428,-0.958670235238836
-0.027259062975645,1.1395411491394043,-0.166795402765274,-0.2934123277664184,0.5117025971412659,0.5274471044540405,0.0,0.0,-0.0146019076804182,-0.9195096613650524
-0.0287134163081645,1.1327441930770874,-0.1705829203128814,-0.311789333820343,0.5403916835784912,0.5737821459770203,0.0,0.0,0.8380415811443194,-0.9854402893005052
-0.0307236667722463,1.1267240047454834,-0.2279212474822998,-0.2786586880683899,0.5716038942337036,0.6242452263832092,0.0,0.0,0.7061082458885584,0.9501763877171574
-0.0329483970999717,1.1212422847747805,-0.2475844621658325,-0.2547196447849273,0.601330041885376,0.5945237874984741,0.0,0.0,-0.0633485518375116,0.969392263990132
-0.0350904464721679,1.1154776811599731,-0.2378087490797042,-0.267295777797699,0.6298379302024841,0.5701572299003601,0.0,0.0,-0.9699249267578124,0.9980649948120116
-0.0371225364506244,1.1094508171081543,-0.2246460616588592,-0.2785414457321167,0.6562575697898865,0.528392493724823,0.0,0.0,-0.9349961280822754,0.9936351776123048
-0.0390464775264263,1.1031529903411863,-0.2118405401706695,-0.2901135683059692,0.6806976795196533,0.4888021945953369,0.0,0.0,-0.91891610622406,0.9946177005767822
-0.0408681854605674,1.096593141555786,-0.199673980474472,-0.3011946678161621,0.7031206488609314,0.448460966348648,0.0,0.0,-0.978809893131256,0.9954111576080322
-0.0425991043448448,1.0897483825683594,-0.1891428679227829,-0.3134559988975525,0.7240420579910278,0.4184284806251526,0.0,0.0,-0.9541420340538024,0.9934244155883788
-0.044234275817871,1.0826315879821775,-0.1778888553380966,-0.3249322474002838,0.7431382536888123,0.3819235861301422,0.0,0.0,-0.982062578201294,0.9622337818145752
-0.045778177678585,1.0752465724945068,-0.1671919077634811,-0.3361802101135254,0.7604130506515503,0.3454965054988861,0.0,0.0,-0.9236339926719666,0.9479124546051024
-0.0472565665841102,1.067582607269287,-0.1595478951930999,-0.3481545746326446,0.7764771580696106,0.3212816119194031,0.0,0.0,-0.8330723643302917,0.9514517784118652
-0.0486721992492675,1.0596365928649902,-0.1522618383169174,-0.3602648079395294,0.7913944125175476,0.2983449101448059,0.0,0.0,-0.9802217483520508,0.9794248342514038
-0.0500103011727333,1.0514180660247805,-0.1432455331087112,-0.3717167675495147,0.804722785949707,0.266567200422287,0.0,0.0,-0.947021782398224,0.958852767944336
-0.0512611381709575,1.042948842048645,-0.1329058408737182,-0.3818673491477966,0.8159043788909912,0.2236330062150955,0.0,0.0,-0.9788757562637328,0.9250876903533936
-0.0524483695626258,1.034205198287964,-0.125505730509758,-0.3934537470340729,0.8257169723510742,0.1962522566318512,0.0,0.0,-0.992706298828125,0.9402060508728028
-0.0535535812377929,1.025202751159668,-0.1158933490514755,-0.4040092229843139,0.8335546255111694,0.1567524671554565,0.0,0.0,-0.9769450426101683,0.9036195278167723
-0.0545958504080772,1.0159339904785156,-0.108501598238945,-0.4151109755039215,0.8398500680923462,0.1259087473154068,0.0,0.0,-0.9834747910499572,0.7031232118606567
-0.0555726997554302,1.0063889026641846,-0.1009504348039627,-0.4266700446605682,0.8446922898292542,0.0968451350927352,0.0,0.0,-0.9923503398895264,0.8289990425109863
-0.0564942359924316,0.996551513671875,-0.0946955531835556,-0.4391324818134308,0.8484916687011719,0.0759874805808067,0.0,0.0,-0.998975932598114,0.6489462852478027
-0.0573638901114463,0.9864330887794496,-0.0887188762426376,-0.4510340690612793,0.8511092662811279,0.0523506104946136,0.0,0.0,-0.9938247799873352,0.7506325244903564
-0.0581729896366596,0.9760465621948242,-0.0816013664007186,-0.4621515870094299,0.8521553874015808,0.0209224000573158,0.0,0.0,-0.9973463416099548,0.4732879400253296
-0.0589674934744834,0.9653104543685912,-0.0805124789476394,-0.477969229221344,0.85374516248703,0.0317951068282127,0.0,0.0,-0.9996054172515868,0.0417132377624511
-0.0597486495971679,0.954224705696106,-0.0795387253165245,-0.4937869608402252,0.8558785915374756,0.042668342590332,0.0,0.0,-0.9949939250946044,0.8252387046813965
-0.0604690536856651,0.9428624510765076,-0.0724660605192184,-0.5053213238716125,0.8565192222595215,0.012812596745789,0.0,0.0,-0.9862354397773744,0.4161609411239624
-0.0611783973872661,0.9311503767967224,-0.0717122703790664,-0.5211389660835266,0.8577032685279846,0.0236808117479085,0.0,0.0,-0.9896240830421448,0.7767858505249023
-0.0618297569453716,0.9191687107086182,-0.0648597627878189,-0.5323089957237244,0.8572905659675598,-0.0082539087161421,0.0,0.0,-0.9946463108062744,0.7153382301330566
-0.0624353401362896,0.9069023728370668,-0.0595143213868141,-0.544360876083374,0.8557167649269104,-0.0314763039350509,0.0,0.0,-0.991923213005066,0.4853858947753906
-0.0630328208208084,0.8942866921424866,-0.0590606443583965,-0.5601785182952881,0.8546848893165588,-0.0206369794905185,0.0,0.0,-0.9608635902404784,0.3481483459472656
-0.0636230483651161,0.881321132183075,-0.05869872123003,-0.5759959816932678,0.8541942238807678,-0.0098131820559501,0.0,0.0,-0.9439738392829896,0.7572686672210693
-0.0641720741987228,0.8680796027183533,-0.0537319406867027,-0.5876246094703674,0.8524336814880371,-0.035210482776165,0.0,0.0,-0.9656829237937928,0.6110626459121704
-0.0646769553422927,0.8545433878898621,-0.0486192479729652,-0.6001826524734497,0.8496375679969788,-0.0559226088225841,0.0,0.0,-0.9890559315681458,0.6470630168914795
-0.0651468262076377,0.8407207727432251,-0.0444286316633224,-0.6124053597450256,0.8458207249641418,-0.0763369724154472,0.0,0.0,-0.9506721496582032,0.7037081718444824
-0.065581128001213,0.8265976309776306,-0.0403092950582504,-0.6253607273101807,0.8411902189254761,-0.0926107019186019,0.0,0.0,-0.98993980884552,0.6273143291473389
-0.0659865364432334,0.8121720552444458,-0.0369322821497917,-0.6384672522544861,0.8358771800994873,-0.1062604933977127,0.0,0.0,-0.9317378997802734,0.8684684038162231
-0.0663433074951171,0.7974758148193359,-0.0310008134692907,-0.6497366428375244,0.8290147185325623,-0.1372486650943756,0.0,0.0,-0.9442270398139954,0.7727324962615967
-0.0666711777448654,0.7824873328208923,-0.027479687705636,-0.6623191833496094,0.8212862014770508,-0.15457084774971,0.0,0.0,-0.910930335521698,0.7850520610809326
-0.0669519454240799,0.7672235369682312,-0.0216970704495906,-0.6738544702529907,0.8120867013931274,-0.1839899569749832,0.0,0.0,-0.9040694236755372,0.8673269748687744
-0.0671854987740516,0.7516745924949646,-0.0160012952983379,-0.6859350204467773,0.8015710711479187,-0.2103130370378494,0.0,0.0,-0.8891972303390503,0.7074692249298096
-0.0673734694719314,0.7358366847038269,-0.0104724802076816,-0.6982306838035583,0.7898135185241699,-0.2351514399051666,0.0,0.0,-0.6913425326347351,0.7038215398788452
-0.0675226226449012,0.7196996212005615,-0.0057852594181895,-0.7111274003982544,0.7770867943763733,-0.2545349299907684,0.0,0.0,-0.7736592292785645,0.7356603145599365
-0.0676362961530685,0.7032773494720459,-0.001295362599194,-0.7233607172966003,0.763235867023468,-0.2770183086395263,0.0,0.0,-0.6895642280578613,0.596237063407898
-0.0677166953682899,0.6865648627281189,0.0029145504813641,-0.7358922958374023,0.7483758926391602,-0.2971988916397095,0.0,0.0,-0.8149162530899048,0.9045939445495604
-0.067761518061161,0.6695684790611267,0.0074759796261787,-0.7480952739715576,0.732367753982544,-0.3201625943183899,0.0,0.0,-0.6756341457366943,0.930490016937256
-0.0677623748779296,0.6522737741470337,0.0128971580415964,-0.7609977126121521,0.7152597308158875,-0.3421619534492492,0.0,0.0,-0.6618971824645996,0.9584484100341796
-0.0677100196480751,0.6347154974937439,0.0197866670787334,-0.7720863223075867,0.6963743567466736,-0.3777073621749878,0.0,0.0,-0.2879695892333984,0.977226495742798
-0.0676122680306434,0.6168704628944397,0.0255694333463907,-0.7844609022140503,0.6761955618858337,-0.4035758078098297,0.0,0.0,0.2864165306091308,0.7855007648468018
-0.0678397193551063,0.5993108153343201,-0.0056543303653597,-0.7714694142341614,0.6547405123710632,-0.42910236120224,0.0,0.0,0.4617081880569458,0.9178025722503662
-0.0684022903442382,0.5821990370750427,-0.0376373678445816,-0.7511999607086182,0.6317525506019592,-0.4597586989402771,0.0,0.0,-0.4231926202774048,0.8685479164123535
-0.0689062103629112,0.5648104548454285,-0.0300703700631856,-0.7631404995918274,0.6070878505706787,-0.4932939112186432,0.0,0.0,-0.2051860690116882,0.88550865650177
-0.0693517699837684,0.5471314787864685,-0.0226146075874567,-0.7758238315582275,0.5809276700019836,-0.5232053995132446,0.0,0.0,-0.3228281736373901,0.8762459754943848
-0.0697329491376876,0.5291683673858643,-0.0143464030697941,-0.7882339954376221,0.5530780553817749,-0.5569920539855957,0.0,0.0,0.3110401630401611,0.8786007165908813
-0.0701842308044433,0.5115998983383179,-0.0197686254978179,-0.7706888318061829,0.52390056848526,-0.5835511684417725,0.0,0.0,0.3633800745010376,0.853030800819397
-0.0706291198730468,0.4942545294761657,-0.0176128856837749,-0.7608755230903625,0.493495374917984,-0.6081042289733887,0.0,0.0,0.7317187786102295,0.9805251359939576
-0.0713913887739181,0.4776645302772522,-0.0474182963371276,-0.7273585796356201,0.4614554643630981,-0.6407983899116516,0.0,0.0,0.0788831710815429,0.9704539775848388
-0.072290226817131,0.4614735841751098,-0.0591323673725128,-0.7097881436347961,0.4278047382831573,-0.6730148792266846,0.0,0.0,0.3156050443649292,0.9182934761047364
-0.0732440948486328,0.4457880854606628,-0.0628475174307823,-0.6876490116119385,0.3927371203899383,-0.7013522982597351,0.0,0.0,0.5834705829620361,0.9087271690368652
-0.0741516128182411,0.4302934408187866,-0.0564880669116973,-0.679621696472168,0.3563617765903473,-0.7275075912475586,0.0,0.0,0.8378192186355591,0.7870253324508667
-0.0752602592110633,0.4152559041976928,-0.0748429968953132,-0.6598568558692932,0.3186593055725097,-0.7540501952171326,0.0,0.0,0.5391265153884888,0.9060659408569336
-0.0764722824096679,0.4011139869689941,-0.0834221467375755,-0.6207037568092346,0.2796063125133514,-0.7810603976249695,0.0,0.0,-0.1667985916137695,0.920119285583496
-0.0776179283857345,0.3866673409938812,-0.0749790221452713,-0.6350151896476746,0.2391538470983505,-0.8090499043464661,0.0,0.0,0.8082265853881836,-0.0636318922042846
-0.0791018456220626,0.3731083869934082,-0.1081637367606163,-0.596595823764801,0.1984552145004272,-0.8139731287956238,0.0,0.0,0.533069372177124,0.2172966003417968
-0.080632783472538,0.3601927757263183,-0.1132747158408165,-0.5691856145858765,0.1585018187761306,-0.7990689873695374,0.0,0.0,-0.3942155838012695,0.3615388870239258
-0.0821609497070312,0.3469435274600982,-0.113108217716217,-0.5851054787635803,0.1189074665307998,-0.7918877005577087,0.0,0.0,-0.1228882074356079,0.4154053926467895
-0.0836853012442588,0.3333601951599121,-0.1128769516944885,-0.601022481918335,0.0796590521931648,-0.78496915102005,0.0,0.0,0.3329253196716308,-0.1010811924934387
-0.0852565765380859,0.320040762424469,-0.1176793724298477,-0.5903388857841492,0.0406500659883022,-0.7801805138587952,0.0,0.0,-0.4103549718856811,-0.3688887357711792
-0.0868215560913086,0.3063864707946777,-0.117307148873806,-0.6062507629394531,0.001959242625162,-0.7738174796104431,0.0,0.0,-0.3313348293304443,-0.8103439807891846
-0.0884591117501258,0.2923936247825622,-0.1269165277481079,-0.6222541332244873,-0.0344139523804187,-0.7274639010429382,0.0,0.0,-0.8392270803451538,-0.8454463481903076
-0.0901431068778038,0.2780702710151672,-0.1332922279834747,-0.6377668976783752,-0.0691127032041549,-0.693975567817688,0.0,0.0,-0.8822643756866455,-0.962215006351471
-0.0918860435485839,0.2634053230285644,-0.141280859708786,-0.653627336025238,-0.1018208786845207,-0.6541632413864136,0.0,0.0,-0.1315670013427734,-0.9497320055961608
-0.0936746597290039,0.2484141886234283,-0.1476546376943588,-0.66868656873703,-0.1328330487012863,-0.6202434301376343,0.0,0.0,0.7026393413543701,-0.960298717021942
-0.0954465866088867,0.2342967540025711,-0.1482390463352203,-0.6302765607833862,-0.1617200374603271,-0.5777400732040405,0.0,0.0,0.4894484281539917,-0.9439224004745485
-0.0970101356506347,0.2209676802158355,-0.1297897398471832,-0.5955067873001099,-0.1883419007062912,-0.5324373245239258,0.0,0.0,0.8644733428955078,-0.9159135222434998
-0.0984155684709549,0.2082490026950836,-0.1162998080253601,-0.5685389637947083,-0.2127554714679718,-0.488271415233612,0.0,0.0,0.8194537162780762,-0.9771980047225952
-0.0996998772025108,0.1965368390083313,-0.1064315438270568,-0.5238613486289978,-0.2350214272737503,-0.4453187584877014,0.0,0.0,0.7670642137527466,-0.998658001422882
-0.1007778197526931,0.185714304447174,-0.0881534442305564,-0.4842641651630401,-0.2549989521503448,-0.3995505571365356,0.0,0.0,0.8661808967590332,-0.9993672966957092
-0.1016885787248611,0.1752788573503494,-0.0738095119595527,-0.4668951332569122,-0.2726576030254364,-0.3531723916530609,0.0,0.0,0.8905776739120483,-0.9920270442962646
-0.1026180237531662,0.165609672665596,-0.0775958076119422,-0.4326774775981903,-0.2884083986282348,-0.3150158524513244,0.0,0.0,0.9459494352340698,-0.9930753707885742
-0.1035945862531662,0.1565621197223663,-0.084188237786293,-0.4048364758491516,-0.3022971153259277,-0.2777742445468902,0.0,0.0,0.923987865447998,-0.9667150378227234
-0.1044573783874511,0.1481471359729766,-0.0748251900076866,-0.3764268159866333,-0.3141658306121826,-0.2373743057250976,0.0,0.0,0.7459251880645752,-0.9703738689422609
-0.1051714867353439,0.1402018666267395,-0.0620127022266387,-0.3551908731460571,-0.3239355981349945,-0.1953950822353363,0.0,0.0,0.9230706691741944,-0.99604332447052
-0.1056494712829589,0.1324454843997955,-0.0406721271574497,-0.3463403582572937,-0.3313565850257873,-0.148419976234436,0.0,0.0,0.817416787147522,-0.9731329083442688
-0.1058210358023643,0.1253841966390609,-0.0121790533885359,-0.3149860203266144,-0.3365642428398132,-0.1041528955101966,0.0,0.0,0.4876558780670166,-0.9979016184806824
-0.1057796478271484,0.1190313696861267,0.0071126827970147,-0.283044695854187,-0.3396719396114349,-0.0621531791985034,0.0,0.0,0.3437404632568359,-0.9948917627334596
-0.10565185546875,0.1126810386776924,0.0137785701081156,-0.282476007938385,-0.3407205641269684,-0.0209724940359592,0.0,0.0,0.6287376880645752,-0.986704409122467
