x_pos,y_pos,x_vel,y_vel,angle,ang_vel,leg_1,leg_2,main_booster,lat_booster
-0.0015341758262366,1.4032669067382812,-0.155641570687294,-0.3401413261890411,0.0019928987603634,0.0393287502229213,0.0,0.0,-0.127937912940979,0.7848389148712158
-0.003016376402229,1.3952758312225342,-0.1487016379833221,-0.3551633656024933,0.0024631239939481,0.0094065032899379,0.0,0.0,-0.3767088055610657,0.7497291564941406
-0.0044457437470555,1.386921525001526,-0.1417965292930603,-0.3713048100471496,0.0013346285559237,-0.0225720964372158,0.0,0.0,-0.1433055996894836,0.6013453006744385
-0.0058603286743164,1.3782076835632324,-0.1395653933286667,-0.3872822821140289,-0.0005372252198867,-0.0374405458569526,0.0,0.0,0.5952544212341309,0.1429047584533691
-0.0071771619841456,1.3700807094573977,-0.130606546998024,-0.3612004816532135,-0.001602676929906,-0.0213112216442823,0.0,0.0,-0.1112574338912963,0.4961363077163696
-0.0085250856354832,1.361595869064331,-0.1339202225208282,-0.3770991563796997,-0.0024600375909358,-0.0171488989144563,0.0,0.0,-0.4209350347518921,0.5535805225372314
-0.0098657608032226,1.3527536392211914,-0.132339745759964,-0.3929945826530456,-0.0041648698970675,-0.0340998470783233,0.0,0.0,0.4999079704284668,0.7327995300292969
-0.0110344886779785,1.3444355726242063,-0.1141787767410278,-0.3696946799755096,-0.0068275416269898,-0.0532585196197032,0.0,0.0,-0.4047049283981323,0.0560195446014404
-0.012244701385498,1.3357599973678589,-0.118534430861473,-0.3855929970741272,-0.0092866756021976,-0.0491871125996112,0.0,0.0,-0.2533460855484009,0.3930221796035766
-0.013499641790986,1.326727032661438,-0.1232033520936966,-0.4014813005924225,-0.0115449810400605,-0.0451702028512954,0.0,0.0,-0.2347909808158874,0.6500461101531982
-0.0147436140105128,1.3173359632492063,-0.1208230257034301,-0.4174084961414337,-0.0150773469358682,-0.070653811097145,0.0,0.0,-0.306789219379425,-0.1918036937713623
-0.0160378459841012,1.3075876235961914,-0.1260578334331512,-0.4333002269268036,-0.0184140112251043,-0.0667392462491989,0.0,0.0,-0.3783127069473266,0.4903044700622558
-0.0173851009458303,1.297481656074524,-0.1315513104200363,-0.4491918683052063,-0.0215595476329326,-0.0629161670804023,0.0,0.0,0.5560648441314697,0.9590976238250732
-0.0186314582824707,1.287506341934204,-0.1198089346289634,-0.4434269666671753,-0.0263313595205545,-0.0954448655247688,0.0,0.0,0.5066568851470947,0.4670658111572265
-0.019787024706602,1.2782957553863523,-0.1115295886993408,-0.4094357788562774,-0.0303132254630327,-0.0796444863080978,0.0,0.0,-0.4826059341430664,-0.0675117969512939
-0.0210023876279592,1.2687276601791382,-0.1176895275712013,-0.4253348112106323,-0.0341175533831119,-0.0760937109589576,0.0,0.0,-0.4192073345184326,0.4476219415664673
-0.0222793575376272,1.258802056312561,-0.1240395307540893,-0.4412230849266052,-0.037748634815216,-0.072627805173397,0.0,0.0,-0.7814386487007141,0.65793776512146
-0.0235559456050395,1.2485098838806152,-0.1225280910730362,-0.45756596326828,-0.0428282767534256,-0.1016021147370338,0.0,0.0,0.2433133125305175,-0.55977463722229
-0.0248357765376567,1.2387686967849731,-0.1242996901273727,-0.4330540001392364,-0.04647022113204,-0.0728453695774078,0.0,0.0,-0.8669824004173279,0.5549631118774414
-0.0261444095522165,1.2286670207977295,-0.1263787895441055,-0.4491125345230102,-0.0509136766195297,-0.0888769030570983,0.0,0.0,0.6850481033325195,-0.432340145111084
-0.027352238073945,1.2193467617034912,-0.1170614361763,-0.4143641591072082,-0.0546015538275241,-0.0737643092870712,0.0,0.0,-0.7745280265808105,0.2749449014663696
-0.0286296848207712,1.2096688747406006,-0.1241606622934341,-0.4302652180194855,-0.0581497959792614,-0.0709710568189621,0.0,0.0,-0.7905313968658447,0.8132351636886597
-0.0298997871577739,1.1996257305145264,-0.1215878129005432,-0.4465828537940979,-0.0635317116975784,-0.1076476722955703,0.0,0.0,-0.7581304311752319,-0.4670294523239136
-0.0312417987734079,1.189225435256958,-0.1289003193378448,-0.4624767005443573,-0.0687882006168365,-0.1051390543580055,0.0,0.0,-0.4081450700759887,0.3972548246383667
-0.0326567664742469,1.1784676313400269,-0.1363099962472915,-0.4783703684806824,-0.073929063975811,-0.1028265208005905,0.0,0.0,0.4794999361038208,-0.1895719766616821
-0.0342303290963172,1.1682888269424438,-0.151660218834877,-0.4526830911636352,-0.0795670971274375,-0.1127603873610496,0.0,0.0,-0.4981292486190796,0.8720510005950928
-0.035809326916933,1.157750129699707,-0.1505355536937713,-0.4687948524951935,-0.0868550911545753,-0.1457599699497223,0.0,0.0,-0.6615289449691772,0.8854373693466187
-0.0374088287353515,1.1468567848205566,-0.1512877941131591,-0.4846788346767425,-0.0954352468252182,-0.1716034114360809,0.0,0.0,0.912845492362976,-0.164191722869873
-0.0391495712101459,1.136967658996582,-0.1648048311471939,-0.4401423633098602,-0.1046384200453758,-0.1840634644031524,0.0,0.0,-0.511422336101532,0.8877211809158325
-0.04090042039752,1.1267081499099731,-0.1641573756933212,-0.4567783176898956,-0.1154861599206924,-0.2169549465179443,0.0,0.0,-0.4616959691047668,0.931382179260254
-0.0426526069641113,1.116090178489685,-0.1624503880739212,-0.4729455113410949,-0.1281914860010147,-0.2541062235832214,0.0,0.0,-0.3042886257171631,0.9299530982971193
-0.0444202423095703,1.1050995588302612,-0.1624173820018768,-0.4897721707820892,-0.1424731165170669,-0.2856329679489136,0.0,0.0,-0.3747525811195373,0.2074184417724609
-0.0462665557861328,1.0937540531158447,-0.1703610867261886,-0.5056778788566589,-0.1567223817110061,-0.2849852740764618,0.0,0.0,0.3439632654190063,0.3983532190322876
-0.0481977462768554,1.0825003385543823,-0.1786481887102127,-0.5017493367195129,-0.1711903810501098,-0.2893602550029754,0.0,0.0,0.3327755928039551,0.4262571334838867
-0.0501094833016395,1.071636438369751,-0.1768180131912231,-0.4845589101314544,-0.1855878680944442,-0.2879499495029449,0.0,0.0,-0.2846131324768066,-0.4359208345413208
-0.0521014221012592,1.060417890548706,-0.184875950217247,-0.5004651546478271,-0.1999867260456085,-0.2879772782325744,0.0,0.0,-0.4565533995628357,-0.3761546015739441
-0.0541739463806152,1.0488444566726685,-0.1929652392864227,-0.5163716077804565,-0.2143981158733368,-0.2882280349731445,0.0,0.0,0.7097735404968262,-0.0659146904945373
-0.0561213493347168,1.0380582809448242,-0.1806514412164688,-0.481496512889862,-0.2286509424448013,-0.2850566208362579,0.0,0.0,-0.8948070406913757,-0.4880716204643249
-0.0581501014530658,1.0269170999526978,-0.1887948513031005,-0.4974029660224914,-0.2429382354021072,-0.285746157169342,0.0,0.0,-0.783664345741272,-0.8060663342475891
-0.0603190436959266,1.015444040298462,-0.2043520957231521,-0.5120416283607483,-0.2557188272476196,-0.2556119859218597,0.0,0.0,-0.3114280104637146,-0.6435679197311401
-0.0626269355416297,1.003643274307251,-0.219729334115982,-0.52644282579422,-0.2670181393623352,-0.2259864509105682,0.0,0.0,-0.1699572801589965,-0.7497977018356323
-0.065062902867794,0.9915038347244264,-0.2336751967668533,-0.5413749814033508,-0.277177631855011,-0.2031899243593216,0.0,0.0,0.3274089097976684,-0.6781343817710876
-0.0674819946289062,0.979351043701172,-0.2334135770797729,-0.5417645573616028,-0.2859055399894714,-0.1745583713054657,0.0,0.0,0.3824689388275146,-0.6558480262756348
-0.069821260869503,0.9674602150917052,-0.226819634437561,-0.5298930406570435,-0.2932235896587372,-0.146361157298088,0.0,0.0,0.6147761344909668,-0.5611384510993958
-0.0722451210021972,0.9556574821472168,-0.2361956387758255,-0.525826096534729,-0.299608826637268,-0.1277053505182266,0.0,0.0,0.47342050075531,-0.6337792277336121
-0.0746706947684288,0.9439212679862976,-0.2376098930835724,-0.5226378440856934,-0.3047231435775757,-0.102286972105503,0.0,0.0,0.8050093650817871,-0.0560582280158996
-0.0769698172807693,0.932496964931488,-0.2251680642366409,-0.5087530612945557,-0.3096404671669006,-0.0983465909957885,0.0,0.0,0.3694649934768677,-0.4440774917602539
-0.0792309790849685,0.921745777130127,-0.2208409756422042,-0.4789599478244781,-0.3151079416275024,-0.1093492284417152,0.0,0.0,-0.3321125507354736,0.0546714067459106
-0.0815761536359787,0.910638153553009,-0.2291259765625,-0.4948548078536987,-0.3207020461559295,-0.1118821874260902,0.0,0.0,0.3092234134674072,0.1756340265274047
-0.0838941559195518,0.8997556567192078,-0.2262273132801056,-0.4849134385585785,-0.3265075087547302,-0.1161098629236221,0.0,0.0,0.5330156087875366,-0.2435929775238037
-0.086000345647335,0.8892053961753845,-0.2055112421512603,-0.4700633287429809,-0.3318378925323486,-0.1066074594855308,0.0,0.0,0.3121516704559326,-0.3431757092475891
-0.0880434960126876,0.8791507482528687,-0.1988699734210968,-0.4481340944766998,-0.3375267386436462,-0.1137768030166626,0.0,0.0,0.4501489400863647,-0.3913000822067261
-0.0899513214826583,0.8692444562911987,-0.1856207698583603,-0.4415026903152466,-0.3429246246814728,-0.1079575642943382,0.0,0.0,0.7403745651245117,-0.6897918581962585
-0.0917070358991622,0.8601998686790466,-0.1716468036174774,-0.4029184877872467,-0.347053050994873,-0.0825686156749725,0.0,0.0,-0.1161599159240722,-0.3367509841918945
-0.0935474410653114,0.8507988452911377,-0.1799534261226654,-0.4188137352466583,-0.3513452410697937,-0.0858439952135086,0.0,0.0,0.4672797918319702,-0.7649252414703369
-0.0954743400216102,0.8417072296142578,-0.1897977590560913,-0.4047811925411224,-0.3543850779533386,-0.0607967302203178,0.0,0.0,0.6005959510803223,-0.4169749021530151
-0.0971324890851974,0.833297848701477,-0.1631644815206527,-0.3744086325168609,-0.3571769595146179,-0.0558373555541038,0.0,0.0,0.0933246612548828,-0.6423500776290894
-0.0986695289611816,0.8251340389251709,-0.1522552371025085,-0.3632003962993622,-0.3587044775485992,-0.0305501855909824,0.0,0.0,0.8245830535888672,-0.6427698135375977
-0.0999345779418945,0.8178766369819641,-0.1263510882854461,-0.322591483592987,-0.3588679730892181,-0.0032698176801204,0.0,0.0,0.6015080213546753,-0.5856286883354187
-0.1011331528425216,0.8114032745361328,-0.120499387383461,-0.2875455319881439,-0.3581975102424621,0.0134091479703783,0.0,0.0,0.8395540714263916,-0.4850946068763733
-0.1022185310721397,0.8051224946975708,-0.1092447414994239,-0.278967022895813,-0.3574519753456116,0.014910414814949,0.0,0.0,0.6288764476776123,-0.8296777009963989
-0.1033093482255935,0.7995527982711792,-0.1110671162605285,-0.2470520287752151,-0.3553636074066162,0.0417679958045482,0.0,0.0,0.9038166999816896,-0.8389899134635925
-0.1041936874389648,0.7944156527519226,-0.0921505168080329,-0.2273973524570465,-0.3514454066753387,0.0783639773726463,0.0,0.0,0.8042068481445312,-0.9309171438217164
-0.1049734130501747,0.7898892760276794,-0.0833842679858207,-0.1998624354600906,-0.3457694947719574,0.1135189682245254,0.0,0.0,0.667710542678833,-0.9166109561920166
-0.1057615280151367,0.7856037020683289,-0.0858307182788848,-0.1888039857149124,-0.3384109139442444,0.1471713185310363,0.0,0.0,0.4405540227890014,0.0479674339294433
-0.1065645217895507,0.7817448973655701,-0.0866741985082626,-0.1700193881988525,-0.3317536115646362,0.1331457793712616,0.0,0.0,0.7495262622833252,-0.8491430878639221
-0.1071936637163162,0.7788452506065369,-0.0708207786083221,-0.1270831823348999,-0.3235101997852325,0.164868026971817,0.0,0.0,-0.0334987640380859,-0.4250232577323913
-0.1079067215323448,0.7755898833274841,-0.0790435820817947,-0.1429832130670547,-0.3154727518558502,0.1607498526573181,0.0,0.0,-0.4447106122970581,-0.0169931054115295
-0.1087037101387977,0.7719785571098328,-0.0872506573796272,-0.1588828861713409,-0.3076429069042206,0.1565967500209808,0.0,0.0,-0.1054030656814575,-0.2424079179763794
-0.1095845252275466,0.7680112719535828,-0.0954404026269912,-0.1747822165489196,-0.3000223636627197,0.1524111181497573,0.0,0.0,-0.5250060558319092,-0.5428563356399536
-0.1105954200029373,0.7637121677398682,-0.109504759311676,-0.1893603354692459,-0.2913374900817871,0.1736976504325866,0.0,0.0,-0.6668831706047058,-0.3922227025032043
-0.1116897612810134,0.7590572834014893,-0.117655336856842,-0.205260619521141,-0.2828647792339325,0.1694535762071609,0.0,0.0,-0.7895126342773438,-0.2448053956031799
-0.1128671616315841,0.754046618938446,-0.1257830113172531,-0.2211605161428451,-0.2746056020259857,0.1651834696531295,0.0,0.0,-0.8967449069023132,-0.2824068069458008
-0.114127442240715,0.748680055141449,-0.1338857114315033,-0.2370600551366806,-0.2665611505508423,0.160889059305191,0.0,0.0,-0.7287010550498962,-0.2823191881179809
-0.1154705062508583,0.7429577708244324,-0.1419611424207687,-0.2529591917991638,-0.2587325572967529,0.1565718203783035,0.0,0.0,-0.9539925456047058,-0.0224582552909851
-0.1168959587812423,0.7368792295455933,-0.1500069051980972,-0.2688579261302948,-0.251120924949646,0.1522330939769745,0.0,0.0,-0.9946710467338562,-0.1938797831535339
-0.1184035316109657,0.730444610118866,-0.1580203473567962,-0.2847563028335571,-0.2437272071838379,0.147873967885971,0.0,0.0,-0.9493544101715088,-0.2331154346466064
-0.1199929267168045,0.7236539721488953,-0.1659986674785614,-0.3006543815135956,-0.2365524470806121,0.1434955298900604,0.0,0.0,-0.9905818104743958,0.6660361289978027
-0.1216048225760459,0.7164925932884216,-0.1665488183498382,-0.317435622215271,-0.2311143726110458,0.1087616309523582,0.0,0.0,-0.9806133508682252,-0.4150420427322387
-0.1232977882027626,0.7089746594429016,-0.174447014927864,-0.333331435918808,-0.2258970290422439,0.1043469905853271,0.0,0.0,-0.9968873262405396,0.5564672946929932
-0.1250387132167816,0.7010829448699951,-0.1781558543443679,-0.350123792886734,-0.2217861711978912,0.0822169333696365,0.0,0.0,-0.99616539478302,-0.5275097489356995
-0.1268970519304275,0.6928520798683167,-0.1906602084636688,-0.3650974035263061,-0.2169029414653778,0.0976650267839431,0.0,0.0,-0.9178157448768616,-0.3462736010551452
-0.1288350075483322,0.684264600276947,-0.1984119117259979,-0.3809925019741058,-0.2122429460287094,0.0931997746229171,0.0,0.0,-0.8599486351013184,0.1378331184387207
-0.1308521330356598,0.675320565700531,-0.2061063349246978,-0.3968873918056488,-0.2078070193529129,0.0887185931205749,0.0,0.0,-0.94481098651886,-0.1172105073928833
-0.1329478323459625,0.6660199761390686,-0.2137387245893478,-0.4127820432186126,-0.2035959362983703,0.0842217653989791,0.0,0.0,-0.785956859588623,0.7861340045928955
-0.1350516378879547,0.656341016292572,-0.2125476896762848,-0.4298751652240753,-0.201419398188591,0.0435309074819088,0.0,0.0,-0.7076598405838013,0.769220232963562
-0.1371719390153885,0.6462789177894592,-0.2123600244522094,-0.4471577703952789,-0.2010813355445861,0.0067611867561936,0.0,0.0,-0.9988007545471193,0.4537488222122192
-999.0,0.6358599066734314,-0.2197737246751785,-0.4630507230758667,-0.2009705007076263,0.0022168403957039,0.0,0.0,-0.9514323472976683,0.0864845514297485
-0.1416407525539398,0.6250840425491333,-0.2271026670932769,-0.4789437055587768,-0.2010876834392547,-0.0023436625488102,0.0,0.0,-0.0075764060020446,0.052788496017456
-0.1439875662326812,0.6139513850212097,-0.234340101480484,-0.494836688041687,-0.2014337182044983,-0.0069205509498715,0.0,0.0,0.0961401462554931,0.1307153701782226
-0.146311953663826,0.6031953692436218,-0.2318558692932129,-0.478124588727951,-0.2020268440246582,-0.0118629476055502,0.0,0.0,0.4885141849517822,0.2394509315490722
-0.1485445946455001,0.5930784344673157,-0.2225696146488189,-0.4497382938861847,-0.2027216255664825,-0.0138957072049379,0.0,0.0,-0.8645806312561035,0.3902004957199096
-0.1508486717939376,0.5826045870780945,-0.2294875383377075,-0.4656313955783844,-0.2036478221416473,-0.0185239631682634,0.0,0.0,-0.7839130163192749,0.8568123579025269
-0.1531468331813812,0.5717411041259766,-0.2266730070114135,-0.4832564890384674,-0.2068234980106353,-0.0635136663913726,0.0,0.0,-0.8506248593330383,0.9149898290634156
-0.1554498672485351,0.5604982376098633,-0.2252531945705413,-0.5003998875617981,-0.2119136452674865,-0.1018030419945716,0.0,0.0,-0.7937184572219849,0.8188982009887695
-0.1577467918395996,0.5488852858543396,-0.2225690633058548,-0.5171706080436707,-0.2191098183393478,-0.1439238488674163,0.0,0.0,-0.1885434985160827,0.5281730890274048
-0.1600706130266189,0.5369030237197876,-0.2240202873945236,-0.5338069796562195,-0.2275637090206146,-0.1690774261951446,0.0,0.0,-0.9059762954711914,0.3672058582305908
-0.1624586135149002,0.5245648622512817,-0.2302302122116089,-0.5497064590454102,-0.2362539023160934,-0.1738038808107376,0.0,0.0,-0.926561176776886,-0.629999041557312
-0.1649499833583831,0.511888861656189,-0.2414229661226272,-0.5646337270736694,-0.2440917044878006,-0.1567564457654953,0.0,0.0,0.6563928127288818,-0.259974718093872
-0.1673724204301834,0.4999713599681854,-0.234059453010559,-0.5310484170913696,-0.2524164617061615,-0.1664949506521225,0.0,0.0,-0.8967874050140381,-0.4313870668411255
-0.1698535978794098,0.4876979887485504,-0.2397182732820511,-0.5469481945037842,-0.2609809637069702,-0.1712905168533325,0.0,0.0,-0.1644977927207946,0.8902895450592041
-0.172326847910881,0.4750402569770813,-0.2370294779539108,-0.5644343495368958,-0.2715163826942444,-0.2107082158327102,0.0,0.0,-0.3189311623573303,0.0557703971862793
-0.1748544722795486,0.4620273113250732,-0.242264911532402,-0.5803380608558655,-0.2822940647602081,-0.2155529558658599,0.0,0.0,-0.2161911129951477,-0.5494806170463562
-0.1774865090847015,0.4486805200576782,-0.2538462281227112,-0.5950281023979187,-0.2919227480888366,-0.1925735473632812,0.0,0.0,-0.0115946531295776,0.3003928661346435
-0.1801682412624359,0.4349784255027771,-0.2586093246936798,-0.6109306812286377,-0.3017963171005249,-0.1974712759256363,0.0,0.0,0.7060526609420776,-0.2920724749565124
-0.1827234327793121,0.4214384257793426,-0.2460275888442993,-0.6037775278091431,-0.3116231262683868,-0.196536123752594,0.0,0.0,0.256294846534729,-0.2645333409309387
-0.1850403845310211,0.4083206355571747,-0.2224771231412887,-0.5850173234939575,-0.3211873769760132,-0.1912850588560104,0.0,0.0,0.8734126091003418,-0.921416699886322
-0.1872155219316482,0.3961549997329712,-0.2098667621612548,-0.5424131155014038,-0.3291603624820709,-0.1594606190919876,0.0,0.0,0.9024858474731444,-0.8437219858169556
-0.1890018433332443,0.3849844932556152,-0.1727620512247085,-0.4978217482566833,-0.3352973759174347,-0.122740089893341,0.0,0.0,0.9852067232131958,-0.9149755239486694
-0.1905679702758789,0.3744301795959472,-0.1524727046489715,-0.4700478613376617,-0.3396275639533996,-0.0866036266088485,0.0,0.0,0.8199769258499146,-0.7543245553970337
-0.1919300109148025,0.3648327887058258,-0.1332854628562927,-0.4272404313087463,-0.3426764607429504,-0.0609779171645641,0.0,0.0,0.9525547027587892,-0.8441915512084961
-0.1929962188005447,0.3561950027942657,-0.1052765250205993,-0.3842236697673797,-0.3440849781036377,-0.0281701236963272,0.0,0.0,0.9790757894515992,0.0863229036331176
-0.1938131302595138,0.3479275107383728,-0.0805331394076347,-0.3677216470241546,-0.3453025817871094,-0.0243519954383373,0.0,0.0,0.97994065284729,-0.5154429078102112
-0.1945864707231521,0.340449571609497,-0.0764947012066841,-0.3325552344322204,-0.3461834192276001,-0.0176165476441383,0.0,0.0,0.9261918067932128,-0.8168561458587646
-0.1953910887241363,0.3335758447647095,-0.0806471034884452,-0.3054513335227966,-0.3459862172603607,0.0039443196728825,0.0,0.0,0.954145073890686,-0.7765195369720459
-0.1960701048374176,0.3273314237594604,-0.0692993551492691,-0.2771939039230346,-0.34451824426651,0.0293594505637884,0.0,0.0,0.924140214920044,-0.4900484085083008
-0.1965244263410568,0.3215925097465515,-0.0467178933322429,-0.2547556161880493,-0.3431701958179474,0.0269616153091192,0.0,0.0,0.9138317108154296,-0.366626501083374
-0.1967063844203949,0.316009372472763,-0.0199006833136081,-0.2477358430624008,-0.3413829207420349,0.0357454195618629,0.0,0.0,0.8603305816650391,-0.6486445665359497
-0.1965736448764801,0.311127245426178,0.0102681834250688,-0.2162737995386123,-0.3382328748703003,0.0630007833242416,0.0,0.0,0.8899484872817993,-0.7317319512367249
-0.196161463856697,0.3072144389152527,0.0369426757097244,-0.1729088574647903,-0.3337689936161041,0.0892773494124412,0.0,0.0,0.6321697235107422,-0.6417111158370972
