x_pos,y_pos,x_vel,y_vel,angle,ang_vel,leg_1,leg_2,main_booster,lat_booster
-0.0014601707225665,1.4031966924667358,-0.147910863161087,-0.3432663083076477,0.0016905890079215,0.033343318849802,0.0,0.0,-0.1482882499694824,0.8384804725646973
-0.0027840614784508,1.3950647115707395,-0.1322002708911895,-0.3614257276058197,0.001501627266407,-0.0037788252811878,0.0,0.0,-0.2377257347106933,0.2425340414047241
-0.0040420531295239,1.3865041732788086,-0.1255674362182617,-0.3804648220539093,0.0012800763361155,-0.0044316770508885,0.0,0.0,-0.0800387859344482,0.8337430953979492
-0.0051804543472826,1.3775131702423096,-0.1122441738843917,-0.3995994627475738,-0.000294651108561,-0.0314977690577507,0.0,0.0,0.2104487419128418,0.1403071880340576
-0.0061564445495605,1.3688108921051023,-0.0964319109916687,-0.3867653906345367,-0.0014409442665055,-0.022928113117814,0.0,0.0,-0.5528878569602966,-0.1464968919754028
-0.007063865661621,1.3596806526184082,-0.0895590335130691,-0.4057870209217071,-0.0026079618837684,-0.023342628031969,0.0,0.0,-0.2741647958755493,-0.0402877926826477
-0.0079021453857421,1.3501226902008057,-0.0826246738433837,-0.4248006641864776,-0.0037900055758655,-0.0236433334648609,0.0,0.0,-0.6845158338546753,-0.178502082824707
-0.0086705209687352,1.340137004852295,-0.0756379216909408,-0.4438157379627228,-0.0049820151180028,-0.0238422974944114,0.0,0.0,-0.7280233502388,-0.2100619077682495
-0.0093687055632472,1.3297234773635864,-0.0686071217060089,-0.4628317058086395,-0.0061783762648701,-0.0239295419305562,0.0,0.0,-0.4028985500335693,-0.604934811592102
-0.010044002905488,1.3188862800598145,-0.0675250142812728,-0.4816552400588989,-0.0061731585301458,0.0001044309465214,0.0,0.0,-0.5357401967048645,0.0171376466751098
-0.0106481555849313,1.3076211214065552,-0.0604351460933685,-0.5006712079048157,-0.0061608110554516,0.0002469207975082,0.0,0.0,-0.7217717170715332,-0.7884414792060852
-0.0112359998747706,1.2959269285202026,-0.0602083131670951,-0.5197314620018005,-0.0047545437701046,0.0281279198825359,0.0,0.0,-0.9286155700683594,-0.8463782668113708
-0.0118047716096043,1.283809781074524,-0.0596533007919788,-0.5385338664054871,-0.0020124553702771,0.0548468306660652,0.0,0.0,-0.7356705069541931,-0.6374674439430237
-0.0123467445373535,1.2712591886520386,-0.0581225752830505,-0.5578069686889648,0.0018764992710202,0.0777863040566444,0.0,0.0,-0.7738991379737854,-0.7359647154808044
-0.0128616336733102,1.2582885026931765,-0.0565938428044319,-0.5764913558959961,0.0069185802713036,0.100850835442543,0.0,0.0,-0.9157130122184752,-0.2550466060638428
-0.0133051872253417,1.244890213012695,-0.0494992025196552,-0.59550940990448,0.0120031256228685,0.1016998514533042,0.0,0.0,-0.5547267198562622,0.0479813814163208
-0.0136774061247706,1.2310644388198853,-0.0424230843782424,-0.6145275831222534,0.0171385928988456,0.1027184501290321,0.0,0.0,-0.7406711578369141,0.362758994102478
-0.0139786722138524,1.216811180114746,-0.03537318110466,-0.6335457563400269,0.0223329383879899,0.1038964018225669,0.0,0.0,-0.8151215314865112,-0.0249965190887451
-0.0142089845612645,1.2021305561065674,-0.0283565409481525,-0.6525641679763794,0.0275946389883756,0.1052433624863624,0.0,0.0,-0.5048103928565979,0.7147027254104614
-0.0143199916929006,1.1870239973068235,-0.0152459293603897,-0.6714855432510376,0.0317027494311332,0.0821695923805236,0.0,0.0,-0.7147154211997986,0.133231520652771
-0.0143608096987009,1.171489715576172,-0.0083131538704037,-0.6905035376548767,0.0358964428305625,0.0838812142610549,0.0,0.0,-0.7763383984565735,0.4933407306671142
-0.0143317226320505,1.155527949333191,-0.0014349319972097,-0.7095218300819397,0.0401839539408683,0.0857580751180648,0.0,0.0,-0.7733244895935059,0.8332943916320801
-0.0141533855348825,1.1391422748565674,0.0154257789254188,-0.7283223867416382,0.0425611361861228,0.0475482121109962,0.0,0.0,-0.667340874671936,0.0412631034851074
-0.0139063838869333,1.122328758239746,0.0221817940473556,-0.7473399639129639,0.04505205899477,0.0498229712247848,0.0,0.0,-0.8586461544036865,-0.09698086977005
-0.0135912895202636,1.1050875186920166,0.0288630034774541,-0.7663575410842896,0.0476648770272731,0.0522614233195781,0.0,0.0,-0.8518896698951721,0.2004789113998413
-0.0132081033661961,1.0873973369598389,0.0355324521660804,-0.7863278985023499,0.0504098273813724,0.0548991747200489,0.0,0.0,-0.4072854518890381,-0.1446194648742675
-0.0127583499997854,1.0692793130874634,0.0420540533959865,-0.8053433299064636,0.0532971955835819,0.057747334241867,0.0,0.0,0.2315127849578857,0.6231188774108887
-0.0123344417661428,1.0516568422317505,0.0407516248524189,-0.7832756042480469,0.0549143068492412,0.032342180609703,0.0,0.0,-0.7442653775215149,0.5676918029785156
-0.0118107795715332,1.0336143970489502,0.051473893225193,-0.8019209504127502,0.0558083206415176,0.0178801473230123,0.0,0.0,0.0364627838134765,-0.0046571493148803
-0.0112531660124659,1.0156011581420898,0.0547403879463672,-0.800622284412384,0.0568144060671329,0.0201217196881771,0.0,0.0,-0.1804073452949524,0.3658605813980102
-0.0106326099485158,0.9971603751182556,0.0608556792140007,-0.8196374177932739,0.0580037608742713,0.0237870067358016,0.0,0.0,0.2087184190750122,0.2454801797866821
-0.010025406256318,0.9787670969963074,0.0595814697444438,-0.8175237774848938,0.0591232255101203,0.0223895870149135,0.0,0.0,0.6921924352645874,0.4853850603103637
-0.009490299038589,0.961168110370636,0.0525637343525886,-0.7822148203849792,0.0600550286471843,0.018635956570506,0.0,0.0,0.269650936126709,0.2960233688354492
-0.0089611057192087,0.9435520768165588,0.0519912131130695,-0.782971978187561,0.0609738156199455,0.0183759145438671,0.0,0.0,-0.3177086114883423,0.8688197135925293
-0.0083030704408884,0.9255167841911316,0.0664470344781875,-0.8015469312667847,0.0603396706283092,-0.0126832099631428,0.0,0.0,0.468738317489624,-0.1588611602783203
-0.0076122283935546,0.9080619215965272,0.0694148316979408,-0.7757561206817627,0.0600136779248714,-0.0065195546485483,0.0,0.0,0.0061695575714111,0.672110915184021
-0.0068470956757664,0.8905944228172302,0.0779581889510154,-0.7762773036956787,0.0585781373083591,-0.0287107229232788,0.0,0.0,0.2405263185501098,-0.0776631236076355
-0.0060323714278638,0.8735575675964355,0.0825282111763954,-0.7571479678153992,0.0575275607407093,-0.0210116002708673,0.0,0.0,-0.2465822100639343,0.439288854598999
-0.005164623260498,0.8560933470726013,0.0875725895166397,-0.7761633992195129,0.0567391589283943,-0.015767803415656,0.0,0.0,-0.5256373882293701,0.3424017429351806
-0.0042452812194824,0.8382013440132141,0.0924626216292381,-0.7951789498329163,0.0562222450971603,-0.0103384554386138,0.0,0.0,-0.1345609426498413,0.5129213333129883
-0.0032424926757812,0.8198887705802917,0.1013621315360069,-0.8138455748558044,0.055145151913166,-0.021541804075241,0.0,0.0,0.0109087228775024,0.6007966995239258
-0.0020760535262525,0.8016381859779358,0.1185377389192581,-0.8110705614089966,0.0532663986086845,-0.0375749431550502,0.0,0.0,-0.4753228425979614,-0.9213895201683044
-0.000923347484786,0.7829449772834778,0.1153172701597213,-0.8308107852935791,0.0532255321741104,-0.0008172824745997,0.0,0.0,-0.2996696829795837,-0.3568788766860962
0.0002749442937783,0.7638241648674011,0.1195551753044128,-0.8498262763023376,0.0534913875162601,0.0053168726153671,0.0,0.0,-0.3650744557380676,0.1729490756988525
0.0015170096885412,0.744275689125061,0.1236228495836258,-0.868841826915741,0.0540722385048866,0.0116170402616262,0.0,0.0,-0.4217780232429504,-0.5718016028404236
0.0027598380111157,0.7242904305458069,0.1223020553588867,-0.888305127620697,0.0560284107923507,0.0391234494745731,0.0,0.0,-0.486985445022583,-0.1343840360641479
0.0040431022644042,0.7038777470588684,0.1260229647159576,-0.9073211550712584,0.0583155341446399,0.045742355287075,0.0,0.0,0.7870132923126221,-0.3319102525711059
0.0051914216019213,0.6843773126602173,0.1127470284700393,-0.866766631603241,0.0603788159787654,0.0412655435502529,0.0,0.0,0.6130707263946533,0.1527574062347412
0.0062012672424316,0.6655898094177246,0.0991499498486518,-0.8350722789764404,0.0621887780725955,0.0361993983387947,0.0,0.0,0.4283775091171264,0.5988919734954834
0.0072465897537767,0.6470341086387634,0.1036019548773765,-0.8247396945953369,0.0631173327565193,0.0185709781944751,0.0,0.0,0.2798575162887573,-0.3708428144454956
0.0084087373688817,0.6287235617637634,0.1143952757120132,-0.8138774633407593,0.064919888973236,0.0360511690378189,0.0,0.0,-0.5230613350868225,0.2253683805465698
0.0096029285341501,0.6099856495857239,0.1172286421060562,-0.832893967628479,0.0670891106128692,0.0433844998478889,0.0,0.0,0.4720933437347412,-0.774405837059021
0.0108482362702488,0.5914137363433838,0.1202329993247985,-0.8256191611289978,0.0713448971509933,0.0851153954863548,0.0,0.0,0.0909558534622192,0.574114203453064
0.0121321678161621,0.5732129812240601,0.1248505339026451,-0.8090935945510864,0.0748389735817909,0.0698817819356918,0.0,0.0,0.748180627822876,0.2554130554199219
0.0135615346953272,0.5553745031356812,0.1382825523614883,-0.7930639386177063,0.0794475451111793,0.0921716392040252,0.0,0.0,0.5390498638153076,0.1324942111968994
0.0148924831300973,0.5377545356750488,0.1284703910350799,-0.783360481262207,0.0840352028608322,0.091753214597702,0.0,0.0,0.4186100959777832,0.2808418273925781
0.0162700656801462,0.5207406878471375,0.1323505789041519,-0.7564868927001953,0.0893925204873085,0.1071464791893959,0.0,0.0,0.3562170267105102,0.8230979442596436
0.0178125388920307,0.5041561126708984,0.1499357372522354,-0.7373555302619934,0.0936580523848533,0.0853108316659927,0.0,0.0,-0.2677942514419555,-0.2555214166641235
0.0193751342594623,0.4871444702148437,0.1515519917011261,-0.7563743591308594,0.0983299612998962,0.093437984585762,0.0,0.0,0.544854998588562,0.4230096340179443
0.0208133701235055,0.470792144536972,0.1390374153852462,-0.7270900011062622,0.1030834540724754,0.0950695350766182,0.0,0.0,0.5497654676437378,0.6118701696395874
0.0223334319889545,0.4545414447784424,0.14790078997612,-0.7225431799888611,0.1071526035666465,0.0813833177089691,0.0,0.0,0.1574916839599609,0.1209355592727661
0.0237465854734182,0.4385853111743927,0.1371212750673294,-0.7094660401344299,0.1113164648413658,0.0832767114043235,0.0,0.0,0.5498981475830078,0.6573469638824463
0.0252974517643451,0.4229536056518554,0.1515176743268966,-0.6950137615203857,0.1148601099848747,0.0708729103207588,0.0,0.0,0.2696137428283691,0.0715968608856201
0.0268248561769723,0.407599925994873,0.1486650705337524,-0.6827058792114258,0.1189147979021072,0.0810940936207771,0.0,0.0,0.4662073850631714,0.5583645105361938
0.0283729545772075,0.3923541903495788,0.1513976603746414,-0.6778627038002014,0.1223051622509956,0.067807100713253,0.0,0.0,0.390634536743164,-0.2451012134552002
0.0297667495906353,0.3774031400680542,0.1360182762145996,-0.664772629737854,0.1256474405527115,0.0668455883860588,0.0,0.0,0.4768170118331909,0.2019011974334716
0.0310922618955373,0.3631671667098999,0.1286604404449463,-0.6330419778823853,0.1295153796672821,0.0773588642477989,0.0,0.0,0.6654989719390869,0.5253190994262695
0.0325162895023822,0.3489617705345154,0.1388902217149734,-0.6316595673561096,0.1330164074897766,0.0700205117464065,0.0,0.0,0.3575361967086792,0.7236504554748535
0.0339339263737201,0.3353970050811767,0.1392180025577545,-0.6031084060668945,0.1355475932359695,0.0506239831447601,0.0,0.0,0.4186246395111084,0.1619917154312133
0.035221479833126,0.3219930529594421,0.1261399090290069,-0.595973551273346,0.1381493657827377,0.0520354583859443,0.0,0.0,0.037420630455017,0.4071379899978637
0.0363970771431922,0.3087819218635559,0.1147772818803787,-0.5874223113059998,0.1409307867288589,0.0556280985474586,0.0,0.0,0.4478211402893066,0.7759281396865845
0.0375894531607627,0.2959745526313782,0.1174995079636573,-0.5693801045417786,0.1426539719104766,0.034463845193386,0.0,0.0,0.4945278167724609,0.4005322456359863
0.0385595336556434,0.283849686384201,0.0953814312815666,-0.5390385389328003,0.1442877799272537,0.0326764546334743,0.0,0.0,0.9124622344970704,0.8387739658355713
0.0395924560725688,0.2723245620727539,0.1026899218559265,-0.5122837424278259,0.1448842138051986,0.0119285713881254,0.0,0.0,0.8333148956298828,-0.1079311370849609
0.0405258163809776,0.2610085606575012,0.0924608036875724,-0.5030176639556885,0.1457595080137252,0.017505470663309,0.0,0.0,0.9265297651290894,0.7195644378662109
0.0415453910827636,0.2498517781496048,0.1018656864762306,-0.4958677589893341,0.145856887102127,0.0019475944573059,0.0,0.0,0.9679763317108154,-0.5965863466262817
0.0424193367362022,0.2388432174921035,0.0857516676187515,-0.4894325137138366,0.1474919617176056,0.0327017493546009,0.0,0.0,0.9708681106567384,0.4515708684921264
0.0431426055729389,0.2288094609975814,0.0702717453241348,-0.4461490511894226,0.1495342999696731,0.0408471301198005,0.0,0.0,0.8002862930297852,0.042495846748352
0.0438172332942485,0.2196868807077407,0.0645643323659896,-0.4057429432868957,0.1524335592985153,0.0579851493239402,0.0,0.0,0.974816083908081,0.4055159091949463
0.0442082397639751,0.2115554213523864,0.0363654345273971,-0.3616814613342285,0.1551655083894729,0.0546390898525714,0.0,0.0,0.9081814289093018,-0.7991442084312439
0.0443144813179969,0.2035036385059356,0.0061751864850521,-0.3583275377750397,0.1596060991287231,0.0888121277093887,0.0,0.0,0.9643211364746094,0.8339241743087769
0.0443838126957416,0.1964525729417801,0.0036089923232793,-0.3137400448322296,0.1629349142313003,0.0665764063596725,0.0,0.0,0.9634028673171996,0.9381382465362548
0.044280719012022,0.1899727880954742,-0.0119714085012674,-0.2881756722927093,0.1645949929952621,0.0332016795873642,0.0,0.0,0.711834192276001,0.8453552722930908
0.0440623275935649,0.1841097623109817,-0.0221476722508668,-0.2606099247932434,0.1649007052183151,0.0061141871847212,0.0,0.0,0.3378798961639404,0.5199975967407227
0.043777085840702,0.1786680370569229,-0.0282089598476886,-0.2418221682310104,0.1645869612693786,-0.0062748380005359,0.0,0.0,0.0624030828475952,0.5370795726776123
0.0435300841927528,0.1733787804841995,-0.0238563530147075,-0.2349824905395507,0.1637468785047531,-0.0168018471449613,0.0,0.0,-0.4702379107475281,0.7282809019088745
0.043339442461729,0.1676703989505767,-0.0171596016734838,-0.2535004913806915,0.1618385314941406,-0.0381668470799922,0.0,0.0,0.4900628328323364,0.4679024219512939
0.0431694984436035,0.1620929092168808,-0.0159121938049793,-0.2477707117795944,0.1607579588890075,-0.0216116700321435,0.0,0.0,0.7624964714050293,0.2551096677780151
0.0430539138615131,0.1570282578468322,-0.0116331102326512,-0.2251050174236297,0.1608411818742752,0.0016643792623654,0.0,0.0,0.4572393894195556,0.439427375793457
0.0430014617741107,0.1520813256502151,-0.006331083830446,-0.219981774687767,0.1619275957345962,0.0217286422848701,0.0,0.0,0.075042724609375,0.3420982360839844
0.0428644195199012,0.1474302411079406,-0.0152026591822505,-0.2068759799003601,0.1634276956319809,0.030001938343048,0.0,0.0,0.2160876989364624,0.8297326564788818
0.0427247993648052,0.1432072967290878,-0.0142472013831138,-0.1877174079418182,0.1637091785669326,0.0056294333189725,0.0,0.0,0.3405416011810303,-0.1007820963859558
0.0425957664847373,0.1393832564353943,-0.0140793966129422,-0.1700890958309173,0.1648802608251571,0.0234218686819076,0.0,0.0,-0.4744528532028198,0.2855781316757202
0.0424664504826068,0.1351322084665298,-0.0145168425515294,-0.1891091018915176,0.1664686650037765,0.0317680314183235,0.0,0.0,-0.1814583539962768,0.7392354011535645
0.0423905365169048,0.1304655224084854,-0.0082356827333569,-0.207481563091278,0.1671188026666641,0.0130026089027524,0.0,0.0,0.4612693786621094,0.3697242736816406
0.0422631278634071,0.1265193074941635,-0.0141461119055747,-0.1755447089672088,0.1685214340686798,0.028052482753992,0.0,0.0,-0.4702763557434082,-0.0313323140144348
0.0421381965279579,0.1221462339162826,-0.0142967533320188,-0.1945646107196808,0.1703240126371383,0.0360523089766502,0.0,0.0,0.1240352392196655,0.1956284046173095
0.0418416038155555,0.118124783039093,-0.0314592495560646,-0.1789366453886032,0.1721282601356506,0.0360850021243095,0.0,0.0,-0.8034796118736267,-0.015457272529602
0.0415496826171875,0.1136764585971832,-0.0313753634691238,-0.1979565620422363,0.1743185520172119,0.0438056848943233,0.0,0.0,-0.4673359394073486,0.5201959609985352
0.041300106793642,0.1088147237896919,-0.0265688449144363,-0.216267392039299,0.175934761762619,0.0323242470622062,0.0,0.0,-0.014524221420288,0.4397401809692383
0.0410577766597271,0.1035260558128357,-0.0262167565524578,-0.2352871596813202,0.1779209226369857,0.0397232547402381,0.0,0.0,0.4494273662567138,0.4606707096099853
0.0407251343131065,0.098449669778347,-0.0354958698153495,-0.2258870154619217,0.1801671981811523,0.0449254252016544,0.0,0.0,0.1961398124694824,-0.3853940963745117
0.0402415283024311,0.0935662612318992,-0.0505641624331474,-0.2173107117414474,0.1823742985725402,0.0441418886184692,0.0,0.0,0.0608415603637695,0.8532973527908325
0.0396634116768837,0.0887374952435493,-0.0586291924118995,-0.2147107720375061,0.1831931620836258,0.0163770914077758,0.0,0.0,-0.0390474200248718,0.8444221019744873
0.0391748435795307,0.0835081189870834,-0.0480076074600219,-0.2323139458894729,0.1823475211858749,-0.0169127956032753,0.0,0.0,0.5642392635345459,0.8983769416809082
0.0387727729976177,0.0783964022994041,-0.0379723384976387,-0.2269145399332046,0.1801092475652694,-0.0447655394673347,0.0,0.0,0.5533967018127441,0.2406606674194336
0.0383930206298828,0.0739528760313987,-0.0366846695542335,-0.1973327845335006,0.1788089126348495,-0.0260065756738185,0.0,0.0,0.3067586421966553,0.6433196067810059
0.0379519462585449,0.0700017288327217,-0.0417740494012832,-0.1753253489732742,0.1764747053384781,-0.0466840825974941,0.0,0.0,-0.0836665034294128,0.8749175071716309
0.0376140587031841,0.0656561255455017,-0.0295759346336126,-0.1926415264606475,0.1722451150417328,-0.0845914036035537,0.0,0.0,0.3351283073425293,-0.0598765611648559
0.0372785553336143,0.0615916103124618,-0.0298744346946477,-0.1802248805761337,0.1685670763254165,-0.0735607892274856,0.0,0.0,0.2013921737670898,0.3514033555984497
0.036862276494503,0.0579766370356082,-0.0381782613694667,-0.1602789759635925,0.1651160269975662,-0.0690210610628128,0.0,0.0,-0.2712562680244446,0.8708095550537109
0.0365458503365516,0.0539608336985111,-0.0265088435262441,-0.1779179722070694,0.1599760800600052,-0.1027989536523819,0.0,0.0,0.4464545249938965,0.8852877616882324
0.0363418571650981,0.050144013017416,-0.0137932943180203,-0.1689395010471344,0.1533743143081665,-0.1320352852344513,0.0,0.0,0.5169732570648193,0.6949362754821777
0.0360133163630962,0.0467276684939861,-0.0248131249099969,-0.1510334908962249,0.1453456431627273,-0.1605733633041381,0.0,0.0,-0.0862257480621337,0.6152306795120239
0.0357549674808979,0.0428913943469524,-0.0170044861733913,-0.1696620732545852,0.1365329921245575,-0.17625293135643,0.0,0.0,0.3463958501815796,0.1858928203582763
0.0354508385062217,0.0393076762557029,-0.0216445438563823,-0.1584942787885666,0.1278034001588821,-0.1745916903018951,0.0,0.0,0.3297708034515381,0.7201356887817383
0.0352081283926963,0.0359504073858261,-0.0142254680395126,-0.1483809500932693,0.1178154349327087,-0.1997594088315963,0.0,0.0,0.2526071071624756,0.0595734119415283
0.0350704193115234,0.0325904227793216,-0.0043146600946784,-0.1486151814460754,0.1084096729755401,-0.1881152391433715,0.0,0.0,0.2765657901763916,-0.1636537313461303
0.0349910743534565,0.0296038724482059,0.0010892788413912,-0.1321040242910385,0.0994553864002227,-0.1790857464075088,0.0,0.0,-0.1317768096923828,-0.3219320774078369
0.0349547378718853,0.0261906720697879,0.0053138029761612,-0.1511254906654358,0.0905824899673461,-0.1774577796459198,0.0,0.0,-0.0150882005691528,-0.8344201445579529
0.0349054336547851,0.0223334413021802,0.0024579162709414,-0.1710044592618942,0.0832587480545044,-0.1464744806289672,0.0,0.0,0.1562350988388061,-0.8730192184448242
0.0348783507943153,0.0186975821852684,0.002861495828256,-0.1612946540117263,0.0777442529797554,-0.110289990901947,0.0,0.0,0.4102954864501953,-0.9149736166000366
