x_pos,y_pos,x_vel,y_vel,angle,ang_vel,leg_1,leg_2,main_booster,lat_booster
-0.0016183853149414,1.4033440351486206,-0.1641539186239242,-0.3367144167423248,0.0020726132206618,0.040907546877861,0.0,0.0,-0.276866888733519,0.7409932990203032
-0.0032713890541344,1.3955073356628418,-0.1659806370735168,-0.3483003377914428,0.0027439086697995,0.0134277287870645,0.0,0.0,0.8427881408244642,0.8131117641899822
-0.004798412322998,1.3880605697631836,-0.1523708403110504,-0.330965131521225,0.0024130884557962,-0.006616904400289,0.0,0.0,-0.974212566167514,-0.8512631484659837
-0.006507396697998,1.3803303241729736,-0.1728611290454864,-0.3435778021812439,0.0043488549999892,0.0387189164757728,0.0,0.0,0.9757343351164772,0.6256420877891388
-0.0081096645444631,1.3734925985336304,-0.1616674363613128,-0.3038995563983917,0.005774138495326,0.0285082161426544,0.0,0.0,0.0373205016314264,0.5804134211368693
-0.009677124209702,1.3668863773345947,-0.1574457585811615,-0.2936190962791443,0.0064606210216879,0.0137311546131968,0.0,0.0,0.1922891747958774,-0.8135855785951447
-0.0114371301606297,1.360623836517334,-0.1785753816366195,-0.2783430516719818,0.0090028159320354,0.0508484840393066,0.0,0.0,0.4669285363755828,0.7175172002270168
-0.0131078716367483,1.354947566986084,-0.1687590479850769,-0.2522943317890167,0.0106696458533406,0.0333398655056953,0.0,0.0,-0.6097891437786771,0.615638230345142
-0.014841079711914,1.3489981889724731,-0.1740760803222656,-0.2644234597682953,0.0114112794399261,0.0148340882733464,0.0,0.0,-0.2999838649492936,-0.5430236281210223
-0.016728401184082,1.342771053314209,-0.1908509582281112,-0.2767746150493622,0.0135031668469309,0.0418415293097496,0.0,0.0,-0.8380282568176196,0.6093124926924748
-0.0186733249574899,1.336265206336975,-0.195491224527359,-0.2891579270362854,0.0144900707527995,0.0197400990873575,0.0,0.0,0.7983306352439996,-0.9371363568730808
-0.0207282062619924,1.330339789390564,-0.2087999880313873,-0.2633875608444214,0.0177608113735914,0.0654209926724433,0.0,0.0,-0.1522711712828746,0.8616418216915158
-0.0228151325136423,1.324140548706055,-0.2101804316043853,-0.2755415141582489,0.0192338898777961,0.0294641070067882,0.0,0.0,-0.584031867357411,0.641131922613535
-0.0249609947204589,1.3176567554473877,-0.2149277031421661,-0.2881776690483093,0.0195758659392595,0.0068402797915041,0.0,0.0,0.219072173928944,0.6770471464108602
-0.0270649902522563,1.3118168115615845,-0.2098522931337356,-0.2595479786396026,0.0190374739468097,-0.0107691530138254,0.0,0.0,0.0883099452640832,-0.9749598514078271
-0.0292800907045602,1.305978775024414,-0.2232097685337066,-0.2594896256923675,0.020711624994874,0.0334862694144248,0.0,0.0,0.2187093175293224,-0.7357817044738637
-0.0315692909061908,1.3008172512054443,-0.2325251996517181,-0.2294569611549377,0.0242791008204221,0.0713561326265335,0.0,0.0,0.5952099073652009,0.6488890244723424
-0.03378476947546,1.29591965675354,-0.2244806736707687,-0.2177223563194275,0.0271921008825302,0.0582650005817413,0.0,0.0,0.1260203440925389,0.770972825064441
-0.0359971038997173,1.2915749549865725,-0.2229948490858078,-0.1931294947862625,0.0289323627948761,0.0348083600401878,0.0,0.0,0.6515479632703862,0.7660374708067117
-0.0383733734488487,1.2877964973449707,-0.2379725873470306,-0.1679340898990631,0.0292758420109748,0.0068702669814229,0.0,0.0,0.9696388889028004,-0.5734691121373157
-0.0407794006168842,1.2850909233093262,-0.2428778856992721,-0.1202877908945083,0.0315268337726593,0.0450237020850181,0.0,0.0,0.1229032175882769,-0.8879762955604431
-0.0433759689331054,1.282548189163208,-0.264020711183548,-0.1131105944514274,0.0358456224203109,0.0863833725452423,0.0,0.0,-0.5204036823981066,-0.8795452161075263
-0.0461478233337402,1.2797213792800903,-0.2832379937171936,-0.1257937103509903,0.0418386571109294,0.1198714524507522,0.0,0.0,0.824823193308682,0.6394167180090162
-0.04892148822546,1.2771326303482056,-0.2826562523841858,-0.1152077987790107,0.0470757037401199,0.104750171303749,0.0,0.0,-0.0989817228919298,-0.5887987964081417
-0.0518740639090538,1.274261713027954,-0.3023251593112945,-0.1278344243764877,0.0540663413703441,0.1398250162601471,0.0,0.0,-0.2769287893290952,0.7183995086172916
-0.0549046508967876,1.271097183227539,-0.3093443810939789,-0.1408914178609848,0.0602797344326972,0.1242681369185447,0.0,0.0,0.893802204480086,0.6602325589244514
-0.0580505356192588,1.2689087390899658,-0.319859504699707,-0.0974802896380424,0.0654984042048454,0.1043731421232223,0.0,0.0,0.9959390111648,-0.9002022187080105
-0.0616280548274517,1.267918586730957,-0.3648005127906799,-0.0443368703126907,0.0724743008613586,0.1395177543163299,0.0,0.0,0.5662819046459162,0.5307659481478946
-0.0654716491699218,1.2677419185638428,-0.3903047144412994,-0.0081528089940547,0.0783580541610717,0.1176751405000686,0.0,0.0,0.2047033348440456,0.852974840276213
-0.0694154724478721,1.26781964302063,-0.3989149034023285,0.0032176144886761,0.0828417763113975,0.0896743163466453,0.0,0.0,-0.4078294968681935,-0.738196944521255
-0.0735385864973068,1.267619252204895,-0.4185889661312103,-0.0092715267091989,0.0890577509999275,0.124319314956665,0.0,0.0,-0.8679713010787964,0.9863929748535156
-0.0777162536978721,1.2671422958374023,-0.4226180016994476,-0.021488320082426,0.0938739776611328,0.0963244438171386,0.0,0.0,-0.7749328017234802,0.9604191780090332
-0.08195161819458,1.2664040327072144,-0.4270449578762054,-0.033041451126337,0.097345545887947,0.0694312751293182,0.0,0.0,-0.9030578136444092,0.9816925525665284
-0.0862399116158485,1.265386939048767,-0.4308794438838959,-0.0453369542956352,0.0993807539343833,0.0407042130827903,0.0,0.0,-0.9953354597091676,0.9836225509643556
-0.0905713066458702,1.2641037702560425,-0.4334779381752014,-0.0570478625595569,0.0997116193175315,0.006617491133511,0.0,0.0,-0.9811341762542723,0.8362696170806885
-0.0949579253792762,1.2625572681427002,-0.4375706613063812,-0.0686676874756813,0.0986330583691597,-0.0215712133795022,0.0,0.0,-0.9587513208389282,0.8972467184066772
-0.0993990898132324,1.260736107826233,-0.4416190087795257,-0.0807763040065765,0.0961558073759079,-0.0495450273156166,0.0,0.0,-0.9768031239509584,0.9461216926574708
-0.1038839370012283,1.258653998374939,-0.4442721903324127,-0.0922799035906791,0.0919812992215156,-0.0834903120994567,0.0,0.0,-0.9755902886390686,0.7900285720825195
-0.1084334403276443,1.2563087940216064,-0.4495626389980316,-0.1039085015654563,0.0866426602005958,-0.106772780418396,0.0,0.0,-0.969786524772644,0.7315888404846191
-0.1130446419119834,1.253692865371704,-0.4545152187347412,-0.1158953085541725,0.0800879821181297,-0.131093293428421,0.0,0.0,-0.9829569458961488,0.5968606472015381
-0.1177395805716514,1.2508071660995483,-0.4621888697147369,-0.12788026034832,0.0728639811277389,-0.1444800794124603,0.0,0.0,-0.9895867109298706,-0.1338274478912353
-0.1225561127066612,1.2476420402526855,-0.4746765196323395,-0.1403487622737884,0.0659500360488891,-0.1382786929607391,0.0,0.0,-0.9920647144317628,-0.0970871448516845
-0.1274942457675933,1.2441973686218262,-0.4871413111686706,-0.1528167426586151,0.0593459196388721,-0.1320823282003402,0.0,0.0,-0.9404757022857666,0.2281091213226318
-0.1325537711381912,1.2404730319976809,-0.4995803833007812,-0.1652841866016388,0.0530513115227222,-0.1258921027183532,0.0,0.0,-0.6637817025184631,0.0455555915832519
-0.1377342194318771,1.236469030380249,-0.5119904279708862,-0.177751138806343,0.0470658466219902,-0.119709238409996,0.0,0.0,-0.7834731936454773,0.4764906167984009
-0.1430354118347168,1.2321853637695312,-0.5243680477142334,-0.1902176290750503,0.0413891114294528,-0.1135349497199058,0.0,0.0,-0.6505913138389587,0.6906560659408569
-0.1483965814113617,1.2276219129562378,-0.5291532278060913,-0.2026431113481521,0.0345079191029071,-0.1376238912343979,0.0,0.0,-0.615638017654419,0.886260986328125
-0.1538209021091461,1.222791314125061,-0.5343234539031982,-0.2145227789878845,0.0264992527663707,-0.1601733863353729,0.0,0.0,-0.6615797877311707,0.7765719890594482
-0.1593169271945953,1.2176902294158936,-0.54058438539505,-0.2265802919864654,0.0175926741212606,-0.1781313121318817,0.0,0.0,-0.8308118581771851,0.549979567527771
-0.1648900061845779,1.2123095989227295,-0.5475262999534607,-0.2390583157539367,0.007937267422676,-0.1931080967187881,0.0,0.0,-0.604581356048584,0.7699170112609863
-0.170506089925766,1.2066506147384644,-0.5502216219902039,-0.2514876425266266,-0.0033082491718232,-0.2249105274677276,0.0,0.0,-0.85060715675354,0.776488184928894
-0.1761846542358398,1.2007181644439695,-0.5553533434867859,-0.26374551653862,-0.0156454090029001,-0.2467430830001831,0.0,0.0,-0.1896360516548156,0.9881603717803956
-0.1818881034851074,1.1944997310638428,-0.5558136105537415,-0.276585578918457,-0.0300008878111839,-0.2871094346046448,0.0,0.0,-0.9723848104476928,0.6441694498062134
-0.1876570731401443,1.188007116317749,-0.5613566040992737,-0.2889288365840912,-0.0453408956527709,-0.3068007826805115,0.0,0.0,-0.9352138042449952,0.8451159000396729
-0.1934586465358734,1.1812288761138916,-0.562822163105011,-0.3018673062324524,-0.0624772273004055,-0.3427265286445617,0.0,0.0,-0.8670454621315002,0.5852046012878418
-0.1993365287780761,1.1741676330566406,-0.5697932839393616,-0.3146716356277466,-0.0802936553955078,-0.3563286960124969,0.0,0.0,-0.9122793078422546,0.6617211103439331
-0.2052681446075439,1.1668291091918943,-0.5739490389823914,-0.3272949457168579,-0.0993330851197242,-0.3807887434959411,0.0,0.0,-0.8289399743080139,0.3960005044937134
-0.2113132029771804,1.1592144966125488,-0.5856251120567322,-0.3397850096225738,-0.118074856698513,-0.3748354017734527,0.0,0.0,-0.8137619495391846,0.3671002388000488
-0.2174706906080246,1.151323676109314,-0.5972102284431458,-0.3522735834121704,-0.1365207284688949,-0.368917316198349,0.0,0.0,-0.6560523509979248,0.8727338314056396
-0.2236791104078292,1.1431519985198977,-0.6011285781860352,-0.3651121854782104,-0.1561923623085022,-0.3934329748153686,0.0,0.0,-0.7333694696426392,0.7318572998046875
-0.2299365550279617,1.1346837282180786,-0.604788601398468,-0.3786994814872741,-0.1771647334098816,-0.419447511434555,0.0,0.0,-0.418669044971466,0.7013601064682007
-0.2362571209669113,1.1259318590164185,-0.6103062033653259,-0.3917165398597717,-0.1990170627832412,-0.437046468257904,0.0,0.0,-0.6001630425453186,0.8214681148529053
-0.2426090687513351,1.1168802976608276,-0.6118534803390503,-0.4055997133255005,-0.222572386264801,-0.4711067676544189,0.0,0.0,-0.530210018157959,0.6392233371734619
-0.2490160018205642,1.1075384616851809,-0.6164400577545166,-0.4190318882465362,-0.2471800595521927,-0.4921535551548004,0.0,0.0,-0.2445585131645202,0.7126319408416748
-0.2554732263088226,1.0978976488113403,-0.6204771399497986,-0.4329347908496856,-0.2729685306549072,-0.5157696604728699,0.0,0.0,-0.143445611000061,-0.6119757294654846
-0.262089729309082,1.0880072116851809,-0.6382949948310852,-0.4441125690937042,-0.2969824969768524,-0.4802792966365814,0.0,0.0,0.6220216751098633,0.2411931753158569
-0.2685419917106628,1.0790385007858276,-0.6223982572555542,-0.4034452736377716,-0.3206238150596618,-0.472827136516571,0.0,0.0,0.383792519569397,0.0478971004486084
-0.2749519944190979,1.0701112747192385,-0.6189143657684326,-0.4018244743347168,-0.3436757326126098,-0.4610390067100525,0.0,0.0,0.4612805843353271,-0.0205339789390563
-0.2811835706233978,1.0619632005691528,-0.6016122698783875,-0.3674397468566894,-0.3663498163223266,-0.4534815847873688,0.0,0.0,0.4643867015838623,-0.037286102771759
-0.2874394953250885,1.054172396659851,-0.6041151285171509,-0.3519213497638702,-0.3891467452049255,-0.4559384286403656,0.0,0.0,0.5201554298400879,-0.29255211353302
-0.2936320900917053,1.0470190048217771,-0.5978513360023499,-0.3239496648311615,-0.4120761156082153,-0.4585875868797302,0.0,0.0,0.5570133924484253,-0.6708250045776367
-0.2997013926506042,1.0404096841812134,-0.5873199105262756,-0.299613356590271,-0.433296799659729,-0.4244137406349182,0.0,0.0,0.7519583702087402,-0.3982929587364197
-0.3056097030639648,1.0348292589187622,-0.5710521936416626,-0.2542711198329925,-0.4549013674259186,-0.4320912361145019,0.0,0.0,0.8355610370635986,-0.2894777655601501
-0.3112514913082123,1.0297831296920776,-0.5451749563217163,-0.2306170314550399,-0.4758859872817993,-0.4196923375129699,0.0,0.0,0.8120445013046265,-0.5134795308113098
-0.3168552815914154,1.0250829458236694,-0.5426462292671204,-0.2151203155517578,-0.49567312002182,-0.3957427144050598,0.0,0.0,0.9071834087371826,0.155739426612854
-0.3222960829734802,1.0205445289611816,-0.5270522832870483,-0.2079695910215377,-0.5148673057556152,-0.3838838636875152,0.0,0.0,0.9003736972808838,0.2975156307220459
-0.3276582658290863,1.0162649154663086,-0.5194287896156311,-0.1966585963964462,-0.5340065956115723,-0.3827858567237854,0.0,0.0,0.8710722923278809,-0.181467056274414
-0.3326509892940521,1.0128748416900637,-0.4828113615512848,-0.157283529639244,-0.5529739856719971,-0.3793481886386871,0.0,0.0,0.8739192485809326,-0.3119654059410095
-0.3371573388576507,1.0103163719177246,-0.4349094927310943,-0.1203010827302932,-0.5713135004043579,-0.3667905032634735,0.0,0.0,0.7958306074142456,0.4806058406829834
-0.3413601815700531,1.008699893951416,-0.4044291377067566,-0.0787658914923667,-0.5900174379348755,-0.3740784227848053,0.0,0.0,0.2144744396209716,-0.7710254192352295
-0.3456416130065918,1.0072418451309204,-0.4139485359191894,-0.0712312757968902,-0.6069681644439697,-0.3390143811702728,0.0,0.0,0.7649276256561279,-0.2699288725852966
-0.3494748175144195,1.0065088272094729,-0.3696001768112182,-0.0390258990228176,-0.6235376596450806,-0.3313894867897033,0.0,0.0,0.6906380653381348,-0.380230963230133
-0.3531140685081482,1.00630521774292,-0.350121408700943,-0.0157789923250675,-0.6404144167900085,-0.3375348448753357,0.0,0.0,0.617089033126831,-0.7834614515304565
-0.3565145134925842,1.0067304372787476,-0.3278425335884094,0.0127557776868343,-0.6555111408233643,-0.3019341826438904,0.0,0.0,0.5968567132949829,-0.5092846155166626
-0.3596028685569763,1.0077292919158936,-0.2977549135684967,0.0386449173092842,-0.6693709492683411,-0.2771962583065033,0.0,0.0,0.4722470045089721,-0.533244252204895
-0.3623930811882019,1.0090190172195437,-0.2692446112632751,0.0520992800593376,-0.6817317008972168,-0.2472149431705474,0.0,0.0,-0.0606026649475097,-0.2164430022239685
-0.3652370572090149,1.010028600692749,-0.2748167812824249,0.0396338254213333,-0.6939636468887329,-0.2446390837430954,0.0,0.0,0.1368329524993896,-0.5133126378059387
-0.3679326474666595,1.0110456943511963,-0.2611302435398102,0.040486853569746,-0.7048333883285522,-0.2173950672149658,0.0,0.0,0.5058301687240601,-0.2228347659111023
-0.3702360987663269,1.0122469663619995,-0.2225477397441864,0.0489316657185554,-0.7149787545204163,-0.2029068171977996,0.0,0.0,0.0333931446075439,-0.4218162298202514
-0.3723558485507965,1.0133616924285889,-0.2046206891536712,0.045253500342369,-0.7246294021606445,-0.1930131614208221,0.0,0.0,0.1874697208404541,-0.4974772930145263
-0.3741610944271087,1.014806866645813,-0.1732817590236663,0.059913869947195,-0.7342207431793213,-0.1918265223503112,0.0,0.0,0.0491095781326293,-0.205494225025177
-0.3756659924983978,1.0164884328842163,-0.1434212028980255,0.0704507976770401,-0.7436565160751343,-0.1887150853872299,0.0,0.0,-0.175341784954071,0.3880009651184082
-0.3772042691707611,1.0178899765014648,-0.146863117814064,0.0579859167337417,-0.7530412673950195,-0.1876945048570633,0.0,0.0,-0.093474805355072,-0.17978435754776
-0.3787724375724792,1.0190117359161377,-0.1499422192573547,0.0455203801393508,-0.7623888850212097,-0.1869520843029022,0.0,0.0,-0.1179723143577575,-0.0064999461174011
-0.3803671300411224,1.019853591918945,-0.152658611536026,0.0330541431903839,-0.771713376045227,-0.1864899098873138,0.0,0.0,-0.1503256559371948,-0.615124523639679
-0.3820103704929352,1.020463466644287,-0.1584471315145492,0.0232705269008874,-0.7798289656639099,-0.1623119413852691,0.0,0.0,0.1863329410552978,0.2011991739273071
-0.3833975791931152,1.0212472677230835,-0.1328377425670623,0.0309235155582427,-0.7880269885063171,-0.1639604270458221,0.0,0.0,0.221250295639038,-0.1299744844436645
-0.384448766708374,1.0224711894989014,-0.0989662781357765,0.0502463430166244,-0.7966693043708801,-0.1728464066982269,0.0,0.0,-0.0296661257743835,-0.1774777173995971
-0.385512501001358,1.0234158039093018,-0.1002499908208847,0.0377777479588985,-0.8053440451622009,-0.1734950840473175,0.0,0.0,-0.1872141361236572,0.3257970809936523
-0.3865853250026703,1.024081110954285,-0.1011851206421852,0.0253083351999521,-0.814064621925354,-0.1744114905595779,0.0,0.0,-0.0089580416679382,-0.3795958757400512
-0.3876639008522033,1.0244672298431396,-0.10177693516016,0.0128380935639142,-0.8228440880775452,-0.1755889356136322,0.0,0.0,0.4406803846359253,-0.4857442378997803
-0.3884413838386535,1.025041103363037,-0.0716034695506095,0.021066166460514,-0.8317954540252686,-0.1790268123149871,0.0,0.0,-0.2016859054565429,-0.5601372718811035
-0.3892523348331451,1.0253934860229492,-0.0759886875748634,0.0118945566937327,-0.8393076658248901,-0.1502445638179779,0.0,0.0,0.3893977403640747,0.0108219385147094
-0.3898162245750427,1.0260493755340576,-0.0508656799793243,0.0250210743397474,-0.8475006818771362,-0.1638609319925308,0.0,0.0,-0.4007447957992553,0.0793616771697998
-0.3903731405735016,1.0264265537261963,-0.050150740891695,0.0125483740121126,-0.8558003902435303,-0.1659943759441375,0.0,0.0,-0.0443179011344909,-0.7090628147125244
-0.3909552991390228,1.0265763998031616,-0.0536018721759319,0.0030889315530657,-0.8627711534500122,-0.1394151896238327,0.0,0.0,-0.0065724253654479,-0.3352721333503723
-0.3915247321128845,1.0264475345611572,-0.0522808730602264,-0.0093840975314378,-0.8698693513870239,-0.1419641822576522,0.0,0.0,-0.063253104686737,-0.3272474408149719
-0.3920785784721374,1.026039958000183,-0.0506716780364513,-0.0218578595668077,-0.8771045207977295,-0.1447038799524307,0.0,0.0,-0.3900841474533081,-0.7404817342758179
-0.3926371932029724,1.0254089832305908,-0.0519459247589111,-0.0311999935656785,-0.883171021938324,-0.1213310360908508,0.0,0.0,-0.1349565982818603,-0.6475285887718201
-0.3932023644447326,1.0245496034622192,-0.053363136947155,-0.0407683961093425,-0.8880897164344788,-0.0983734279870987,0.0,0.0,-0.5020381212234497,-0.6352446675300598
-0.3937718272209167,1.023472547531128,-0.0546604618430137,-0.0497485324740409,-0.8916774392127991,-0.0717549547553062,0.0,0.0,-0.4397268891334533,-0.3975002765655517
-0.394315630197525,1.022117018699646,-0.051993228495121,-0.0622225292026996,-0.8954347968101501,-0.0751475840806961,0.0,0.0,-0.537651777267456,-0.7722522616386414
-0.3948653638362884,1.020540475845337,-0.0534575395286083,-0.0713344886898994,-0.8978309035301208,-0.0479221008718013,0.0,0.0,-0.4137701988220215,-0.3716393709182739
-0.3953848779201507,1.0186855792999268,-0.0503243915736675,-0.0838090255856514,-0.9004098773002625,-0.0515793040394783,0.0,0.0,-0.3568248748779297,-0.6135398745536804
-0.3959082067012787,1.0166178941726685,-0.0516692884266376,-0.0924521163105964,-0.9014598727226256,-0.0210002418607473,0.0,0.0,-0.3739831447601318,-0.6689665913581848
-0.396430104970932,1.014333724975586,-0.0524192340672016,-0.1013261079788208,-0.9011027812957764,0.0071416646242141,0.0,0.0,0.098663330078125,-0.5122705101966858
-0.3966507017612457,1.01212477684021,-0.0229154136031866,-0.0974538847804069,-0.8997336626052856,0.0273825172334909,0.0,0.0,-0.3879345059394836,-0.9294808506965636
-0.3968721330165863,1.009697675704956,-0.0239327494055032,-0.106376051902771,-0.8969013094902039,0.056648451834917,0.0,0.0,-0.1629606485366821,-0.3112519979476928
-0.3970537185668945,1.006992220878601,-0.0198210813105106,-0.1188523843884468,-0.8942773938179016,0.0524783656001091,0.0,0.0,-0.5221709609031677,-0.6128591299057007
-0.3972187936306,1.0040647983551023,-0.0189058948308229,-0.1281204670667648,-0.8904997706413269,0.0755522102117538,0.0,0.0,0.101613163948059,-0.8846303820610046
