x_pos,y_pos,x_vel,y_vel,angle,ang_vel,leg_1,leg_2,main_booster,lat_booster
-0.001533031463623,1.4030709266662598,-0.1554751396179199,-0.3488489687442779,0.0019459087634459,0.0383982732892036,0.0,0.0,-0.4366636872291565,0.8886349201202393
-0.0029973983764648,1.3946874141693115,-0.1465791761875152,-0.3725999295711517,0.0020906124264001,0.0028949968982487,0.0,0.0,0.0874850749969482,0.7041348218917847
-0.0043112756684422,1.3861442804336548,-0.1303863227367401,-0.3796973526477813,0.0011015649652108,-0.0197826921939849,0.0,0.0,-0.0844690799713134,0.2402325868606567
-0.0056272507645189,1.3770475387573242,-0.1307278722524643,-0.4043028056621551,0.0002454116474837,-0.0171246267855167,0.0,0.0,0.1346906423568725,0.076799988746643
-0.006854438688606,1.368069052696228,-0.1224040016531944,-0.3990403115749359,-6.571457197424024e-05,-0.0062231672927737,0.0,0.0,-0.3115279078483581,0.1383318901062011
-0.0080790519714355,1.358537197113037,-0.1222593784332275,-0.423644095659256,-0.0002678413875401,-0.0040430491790175,0.0,0.0,0.002984881401062,0.9525558948516846
-0.0092403413727879,1.3489775657653809,-0.1141192913055419,-0.4248693883419037,-0.0022529759444296,-0.0397062748670578,0.0,0.0,0.0370430946350097,0.0368012189865112
-0.0102998735383152,1.3394732475280762,-0.1044794097542762,-0.4224128425121307,-0.0037045469507575,-0.0290338546037673,0.0,0.0,-0.2865970730781555,0.378432035446167
-0.0113501548767089,1.3294156789779663,-0.1036358326673507,-0.4470143020153045,-0.0050830580294132,-0.027572825551033,0.0,0.0,-0.4624364376068115,0.5507731437683105
-0.0123458858579397,1.3188077211380005,-0.0971348360180854,-0.4714764654636383,-0.0074891503900289,-0.0481262020766735,0.0,0.0,0.0398375988006591,-0.0931975841522216
-0.0132711408659815,1.3082069158554075,-0.0904065817594528,-0.471157968044281,-0.0095873568207025,-0.0419681295752525,0.0,0.0,-0.4190371036529541,-0.290938138961792
-0.0141812320798635,1.2970525026321411,-0.088919460773468,-0.4957615733146667,-0.0116476975381374,-0.0412107184529304,0.0,0.0,-0.4965659379959106,-0.5759710669517517
-0.0151097299531102,1.2853482961654663,-0.0916954427957534,-0.5201930999755859,-0.0127860261127352,-0.0227686613798141,0.0,0.0,-0.2818317413330078,-0.1855602264404297
-0.0160193443298339,1.2730908393859863,-0.08981753885746,-0.5447920560836792,-0.013909863308072,-0.0224791653454303,0.0,0.0,0.708037257194519,-0.7725996971130371
-0.0167970657348632,1.261564016342163,-0.0785257667303085,-0.5122963190078735,-0.0131687447428703,0.014823799021542,0.0,0.0,-0.8140190839767456,0.0555449724197387
-0.0175525657832622,1.249483585357666,-0.0762892812490463,-0.5369051694869995,-0.0124367754906415,0.0146407503634691,0.0,0.0,-0.594819188117981,0.3014529943466186
-0.0182841308414936,1.236849665641785,-0.0738805681467056,-0.5615004301071167,-0.0117234233766794,0.0142683433368802,0.0,0.0,-0.4030406475067138,-0.1085002422332763
-0.0189903266727924,1.2236623764038086,-0.0713084638118743,-0.5860980153083801,-0.0110400225967168,0.0136692347005009,0.0,0.0,-0.6439079642295837,-0.3611915111541748
-0.0196695327758789,1.2099215984344482,-0.0685802102088928,-0.6106970310211182,-0.0103971026837825,0.0128595847636461,0.0,0.0,-0.4458640813827514,-0.2850081920623779
-0.0203206054866313,1.1956274509429932,-0.0657031014561653,-0.6352960467338562,-0.0098049482330679,0.0118444440886378,0.0,0.0,0.3803069591522217,-0.672258198261261
-0.0208710674196481,1.1817259788513184,-0.0571610257029533,-0.6178320646286011,-0.007723587565124,0.0416310057044029,0.0,0.0,-0.9066783785820008,-0.394813060760498
-0.0213909149169921,1.1672707796096802,-0.0540132038295269,-0.6424394249916077,-0.0057138055562973,0.0401990674436092,0.0,0.0,-0.7771635055541992,-0.7608530521392822
-0.0219260212033987,1.1522618532180786,-0.0566592812538147,-0.6670595407485962,-0.0025975629687309,0.0623304843902587,0.0,0.0,-0.6128783226013184,0.0708116292953491
-0.0224281307309865,1.1366994380950928,-0.0532678142189979,-0.6916593909263611,0.0004288333002477,0.0605331845581531,0.0,0.0,-0.6860547661781311,0.1284023523330688
-0.0228960998356342,1.1205835342407229,-0.0497631542384624,-0.716259241104126,0.0033573675900697,0.0585756078362464,0.0,0.0,0.1146852970123291,0.0639220476150512
-0.0234289169311523,1.1046050786972046,-0.055678617209196,-0.7101644277572632,0.0057246824726462,0.0473466850817203,0.0,0.0,-0.6952964663505554,-0.1864944696426391
-0.02392578125,1.0880732536315918,-0.0519610941410064,-0.7347617745399475,0.0079780966043472,0.0450679063796997,0.0,0.0,0.3974695205688476,0.2384378910064697
-0.0245017055422067,1.0720337629318235,-0.0592417120933532,-0.7128779888153076,0.0095986668020486,0.0324115268886089,0.0,0.0,0.1865617036819458,-0.2479184865951538
-0.0251391418278217,1.0562738180160522,-0.0648115575313568,-0.7004464268684387,0.0106571372598409,0.0211693365126848,0.0,0.0,-0.3365288972854614,-0.6025885939598083
-0.0257874485105276,1.0399574041366575,-0.0670273303985595,-0.7251882553100586,0.0128204459324479,0.0432664193212986,0.0,0.0,0.5967681407928467,0.3626776933670044
-0.0263892170041799,1.0243154764175415,-0.0623032078146934,-0.695224404335022,0.0149256540462374,0.0421040914952755,0.0,0.0,-0.3218628168106079,0.0960723161697387
-0.0269513130187988,1.0081199407577517,-0.0581892803311347,-0.7198213934898376,0.0168830826878547,0.0391485318541526,0.0,0.0,0.072940707206726,0.5138856172561646
-0.0275005344301462,0.992156147956848,-0.0556046739220619,-0.7095104455947876,0.0175567418336868,0.0134730264544487,0.0,0.0,0.2374073266983032,0.0272388458251953
-0.0280615799129009,0.976042866706848,-0.0563981458544731,-0.716154158115387,0.0178506094962358,0.005877289455384,0.0,0.0,-0.1423991918563842,-0.1020492911338806
-0.02858142927289,0.9593759775161744,-0.0521187968552112,-0.7407509088516235,0.0179805215448141,0.0025981815997511,0.0,0.0,0.6240397691726685,-0.2118602991104126
-0.0290552135556936,0.9432711005210876,-0.0474264360964298,-0.7157696485519409,0.0180243663489818,0.0008769021369516,0.0,0.0,0.7113873958587646,-0.260933518409729
-0.0295228008180856,0.927319347858429,-0.0465037748217582,-0.7089602947235107,0.0177693590521812,-0.0051001571118831,0.0,0.0,0.3440772294998169,0.5459041595458984
-0.0298824310302734,0.9117493629455566,-0.0344983860850334,-0.6919889450073242,0.0163258109241724,-0.0288708545267581,0.0,0.0,-0.381007432937622,-0.8426114320755005
-0.030270766466856,0.8956333994865417,-0.0389973707497119,-0.7162668704986572,0.0164858531206846,0.0032008360140025,0.0,0.0,0.1797419786453247,-0.4985461831092834
-0.0306034088134765,0.8796153664588928,-0.0333424434065818,-0.7119088768959045,0.016554769128561,0.0013786398340016,0.0,0.0,-0.6434566378593445,0.3798431158065796
-0.0308934208005666,0.863044023513794,-0.0288785584270954,-0.7365055680274963,0.0164361204952001,-0.0023731854744255,0.0,0.0,0.1475262641906738,0.1759419441223144
-0.0310608856379985,0.8464665412902832,-0.0168282277882099,-0.7367754578590393,0.0165235437452793,0.0017481248360127,0.0,0.0,-0.7183176875114441,-0.2439298629760742
-0.0311853401362895,0.8293357491493225,-0.0123429158702492,-0.7613721489906311,0.0164178907871246,-0.002113074529916,0.0,0.0,0.0749775171279907,-0.0568414330482482
-0.0312079433351755,0.8121688961982727,-0.0022608623839914,-0.7629741430282593,0.016415674239397,-4.418977550812997e-05,0.0,0.0,-0.1320294737815857,0.5222046375274658
-0.0311491005122661,0.7944433093070984,0.0070685013197362,-0.7877930998802185,0.0152480220422148,-0.0233531426638364,0.0,0.0,0.2403750419616699,0.1661262512207031
-0.0310168266296386,0.7765412926673889,0.0144563689827919,-0.7956336736679077,0.0140407336875796,-0.024145770817995,0.0,0.0,-0.2114606499671936,0.0181822776794433
-0.0308417323976755,0.7580858469009399,0.0189287923276424,-0.8202306032180786,0.0126327872276306,-0.0281590074300766,0.0,0.0,0.136738896369934,0.3432768583297729
-0.0307086948305368,0.7399359345436096,0.0152937127277255,-0.8066474795341492,0.0106651429086923,-0.0393525548279285,0.0,0.0,-0.0520445704460144,0.2429715394973755
-0.0305334087461233,0.7212327122688293,0.0197330061346292,-0.8312445282936096,0.0084946379065513,-0.0434102341532707,0.0,0.0,0.1070688962936401,0.3553822040557861
-0.0303330421447753,0.7024869918823242,0.0225093197077512,-0.8331282734870911,0.0060548745095729,-0.0487951152026653,0.0,0.0,-0.422998309135437,-0.4139535427093506
-0.0300909038633108,0.6831878423690796,0.0268983840942382,-0.8577255606651306,0.0034110192209482,-0.052877239882946,0.0,0.0,0.6984679698944092,-0.153404951095581
-0.0298688896000385,0.6644713282585144,0.0253582783043384,-0.8318456411361694,0.0002889116294682,-0.0624422132968902,0.0,0.0,0.2976346015930176,-0.6029251217842102
-0.0295590404421091,0.6457217335700989,0.0329559333622455,-0.833313524723053,-0.0016591362655162,-0.0389608815312385,0.0,0.0,0.6159243583679199,-0.2638733386993408
-0.029203986749053,0.6275889873504639,0.0376686640083789,-0.8058975338935852,-0.0037969110999256,-0.0427553877234458,0.0,0.0,-0.057885468006134,-0.4695295095443725
-0.0288086887449026,0.6089029908180237,0.0419079139828681,-0.8304949402809143,-0.0061383498832583,-0.0468290895223617,0.0,0.0,0.5130352973937988,-0.250077486038208
-0.0284583084285259,0.5903118848800659,0.0380255207419395,-0.8262903690338135,-0.0090876389294862,-0.0589858777821064,0.0,0.0,0.587151050567627,-0.2919368743896484
-0.0279713626950979,0.5723145604133606,0.0514728128910064,-0.7998996376991272,-0.011821249499917,-0.0546723008155822,0.0,0.0,0.3206005096435547,-0.7925326228141785
-0.0273771286010742,0.5545746088027954,0.0606482997536659,-0.7884518504142761,-0.0130306547507643,-0.0241882987320423,0.0,0.0,0.525355339050293,-0.7527780532836914
-0.0267179496586322,0.5374288558959961,0.0657032877206802,-0.762032151222229,-0.0128091145306825,0.004430609755218,0.0,0.0,-0.2636829018592834,-0.4517949819564819
-0.0260210037231445,0.519729733467102,0.069667711853981,-0.7866291403770447,-0.0127856871113181,0.0004684300220105,0.0,0.0,0.6609745025634766,-0.3682817220687866
-0.0252308845520019,0.502034604549408,0.0789485424757003,-0.7864505648612976,-0.0127205522730946,0.0013026216765865,0.0,0.0,0.4775906801223755,-0.7285040616989136
-0.0245533939450979,0.4847337007522583,0.0665963217616081,-0.7689173817634583,-0.0115746399387717,0.022918090224266,0.0,0.0,0.6067699193954468,-0.4097863435745239
-0.0237141605466604,0.4676316976547241,0.0823846608400344,-0.760073721408844,-0.0100653618574142,0.0301855094730854,0.0,0.0,0.690692663192749,-0.7288762927055359
-0.022865105420351,0.4509189128875732,0.082043744623661,-0.7427769303321838,-0.0072417478077113,0.0564723201096057,0.0,0.0,0.5451157093048096,-0.7030863761901855
-0.0220269206911325,0.4342104494571686,0.0797215551137924,-0.7425842881202698,-0.0031918638851493,0.0809976309537887,0.0,0.0,0.7718558311462402,-0.2305153012275695
-0.0212861057370901,0.4179000556468963,0.070789985358715,-0.7248992323875427,5.92376381973736e-05,0.0650219395756721,0.0,0.0,0.6264779567718506,-0.5545192956924438
-0.0205339435487985,0.4023067653179168,0.0709254965186119,-0.6930421590805054,0.0042896340601146,0.0846079885959625,0.0,0.0,0.3739902973175049,-0.2023309469223022
-0.0196829792112112,0.3865255117416382,0.0806732401251792,-0.7014080882072449,0.0086572328582406,0.0873517170548439,0.0,0.0,0.7949841022491455,-0.2193518877029419
-0.018779944628477,0.3715825974941253,0.0859261304140091,-0.6641597151756287,0.0129853244870901,0.0865616649389267,0.0,0.0,0.565199613571167,-0.1175302267074585
-0.0179419517517089,0.3567573428153991,0.080008365213871,-0.6589375138282776,0.0167290866374969,0.0748752653598785,0.0,0.0,0.3797565698623657,-0.4182966947555542
-0.0171611793339252,0.3422249853610992,0.0748201534152031,-0.6459228992462158,0.0199498478323221,0.0644149705767631,0.0,0.0,0.7214584350585938,-0.3335336446762085
-0.0163332931697368,0.3281127214431762,0.0795495137572288,-0.6272572875022888,0.0231543742120265,0.0640905052423477,0.0,0.0,0.7325315475463867,-0.1623482704162597
-0.0156338699162006,0.3147705495357513,0.0674955174326896,-0.5930272936820984,0.0255734138190746,0.0483807995915412,0.0,0.0,0.6430037021636963,0.0951403379440307
-0.0148499486967921,0.3017388582229614,0.0757554918527603,-0.5792327523231506,0.028173990547657,0.0520117059350013,0.0,0.0,0.3673099279403686,-0.2798757553100586
-0.0140779493376612,0.2886378765106201,0.0748464167118072,-0.5823105573654175,0.0304932631552219,0.046385396271944,0.0,0.0,0.5712270736694336,-0.3168922662734985
-0.0132267950102686,0.2754499912261963,0.0826211720705032,-0.5861819386482239,0.0329638570547103,0.0494115687906742,0.0,0.0,0.8019759654998779,-0.1994286179542541
-0.0123991966247558,0.2622620463371277,0.0805674046277999,-0.5861836671829224,0.0351316146552562,0.0433552078902721,0.0,0.0,0.6454195976257324,-0.2989574074745178
-0.0115855215117335,0.2497043758630752,0.079342320561409,-0.558167040348053,0.0371219962835311,0.0398078002035617,0.0,0.0,0.8002681732177734,-0.4735879898071289
-0.0106968879699707,0.2379305511713028,0.0865858346223831,-0.5233377814292908,0.0393817871809005,0.0451956465840339,0.0,0.0,0.6243211030960083,-0.6954463720321655
-0.0099955555051565,0.2268044501543045,0.0668363869190216,-0.4945853352546692,0.0426421500742435,0.065207228064537,0.0,0.0,0.028737187385559,-0.325926125049591
-0.0093645099550485,0.215428814291954,0.0602995865046978,-0.5056637525558472,0.045405525714159,0.0552674233913421,0.0,0.0,0.5770403146743774,0.4250483512878418
-0.0087115289643406,0.2046331018209457,0.0624478086829185,-0.4798970818519592,0.0482277013361454,0.0564433261752128,0.0,0.0,0.8466751575469971,-0.213078498840332
-0.0081857684999704,0.1942396461963653,0.0503606311976909,-0.4620059132575989,0.0504116714000701,0.0436798259615898,0.0,0.0,0.7942442893981934,0.072611927986145
-0.0077408789657056,0.1843910068273544,0.0426717028021812,-0.4377809166908264,0.0522111430764198,0.0359891839325428,0.0,0.0,0.584050178527832,-0.3633948564529419
-0.0073276520706713,0.1749922633171081,0.0396598428487777,-0.4177797138690948,0.0538536570966243,0.0328501537442207,0.0,0.0,0.8962564468383789,-0.6224161982536316
-0.0068788528442382,0.1660451292991638,0.0417836606502532,-0.397765189409256,0.0569196678698062,0.0613202340900898,0.0,0.0,0.8770139217376709,0.4260770082473755
-0.0064125061035156,0.1571293175220489,0.0434966757893562,-0.396380603313446,0.0600168518722057,0.0619437210261821,0.0,0.0,0.6856839656829834,-0.4661071896553039
-0.0058647156693041,0.1482837498188018,0.0512951128184795,-0.3932783305644989,0.063463769853115,0.0689384192228317,0.0,0.0,0.9431267976760864,-0.590613603591919
-0.0052113533020019,0.1399033814668655,0.060227632522583,-0.3726879358291626,0.0685167983174324,0.1010606884956359,0.0,0.0,0.6497273445129395,-0.4065854549407959
-0.0044363974593579,0.1315735131502151,0.0718186944723129,-0.3704881072044372,0.0741362497210502,0.1123892217874527,0.0,0.0,0.7400538921356201,-0.8508106470108032
-0.0037852288223803,0.1238722205162048,0.0578076429665088,-0.3426570296287536,0.0813643634319305,0.1445623934268951,0.0,0.0,0.1964017152786255,-0.3849987983703613
-0.0031486512161791,0.1164421439170837,0.0563244149088859,-0.3306426405906677,0.08862916380167,0.1452961713075637,0.0,0.0,0.5662195682525635,-0.8660534620285034
-0.002497959183529,0.1094160377979278,0.0558797232806682,-0.3128448128700256,0.0977461189031601,0.1823389828205108,0.0,0.0,-0.1361376047134399,-0.112167477607727
-0.0018412589561194,0.1018374040722847,0.0565417297184467,-0.3374482095241546,0.1068065166473388,0.1812079399824142,0.0,0.0,0.7035156488418579,-0.7545620799064636
-0.0013535500038415,0.0944685563445091,0.0382978729903698,-0.3282872438430786,0.1172019019722938,0.2079077214002609,0.0,0.0,0.4095829725265503,0.0296279191970825
-0.0008760452037677,0.0876568853855133,0.0370126776397228,-0.3036181330680847,0.1278848797082901,0.2136593163013458,0.0,0.0,0.1301106214523315,0.5487422943115234
-0.0004191398620605,0.0808770507574081,0.0361388400197029,-0.3021745383739471,0.1373991966247558,0.190286099910736,0.0,0.0,0.548015832901001,0.7442646026611328
-0.0001315116824116,0.0746445953845977,0.0209899023175239,-0.2777349352836609,0.145154133439064,0.1550987660884857,0.0,0.0,0.2088032960891723,0.7939794063568115
0.0002181053132517,0.0686504691839218,0.0287452936172485,-0.2670232355594635,0.151352658867836,0.1239708513021469,0.0,0.0,0.6372241973876953,0.6269104480743408
0.0004486083926167,0.063208520412445,0.0182683877646923,-0.2423613220453262,0.1561335325241089,0.0956174582242965,0.0,0.0,0.2982615232467651,0.6201614141464233
0.0005655288696289,0.0580842122435569,0.0082992054522037,-0.2281056046485901,0.1595179587602615,0.0676884800195694,0.0,0.0,0.4946382045745849,0.960472822189331
0.0006609916454181,0.0530824996531009,0.0081206923350691,-0.2224500626325607,0.1609386056661605,0.028413126245141,0.0,0.0,0.7220396995544434,0.600298285484314
0.0005730629200115,0.0484360568225383,-0.0086550451815128,-0.2064950615167617,0.1608134657144546,-0.0025028376840054,0.0,0.0,0.4742895364761352,0.851165771484375
0.0003269195440225,0.0439061969518661,-0.0225795712321996,-0.2011089622974395,0.1587801277637481,-0.0406667664647102,0.0,0.0,0.6571577787399292,0.9818378686904908
0.000159740447998,0.0399431809782981,-0.0128544848412275,-0.1757259666919708,0.1549179702997207,-0.0772431269288063,0.0,0.0,0.3581380844116211,0.92724347114563
7.41958647267893e-05,0.0358989089727401,-0.0028659135568886,-0.1791625767946243,0.149246945977211,-0.1134209260344505,0.0,0.0,0.4135355949401855,0.8007256984710693
8.916854858398438e-05,0.0323214158415794,0.0085914963856339,-0.1583053171634674,0.1421606540679931,-0.1417257189750671,0.0,0.0,0.2968140840530395,0.8919384479522705
6.370544724632055e-05,0.02911370806396,0.0063628507778048,-0.1417377144098281,0.1332769840955734,-0.1776735037565231,0.0,0.0,0.2238984107971191,0.6761161088943481
0.0001205444350489,0.0263368710875511,0.0157958474010229,-0.1225402653217315,0.123215727508068,-0.2012250870466232,0.0,0.0,-0.1653015613555908,0.3342570066452026
0.0001740455627441,0.0230079982429742,0.0154607547447085,-0.1471457034349441,0.1131656244397163,-0.2010019570589065,0.0,0.0,0.2655658721923828,0.3787232637405395
0.0001478195190429,0.0200583562254905,0.0075173429213464,-0.1303616762161255,0.1031038910150528,-0.2012347877025604,0.0,0.0,-0.0406743288040161,0.4038424491882324
0.0001178741440526,0.0165566056966781,0.0071380427107214,-0.1549671292304992,0.093058705329895,-0.200903981924057,0.0,0.0,0.661285400390625,0.3212200403213501
0.0001219749465235,0.013202485628426,0.010150839574635,-0.1484923362731933,0.0834071710705757,-0.1930310428142547,0.0,0.0,0.4218111038208008,0.1437023878097534
-2.708435022213962e-05,0.0100785354152321,-0.0046818647533655,-0.1383036226034164,0.0732897147536277,-0.2023493349552154,0.0,0.0,0.2319141626358032,-0.1216578483581543
-0.000303459179122,0.0069662071764469,-0.0169969256967306,-0.137834370136261,0.0627524033188819,-0.2107462435960769,0.0,0.0,0.5640125274658203,-0.1267919540405273
-0.0006879806751385,0.0044724680483341,-0.017891377210617,-0.1100976094603538,0.0424349121749401,-0.4063502848148346,0.0,1.0,0.6650159358978271,0.2962789535522461
-0.0010691642528399,0.0022381162270903,-0.0176754053682088,-0.0988502874970436,0.0222389586269855,-0.4039190411567688,0.0,1.0,0.5727002620697021,0.3352556228637695
-0.0013338088756427,-2.6955603971146047e-05,-0.0065874783322215,-0.1004908457398414,0.0026186171453446,-0.392407089471817,0.0,1.0,0.2537605762481689,0.2998005151748657
-0.00152587890625,-0.0020617151167243,0.0003289526503067,-0.0905145779252052,-0.0166591070592403,-0.3855545222759247,1.0,0.0,0.569251537322998,-0.2522560358047485
-0.0016369819641113,-0.003114178078249,-0.0013251831987872,-0.0471477769315242,-0.0253398921340703,-0.1723830997943878,1.0,0.0,-0.1139871478080749,0.075398564338684
-0.0016504287486895,-0.0042275097221136,-0.0069342292845249,-0.049405749887228,-0.0197868105024099,0.111110545694828,1.0,0.0,0.1059694290161132,0.3496389389038086
