x_pos,y_pos,x_vel,y_vel,angle,ang_vel,leg_1,leg_2,main_booster,lat_booster
-0.0014693259727209,1.403042197227478,-0.1482788473367691,-0.3501314520835876,0.0011980013223364,0.0235901400446891,0.0,0.0,0.0836800336837768,0.9292244911193848
-0.0027709007263183,1.3950546979904177,-0.1289463341236114,-0.3550042510032654,-3.0071664696151856e-06,-0.0240218620747327,0.0,0.0,-0.1947596669197082,0.4527705907821655
-0.0040172575972974,1.386484146118164,-0.1228724345564842,-0.3809123337268829,-0.0017391514265909,-0.0347260944545269,0.0,0.0,-0.1938129067420959,0.2180697917938232
-0.0052079199813306,1.3773314952850342,-0.1167666316032409,-0.4067960083484649,-0.0040106731466948,-0.0454345792531967,0.0,0.0,-0.4595457911491394,-0.2532215118408203
-0.0063426019623875,1.3675963878631592,-0.1106312498450279,-0.432678073644638,-0.0068168309517204,-0.0561287589371204,0.0,0.0,0.1203223466873169,-0.2118492722511291
-0.0073254583403468,1.3578307628631592,-0.0953599959611892,-0.4340482354164123,-0.0097123105078935,-0.0579145140945911,0.0,0.0,-0.0536486506462097,0.7766598463058472
-0.008193016052246,1.3474819660186768,-0.0817934721708297,-0.4599826633930206,-0.0146217290312051,-0.0981975197792053,0.0,0.0,-0.0115251541137695,0.1417311429977417
-0.0090038301423192,1.3365514278411863,-0.0755806490778923,-0.4858636856079101,-0.0200629979372024,-0.1088351979851722,0.0,0.0,-0.1153377294540405,0.0129680633544921
-0.0097577096894383,1.325039267539978,-0.0693479776382446,-0.5117469429969788,-0.0260363761335611,-0.1194784864783287,0.0,0.0,-0.3495151400566101,-0.8389017581939697
-0.0105204582214355,1.312952995300293,-0.0713858678936958,-0.5372554063796997,-0.0308757070451974,-0.0967953875660896,0.0,0.0,0.6698079109191895,-0.8016946315765381
-0.0111743928864598,1.301184892654419,-0.0617631562054157,-0.5231091976165771,-0.0344704799354076,-0.0719020068645477,0.0,0.0,-0.6480407118797302,-0.8566429018974304
-0.0118307117372751,1.288835883140564,-0.0629683062434196,-0.5489071011543274,-0.0370955541729927,-0.0525061972439289,0.0,0.0,-0.4545770287513733,-0.8798891305923462
-0.0124836917966604,1.275912523269653,-0.0634941607713699,-0.5744183659553528,-0.038879707455635,-0.0356865562498569,0.0,0.0,-0.8996002078056335,-0.9396030902862548
-0.0131448749452829,1.2624021768569946,-0.0654535219073295,-0.6004770994186401,-0.0395408980548381,-0.0132250543683767,0.0,0.0,-0.4812382459640503,-0.9271769523620604
-0.01380414981395,1.2483227252960205,-0.0661581754684448,-0.6257488131523132,-0.0393161699175834,0.0044951094314455,0.0,0.0,-0.0495902299880981,-0.7573298811912537
-0.0144549366086721,1.2336550951004028,-0.0660120770335197,-0.651866614818573,-0.0383855774998664,0.0186135489493608,0.0,0.0,0.1562590599060058,-0.8684354424476624
-0.0149810789152979,1.2193105220794678,-0.0548338405787944,-0.6374819278717041,-0.0361912623047828,0.0438904464244842,0.0,0.0,-0.3990577459335327,-0.5760700702667236
-0.0154842380434274,1.204380750656128,-0.0528981164097785,-0.6634849905967712,-0.0336425453424453,0.0509790778160095,0.0,0.0,-0.3234585523605346,-0.8110874891281128
-0.0159831997007131,1.1888794898986816,-0.0533131249248981,-0.6888735294342041,-0.0302566066384315,0.0677250772714614,0.0,0.0,0.0228385925292968,-0.746960461139679
-0.0165305137634277,1.1733264923095703,-0.0590947344899177,-0.691159188747406,-0.0259340517222881,0.0864587947726249,0.0,0.0,-0.549802839756012,-0.0940455198287963
-0.0170199386775493,1.1571916341781616,-0.0527927987277507,-0.7170470356941223,-0.0221201200038194,0.0762851908802986,0.0,0.0,-0.712844729423523,0.1245421171188354
-0.0174513813108205,1.140474557876587,-0.0464897863566875,-0.7429301142692566,-0.0188103467226028,0.0662010386586189,0.0,0.0,-0.0200868844985961,-0.2710829973220825
-0.0178248398005962,1.1231755018234253,-0.0401878133416175,-0.7688120603561401,-0.0160005111247301,0.056201796978712,0.0,0.0,-0.1760802865028381,0.1195013523101806
-0.0181402210146188,1.1052944660186768,-0.0338879376649856,-0.7946949601173401,-0.0136856911703944,0.0463005080819129,0.0,0.0,-0.1062250733375549,-0.3370529413223266
-0.0183976180851459,1.086830973625183,-0.0275916047394275,-0.8205776810646057,-0.0118604693561792,0.0365077778697013,0.0,0.0,0.5663707256317139,-0.1680908203125
-0.0187273975461721,1.068767547607422,-0.0336939394474029,-0.8028103709220886,-0.0111579308286309,0.0140509400516748,0.0,0.0,-0.0536938905715942,-0.6354666352272034
-0.0190491676330566,1.0501269102096558,-0.0336721166968345,-0.8284674286842346,-0.0096760280430316,0.0296377893537282,0.0,0.0,0.7754766941070557,-0.4255783557891845
-0.0194446556270122,1.0322362184524536,-0.0399180054664611,-0.7951369881629944,-0.0093126548454165,0.007267739623785,0.0,0.0,0.2779102325439453,-0.7272869348526001
-0.0199475288391113,1.0146703720092771,-0.0514938123524189,-0.7806946039199829,-0.0081169847398996,0.0239131804555654,0.0,0.0,-0.3114158511161804,-0.646188497543335
-0.0204453468322753,0.9965206384658812,-0.051880907267332,-0.8066467046737671,-0.0060432716272771,0.0414742231369018,0.0,0.0,0.3970859050750732,0.303394079208374
-0.0208650585263967,0.9788624048233032,-0.0436985157430172,-0.7848047018051147,-0.0043382048606872,0.0341012328863143,0.0,0.0,0.0320609807968139,0.1735565662384033
-0.0212742798030376,0.9610328078269958,-0.0419875830411911,-0.7924207448959351,-0.0032891740556806,0.0209806449711322,0.0,0.0,-0.1369456052780151,-0.1639602184295654
-0.0216258056461811,0.9426209330558776,-0.0357820019125938,-0.8183004260063171,-0.0026598428376019,0.0125866085290908,0.0,0.0,0.5647010803222656,-0.2306618094444275
-0.0219789501279592,0.924139440059662,-0.0352583937346935,-0.8213976621627808,-0.002716998104006,-0.0011432335013523,0.0,0.0,0.7575757503509521,-0.4098397493362427
-0.0222553256899118,0.9060765504837036,-0.027261059731245,-0.8027967214584351,-0.0030878381803631,-0.0074168676510453,0.0,0.0,0.4015426635742187,-0.0773510932922363
-0.0224566459655761,0.8883937001228333,-0.0194493420422077,-0.7859047055244446,-0.0037664962001144,-0.0135731939226388,0.0,0.0,-0.2030507922172546,-0.4319046139717102
-0.0226005557924509,0.8701286315917969,-0.0133335310965776,-0.8117843270301819,-0.0048087402246892,-0.0208448879420757,0.0,0.0,0.0579844713211059,-0.2587078809738159
-0.0226602554321289,0.8520123362541199,-0.0046859146095812,-0.8051750063896179,-0.0060850800946354,-0.0255265645682811,0.0,0.0,-0.0622438192367553,-0.3765773177146911
-0.0226628296077251,0.8333137035369873,0.0013725266326218,-0.8310547471046448,-0.0076903901062905,-0.0321061834692955,0.0,0.0,0.2748043537139892,-0.5388861298561096
-0.0226234439760446,0.8147373795509338,0.0047403005883097,-0.8256203532218933,-0.0084834657609462,-0.0158615075051784,0.0,0.0,-0.2522549629211426,0.3775926828384399
-0.0225271228700876,0.7955788373947144,0.0107318963855504,-0.8514999747276306,-0.0095663340762257,-0.0216575749218463,0.0,0.0,0.2000834941864013,-0.3628398180007934
-0.0222806930541992,0.7764071226119995,0.0255959071218967,-0.852084755897522,-0.0105029959231615,-0.0187331456691026,0.0,0.0,-0.1143262982368469,-0.1856749653816223
-0.0219775196164846,0.7566530108451843,0.0315102003514766,-0.8779643774032593,-0.0116858016699552,-0.0236561261117458,0.0,0.0,0.3087563514709472,0.5813298225402832
-0.0214808471500873,0.7369414567947388,0.0520911403000354,-0.876092791557312,-0.0140742044895887,-0.0477681346237659,0.0,0.0,0.4034657478332519,-0.5266247987747192
-0.0210034362971782,0.7170183062553406,0.0493916533887386,-0.8854910731315613,-0.015703085809946,-0.0325774252414703,0.0,0.0,0.4615166187286377,-0.4060462713241577
-0.0204246528446674,0.6969553828239441,0.0595063380897045,-0.8917073607444763,-0.0173171032220125,-0.032280184328556,0.0,0.0,0.4379273653030395,-0.7781174182891846
-0.0197857860475778,0.6768891215324402,0.0640177279710769,-0.8918288350105286,-0.0174422655254602,-0.0025032318662852,0.0,0.0,0.7310043573379517,-0.6530422568321228
-0.0192550662904977,0.6575626730918884,0.0523047968745231,-0.8589469790458679,-0.0166911967098712,0.0150216715410351,0.0,0.0,0.1763701438903808,0.1020728349685669
-0.0187543872743845,0.6384977698326111,0.0498490743339061,-0.8473196029663086,-0.0164704583585262,0.0044146100990474,0.0,0.0,-0.1189753413200378,0.1000641584396362
-0.0181987769901752,0.6188508868217468,0.0553944818675518,-0.8731992244720459,-0.0163156706839799,0.0030960030853748,0.0,0.0,0.7066408395767212,-0.756372332572937
-0.0174766536802053,0.5995035767555237,0.0702379196882247,-0.8598585724830627,-0.0143678402528166,0.0389564707875251,0.0,0.0,0.6466617584228516,-0.7253147959709167
-0.0168102271854877,0.5806828737258911,0.0633480027318,-0.8364501595497131,-0.0111155621707439,0.0650456249713897,0.0,0.0,0.4520848989486694,0.1871117353439331
-0.015989875420928,0.56186443567276,0.0782726481556892,-0.836350679397583,-0.0074018659070134,0.0742738097906112,0.0,0.0,0.3408293724060058,-0.1093204021453857
-0.0151091571897268,0.5434349179267883,0.0842527076601982,-0.819074809551239,-0.0036319822538644,0.0753978714346885,0.0,0.0,0.8760390281677246,-0.2946745753288269
-0.0140048023313283,0.5252529382705688,0.1057495325803756,-0.8080849051475525,0.0009915721602737,0.0924710109829902,0.0,0.0,0.611534833908081,-0.4425528049468994
-0.0129423141479492,0.5071781277656555,0.1018996387720108,-0.8033309578895569,0.0052811442874372,0.0857915952801704,0.0,0.0,0.6407655477523804,-0.3292790651321411
-0.0117395399138331,0.4897093772888183,0.1153675317764282,-0.7764144539833069,0.0101253194734454,0.0968837067484855,0.0,0.0,0.368308424949646,-0.3378136157989502
-0.0103777889162302,0.4724982380867004,0.1305822879076004,-0.7649857997894287,0.0156455989927053,0.1104056984186172,0.0,0.0,0.7399541139602661,-0.5121638774871826
-0.0089368820190429,0.4560122489929199,0.1370496451854705,-0.7328023910522461,0.0225928779691457,0.1389454156160354,0.0,0.0,-0.3810588717460632,-0.0350648164749145
-0.0074473381973803,0.4389445781707763,0.1417211443185806,-0.7586863040924072,0.0297340434044599,0.1428235471248626,0.0,0.0,0.5776890516281128,-0.5816687941551208
-0.0059136389754712,0.4218211472034454,0.1446131318807602,-0.761242687702179,0.0383761413395404,0.1728421747684478,0.0,0.0,0.7374447584152222,-0.1555008888244629
-0.0044670104980468,0.4052160680294037,0.1361787617206573,-0.7382459044456482,0.0467668697237968,0.1678144782781601,0.0,0.0,0.8756439685821533,0.1946208477020263
-0.0028619766235351,0.3889193832874298,0.1510979980230331,-0.7246158123016357,0.0560622438788414,0.1859076470136642,0.0,0.0,0.6331347227096558,0.7581815719604492
-0.0011609077919274,0.3729574680328369,0.1619098484516143,-0.7097488641738892,0.064171701669693,0.1621889472007751,0.0,0.0,0.7900552749633789,0.1570103168487548
0.0005641937023028,0.3570653200149536,0.1639770567417144,-0.7067059874534607,0.0726123750209808,0.1688131242990493,0.0,0.0,0.7670711278915405,0.2803711891174316
0.0021534920670092,0.3415234684944153,0.1507096141576767,-0.6911720633506775,0.0807489454746246,0.1627316176891327,0.0,0.0,0.8329765796661377,0.5878129005432129
0.0037782669533044,0.3268354833126068,0.1550624072551727,-0.653215765953064,0.0881048738956451,0.1471183747053146,0.0,0.0,0.6970372200012207,0.2476155757904052
0.0055001256987452,0.3120264708995819,0.1640300452709198,-0.6586822271347046,0.0961889699101448,0.1616820693016052,0.0,0.0,0.7472693920135498,0.1346955299377441
0.0072017670609056,0.2979885041713714,0.1615218818187713,-0.6244843006134033,0.1047568991780281,0.1713587343692779,0.0,0.0,0.7870417833328247,-0.0121329426765441
0.0087850568816065,0.2841176986694336,0.1498065441846847,-0.6171025037765503,0.1132180765271186,0.16922327876091,0.0,0.0,0.8424485921859741,0.7634972333908081
0.0102667808532714,0.2707858085632324,0.1410604268312454,-0.5930826663970947,0.1202888712286949,0.1414159685373306,0.0,0.0,0.7478542327880859,0.8576340675354004
0.0118059162050485,0.2578735947608948,0.1480646580457687,-0.574357807636261,0.1260967254638672,0.1161573976278305,0.0,0.0,0.6798441410064697,0.6960830688476562
0.0131809236481785,0.2456491589546203,0.1329829692840576,-0.5436996221542358,0.1305993050336837,0.0900513306260109,0.0,0.0,0.4175772666931152,0.4223897457122803
0.0145839694887399,0.2335925847291946,0.1350854337215423,-0.5363122224807739,0.1357997059822082,0.1040078550577163,0.0,0.0,0.615359902381897,0.5899825096130371
0.015974998474121,0.2215208560228347,0.1347321569919586,-0.5369282364845276,0.1401518583297729,0.0870430469512939,0.0,0.0,0.8757905960083008,0.4217981100082397
0.0174174308776855,0.2094322592020034,0.1390943080186844,-0.537765383720398,0.1452842205762863,0.1026472449302673,0.0,0.0,0.8325386047363281,0.5471045970916748
0.018836498260498,0.1973171085119247,0.1375289410352707,-0.5388826131820679,0.1496513336896896,0.0873423069715499,0.0,0.0,0.8481533527374268,0.2907495498657226
0.0201369281858205,0.1859348118305206,0.1252752989530563,-0.506365180015564,0.1544128507375717,0.0952304601669311,0.0,0.0,0.9380935430526732,0.6806927919387817
0.0214634891599416,0.1754322797060012,0.1285666674375534,-0.4672115445137024,0.158506155014038,0.0818657949566841,0.0,0.0,0.9415402412414552,0.26771080493927
0.0225275997072458,0.1657399982213974,0.102471113204956,-0.4311896562576294,0.1624397933483123,0.0786726772785186,0.0,0.0,0.8763093948364258,-0.3107727766036987
0.0234031677246093,0.1559878438711166,0.0838505178689956,-0.4338387250900268,0.1661497801542282,0.0741998776793479,0.0,0.0,0.984981894493103,-0.8142421841621399
0.0241249091923236,0.1470641046762466,0.0662744268774986,-0.3972841501235962,0.1720626503229141,0.1182572692632675,0.0,0.0,0.9552619457244872,-0.0536231994628906
0.0246255882084369,0.1385353207588195,0.0442567244172096,-0.3797414004802704,0.1778871715068817,0.1164902821183204,0.0,0.0,0.9630935192108154,0.9139041900634766
0.0249955169856548,0.1306186467409134,0.0326865948736667,-0.3523756563663482,0.1822133064270019,0.0865225046873092,0.0,0.0,0.9844214916229248,0.1552371978759765
0.0252092368900775,0.1233561635017395,0.0166491288691759,-0.3233619034290313,0.1869483292102813,0.0947004333138465,0.0,0.0,0.9679853916168212,0.6944729089736938
0.025465965270996,0.1165809035301208,0.0215968023985624,-0.3016428053379059,0.1910476684570312,0.0819871574640274,0.0,0.0,0.9166826009750366,0.1751487255096435
0.0256806369870901,0.1098175123333931,0.0167892351746559,-0.3012067079544067,0.1957573592662811,0.0941938161849975,0.0,0.0,0.7579007148742676,0.4094101190567016
0.0259134285151958,0.1031325906515121,0.0176650416105985,-0.2978598773479461,0.2014103084802627,0.1130588054656982,0.0,0.0,0.6475571393966675,0.1092715263366699
0.0261789318174123,0.0967482179403305,0.0197799410670995,-0.2846879959106445,0.2082319259643554,0.1364322304725647,0.0,0.0,0.372509241104126,0.4778225421905517
0.0264910701662302,0.09030032902956,0.0234390124678611,-0.2876874804496765,0.2160822749137878,0.1570068746805191,0.0,0.0,0.020997405052185,0.5983434915542603
0.0267446525394916,0.0839706733822822,0.0183126367628574,-0.282366007566452,0.2232159972190857,0.1426742970943451,0.0,0.0,-0.0244319438934326,0.7184445858001709
0.0270535461604595,0.0770859122276306,0.0248494911938905,-0.3069152534008026,0.2293223887681961,0.1221281066536903,0.0,0.0,0.7530725002288818,0.9793503284454346
0.0274166110903024,0.0707351565361023,0.0315452255308628,-0.2830069363117218,0.2341558039188385,0.0966684073209762,0.0,0.0,0.7134222984313965,0.7861244678497314
0.0278695113956928,0.0643514245748519,0.0413691848516464,-0.2843494415283203,0.2381321787834167,0.0795275717973709,0.0,0.0,0.7068583965301514,0.8589075803756714
0.0281993858516216,0.0581543073058128,0.0303746908903121,-0.2758511900901794,0.2407831400632858,0.0530191138386726,0.0,0.0,0.7292256355285645,0.932152271270752
0.0284713748842477,0.052764568477869,0.0258156359195709,-0.2397723942995071,0.2421961426734924,0.0282602943480014,0.0,0.0,0.7363283634185791,0.9612530469894408
0.0286375992000103,0.0476822480559349,0.0166740175336599,-0.225870206952095,0.2421400547027588,-0.0011216562706977,0.0,0.0,0.8288424015045166,0.9632740020751952
0.0285052303224802,0.0432823523879051,-0.0115344375371932,-0.1952713131904602,0.2404077053070068,-0.0346466116607189,0.0,0.0,0.9099102020263672,0.9575294256210328
0.0283495895564556,0.0395487174391746,-0.0126361725851893,-0.1654665768146515,0.2374376058578491,-0.0594020672142505,0.0,0.0,0.7819874286651611,0.8688409328460693
0.0279939658939838,0.0364221185445785,-0.0313030108809471,-0.1382789015769958,0.2331122756004333,-0.0865065678954124,0.0,0.0,0.3972461223602295,0.9345691204071044
0.0274703986942768,0.0336436368525028,-0.0466766245663166,-0.122596874833107,0.2273476868867874,-0.1152917370200157,0.0,0.0,0.6556618213653564,0.930952787399292
0.0268635749816894,0.0310267303138971,-0.05361233279109,-0.1152348071336746,0.220188558101654,-0.1431826055049896,0.0,0.0,0.3497524261474609,0.9767251014709472
0.0261003486812114,0.0285390708595514,-0.067751444876194,-0.1093044579029083,0.2115200906991958,-0.1733689904212951,0.0,0.0,0.3670486211776733,0.9177042245864868
0.0251601226627826,0.0260832402855157,-0.084001287817955,-0.1077450737357139,0.2014115005731582,-0.20217165350914,0.0,0.0,0.1993741989135742,0.9825403690338136
0.0242608077824115,0.0238709542900323,-0.0784457549452781,-0.0968045443296432,0.1898528039455413,-0.2311741858720779,0.0,0.0,-0.3633809089660644,0.975860595703125
0.0234264377504587,0.021095260977745,-0.0702981799840927,-0.1217318326234817,0.1766624599695205,-0.2638067603111267,0.0,0.0,0.0765652656555175,0.9203791618347168
0.0226653106510639,0.0185309275984764,-0.0616118982434272,-0.1123090758919715,0.1621370464563369,-0.2905078530311584,0.0,0.0,0.3454259634017944,0.9019677639007568
0.0218173023313283,0.0164566133171319,-0.0663070529699325,-0.0902820453047752,0.1436651349067688,-0.3694385290145874,0.0,1.0,0.8257246017456055,0.4410092830657959
0.0209897048771381,0.0152400350198149,-0.0649424865841865,-0.0524511002004146,0.1259230673313141,-0.3548415899276733,0.0,1.0,0.3082386255264282,0.2160577774047851
0.0201642028987407,0.0141396140679717,-0.0649871975183487,-0.0475191138684749,0.1084608286619186,-0.3492447733879089,0.0,0.0,-0.7912872433662415,0.2100868225097656
0.0193167682737112,0.0124615523964166,-0.0676707625389099,-0.0734287053346633,0.0915219783782959,-0.3387771248817444,0.0,0.0,-0.6241828203201294,0.2841695547103882
0.0184467323124408,0.0102054933086037,-0.0704242140054702,-0.099336102604866,0.0751069486141204,-0.3283009231090545,0.0,0.0,-0.2956125140190124,0.6565136909484863
0.0176126472651958,0.0073749041184782,-0.0658555477857589,-0.1250166743993759,0.0577345006167888,-0.3474487364292145,0.0,0.0,0.2573974132537842,-0.2129590511322021
0.0166346542537212,0.0046630119904875,-0.0803053453564643,-0.1199455484747886,0.0404559634625911,-0.3455709517002105,0.0,0.0,0.1976054906845092,0.2093745470046997
0.0155054088681936,0.0020635582040995,-0.0918531790375709,-0.1150950863957405,0.0196487195789814,-0.4161454737186432,0.0,1.0,0.6042298078536987,0.4211974143981933
0.0143445013090968,-0.0002920651459135,-0.0949179902672767,-0.1045519784092903,-0.0012546384241431,-0.4180671274662018,0.0,1.0,0.5814919471740723,0.6312713623046875
0.0132612232118844,-0.0024592184927314,-0.0859438851475715,-0.096484750509262,-0.0233518350869417,-0.4419442117214203,1.0,0.0,0.680243968963623,0.4742765426635742
0.0124551774933934,-0.0042464639991521,-0.0718378201127052,-0.0798014029860496,-0.0307894460856914,-0.1472074389457702,1.0,0.0,0.2334951162338256,0.6037008762359619
0.0119739528745412,-0.0053541804663836,-0.0564421229064464,-0.0490926280617713,-0.0225362796336412,0.165112555027008,1.0,0.0,0.3981223106384277,0.4383068084716797
0.0116083147004246,-0.0049335383810102,-0.0419197343289852,0.0187427084892988,-0.0173030756413936,0.1045887619256973,1.0,1.0,-0.6210910081863403,0.9956014156341552
0.0113164903596043,-0.0041265152394771,-0.0284088589251041,0.0358525067567825,-0.0180855710059404,-0.0156785175204277,1.0,1.0,-0.7862983345985413,0.2620385885238647
