x_pos,y_pos,x_vel,y_vel,angle,ang_vel,leg_1,leg_2,main_booster,lat_booster
-0.0014518738025799,1.4032888412475586,-0.1476889699697494,-0.339163601398468,0.002241249429062,0.0442463941872119,0.0,0.0,-0.6780973076820374,0.884265661239624
-0.0027564049232751,1.395341157913208,-0.131263256072998,-0.3532262146472931,0.0030428594909608,0.016034634783864,0.0,0.0,-0.4992911219596863,0.6223522424697876
-0.0039293291047215,1.387053370475769,-0.1170984655618667,-0.368348479270935,0.0028554748278111,-0.0037480753380805,0.0,0.0,0.022509217262268,0.6887757778167725
-0.00506172189489,1.3788914680480957,-0.1120999678969383,-0.3627527356147766,0.0017344551160931,-0.0224229115992784,0.0,0.0,-0.0532629489898681,0.2425017356872558
-0.0061225891113281,1.370393991470337,-0.105473592877388,-0.377669483423233,0.0011270352406427,-0.0121497036889195,0.0,0.0,0.0184202194213867,0.3926817178726196
-0.0070281028747558,1.36206316947937,-0.0908625572919845,-0.3702553808689117,0.0014362469082698,0.0061845770105719,0.0,0.0,-0.8818352222442627,0.1019225120544433
-0.0078627588227391,1.3533968925476074,-0.0842993259429931,-0.3851725161075592,0.0022571145091205,0.0164189711213111,0.0,0.0,-0.1431561112403869,0.5694289207458496
-0.0085710529237985,1.344396948814392,-0.0707547962665557,-0.3999993503093719,0.0021828582976013,-0.0014851177111268,0.0,0.0,-0.7509663105010986,-0.0481486320495605
-0.0092092510312795,1.3350614309310913,-0.0642590671777725,-0.4149123132228851,0.0026201035361737,0.0087455762550234,0.0,0.0,-0.8612102270126343,-0.4473112821578979
-0.0097776409238576,1.325390338897705,-0.057804100215435,-0.4298253953456878,0.0035671705845743,0.0189429931342601,0.0,0.0,-0.7794366478919983,0.1728730201721191
-0.0102767944335937,1.3153839111328125,-0.0513929948210716,-0.4447385668754577,0.0050235795788466,0.0291309915482997,0.0,0.0,-0.8314028978347778,0.3856841325759887
-0.0107072833925485,1.3050419092178345,-0.0450291484594345,-0.459651917219162,0.0069885300472378,0.0393026582896709,0.0,0.0,-0.7887000441551208,0.1373456716537475
-0.0110693927854299,1.2943644523620603,-0.0387164279818534,-0.4745655059814453,0.0094611244276165,0.0494565702974796,0.0,0.0,-0.895828366279602,-0.8018442988395691
-0.0114198680967092,1.2833434343338013,-0.0394789315760135,-0.4898559749126434,0.0138486698269844,0.0877591222524643,0.0,0.0,-0.8929840326309204,-0.5404577851295471
-0.0117359161376953,1.271992325782776,-0.037387628108263,-0.5045604705810547,0.0195620544254779,0.1142779365181922,0.0,0.0,-0.89816814661026,0.4830105304718017
-0.0119856838136911,1.2603062391281128,-0.0312605872750282,-0.519477128982544,0.0257796980440616,0.1243641749024391,0.0,0.0,-0.7037107348442078,0.35775887966156
-0.0121697429567575,1.2482852935791016,-0.025202939286828,-0.534394383430481,0.0325007252395153,0.1344328224658966,0.0,0.0,-0.6859237551689148,0.3996791839599609
-0.0122888563200831,1.2359298467636108,-0.019220208749175,-0.5493124723434448,0.0397238172590732,0.1444750279188156,0.0,0.0,-0.9355854392051696,0.7344927787780762
-0.0122768403962254,1.2232505083084106,-0.0048919459804892,-0.5637001395225525,0.0457527600228786,0.120589792728424,0.0,0.0,-0.9278032779693604,0.6683313846588135
-0.0121560096740722,1.2102391719818115,0.0066612958908081,-0.5784581303596497,0.0511320494115352,0.1075953692197799,0.0,0.0,-0.7457125186920166,0.8013298511505127
-0.0118963243439793,1.196904540061951,0.021986074745655,-0.592788577079773,0.0550789013504982,0.0789437815546989,0.0,0.0,-0.8613417744636536,0.4159953594207763
-0.0115753170102834,1.183234930038452,0.0276208221912384,-0.6077060103416443,0.0595237910747528,0.0889057889580726,0.0,0.0,-0.8278549313545227,0.3196556568145752
-0.0111939432099461,1.169230580329895,0.033146996051073,-0.62262362241745,0.0644642412662506,0.0988179892301559,0.0,0.0,-0.8520651459693909,0.5216022729873657
-0.0107072833925485,1.154890060424805,0.0443469174206256,-0.6375516653060913,0.068741999566555,0.0855628252029419,0.0,0.0,-0.7656463384628296,0.5350937843322754
-0.0101305963471531,1.1402193307876587,0.0536796450614929,-0.6522184014320374,0.0726986080408096,0.079139307141304,0.0,0.0,-0.8049449920654297,-0.0212074518203735
-0.0094962120056152,1.1251925230026243,0.0589434392750263,-0.668087899684906,0.0771466493606567,0.0889607295393943,0.0,0.0,-0.852908194065094,0.3777318000793457
-0.0088066104799509,1.1098308563232422,0.063973918557167,-0.6830039620399475,0.0820849165320396,0.0987652763724327,0.0,0.0,-0.8505519032478333,-0.0397360920906066
-0.0080633163452148,1.0941346883773804,0.0688554495573043,-0.6979206204414368,0.0875117853283882,0.1085373535752296,0.0,0.0,-0.8355877995491028,-0.2833462357521057
-0.0072678565047681,1.078104019165039,0.0735784843564033,-0.7128379344940186,0.093425452709198,0.1182733923196792,0.0,0.0,-0.6755473017692566,0.7888426780700684
-0.0063618659041821,1.061744213104248,0.0856788828969001,-0.7274171710014343,0.0983074530959129,0.0976401045918464,0.0,0.0,-0.6009467840194702,0.6480789184570312
-0.0053551672026515,1.0450646877288818,0.0966114327311515,-0.7415768504142761,0.1023372188210487,0.0805949717760086,0.0,0.0,-0.7985895872116089,-0.5615527033805847
-0.0043514249846339,1.028040051460266,0.0945579260587692,-0.7570673823356628,0.1081125438213348,0.1155068278312683,0.0,0.0,-0.3494017124176025,0.8344364166259766
-0.0032469748985022,1.010697841644287,0.1056003719568252,-0.7711249589920044,0.1129257455468177,0.0962643772363662,0.0,0.0,-0.4279137253761291,0.8605116605758667
-0.0020387650001794,0.9930235743522644,0.1170321255922317,-0.7858139276504517,0.1166810095310211,0.0751053243875503,0.0,0.0,0.226728081703186,0.3996455669403076
-0.0008325576782226,0.9757106900215148,0.1163182407617569,-0.7698045969009399,0.1209626346826553,0.0856325700879097,0.0,0.0,-0.1248739957809448,0.6922657489776611
0.000467300415039,0.9580786228179932,0.1266428381204605,-0.7839233875274658,0.1242849677801132,0.0664467364549636,0.0,0.0,0.0755845308303833,0.5819659233093262
0.0017929077148437,0.9405551552772522,0.1299613118171692,-0.7790409326553345,0.1268805265426635,0.0519107058644294,0.0,0.0,0.0424277782440185,0.3120980262756347
0.0031148910056799,0.9234161972999572,0.1290092766284942,-0.7620027661323547,0.1300444900989532,0.0632796213030815,0.0,0.0,0.0847781896591186,-0.1151894330978393
0.0043699266389012,0.9067604541778564,0.121994599699974,-0.7405609488487244,0.1335409134626388,0.0699284449219703,0.0,0.0,0.1988431215286255,0.8275821208953857
0.0056821824982762,0.8904447555541992,0.1289180219173431,-0.7253501415252686,0.1358466148376464,0.0461135879158973,0.0,0.0,0.0350520610809326,0.6322896480560303
0.0069275856949388,0.8745195865631104,0.1231388598680496,-0.7079206705093384,0.1372400075197219,0.0278682075440883,0.0,0.0,-0.0001600384712219,0.771614670753479
0.0082682613283395,0.8582728505134583,0.1341007500886917,-0.7220717072486877,0.1372081488370895,-0.0006375840166583,0.0,0.0,-0.1364059448242187,0.3931596279144287
0.0096283908933401,0.8416914939880371,0.1356232166290283,-0.7369877696037292,0.1375999897718429,0.0078366165980696,0.0,0.0,0.3589310646057129,0.9152090549468994
0.0111100198701024,0.8254536390304565,0.1491173058748245,-0.721592903137207,0.1366545408964157,-0.0189087800681591,0.0,0.0,-0.1586751341819763,-0.8694981336593628
0.0125336647033691,0.8088558316230774,0.141038179397583,-0.7378000617027283,0.1379736214876175,0.0263816565275192,0.0,0.0,0.6553088426589966,0.1148643493652343
0.0139676090329885,0.7924302816390991,0.1414556801319122,-0.7302062511444092,0.1398993879556656,0.0385152585804462,0.0,0.0,-0.1891846060752868,0.5681089162826538
0.0154584888368844,0.7756771445274353,0.1480287164449691,-0.7446814775466919,0.1409579813480377,0.0211719609797,0.0,0.0,0.2141357660293579,-0.2525821924209595
0.0167863853275775,0.7594818472862244,0.1317365616559982,-0.7198905348777771,0.1420031934976577,0.0209045428782701,0.0,0.0,-0.3834365010261535,0.5669517517089844
0.0181501396000385,0.7429642081260681,0.1358641386032104,-0.7341716289520264,0.1425167471170425,0.0102710705250501,0.0,0.0,-0.0801626443862915,0.0876071453094482
0.0195128433406353,0.7261115908622742,0.1354157030582428,-0.7490869760513306,0.143369510769844,0.0170552432537078,0.0,0.0,0.2500370740890503,0.9841169118881226
0.0210125930607318,0.7096090912818909,0.1507410705089569,-0.7333666682243347,0.1426107883453369,-0.0151747446507215,0.0,0.0,0.1108177900314331,-0.3539245128631592
0.0223968513309955,0.6934990882873535,0.1390620321035385,-0.7159448862075806,0.1419776231050491,-0.0126631734892725,0.0,0.0,-0.4828026294708252,0.3047897815704345
0.0237715728580951,0.6770539283752441,0.1378126740455627,-0.7308595776557922,0.141630083322525,-0.0069508180022239,0.0,0.0,-0.1660895347595214,0.8466904163360596
0.0251997001469135,0.6602959036827087,0.1446048319339752,-0.7446346282958984,0.139842227101326,-0.035757265985012,0.0,0.0,-0.1127203106880188,-0.4676036238670349
0.026612663641572,0.6432027220726013,0.1428549140691757,-0.7595489621162415,0.1382980197668075,-0.0308844707906246,0.0,0.0,0.0897248983383178,-0.621931791305542
0.027846623212099,0.6262087225914001,0.1235708370804786,-0.7552727460861206,0.1381245851516723,-0.0034686245489865,0.0,0.0,0.1879520416259765,0.9177634716033936
0.02913074567914,0.6097707748413086,0.1302064955234527,-0.7304149866104126,0.136336013674736,-0.0357712879776954,0.0,0.0,0.6257669925689697,-0.3262730836868286
0.0304365158081054,0.5940114855766296,0.1315735578536987,-0.700320839881897,0.1353476196527481,-0.0197679586708545,0.0,0.0,0.5487896203994751,0.38579261302948
0.0316824913024902,0.5790783762931824,0.1251263916492462,-0.6636480689048767,0.1348293572664261,-0.0103656332939863,0.0,0.0,-0.3871153593063354,0.5904653072357178
0.0329412445425987,0.5638232231140137,0.1273038387298584,-0.6778746247291565,0.1333975046873092,-0.0286367926746606,0.0,0.0,-0.0372597575187683,-0.5698435306549072
0.0341299064457416,0.5482197403907776,0.1191703826189041,-0.6934641599655151,0.1331019252538681,-0.0059118852950632,0.0,0.0,-0.3626852631568908,0.0276563167572021
0.0352870002388954,0.5322807431221008,0.1159416437149047,-0.7083761692047119,0.1328707486391067,-0.0046234652400016,0.0,0.0,0.424996018409729,0.6224871873855591
0.0365159027278423,0.5167009830474854,0.1240930333733558,-0.6923262476921082,0.1316706538200378,-0.0240019205957651,0.0,0.0,0.5339785814285278,-0.647894561290741
0.0376072898507118,0.5016276836395264,0.1089860796928405,-0.6699416041374207,0.1318227797746658,0.0030422105919569,0.0,0.0,-0.4686785340309143,0.4816764593124389
0.0386612899601459,0.4862186908721924,0.1052626371383667,-0.684852659702301,0.1319545805454254,0.0026359069161117,0.0,0.0,0.0014957189559936,0.1996591091156005
0.0395544990897178,0.4709921181201935,0.0895892083644867,-0.6767138242721558,0.1316908001899719,-0.0052755577489733,0.0,0.0,0.8727931976318359,0.6839025020599365
0.0403584465384483,0.4568961560726166,0.082048013806343,-0.6263399720191956,0.1300446987152099,-0.0329223684966564,0.0,0.0,0.0713398456573486,0.3590648174285888
0.0411480888724327,0.4427570402622223,0.0804807916283607,-0.6282758712768555,0.1285414844751358,-0.0300643984228372,0.0,0.0,0.1930450201034546,0.1414659023284912
0.041834257543087,0.4292030334472656,0.0701639726758003,-0.6022682785987854,0.1269986480474472,-0.0308566335588693,0.0,0.0,0.0066763162612915,0.1888939142227172
0.0423816666007041,0.4157315492630005,0.0567138716578483,-0.5985659956932068,0.1250350028276443,-0.0392729863524436,0.0,0.0,-0.3487080931663513,0.560887336730957
0.0429194457828998,0.4019336700439453,0.0568945780396461,-0.6129799485206604,0.1219407767057418,-0.0618844851851463,0.0,0.0,0.3763071298599243,-0.224461019039154
0.0433717742562294,0.3885767161846161,0.048430111259222,-0.5933851003646851,0.1187609508633613,-0.0635967180132865,0.0,0.0,0.4042603969573974,-0.433501124382019
0.0435812957584857,0.3759337663650512,0.0248865596950054,-0.5616012811660767,0.1148477271199226,-0.078264370560646,0.0,0.0,-0.6708817481994629,0.1924618482589721
0.0437406525015831,0.3629551827907562,0.0201208963990211,-0.5765113830566406,0.1106861680746078,-0.0832311287522316,0.0,0.0,0.2713723182678222,-0.666678249835968
0.0437348373234272,0.3500707745552063,0.0025824641343206,-0.572407603263855,0.1075423285365104,-0.0628766193985939,0.0,0.0,-0.0137451887130737,-0.1473134160041809
0.0436769500374794,0.336850643157959,-0.0023406606633216,-0.5873171091079712,0.1041105613112449,-0.0686351582407951,0.0,0.0,0.6299883127212524,0.2926561832427978
0.043500043451786,0.3237894773483276,-0.0137686682865023,-0.5802280306816101,0.1002286151051521,-0.0776389986276626,0.0,0.0,0.7886509895324707,0.3967190980911255
0.0431744568049907,0.3116728365421295,-0.0282762739807367,-0.5382336378097534,0.0959818735718727,-0.0849349275231361,0.0,0.0,-0.2943792343139648,0.2634040117263794
0.0427942276000976,0.2992205917835235,-0.0333953239023685,-0.5531436204910278,0.0913966223597526,-0.0917049050331115,0.0,0.0,0.6260995864868164,0.0631341934204101
0.0421753898262977,0.2876192927360534,-0.0563930943608284,-0.5152879357337952,0.0859472602605819,-0.1089872345328331,0.0,0.0,-0.7332081198692322,0.7240453958511353
0.0415456779301166,0.2756808996200561,-0.0559522807598114,-0.5302067995071411,0.0790009275078773,-0.1389265805482864,0.0,0.0,0.0492485761642456,-0.2342206239700317
0.0408453941345214,0.2641610503196716,-0.0627510771155357,-0.5116264224052429,0.0717939510941505,-0.144139677286148,0.0,0.0,-0.3353521823883056,-0.7803362607955933
0.040015984326601,0.2522980272769928,-0.07709551602602,-0.5269754528999329,0.0660115554928779,-0.1156477704644203,0.0,0.0,0.6155834197998047,-0.0828174352645874
0.0390317924320697,0.2410863935947418,-0.0919192358851432,-0.4980200827121734,0.0595797821879386,-0.1286353766918182,0.0,0.0,0.3381837606430053,0.3036501407623291
0.0379461273550987,0.230386808514595,-0.1016027182340622,-0.4752770662307739,0.0526920482516288,-0.1377549618482589,0.0,0.0,0.3826602697372436,0.3058168888092041
0.0368491187691688,0.2200871258974075,-0.1026426702737808,-0.4575307965278625,0.045721735805273,-0.1394063532352447,0.0,0.0,-0.5860490798950195,0.364261269569397
0.0356932654976844,0.2094524204730987,-0.1080946698784828,-0.472444474697113,0.0383231006562709,-0.1479728817939758,0.0,0.0,0.1483838558197021,-0.6399623155593872
0.0344892516732215,0.1988986879587173,-0.1138618811964988,-0.4689028561115265,0.0318643860518932,-0.1291742026805877,0.0,0.0,0.1627521514892578,0.013554573059082
0.0333164222538471,0.1886173039674759,-0.1107767671346664,-0.456827312707901,0.0254417862743139,-0.1284521371126175,0.0,0.0,0.5034430027008057,0.0317863225936889
0.0322015769779682,0.1785437911748886,-0.1051211804151535,-0.4476173520088196,0.019156752154231,-0.1257006824016571,0.0,0.0,-0.0811008214950561,0.0470272302627563
0.0310267452150583,0.1681352406740188,-0.1106578558683395,-0.462531179189682,0.012416704557836,-0.1348007619380951,0.0,0.0,-0.1140751838684082,-0.377259612083435
0.0297917369753122,0.1573917418718338,-0.1162085086107254,-0.4774457514286041,0.0052163377404212,-0.1440072804689407,0.0,0.0,0.7113139629364014,-0.5053993463516235
0.0285901073366403,0.1473524868488311,-0.1138139590620994,-0.4461844265460968,-0.0010554798645898,-0.125436246395111,0.0,0.0,0.0563504695892334,-0.0666279792785644
0.0273926742374897,0.137291133403778,-0.1132154464721679,-0.4471887350082397,-0.0074987080879509,-0.1288643032312393,0.0,0.0,0.3603823184967041,-0.709927499294281
0.0260334964841604,0.1275229603052139,-0.1302649825811386,-0.4341818690299988,-0.013081070035696,-0.1116473078727722,0.0,0.0,0.5366420745849609,-0.0500574111938476
0.0247029308229684,0.1186218112707138,-0.127290204167366,-0.3956683576107025,-0.0187769066542387,-0.1139166504144668,0.0,0.0,0.4234911203384399,-0.1673247814178466
0.0233008377254009,0.1101217120885849,-0.1338635236024856,-0.3778734803199768,-0.0250466559082269,-0.125395193696022,0.0,0.0,0.3051958084106445,-0.1740148067474365
0.0217554084956645,0.1022330150008201,-0.1472344398498535,-0.3507487177848816,-0.0322553142905235,-0.1441732347011566,0.0,0.0,0.4588738679885864,-0.2869594097137451
0.020246123895049,0.0949298217892646,-0.1434991359710693,-0.3247635066509247,-0.0395954623818397,-0.1468031406402588,0.0,0.0,0.3804972171783447,0.1629456281661987
0.0186563488095998,0.0882344543933868,-0.1508456170558929,-0.2978068590164184,-0.0476322434842586,-0.1607355177402496,0.0,0.0,0.3612266778945923,0.0968313217163086
0.0169672966003417,0.0821341872215271,-0.1599568426609039,-0.2714362442493438,-0.0564764626324176,-0.1768844574689865,0.0,0.0,-0.2020313739776611,-0.0242621302604675
0.0152177810668945,0.0756997466087341,-0.1655072271823883,-0.2863564193248749,-0.0658149644732475,-0.1867702901363372,0.0,0.0,-0.1426482796669006,-0.0931994318962097
0.0134079931303858,0.0689314901828765,-0.1710443198680877,-0.3012776672840118,-0.0756498575210571,-0.1966975331306457,0.0,0.0,0.4313583374023437,0.3062431812286377
0.0114422794431447,0.0625230893492698,-0.1855254471302032,-0.2854098379611969,-0.0865861177444458,-0.2187252044677734,0.0,0.0,0.7964167594909668,0.0953400135040283
0.0095989229157567,0.0569341517984867,-0.173332467675209,-0.2490714192390442,-0.0974897295236587,-0.2180719077587127,0.0,0.0,0.506126880645752,0.3026862144470215
0.0077842711471021,0.05150593444705,-0.1702351570129394,-0.2420246750116348,-0.1086363568902015,-0.2229323834180832,0.0,0.0,0.2776230573654175,-0.0402232408523559
0.006085586734116,0.0466060750186443,-0.1586681306362152,-0.2186236977577209,-0.119767390191555,-0.2226207703351974,0.0,0.0,0.0995091199874877,-0.4076484441757202
0.004374218173325,0.0421450957655906,-0.159371480345726,-0.1992515176534652,-0.1314735561609268,-0.2341229617595672,0.0,0.0,0.2088066339492797,-0.3004233241081238
0.0027894019149243,0.0382605418562889,-0.146715447306633,-0.1737287491559982,-0.1432027816772461,-0.2345846891403198,0.0,0.0,0.0759053230285644,-0.1793595552444458
0.0012488365173339,0.0345930680632591,-0.142016977071762,-0.1642020493745803,-0.1552094221115112,-0.2401327192783355,0.0,0.0,0.1373875141143798,-0.4217524528503418
-0.0002678871096577,0.0314272753894329,-0.1391371786594391,-0.1420610696077346,-0.1677474528551101,-0.250760555267334,0.0,0.0,0.1150121688842773,-0.3675514459609985
-0.0017133712535724,0.0287050101906061,-0.1317218244075775,-0.1224894374608993,-0.1806055754423141,-0.257162481546402,0.0,0.0,0.1917612552642822,-0.4417920112609863
-0.0030998229049146,0.0261230804026126,-0.1256007105112075,-0.1163958981633186,-0.1937053203582763,-0.2619945406913757,0.0,0.0,0.0272185802459716,-0.5366456508636475
-0.004593753721565,0.0238125901669263,-0.1368226706981659,-0.1043869331479072,-0.2063711881637573,-0.2533175051212311,0.0,0.0,0.2400364875793457,-0.5830065011978149
-0.0059905052185058,0.0223773568868637,-0.146585926413536,-0.0628380998969078,-0.1994147896766662,0.1391183286905288,1.0,0.0,-0.2514024376869201,0.9359285831451416
-0.0071085928939282,0.0210956912487745,-0.1337555795907974,-0.0541609860956668,-0.1773529946804046,0.4412525594234466,1.0,0.0,-0.5391366481781006,0.8939170837402344
-0.0081670759245753,0.0194481704384088,-0.1253205835819244,-0.071012258529663,-0.1578483581542968,0.3900928199291229,1.0,0.0,-0.5073166489601135,0.8460788726806641
-0.0091454507783055,0.0174428075551986,-0.1153102964162826,-0.08736602216959,-0.1404094845056533,0.3487774729728699,0.0,0.0,-0.6677628755569458,0.9262770414352416
-0.0100955013185739,0.0150925489142537,-0.1098280325531959,-0.103124551475048,-0.1256329417228698,0.2955310344696045,0.0,0.0,-0.3932345509529114,0.965461015701294
-0.0109827043488621,0.0127362823113799,-0.1091794818639755,-0.103124238550663,-0.1053077653050422,0.4065033793449402,1.0,0.0,-0.1487424969673156,0.8652452230453491
-0.011778449639678,0.0101640792563557,-0.1015449166297912,-0.1129181459546089,-0.0835210531949997,0.4357344210147857,1.0,0.0,0.0798897743225097,0.8935890197753906
