x_pos,y_pos,x_vel,y_vel,angle,ang_vel,leg_1,leg_2,main_booster,lat_booster
-0.0015254020690917,1.4032769203186035,-0.154302105307579,-0.3396925628185272,0.0015821151901036,0.031195018440485,0.0,0.0,-0.4727476427607664,0.6239059372579977
-0.0029993057250976,1.3953067064285278,-0.1474091112613678,-0.3542351424694061,0.0016020904295146,0.000400252349209,0.0,0.0,-0.7570848701802679,0.642154914941358
-0.004413032438606,1.3869839906692505,-0.1396484524011612,-0.3698996901512146,-0.0001012738284771,-0.034070499241352,0.0,0.0,0.5269959089026282,0.8048444523579499
-0.0058873174712061,1.3790037631988523,-0.1437157690525055,-0.3546757996082306,-0.0037730659823864,-0.0734431222081184,0.0,0.0,-0.7064829353056548,-0.6512309225931006
-0.0074029923416674,1.3706786632537842,-0.1487281024456024,-0.3700212836265564,-0.0065829316154122,-0.0562021508812904,0.0,0.0,0.2104876208454842,0.6269673526459502
-0.0087560657411813,1.362600564956665,-0.1312631666660308,-0.3590491712093353,-0.0105771822854876,-0.079892374575138,0.0,0.0,0.6990302807076656,-0.8768592749894276
-0.0101984981447458,1.355067253112793,-0.1417823731899261,-0.3348292112350464,-0.0130106061697006,-0.0486730262637138,0.0,0.0,-0.9273767025830546,0.9626493294547456
-0.0115471836179494,1.3471877574920654,-0.1298820525407791,-0.3502550721168518,-0.0179404839873313,-0.0986065417528152,0.0,0.0,0.0678937005972526,-0.9761964125405992
-0.0129727367311716,1.339785099029541,-0.1394291520118713,-0.3290435075759887,-0.0210379865020513,-0.061955839395523,0.0,0.0,-0.7026866366362858,-0.8308471500372895
-0.0144642833620309,1.3320423364639282,-0.1476007997989654,-0.3441477715969085,-0.022579988464713,-0.0308427177369594,0.0,0.0,-0.3134526733065128,0.6573631332761164
-0.0158971790224313,1.3239507675170898,-0.1401384770870208,-0.3596782088279724,-0.0256895814090967,-0.0621977858245372,0.0,0.0,0.343655649856929,0.8393583025116707
-0.0171877853572368,1.316149353981018,-0.1242500096559524,-0.3468192219734192,-0.0304491873830556,-0.0952007621526718,0.0,0.0,0.8157309012956997,0.6347453525363411
-0.0182509422302246,1.3091473579406738,-0.1005929931998252,-0.3113300204277038,-0.0361113473773002,-0.1132535710930824,0.0,0.0,-0.2876417221830396,-0.7061614384507096
-0.0193634033203125,1.3017940521240234,-0.1067425981163978,-0.3269253373146057,-0.0405686795711517,-0.0891546532511711,0.0,0.0,-0.9910297803788506,-0.6917729554684766
-0.0205171592533588,1.2941033840179443,-0.1119181886315345,-0.3419053852558136,-0.0439937114715576,-0.0685067698359489,0.0,0.0,-0.0022335150710997,-0.9987863744599306
-0.02173538133502,1.2860578298568726,-0.1199918240308761,-0.3576325178146362,-0.0458034090697765,-0.0361970998346805,0.0,0.0,-0.4137705429711338,-0.7295536950064823
-0.0229971893131732,1.277676343917847,-0.1254957616329193,-0.3725279867649078,-0.046484425663948,-0.0136217158287763,0.0,0.0,-0.0288519606144317,0.6489143167213498
-0.0241953842341899,1.268937587738037,-0.1175395250320434,-0.3884617388248443,-0.0487344413995742,-0.0450043156743049,0.0,0.0,0.7277633993600938,-0.7468697324601694
-0.0252995491027832,1.2611123323440552,-0.1099200621247291,-0.347804993391037,-0.0492214784026145,-0.0097420252859592,0.0,0.0,0.829022350003285,0.944640834418526
-0.0263965614140033,1.2538796663284302,-0.1072018891572952,-0.3215432465076446,-0.0516975633800029,-0.0495263114571571,0.0,0.0,0.4032598648746339,-0.9352646000407928
-0.0274091716855764,1.2472587823867798,-0.1008247956633567,-0.2942715585231781,-0.0521293468773365,-0.0086365425959229,0.0,0.0,0.1655357533113777,-0.6442705950815322
-0.028446102514863,1.240757703781128,-0.1046485528349876,-0.2889076173305511,-0.0511841401457786,0.0189058259129524,0.0,0.0,0.0704252535112544,-0.9858826993266758
-0.0294407848268747,1.2344343662261963,-0.1024768948554992,-0.2809351980686188,-0.0482115000486373,0.059458453208208,0.0,0.0,0.7539044791968565,0.9260754713724548
-0.0302628520876169,1.228238582611084,-0.0835853517055511,-0.275326520204544,-0.0468407906591892,0.0274163987487554,0.0,0.0,0.6027710802383079,-0.8369523776212449
-0.0312734618782997,1.2226486206054688,-0.1040010005235672,-0.248358741402626,-0.0439245700836181,0.0583297125995159,0.0,0.0,-0.743168653478425,-0.9120998372904802
-0.0323722846806049,1.216700553894043,-0.1152652874588966,-0.2642118036746979,-0.0386163294315338,0.1061648279428482,0.0,0.0,0.7727673051029604,0.7581686656593171
-0.0333746895194053,1.211574673652649,-0.1042502745985984,-0.2277215123176574,-0.0346563756465911,0.0791991502046585,0.0,0.0,0.8376122547676801,-0.748856446603005
-0.034560490399599,1.2074967622756958,-0.1239081025123596,-0.1811290681362152,-0.0293936729431152,0.1052541509270668,0.0,0.0,-0.6139506061999394,-0.612209241658384
-0.0358030311763286,1.2030794620513916,-0.1312609314918518,-0.1962019354104995,-0.0224767588078975,0.1383383870124817,0.0,0.0,-0.0420866229032306,0.9031235455487888
-0.0369746200740337,1.1983094215393066,-0.1225830465555191,-0.2119269371032714,-0.0171112846583127,0.1073094606399536,0.0,0.0,0.526048405152393,0.9525460759369536
-0.0380352959036827,1.194373369216919,-0.1098019480705261,-0.1748951077461242,-0.0134265199303627,0.0736950784921646,0.0,0.0,-0.4615868071562237,0.9337316932935192
-0.039029311388731,1.1900832653045654,-0.1017033085227012,-0.1906508952379226,-0.0111581198871135,0.0453683249652385,0.0,0.0,-0.2266607114555274,-0.7235010372404439
-0.0400859825313091,1.1854538917541504,-0.1098361015319824,-0.2057289034128189,-0.0070441667921841,0.0822789147496223,0.0,0.0,0.0686663500360489,0.8602241058882889
-0.0411189086735248,1.1808191537857056,-0.1059368625283241,-0.2059826254844665,-0.0044336374849081,0.0522108599543571,0.0,0.0,0.0824305237207518,-0.7764431712455383
-0.0421965606510639,1.1764553785324097,-0.1122076660394668,-0.1939369142055511,-4.720414654002525e-05,0.0877287536859512,0.0,0.0,-0.4670496189452622,-0.7120471341711649
-0.0433262810111045,1.1717499494552612,-0.1190333813428878,-0.2091416716575622,0.0059433998540043,0.1198118329048156,0.0,0.0,-0.0749284447291485,0.6351004048971084
-0.0444050803780555,1.1666946411132812,-0.1129697784781456,-0.2247058898210525,0.0109633691608905,0.1003993973135948,0.0,0.0,-0.3584737415696575,0.988309507063905
-0.0453980453312397,1.1613012552261353,-0.1025107502937316,-0.2397342771291732,0.014136342331767,0.0634594485163688,0.0,0.0,0.6123691015483812,-0.7859399700733998
-0.0465045943856239,1.1568005084991455,-0.1156203150749206,-0.2000849246978759,0.0190444588661193,0.098162367939949,0.0,0.0,-0.3007960509799507,-0.7600258020995194
-0.0476655960083007,1.1519523859024048,-0.1227811351418495,-0.2155761867761612,0.0256460849195718,0.1320325434207916,0.0,0.0,-0.9538118382250678,0.7803146523878123
-0.0487729087471962,1.146765947341919,-0.116388127207756,-0.2306196838617324,0.0312277823686599,0.1116338819265365,0.0,0.0,-0.9834516644477844,0.977514386177063
-0.0497841835021972,1.1412343978881836,-0.1046617031097412,-0.2459182143211364,0.0347284898161888,0.0700140073895454,0.0,0.0,-0.998018443584442,0.9949395656585692
-0.0507006645202636,1.1353495121002195,-0.0931381955742836,-0.261583536863327,0.0361975021660327,0.0293805655092,0.0,0.0,-0.9975004196166992,0.9678187370300292
-0.0515248291194438,1.129120111465454,-0.0819142311811447,-0.2768429517745971,0.0356929190456867,-0.0100914817303419,0.0,0.0,-0.9975214600563048,0.6509087085723877
-0.0522977821528911,1.1225385665893557,-0.0758408457040786,-0.2924836874008178,0.0342538729310035,-0.0287808384746313,0.0,0.0,-0.9969366192817688,0.9890377521514891
-0.0529831871390342,1.1156039237976074,-0.0652221590280532,-0.3081317245960235,0.0309734493494033,-0.0656086131930351,0.0,0.0,-0.9878562092781068,0.8158655166625977
-0.0535943992435932,1.1083210706710815,-0.0562632903456687,-0.323587954044342,0.0261837691068649,-0.0957938060164451,0.0,0.0,-0.9596627354621888,0.9664154052734376
-0.0541403777897357,1.1007041931152344,-0.0484464839100837,-0.3384336233139038,0.020109498873353,-0.1214852780103683,0.0,0.0,-0.9751135110855104,0.7300329208374023
-0.0546381957828998,1.0927484035491943,-0.0427720993757247,-0.3535155653953552,0.013184773735702,-0.1384945213794708,0.0,0.0,-0.9691895246505736,0.0271278619766235
-0.0551329627633094,1.084445834159851,-0.0427402891218662,-0.3689604103565216,0.0065441164188086,-0.1328130960464477,0.0,0.0,-0.9841300249099731,0.6555287837982178
-0.0555601119995117,1.0757970809936523,-0.0346490405499935,-0.3843774199485779,-0.0014247349463403,-0.1593770533800125,0.0,0.0,-0.9845229983329772,0.7545478343963623
-0.0559300407767295,1.0668067932128906,-0.0278409607708454,-0.3996058404445648,-0.0104630254209041,-0.1807656735181808,0.0,0.0,-0.9924160838127136,-0.0035450458526611
-0.0562968254089355,1.0574699640274048,-0.0278098974376916,-0.415052980184555,-0.0192121881991624,-0.1749831736087799,0.0,0.0,-0.8759336471557617,-0.5363236665725708
-0.0567024238407611,1.047792911529541,-0.0330688692629337,-0.4302116930484772,-0.0266095977276563,-0.1479483246803283,0.0,0.0,-0.988256812095642,-0.8714058995246887
-0.0571566596627235,1.03776752948761,-0.0395535118877887,-0.4456865191459656,-0.0324113070964813,-0.1160341948270797,0.0,0.0,-0.9264990091323853,-0.608677089214325
-0.0576635375618934,1.027395248413086,-0.0465284287929534,-0.4610982239246368,-0.0365176498889923,-0.0821268409490585,0.0,0.0,-0.9914118051528932,-0.8453494310379028
-0.0582233443856239,1.016685962677002,-0.053558487445116,-0.4760215580463409,-0.0389100275933742,-0.0478474870324134,0.0,0.0,-0.9838348627090454,0.1393887996673584
-0.0587799064815044,1.0056294202804563,-0.0535294488072395,-0.4914615452289581,-0.0410074777901172,-0.0419492125511169,0.0,0.0,-0.935600221157074,-0.4184666872024536
-0.0593331344425678,0.9942252039909364,-0.0535009913146495,-0.5069013833999634,-0.0428091511130332,-0.036033421754837,0.0,0.0,-0.9979575872421264,-0.0208643674850463
-0.0598831176757812,0.9824735522270204,-0.0534731969237327,-0.5223410725593567,-0.0443142354488372,-0.0301017425954341,0.0,0.0,-0.9986326694488524,-0.3256832361221313
-0.0604297630488872,0.9703742861747742,-0.0534461438655853,-0.5377807021141052,-0.0455220565199852,-0.0241564828902483,0.0,0.0,-0.9967215657234192,-0.9565021395683287
-0.0610611923038959,0.9579386115074158,-0.0644722804427146,-0.5526635646820068,-0.0442112050950527,0.026216983795166,0.0,0.0,-0.9085136651992798,0.822568416595459
-0.0616109855473041,0.9451478123664856,-0.0546193905174732,-0.5684853792190552,-0.0445743836462497,-0.007263358682394,0.0,0.0,-0.936782956123352,0.1789039373397827
-0.0621576309204101,0.9320096969604492,-0.054594986140728,-0.5839248895645142,-0.0446384437382221,-0.0012812812346965,0.0,0.0,-0.948177456855774,-0.0234655737876892
-0.062700942158699,0.9185237288475036,-0.0545716360211372,-0.5993642807006836,-0.0444029085338115,0.0047105820849537,0.0,0.0,-0.9021910429000854,0.0913960933685302
-0.0632410049438476,0.9046903848648072,-0.0545494146645069,-0.614803671836853,-0.0438673384487628,0.0107112135738134,0.0,0.0,-0.8584073781967163,0.0471007823944091
-0.0637779235839843,0.890509307384491,-0.0545284077525138,-0.630243182182312,-0.0430313572287559,0.0167195331305265,0.0,0.0,-0.7900820374488831,-0.3743330240249634
-0.0643115043640136,0.8759807348251343,-0.0545087270438671,-0.6456826329231262,-0.041894607245922,0.0227349288761615,0.0,0.0,-0.942936897277832,-0.0990453958511352
-0.0648418441414833,0.8611045479774475,-0.0544904395937919,-0.66112220287323,-0.0404567793011665,0.0287563800811767,0.0,0.0,-0.8356027007102966,-0.2815153002738952
-0.0653690323233604,0.8458807468414307,-0.0544736571609973,-0.6765618920326233,-0.0387176238000392,0.0347831919789314,0.0,0.0,-0.3081147670745849,-0.554470419883728
-0.0659434348344802,0.8303148150444031,-0.0607927739620208,-0.6917350888252258,-0.0354054011404514,0.0662444978952407,0.0,0.0,-0.3941498398780823,0.3257203102111816
-0.0665146857500076,0.8144015073776245,-0.0607793219387531,-0.7071755528450012,-0.0317914113402366,0.0722798705101013,0.0,0.0,-0.5517701506614685,0.3605444431304931
-0.0670826882123947,0.7981408834457397,-0.0607676692306995,-0.7226163744926453,-0.0278754811733961,0.0783185809850692,0.0,0.0,-0.7639442682266235,0.582825779914856
-0.0675957649946212,0.7815307974815369,-0.0542669184505939,-0.7381781339645386,-0.024958161637187,0.0583461932837963,0.0,0.0,-0.4666700363159179,0.2757775783538818
-0.0681056976318359,0.7645732164382935,-0.0542591400444507,-0.7536186575889587,-0.0217387005686759,0.064389556646347,0.0,0.0,-0.1104489564895629,0.7823150157928467
-0.0685438141226768,0.7472577095031738,-0.0456220731139183,-0.76955246925354,-0.019949197769165,0.035789918154478,0.0,0.0,-0.0030859112739562,0.3357359170913696
-0.0689787864685058,0.7295947670936584,-0.0456185825169086,-0.7849926352500916,-0.0178574323654174,0.0418355129659175,0.0,0.0,0.5742038488388062,0.0806056261062622
-0.0694051757454872,0.7127180099487305,-0.0450251884758472,-0.7500468492507935,-0.015500258654356,0.0471434220671653,0.0,0.0,0.155387282371521,0.1585309505462646
-0.0697636604309082,0.6963483691215515,-0.0388057865202426,-0.7275142073631287,-0.0125819304957985,0.0583668425679206,0.0,0.0,-0.4993720650672912,0.0383222103118896
-0.0701190009713172,0.6796312928199768,-0.038809597492218,-0.7429551482200623,-0.0093613676726818,0.0644112080335617,0.0,0.0,0.2515434026718139,0.345621109008789
-0.0705671310424804,0.6629447937011719,-0.0479221418499946,-0.741611123085022,-0.0062920763157308,0.0613859519362449,0.0,0.0,0.3889608383178711,0.7463560104370117
-0.0709111243486404,0.646913468837738,-0.0363680869340896,-0.7124986052513123,-0.0043473672121763,0.0388942919671535,0.0,0.0,0.2153289318084716,0.8388833999633789
-0.0712696090340614,0.6311697363853455,-0.0363708324730396,-0.6997187733650208,-0.0038330967072397,0.0102854156866669,0.0,0.0,0.0164350271224975,0.1366883516311645
-0.0716572776436805,0.6157042980194092,-0.0394391566514968,-0.6873505115509033,-0.0031731391791254,0.0131991282105445,0.0,0.0,0.1660343408584594,-0.1472223401069641
-0.0720489472150802,0.6006318926811218,-0.0401036366820335,-0.6698876619338989,-0.002250752877444,0.0184477921575307,0.0,0.0,-0.2374993562698364,0.9411497116088868
-0.0723526030778884,0.5852118134498596,-0.0294262506067752,-0.6853366494178772,-0.0031696688383817,-0.0183786805719137,0.0,0.0,-0.0069659352302551,0.6814749240875244
-0.0725973099470138,0.5694374442100525,-0.0224190093576908,-0.7010904550552368,-0.0051962402649223,-0.040531251579523,0.0,0.0,0.2331531047821045,0.8299944400787354
-0.0726926773786544,0.5537592768669128,-0.0061811422929167,-0.696821928024292,-0.0085067776963114,-0.0662108287215232,0.0,0.0,0.1847764253616333,0.3185889720916748
-0.0726762786507606,0.5383467078208923,0.0041933702304959,-0.6850205659866333,-0.0110290432348847,-0.0504449978470802,0.0,0.0,0.1296041011810302,-0.0082495212554931
-0.0725588798522949,0.5229896306991577,0.0135410455986857,-0.6825522184371948,-0.0128105767071247,-0.0356306433677673,0.0,0.0,0.9142841100692748,0.4528213739395141
-0.0724342316389083,0.508590817451477,0.0139947580173611,-0.6399608254432678,-0.0143231460824608,-0.0302515290677547,0.0,0.0,0.0580297708511352,0.2044389247894287
-0.0722803100943565,0.4945727586746216,0.0165386907756328,-0.6230372786521912,-0.0154452230781316,-0.0224416051059961,0.0,0.0,-0.6508062481880188,0.7857284545898438
-0.0720485672354698,0.4802083969116211,0.0259106997400522,-0.6384434103965759,-0.0181546602398157,-0.0541885793209075,0.0,0.0,-0.2770235538482666,0.5314861536026001
-0.0717654228210449,0.4654898643493652,0.0320150032639503,-0.6542070508003235,-0.0218008588999509,-0.0729242041707038,0.0,0.0,0.8484938144683838,-0.1088992357254028
-0.0715260505676269,0.4512803256511688,0.0276035480201244,-0.6315916776657104,-0.0254221577197313,-0.0724260061979293,0.0,0.0,0.2078049182891845,-0.7141335010528564
-0.0712547302246093,0.4376772344112396,0.0289700683206319,-0.6046140193939209,-0.0272397473454475,-0.0363517478108406,0.0,0.0,-0.4629530906677246,0.3680148124694824
-0.0709811225533485,0.4237266778945923,0.0289095435291528,-0.6200540661811829,-0.0287621170282363,-0.0304476525634527,0.0,0.0,0.7440522909164429,0.6800236701965332
-0.0707694068551063,0.4106978476047516,0.0241145528852939,-0.5791195034980774,-0.0316704101860523,-0.0581656210124492,0.0,0.0,-0.5478532314300537,0.7419917583465576
-0.0704881697893142,0.3973222076892853,0.0324829965829849,-0.5945717096328735,-0.0359743162989616,-0.0860781967639923,0.0,0.0,-0.0886417627334594,-0.8608691096305847
-0.0702786445617675,0.383609414100647,0.0231244638562202,-0.6095128655433655,-0.0381207875907421,-0.0429292730987072,0.0,0.0,0.462422251701355,0.2550952434539795
-0.0701147094368934,0.3705467581748962,0.0186025351285934,-0.5806201696395874,-0.0403152965009212,-0.0438898541033268,0.0,0.0,0.798086404800415,0.5026711225509644
-0.0699159651994705,0.3579466044902801,0.022908478975296,-0.5600922703742981,-0.043304655700922,-0.0597870834171772,0.0,0.0,0.0760149955749511,-0.1565409898757934
-0.0697739571332931,0.3455908298492431,0.0172875374555587,-0.5492356419563293,-0.0463576950132846,-0.0610607154667377,0.0,0.0,0.6165380477905273,-0.5758418440818787
-0.0698101967573165,0.3336683809757232,-0.0015834427904337,-0.5299513936042786,-0.0483739376068115,-0.0403249710798263,0.0,0.0,-0.4470547437667846,0.3775396347045898
-0.0698443427681922,0.321398377418518,-0.0016727990005165,-0.5453911423683167,-0.0501059666275978,-0.0346401818096637,0.0,0.0,0.7062495946884155,0.8139293193817139
-0.0697237029671669,0.3093345165252685,0.0150464233011007,-0.536273181438446,-0.0530485697090625,-0.0588518008589744,0.0,0.0,0.8093254566192627,-0.4332408905029297
-0.0693981200456619,0.2981620132923126,0.0345033295452594,-0.4966262578964233,-0.0549764037132263,-0.0385566689074039,0.0,0.0,0.1693825721740722,-0.5903604030609131
-0.0691050514578819,0.2874748110771179,0.0298258401453495,-0.4750057756900787,-0.0554811544716358,-0.0100951297208666,0.0,0.0,-0.2726905345916748,-0.1230165958404541
-0.0688100829720497,0.2764399945735931,0.0297240875661373,-0.4904450476169586,-0.0557110607624053,-0.0045980014838278,0.0,0.0,0.4276672601699829,-0.7773473262786865
-0.0684733390808105,0.2658067047595978,0.031954251229763,-0.4725253283977508,-0.0540130473673343,0.0339603126049041,0.0,0.0,0.1502943038940429,-0.8180704116821289
-0.0681743621826171,0.2556913495063782,0.0262612793594598,-0.4494456946849823,-0.0504204779863357,0.0718512386083602,0.0,0.0,-0.2796390056610107,0.4140551090240478
-0.0678737610578537,0.2452285885810852,0.0261514782905578,-0.4648861289024353,-0.0465626865625381,0.0771559029817581,0.0,0.0,0.2476528882980346,0.2470684051513672
-0.0674947723746299,0.2349329739809036,0.0334454514086246,-0.4574495851993561,-0.042162001132965,0.0880138799548149,0.0,0.0,-0.0721011757850647,0.777998685836792
-0.0670653358101844,0.2242883294820785,0.0394857116043567,-0.4730047285556793,-0.0387373268604278,0.0684934109449386,0.0,0.0,0.3533835411071777,0.8034415245056152
-0.0666731819510459,0.2139292806386947,0.0372560955584049,-0.4603516459465027,-0.0368043184280395,0.0386603772640228,0.0,0.0,0.6167950630187988,0.735943078994751
-0.0662242919206619,0.2040473818778991,0.044202871620655,-0.4391812980175018,-0.0361327342689037,0.0134315099567174,0.0,0.0,0.4757446050643921,-0.385608434677124
-0.0657338127493858,0.1945309042930603,0.0480151921510696,-0.4229288399219513,-0.0351114347577095,0.0204261429607868,0.0,0.0,0.2090307474136352,-0.4603029489517212
-0.0651373863220214,0.1850564032793045,0.0579220056533813,-0.4210492074489593,-0.033411432057619,0.033999964594841,0.0,0.0,0.1252379417419433,-0.812464714050293
-0.0645116791129112,0.175935685634613,0.0589305981993675,-0.4052892327308655,-0.0298191532492637,0.0718453079462051,0.0,0.0,0.0481876134872436,-0.1795383095741272
-0.0638538375496864,0.1672342419624328,0.0618488304316997,-0.3866578638553619,-0.0259298291057348,0.077786274254322,0.0,0.0,-0.1757954955101013,-0.5859290957450867
