x_pos,y_pos,x_vel,y_vel,angle,ang_vel,leg_1,leg_2,main_booster,lat_booster
-0.0015279769431799,1.4033598899841309,-0.1543324887752533,-0.3360055983066559,0.0013749062782153,0.0270926505327224,0.0,0.0,-0.1820916623625097,0.9126393080739228
-0.0029823302756994,1.3955541849136353,-0.1444255858659744,-0.3469216227531433,0.0003805373271461,-0.0198886655271053,0.0,0.0,0.0906045986715442,-0.9434651325118204
-0.0044100759550929,1.3878766298294067,-0.1433144211769104,-0.3412257432937622,0.000915529904887,0.010700661689043,0.0,0.0,-0.7694543758897068,-0.7549990791217602
-0.0059123039245605,1.379931926727295,-0.1522530019283294,-0.3531025052070617,0.0029159584082663,0.0400122925639152,0.0,0.0,0.6251112143440176,0.6583260566440672
-0.0072299004532396,1.372687816619873,-0.1325060427188873,-0.3219633996486664,0.0036488210316747,0.0146587816998362,0.0,0.0,-0.9291755663056877,0.8976958853260141
-0.0084637645632028,1.365178108215332,-0.1216473206877708,-0.3337575793266296,0.0019365601474419,-0.0342484228312969,0.0,0.0,-0.1809811096507576,-0.6202979568733877
-0.0097506521269679,1.3574039936065674,-0.1280063241720199,-0.3455173075199127,0.0012630372075363,-0.0134717319160699,0.0,0.0,-0.9119105324835164,-0.645135306082653
-0.011077880859375,1.3493671417236328,-0.132807195186615,-0.3571930825710296,0.0013432406121864,0.00160424108617,0.0,0.0,0.1916750220726639,-0.7687387914505929
-0.0124782565981149,1.3419793844223022,-0.1414681375026703,-0.3283449411392212,0.00275837816298,0.0283054150640964,0.0,0.0,0.5784352620293578,-0.9772195035591515
-0.0139599796384572,1.335373878479004,-0.1514067351818084,-0.2935889661312103,0.0059618055820465,0.0640745535492897,0.0,0.0,-0.3729435072196101,-0.6215988110953965
-0.0154849048703908,1.3285038471221924,-0.1566811203956604,-0.3053512275218963,0.0101049747318029,0.0828710198402404,0.0,0.0,-0.0026855969480612,0.915340144220649
-0.0169301033020019,1.3213690519332886,-0.1465752124786377,-0.3171195387840271,0.0121365766972303,0.0406354442238807,0.0,0.0,0.0112451388363161,0.7500872550119977
-0.0182293895632028,1.3146183490753174,-0.1304782778024673,-0.3000295758247375,0.0126843247562646,0.010955961421132,0.0,0.0,-0.1399490009584336,0.7212197446194921
-0.0194652564823627,1.3075976371765137,-0.1225099340081214,-0.3120217323303222,0.0116161834448575,-0.0213647279888391,0.0,0.0,0.2112640013322386,-0.758533483578098
-0.0206502918154001,1.3012280464172363,-0.1190980672836303,-0.2831033170223236,0.0121966050937771,0.0116094890981912,0.0,0.0,0.8713478643290313,0.6697178991016537
-0.0216523166745901,1.2950941324234009,-0.0998230427503585,-0.2726103067398071,0.0118285529315471,-0.0073615694418549,0.0,0.0,-0.7932450920890621,0.6955081267290836
-0.0225858688354492,1.2887051105499268,-0.091343954205513,-0.2839393317699432,0.009833674877882,-0.0399011299014091,0.0,0.0,-0.0666016739834076,0.6723160638846553
-0.0234524719417095,1.282047152519226,-0.0830747261643409,-0.2958940267562866,0.0062879594042897,-0.0709210187196731,0.0,0.0,0.8000493977640148,-0.6561398982212194
-0.0242605209350585,1.276443362236023,-0.0789560079574585,-0.2490495890378952,0.0044575366191565,-0.036611583083868,0.0,0.0,-0.1170784565010176,0.8639199978040815
-0.0250074379146099,1.2705750465393066,-0.0715005546808242,-0.2608124017715454,0.0012945813359692,-0.0632648915052414,0.0,0.0,0.5675080790137319,0.7918790747592678
-0.025556182488799,0.0,-0.050496619194746,-0.2247304320335388,-0.003026682883501,-0.0864328667521476,0.0,0.0,-0.3148086376447561,0.679034773023342
-0.0260475166141986,1.2601938247680664,-0.0435783788561821,-0.2366805970668792,-0.0085149584338068,-0.109775386750698,0.0,0.0,-0.8344750925431061,0.9700171001760256
-0.026442527770996,1.2546024322509766,-0.0318218022584915,-0.2485605925321579,-0.0161122046411037,-0.1519587188959121,0.0,0.0,-0.305006428121986,0.8267360967477773
-0.0267614368349313,1.2487366199493408,-0.0226062983274459,-0.2608276605606079,-0.0252848863601684,-0.183470070362091,0.0,0.0,-0.2757765563177532,0.8399043013633853
-0.0270256996154785,1.242607831954956,-0.016154658049345,-0.2725940644741058,-0.0354512631893157,-0.203345701098442,0.0,0.0,0.0703076297651621,0.6494229807914181
-0.0273259170353412,1.236884832382202,-0.0186037961393594,-0.2546715438365936,-0.0467294715344905,-0.2255640029907226,0.0,0.0,-0.0366282502383226,-0.7746082521536151
-0.027682876214385,1.230907678604126,-0.0261629614979028,-0.2659818232059479,-0.0561507940292358,-0.1884262561798095,0.0,0.0,-0.1204233184949552,0.935431178618499
-0.0279772765934467,1.2246718406677246,-0.0188006274402141,-0.2775822281837463,-0.0666828751564025,-0.2106416523456573,0.0,0.0,-0.7118066886199306,-0.8699695318633226
-0.0283506400883197,1.218187928199768,-0.0291873458772897,-0.2885574996471405,-0.0747415721416473,-0.1611734926700592,0.0,0.0,0.5493510624971745,0.8672729000191517
-0.0286389347165823,1.2121158838272097,-0.0192983206361532,-0.2703813314437866,-0.0841763839125633,-0.1886963844299316,0.0,0.0,0.7005328295745432,0.6131527026801902
-0.0287796016782522,1.207080602645874,-0.0037684894632548,-0.2243981212377548,-0.0943793132901191,-0.2040585577487945,0.0,0.0,-0.8600432321561542,0.9491045126965092
-0.0288504604250192,1.2017674446105957,0.0044486755505204,-0.2369177341461181,-0.1058148220181465,-0.2287102490663528,0.0,0.0,0.4793855274342664,0.6858404093634294
-0.0288665778934955,1.1972723007202148,0.0109984492883086,-0.2007254809141159,-0.1183380037546157,-0.2504638135433197,0.0,0.0,0.7426309313594113,-0.6158258073708587
-0.0289527885615825,1.193096399307251,0.0024563034530729,-0.1865134388208389,-0.1293684989213943,-0.2206098139286041,0.0,0.0,0.5919143287652815,0.7036126096420439
-0.0288830753415823,1.18954336643219,0.0189577434211969,-0.1589992493391037,-0.1413085013628006,-0.2387997359037399,0.0,0.0,-0.9397530700733892,-0.6740241188010246
-0.0288580898195505,1.1857424974441528,0.0126744136214256,-0.1699272841215133,-0.1514657288789749,-0.203144833445549,0.0,0.0,-0.8097756797458238,-0.9821706353329414
-0.0289078708738088,1.1816905736923218,0.002662437967956,-0.1808803528547287,-0.1590896397829055,-0.1524779796600341,0.0,0.0,-0.0867314360074624,0.6506258835959975
-0.0288968086242675,1.177366018295288,0.009603421203792,-0.193137839436531,-0.1675985008478164,-0.1701774597167968,0.0,0.0,-0.6714776254269139,0.6124901820509762
-0.0288341529667377,1.1727724075317385,0.0153929237276315,-0.2052242904901504,-0.1767425537109375,-0.1828813403844833,0.0,0.0,-0.7792124471172563,-0.9615444863912044
-0.0288362503051757,1.1679340600967407,0.006559400819242,-0.2158567607402801,-0.1835312098264694,-0.1357732713222503,0.0,0.0,-0.5816454597042264,0.6107103146133877
-0.0287920944392681,1.1628248691558838,0.0116438250988721,-0.2279881983995437,-0.190797820687294,-0.1453323066234588,0.0,0.0,-0.8402097225189209,-0.952284574508667
-0.0288004875183105,1.1574653387069702,0.0043528443202376,-0.2388810068368911,-0.1960108131170272,-0.1042602658271789,0.0,0.0,-0.4173859357833862,-0.9973961710929872
-0.0288683883845806,1.151848554611206,-0.0038154248613864,-0.2500301599502563,-0.1990082561969757,-0.0599484220147132,0.0,0.0,-0.572024405002594,-0.9730929136276244
-0.028992747887969,1.1459829807281494,-0.0116271907463669,-0.2607984244823456,-0.1998238414525985,-0.0163118299096822,0.0,0.0,-0.4727835655212402,-0.9936580061912536
-0.0291940681636333,1.1398650407791138,-0.0219783391803503,-0.2716621160507202,-0.1979590803384781,0.0372952334582805,0.0,0.0,-0.918471097946167,-0.7942456603050232
-0.0294463150203228,1.1334905624389648,-0.0290962513536214,-0.2828043103218078,-0.1940624117851257,0.0779333040118217,0.0,0.0,-0.8321161866188049,0.2245939970016479
-0.0296915061771869,1.126850128173828,-0.028962168842554,-0.2945498824119568,-0.1895962059497833,0.0893244296312332,0.0,0.0,-0.7795432806015015,-0.5963630080223083
-0.0299836155027151,1.1199665069580078,-0.0356480590999126,-0.3051333427429199,-0.1831304132938385,0.1293160021305084,0.0,0.0,-0.6622546911239624,-0.447081446647644
-0.0302684791386127,1.1128175258636477,-0.035509880632162,-0.3168815076351166,-0.1760848462581634,0.1409115493297577,0.0,0.0,-0.908522129058838,-0.577735185623169
-0.0305928234010934,1.1054143905639648,-0.0412364676594734,-0.3280099332332611,-0.1672572195529937,0.1765522062778473,0.0,0.0,-0.8522669076919556,0.4194886684417724
-0.0309096332639455,1.0977466106414795,-0.0410948060452938,-0.3397617042064667,-0.1578413248062133,0.1883174628019333,0.0,0.0,-0.62968510389328,0.6537330150604248
-0.0311723705381155,1.0898075103759766,-0.0351071134209632,-0.3519386053085327,-0.1490145027637481,0.176536425948143,0.0,0.0,-0.6436904668807983,0.5703532695770264
-0.0313752181828022,1.0815887451171875,-0.0283743850886821,-0.3644932210445404,-0.1409420520067215,0.161448672413826,0.0,0.0,-0.943966031074524,0.2651498317718506
-0.0315705314278602,1.0731053352355957,-0.0282267574220895,-0.3762450814247131,-0.1322714686393737,0.1734114289283752,0.0,0.0,-0.8710101246833801,0.84653639793396
-0.0316757187247276,1.0643374919891355,-0.0177100710570812,-0.3890607953071594,-0.1251112967729568,0.1432034075260162,0.0,0.0,-0.9841208457946776,0.5693777799606323
-0.0317358002066612,1.05529522895813,-0.0128597784787416,-0.4013199210166931,-0.1183058395981788,0.1361093968153,0.0,0.0,-0.9496746063232422,0.8753906488418579
-0.0317081436514854,1.0459818840026855,-0.0026636882685124,-0.4135067760944366,-0.1129120737314224,0.1078753843903541,0.0,0.0,-0.9643893241882324,0.8637927770614624
-0.0315891280770301,1.0363926887512207,0.0079937586560845,-0.4258939325809479,-0.1090288460254669,0.0776645615696907,0.0,0.0,-0.9462998509407043,0.5432558059692383
-0.0314139351248741,1.026535987854004,0.0142185147851705,-0.4378358423709869,-0.1057537719607353,0.0655014812946319,0.0,0.0,-0.8952505588531494,0.2328944206237793
-0.031231116503477,1.0164141654968262,0.0143760200589895,-0.4495849311351776,-0.1018698588013649,0.0776782184839248,0.0,0.0,-0.8686243295669556,0.6412750482559204
-0.0309861190617084,1.0060133934020996,0.021370880305767,-0.4620490670204162,-0.0987658500671386,0.0620803460478782,0.0,0.0,-0.8935739398002625,0.142480731010437
-0.030733298510313,0.9953474402427672,0.0215308405458927,-0.4737983644008636,-0.0950518324971199,0.0742803961038589,0.0,0.0,-0.9799230098724364,0.5111963748931885
-0.0304244048893451,0.9844083189964294,0.0277736634016037,-0.485992431640625,-0.0919560566544532,0.0619154646992683,0.0,0.0,-0.9417386651039124,0.4995324611663818
-0.0301076881587505,0.9732040166854858,0.0279358327388763,-0.497742086648941,-0.0882502198219299,0.0741166323423385,0.0,0.0,-0.9458627700805664,0.7133731842041016
-0.0297264102846384,0.9617220163345336,0.0352162420749664,-0.5101476907730103,-0.0853763818740844,0.0574770495295524,0.0,0.0,-0.6921696066856384,0.0854640007019043
-0.0293375011533498,0.9499749541282654,0.0353804491460323,-0.521897554397583,-0.0818934887647628,0.0696576461195945,0.0,0.0,-0.8650413155555725,0.2626473903656006
-0.0289406776428222,0.937962770462036,0.0355455577373504,-0.5336479544639587,-0.0778024867177009,0.0818200781941413,0.0,0.0,-0.9576093554496764,0.8557279109954834
-0.0284599307924509,0.9256666898727416,0.0452854186296463,-0.5463521480560303,-0.0750441327691078,0.0551672056317329,0.0,0.0,-0.971263825893402,0.0079816579818725
-0.0279714576900005,0.9131056666374208,0.0454523488879203,-0.5581026077270508,-0.0716802775859832,0.0672772824764251,0.0,0.0,-0.9654634594917296,0.0762691497802734
-0.0274751670658588,0.900279700756073,0.0456200800836086,-0.5698534846305847,-0.067712627351284,0.0793531686067581,0.0,0.0,-0.9668815732002258,-0.0318674445152282
-0.0269710533320903,0.8871889114379883,0.0457885824143886,-0.5816049575805664,-0.063143141567707,0.0913895964622497,0.0,0.0,-0.8083434700965881,0.7462689876556396
-0.0263972282409667,0.8738290667533875,0.0537372604012489,-0.5936225652694702,-0.0595352500677108,0.0721578449010849,0.0,0.0,-0.980396032333374,-0.2123486995697021
-0.0258155819028615,0.8602044582366943,0.0539073124527931,-0.6053742170333862,-0.0553302951157093,0.0840991884469986,0.0,0.0,-0.7980146408081055,0.3750948905944824
-0.0252263061702251,0.8463152050971985,0.0540780611336231,-0.6171265244483948,-0.0505310483276844,0.0959848314523696,0.0,0.0,-0.9477786421775818,0.4037022590637207
-0.0246293060481548,0.8321616053581238,0.054249495267868,-0.6288794875144958,-0.0451406016945838,0.1078091114759445,0.0,0.0,-0.9262202382087708,0.7658843994140625
-0.023957347497344,0.8177306056022644,0.0628526359796524,-0.6412476301193237,-0.0408595167100429,0.085621953010559,0.0,0.0,-0.9475730061531068,0.4902294874191284
-0.0232778545469045,0.8030353784561157,0.0630254819989204,-0.6530006527900696,-0.0359941609203815,0.097306951880455,0.0,0.0,-0.922903060913086,0.7629928588867188
-0.0225309375673532,0.7880790829658508,0.0706818476319313,-0.6646273732185364,-0.0320443324744701,0.078996792435646,0.0,0.0,-0.9649470448493958,-0.0497751235961914
-0.0217765811830759,0.7728585600852966,0.0708560049533844,-0.6763806939125061,-0.0275183618068695,0.0905193835496902,0.0,0.0,-0.9286215901374816,0.3933699131011963
-0.0210146903991699,0.757373571395874,0.0710307732224464,-0.6881346106529236,-0.0224207565188407,0.1019518747925758,0.0,0.0,-0.889443039894104,0.66152024269104
-0.0202042572200298,0.7416161894798279,0.0763521417975425,-0.7002696394920349,-0.0177898928523063,0.0926174372434616,0.0,0.0,-0.8452044129371643,0.815904974937439
-0.019317340105772,0.7255997657775879,0.0851800143718719,-0.7118030786514282,-0.0143282171338796,0.0692336708307266,0.0,0.0,-0.9020169377326964,0.5453629493713379
-0.0183871276676654,0.7093179821968079,0.0898603349924087,-0.7236020565032959,-0.0112123424187302,0.062317781150341,0.0,0.0,-0.9123950004577636,0.3864927291870117
-0.0174496658146381,0.6927720904350281,0.0900375470519065,-0.7353559136390686,-0.0075458856299519,0.0733288452029228,0.0,0.0,-0.8664006590843201,0.5890374183654785
-0.0164590831845998,0.6759641766548157,0.0959495529532432,-0.7470055222511292,-0.0044829840771853,0.0612579695880413,0.0,0.0,-0.8404316902160645,-0.180015742778778
-0.0154613498598337,0.6588918566703796,0.0961278527975082,-0.758759617805481,-0.0008819712675176,0.0720203518867492,0.0,0.0,-0.6645761728286743,0.3793272972106933
-0.0144564630463719,0.6415553689002991,0.096306674182415,-0.770514190196991,0.0032504717819392,0.0826485902070999,0.0,0.0,-0.5445289611816406,0.5776089429855347
-0.0133916856721043,0.6239506602287292,0.1031058877706527,-0.7824429869651794,0.0065817711874842,0.0666259452700614,0.0,0.0,-0.6914917230606079,0.283587098121643
-0.0123198507353663,0.6060816049575806,0.1032857075333595,-0.7941977977752686,0.010430091060698,0.0769662410020828,0.0,0.0,-0.5877013802528381,0.319007396697998
-0.011241054162383,0.5879485011100769,0.1034659594297409,-0.8059530258178711,0.014787727035582,0.0871525034308433,0.0,0.0,-0.1632682085037231,0.5880222320556641
-0.0101093295961618,0.5695565938949585,0.1094259172677993,-0.8174615502357483,0.018487986177206,0.0740051567554473,0.0,0.0,0.5611094236373901,0.1270899772644043
-0.0089547159150242,0.5519763231277466,0.1110705286264419,-0.7814069986343384,0.0228164289146661,0.0865688845515251,0.0,0.0,-0.2116268873214721,0.312950849533081
-0.0077934265136718,0.5341319441795349,0.1112519726157188,-0.7931630611419678,0.0276290718466043,0.0962530970573425,0.0,0.0,0.3242981433868408,0.5221402645111084
-0.0065036774612963,0.5164157748222351,0.1244749799370765,-0.7874727845191956,0.0320789702236652,0.0889979153871536,0.0,0.0,0.2579374313354492,-0.3756009340286255
-0.0052597997710108,0.499015063047409,0.1196032911539077,-0.7734750509262085,0.0368096269667148,0.0946131199598312,0.0,0.0,0.668886661529541,-0.0391565561294555
-0.0039560319855809,0.4826616048812866,0.1247245445847511,-0.7269691228866577,0.0423919074237346,0.111645720899105,0.0,0.0,0.2967934608459472,-0.0583130717277526
-0.0026831626892089,0.4667127430438995,0.1212725266814231,-0.709021270275116,0.0483356826007366,0.1188755184412002,0.0,0.0,0.0874123573303222,0.5734750032424927
-0.001475429511629,0.4512864649295807,0.1156255602836608,-0.6857873797416687,0.0534301809966564,0.1018899902701377,0.0,0.0,-0.5058503746986389,0.6379919052124023
-0.0002039909304585,0.435604065656662,0.1230374425649643,-0.6971439719200134,0.0574961230158805,0.0813185051083564,0.0,0.0,0.3329787254333496,0.0071603059768676
0.0009956359863281,0.4205606579780578,0.1156332045793533,-0.6687696576118469,0.0617765747010707,0.0856092050671577,0.0,0.0,-0.6390432715415955,0.5473008155822754
0.0022382736206054,0.4052606225013733,0.1204787343740463,-0.6801595687866211,0.0655195340514183,0.0748589783906936,0.0,0.0,-0.3255733251571655,-0.1387913823127746
0.0034866333007812,0.3896968066692352,0.1206607222557067,-0.6919164061546326,0.0696542188525199,0.0826938450336456,0.0,0.0,0.6572808027267456,0.2690707445144653
0.0045819282531738,0.3747595548629761,0.1055183410644531,-0.6640701293945312,0.0736276432871818,0.0794685333967208,0.0,0.0,0.5375170707702637,0.1272587776184082
0.0055073737166821,0.3602720499038696,0.0888039246201515,-0.6440754532814026,0.0773214325308799,0.0738758072257042,0.0,0.0,0.6993238925933838,0.8295416831970215
0.0065663335844874,0.3466525077819824,0.1032632738351821,-0.6054524779319763,0.0799310058355331,0.0521914772689342,0.0,0.0,-0.0631113052368164,0.3316469192504883
0.0076306341215968,0.3327689468860626,0.1034426093101501,-0.6172088384628296,0.0828842744231224,0.0590654835104942,0.0,0.0,0.2728152275085449,0.0514358282089233
0.008762645535171,0.3195139169692993,0.1093715876340866,-0.5893279314041138,0.0866857171058654,0.0760284960269928,0.0,0.0,0.3833770751953125,0.3897217512130737
0.0098244668915867,0.3069635927677154,0.1021060720086097,-0.5580339431762695,0.090717077255249,0.0806275755167007,0.0,0.0,-0.4305142164230346,0.7302219867706299
0.010961627587676,0.2941675186157226,0.1111635118722915,-0.5688742399215698,0.0932513773441314,0.0506857931613922,0.0,0.0,0.299574613571167,-0.0785014629364013
0.0121208187192678,0.2817966938018799,0.1127884760499,-0.5500124096870422,0.0963561907410621,0.0620962865650653,0.0,0.0,0.4477231502532959,0.3143262863159179
0.0132094379514455,0.2702292203903198,0.1054798737168312,-0.5143316984176636,0.0997117683291435,0.06711146235466,0.0,0.0,0.0973637104034423,4.267692565917969e-05
0.014290427789092,0.2591845989227295,0.1042651161551475,-0.491132527589798,0.1035207211971283,0.0761788636445999,0.0,0.0,0.7567343711853027,-0.4015418291091919
0.0154105182737112,0.2486167550086975,0.1075181812047958,-0.4700001776218414,0.1079799085855484,0.0891838520765304,0.0,0.0,0.4475665092468261,0.1024599075317382
0.0163697246462106,0.2385756373405456,0.0916899815201759,-0.4465850591659546,0.1121842861175537,0.0840873271226883,0.0,0.0,0.7787299156188965,0.561854362487793
0.0171683318912982,0.2290778309106826,0.0769318416714668,-0.4223479330539703,0.1150958389043808,0.0582311935722827,0.0,0.0,0.852386474609375,-0.2131851911544799
0.0178742408752441,0.2202537208795547,0.0675455629825592,-0.3924222290515899,0.1181106939911842,0.0602972693741321,0.0,0.0,0.802818775177002,0.2263951301574707
0.0185431484133005,0.2120376378297805,0.0635225400328636,-0.3654298186302185,0.1214588060975074,0.0669624358415603,0.0,0.0,0.8388978242874146,-0.185239553451538
0.0193111412227153,0.2041799128055572,0.0725750476121902,-0.3495804667472839,0.1256687343120575,0.0841988176107406,0.0,0.0,0.844780683517456,0.29414963722229
0.0200947765260934,0.1972150355577469,0.0734422802925109,-0.3099713623523712,0.1305589079856872,0.0978034809231758,0.0,0.0,0.5231952667236328,0.3167121410369873
0.0208073612302541,0.1910968869924545,0.0660836771130561,-0.2723804414272308,0.1357203722000122,0.1032293811440467,0.0,0.0,0.0539867877960205,-0.0788707733154296
0.0215361602604389,0.1850189268589019,0.0673587471246719,-0.27064248919487,0.1412218958139419,0.1100303903222084,0.0,0.0,0.5359950065612793,-0.0637251138687133
