x_pos,y_pos,x_vel,y_vel,angle,ang_vel,leg_1,leg_2,main_booster,lat_booster
-0.001577568007633,1.40312922000885,-0.1598373055458068,-0.3462643921375274,0.0018523276085034,0.0365460291504859,0.0,0.0,0.3570450875208102,0.6006226258486315
-0.0031191825401037,1.3954317569732666,-0.1549381166696548,-0.3421080708503723,0.0026196441613137,0.0153484074398875,0.0,0.0,-0.0259994487574073,-0.6603667248388567
-0.0047607421875,1.3872334957122805,-0.166016548871994,-0.3643724024295807,0.0044518555514514,0.0366476401686668,0.0,0.0,0.9744668001155848,-0.922479908308422
-0.0066966055892407,1.3794310092926023,-0.1969977170228958,-0.346786618232727,0.0078349346294999,0.0676679164171218,0.0,0.0,0.9437395510344236,0.6699901308582588
-0.0084875104948878,1.372288703918457,-0.1816713660955429,-0.3174527883529663,0.0103870434686541,0.0510467067360878,0.0,0.0,0.8466005585248086,-0.5716160355560191
-0.0102334022521972,1.3655626773834229,-0.1788493990898132,-0.2989726960659027,0.0146007137373089,0.0842811539769172,0.0,0.0,-0.4362513845154991,0.7613959923249405
-0.0119915008544921,1.3583427667617798,-0.1786591410636901,-0.3209201395511627,0.0174180064350366,0.0563511960208416,0.0,0.0,0.4115928018732895,0.526063748892136
-0.0136521337553858,1.3514628410339355,-0.1682785600423813,-0.3058005273342132,0.0196029115468263,0.0437023974955081,0.0,0.0,-0.782112884861722,-0.6317451043990983
-0.0154383657500147,1.3440929651260376,-0.1821806579828262,-0.3275998830795288,0.0231235492974519,0.070419393479824,0.0,0.0,-0.5811394573817832,0.6485151598014371
-0.017250632867217,1.3362338542938232,-0.1835582107305526,-0.3493329584598541,0.025421991944313,0.0459731519222259,0.0,0.0,0.0662583231367766,-0.8037317671671337
-0.0191507339477539,1.328455686569214,-0.1940431147813797,-0.3457786738872528,0.0294145178049802,0.0798580795526504,0.0,0.0,0.0128207174051175,-0.549054310835833
-0.0211367607116699,1.3206666707992554,-0.2038860321044922,-0.346282809972763,0.0346382521092891,0.1044841408729553,0.0,0.0,-0.7829529774148811,-0.9805788674594736
-0.023267364129424,1.3123849630355835,-0.2199494391679763,-0.3682539165019989,0.041453581303358,0.1363193094730377,0.0,0.0,0.3595792412545568,-0.8177832887378765
-0.0254961010068655,1.3040391206741333,-0.231561928987503,-0.371189683675766,0.0500441379845142,0.1718267500400543,0.0,0.0,0.7916628234114029,0.6860327933852639
-0.0276384353637695,1.2965617179870603,-0.2220188081264495,-0.332606703042984,0.0577447935938835,0.154027372598648,0.0,0.0,-0.7227731369515789,0.8677633984435956
-0.0297898296266794,1.2885862588882446,-0.2209248840808868,-0.3546971678733825,0.0634852796792984,0.1148200258612632,0.0,0.0,0.84695461788222,-0.7232571134330424
-0.031984232366085,1.2815666198730469,-0.2271648347377777,-0.3123222887516022,0.071132093667984,0.1529501229524612,0.0,0.0,0.3466646645541715,-0.6887405756029612
-0.0342196449637413,1.2745115756988523,-0.2329348623752594,-0.3140272200107574,0.0804461315274238,0.1862976998090744,0.0,0.0,-0.0845614131245671,0.5036317653805102
-0.0365050323307514,1.2669726610183716,-0.2368333041667938,-0.3355266451835632,0.0886744782328605,0.1645816266536712,0.0,0.0,0.5067536703529563,0.8761226930508625
-0.0389471054077148,1.2597084045410156,-0.2507085800170898,-0.3232580125331878,0.0951310917735099,0.1291436851024627,0.0,0.0,-0.4160646947504125,0.7711959745920669
-0.041415024548769,1.2519651651382446,-0.2515005469322204,-0.3444471359252929,0.0998090729117393,0.0935680046677589,0.0,0.0,-0.723148068787663,0.5391946305399324
-0.0439400672912597,1.243730545043945,-0.2561923861503601,-0.3662346601486206,0.1034788638353347,0.0734021961688995,0.0,0.0,0.4766755437199119,0.832027117684957
-0.04642229154706,0.0,-0.250519335269928,-0.3545799553394317,0.1057605147361755,0.0456370636820793,0.0,0.0,-0.774970086296066,0.6883878589841704
-0.0489469543099403,1.2272884845733645,-0.2533134222030639,-0.3764033019542694,0.1066029891371727,0.0168508999049663,0.0,0.0,0.5968693846774329,-0.964806702201413
-0.0518730171024799,1.2192190885543823,-0.2952955365180969,-0.3588301837444305,0.109277606010437,0.0534970983862876,0.0,0.0,-0.1172063351047785,0.7514062622019223
-0.0548590645194053,1.2106446027755735,-0.3002494871616363,-0.3812108337879181,0.1109071224927902,0.0325905606150627,0.0,0.0,-0.0248539407881631,0.8602809349057204
-0.0578847900032997,1.2015916109085083,-0.3025678396224975,-0.402352511882782,0.1109014302492141,-0.0001135609127231,0.0,0.0,-0.3790389436624615,-0.6045781078667445
-0.0610773079097271,1.192040205001831,-0.3208187520503998,-0.4246273338794708,0.1124560087919235,0.0310915000736713,0.0,0.0,0.7802008945526362,-0.7460267815599881
-0.0646846741437912,1.1832081079483032,-0.3635594844818115,-0.3927541375160217,0.115264281630516,0.0561655238270759,0.0,0.0,-0.5147568041401709,0.9364760181799794
-0.0683313384652137,1.1738896369934082,-0.3657814264297485,-0.4142354726791382,0.1163669005036354,0.0220524724572896,0.0,0.0,-0.0833060798624287,-0.7737699807165546
-0.0721493735909462,1.1640745401382446,-0.3845091462135315,-0.4364396929740906,0.1190591678023338,0.0538452938199043,0.0,0.0,-0.8266189694404602,0.9917399883270264
-0.0760117545723915,1.1537706851959229,-0.3873095512390136,-0.4580297172069549,0.1201279461383819,0.0213755071163177,0.0,0.0,-0.814274787902832,0.981391668319702
-0.0799218192696571,1.1429930925369265,-0.3904847502708435,-0.4789642691612243,0.1196007505059242,-0.0105438278988003,0.0,0.0,-0.6698126196861267,0.9959442615509032
-0.0838757529854774,1.1317239999771118,-0.3931683003902435,-0.5006732940673828,0.1173989623785018,-0.0440361127257347,0.0,0.0,-0.846349835395813,0.9981160163879396
-0.087864302098751,1.1199761629104614,-0.3946883082389831,-0.5218001008033752,0.1132500246167182,-0.0829788520932197,0.0,0.0,-0.6827242374420166,0.987000584602356
-0.0918894782662391,1.1077545881271362,-0.396397054195404,-0.5427271127700806,0.1071693450212478,-0.1216136664152145,0.0,0.0,-0.7450708746910095,0.995126724243164
-0.0959561318159103,1.0950456857681274,-0.3987172245979309,-0.5642943978309631,0.0992928966879844,-0.1575291603803634,0.0,0.0,-0.6851201057434082,0.959209680557251
-0.1000600829720497,1.0818620920181274,-0.4005035758018493,-0.5853165984153748,0.0894816368818283,-0.1962251514196396,0.0,0.0,-0.4276906847953796,0.9843642711639404
-0.1042099967598915,1.0682053565979004,-0.4033407270908355,-0.6063091158866882,0.0779350325465202,-0.2309319078922271,0.0,0.0,-0.739366352558136,0.9785804748535156
-0.1083975806832313,1.054066181182861,-0.4051286578178406,-0.6277498602867126,0.0644496381282806,-0.2697077095508575,0.0,0.0,-0.8128805756568909,0.9928642511367798
-0.1126397103071212,1.0394492149353027,-0.40904101729393,-0.6490584015846252,0.0494387596845626,-0.3002173900604248,0.0,0.0,-0.8013957142829895,0.97975492477417
-0.1169077903032302,1.0243451595306396,-0.4093386530876159,-0.6708020567893982,0.0321821719408035,-0.3451318442821502,0.0,0.0,-0.9357122778892516,0.9901803731918336
-0.1212040930986404,1.0087438821792605,-0.4099536836147308,-0.6930808424949646,0.0127429813146591,-0.3887839913368225,0.0,0.0,-0.8518418669700623,0.9634122848510742
-0.1255314797163009,0.992652952671051,-0.4108932018280029,-0.7151176929473877,-0.0088240634649991,-0.4313407838344574,0.0,0.0,-0.7627224326133728,0.9923222064971924
-0.1299057900905609,0.9760605692863464,-0.4138247966766357,-0.7377458810806274,-0.0321273989975452,-0.4660670757293701,0.0,0.0,0.1419084072113037,0.9704623222351074
-0.1342786848545074,0.9593116044998168,-0.4118494391441345,-0.7451406121253967,-0.0572581477463245,-0.5026152729988098,0.0,0.0,0.4257441759109497,0.9732321500778198
-0.1386124640703201,0.9426365494728088,-0.4061841964721679,-0.7423709630966187,-0.0841750502586364,-0.5383380055427551,0.0,0.0,0.3740743398666382,0.6600584983825684
-0.143058493733406,0.926526129245758,-0.4160528779029846,-0.7178622484207153,-0.1124869361519813,-0.5662380456924438,0.0,0.0,-0.171234905719757,0.7712587118148804
-0.1475766152143478,0.9099300503730774,-0.4222555160522461,-0.7400864362716675,-0.1418909877538681,-0.5880812406539917,0.0,0.0,0.3987112045288086,0.9450981616973876
-0.1521000862121582,0.8934760093688965,-0.4211111962795257,-0.7345629930496216,-0.1730974465608596,-0.6241299510002136,0.0,0.0,0.4132426977157593,0.6520904302597046
-0.1564749777317047,0.8772131204605103,-0.4054791331291199,-0.7268474102020264,-0.205250009894371,-0.6430519819259644,0.0,0.0,0.5057039260864258,-0.6393815279006958
-0.160936638712883,0.8614906668663025,-0.4156442284584045,-0.70331209897995,-0.2361296713352203,-0.6175936460494995,0.0,0.0,-0.3665550947189331,0.6470564603805542
-0.1654589623212814,0.8452609181404114,-0.4205087721347809,-0.7267405390739441,-0.2684512138366699,-0.6464315056800842,0.0,0.0,0.6836376190185547,-0.3742368221282959
-0.1698804795742035,0.8297230005264282,-0.4108292460441589,-0.6966384649276733,-0.3006549179553985,-0.6440743207931519,0.0,0.0,0.3868715763092041,-0.9677249789237976
-0.1742346733808517,0.814254879951477,-0.4064697623252868,-0.693750262260437,-0.3307001888751983,-0.6009052395820618,0.0,0.0,0.6831583976745605,-0.9752784371376038
-0.1787277162075042,0.7990691065788269,-0.42251056432724,-0.681306779384613,-0.3587902784347534,-0.5618019104003906,0.0,0.0,0.5184444189071655,-0.8159888386726379
-0.1830490082502365,0.7844156622886658,-0.4074158668518066,-0.657668948173523,-0.3849588334560394,-0.5233708620071411,0.0,0.0,0.4709532260894775,-0.9611440896987916
-0.1872011125087738,0.7700759768486023,-0.3928068280220032,-0.6435575485229492,-0.408928245306015,-0.479388952255249,0.0,0.0,0.8780450820922852,-0.9916903972625732
-0.191080093383789,0.7565344572067261,-0.3678378164768219,-0.6078023910522461,-0.4305955767631531,-0.4333465695381164,0.0,0.0,0.9362385272979736,-0.9642004370689392
-0.1948475837707519,0.7438740134239197,-0.3586761951446533,-0.5683457255363464,-0.4503099024295807,-0.3942864537239074,0.0,0.0,0.7686381340026855,-0.861416757106781
-0.1985677778720855,0.7312551736831665,-0.3559026718139648,-0.5661321878433228,-0.4680418074131012,-0.3546381592750549,0.0,0.0,0.3730697631835937,-0.8345046043395996
-0.2022821903228759,0.7190361618995667,-0.3570488393306732,-0.5480092763900757,-0.484020471572876,-0.3195731043815613,0.0,0.0,0.5606669187545776,-0.8416931629180908
-0.2058288156986236,0.7069255709648132,-0.3422039151191711,-0.542678952217102,-0.497964859008789,-0.2788878083229065,0.0,0.0,0.7480484247207642,-0.9293010830879213
-0.2092200219631195,0.6952091455459595,-0.3285964429378509,-0.5245931148529053,-0.5098190903663635,-0.2370846569538116,0.0,0.0,0.6233518123626709,-0.6233835220336914
-0.2125705182552337,0.6835395693778992,-0.3258405327796936,-0.5221204161643982,-0.520255446434021,-0.2087274044752121,0.0,0.0,0.8837985992431641,-0.7575954794883728
-0.2158840149641037,0.6724109053611755,-0.323404312133789,-0.4976698458194732,-0.5293213725090027,-0.1813187450170517,0.0,0.0,0.8959108591079712,-0.5243691802024841
-0.2188253849744796,0.6620752215385437,-0.2873448431491852,-0.4620356261730194,-0.5371038913726807,-0.1556505858898162,0.0,0.0,0.6724857091903687,-0.7667765617370605
-0.2217036187648773,0.6515938639640808,-0.2826775014400482,-0.4678964018821716,-0.5430231690406799,-0.1183850392699241,0.0,0.0,0.7625666856765747,-0.8372090458869934
-0.2242475003004074,0.6418204307556152,-0.2509357929229736,-0.4357638359069824,-0.5470069646835327,-0.0796760842204094,0.0,0.0,0.97084379196167,-0.6830286979675293
-0.2267570495605468,0.6324079632759094,-0.2485847771167755,-0.4193012118339538,-0.5497487187385559,-0.0548364147543907,0.0,0.0,0.882591724395752,-0.5767741203308105
-0.2291045188903808,0.6236110329627991,-0.2332607209682464,-0.3915838003158569,-0.5514714121818542,-0.0344534665346145,0.0,0.0,0.927692413330078,-0.8436902165412903
-0.2312006056308746,0.6152681708335876,-0.2098112851381302,-0.3707129061222076,-0.5512372255325317,0.004684136249125,0.0,0.0,0.920600414276123,-0.8994730114936829
-0.2330843955278396,0.6078767776489258,-0.1900771707296371,-0.3278084695339203,-0.5492710471153259,0.0393232218921184,0.0,0.0,0.961773157119751,-0.7144955396652222
-0.2346812784671783,0.6008368730545044,-0.1629611551761627,-0.3115516304969787,-0.5454857349395752,0.0757059156894683,0.0,0.0,0.9402085542678832,-0.6201081871986389
-0.2362209260463714,0.5939568281173706,-0.1583634912967682,-0.3040126264095306,-0.5404194593429565,0.1013253182172775,0.0,0.0,0.9773857593536376,-0.3365709185600281
-0.2375905960798263,0.5870189070701599,-0.1417678296566009,-0.3064435422420501,-0.5349011421203613,0.1103662252426147,0.0,0.0,0.9016234874725342,-0.3843600749969482
-0.2388902157545089,0.5801174640655518,-0.134696751832962,-0.3048693537712097,-0.5294768810272217,0.1084850803017616,0.0,0.0,0.9761462211608888,-0.7718018889427185
-0.2398650199174881,0.5740087032318115,-0.1037176698446273,-0.2690822780132293,-0.5223543643951416,0.1424505859613418,0.0,0.0,0.6535537242889404,-0.7487195730209351
-0.2404973059892654,0.5684507489204407,-0.0711060613393783,-0.2440267503261566,-0.5134028792381287,0.1790297925472259,0.0,0.0,-0.0004047155380249,-0.2777323722839355
-0.2412199079990387,0.5623978972434998,-0.0802442133426666,-0.2660419046878814,-0.504382312297821,0.1804113686084747,0.0,0.0,0.6674766540527344,-0.8468082547187805
-0.242056131362915,0.5564348697662354,-0.093083769083023,-0.2615804970264435,-0.4937398731708526,0.2128489017486572,0.0,0.0,0.3282637596130371,-0.4473843574523926
-0.2426471710205078,0.5507939457893372,-0.0688105747103691,-0.2472670525312423,-0.4828824698925018,0.217147558927536,0.0,0.0,0.3120996952056885,-0.415979266166687
-0.2431786954402923,0.5453218817710876,-0.0626375675201416,-0.2399249672889709,-0.4723345637321472,0.2109579294919967,0.0,0.0,0.1229805946350097,-0.5708593130111694
-0.2436545342206955,0.5400316715240479,-0.0582059919834136,-0.231541097164154,-0.4605888724327087,0.2349133044481277,0.0,0.0,0.5524086952209473,-0.5655813217163086
-0.2439623773097992,0.5351707935333252,-0.0425876080989837,-0.2121910601854324,-0.4476264715194702,0.2592477798461914,0.0,0.0,-0.4328360557556152,-0.346707284450531
-0.2443410903215408,0.5298164486885071,-0.0497941896319389,-0.2342138886451721,-0.4346092641353607,0.2603444755077362,0.0,0.0,-0.2473030686378479,-0.2910539507865906
-0.2447867393493652,0.523968517780304,-0.0566089153289794,-0.2562370896339416,-0.4215402007102966,0.2613810300827026,0.0,0.0,0.3577942848205566,0.2213082313537597
-0.2450902909040451,0.5180333256721497,-0.0428397767245769,-0.2601135671138763,-0.4080699980258941,0.269404262304306,0.0,0.0,0.2115153074264526,-0.1492692828178405
-0.2451871335506439,0.5121172666549683,-0.0227512456476688,-0.2592346966266632,-0.3940556943416595,0.28028604388237,0.0,0.0,0.2952098846435547,0.0031063556671142
-0.2451183348894119,0.5060734748840332,-0.0067772320471704,-0.2648943364620209,-0.3794944584369659,0.2912245690822601,0.0,0.0,0.0640660524368286,0.352077841758728
-0.2449229210615158,0.500213086605072,0.0057834261097013,-0.2568742334842682,-0.3649124801158905,0.2916396558284759,0.0,0.0,0.0397714376449584,0.5430493354797363
-0.2445404529571533,0.4944980144500732,0.0254061371088027,-0.2507920861244201,-0.3513755202293396,0.270738810300827,0.0,0.0,-0.299594521522522,-0.0372667908668518
-0.2441974580287933,0.48828986287117,0.0213735438883304,-0.2728177905082702,-0.3378090858459472,0.2713289260864258,0.0,0.0,-0.0016107559204101,0.491144061088562
-0.243888571858406,0.4815885722637176,0.0178728830069303,-0.2948438227176666,-0.3242174983024597,0.2718310356140136,0.0,0.0,-0.4003816246986389,0.299399733543396
-0.2436083853244781,0.4743943214416504,0.014921287074685,-0.3168701231479645,-0.3106054365634918,0.2722418010234833,0.0,0.0,-0.4153701066970825,0.2212132215499878
-0.2433513104915619,0.4667070209980011,0.0125344665721058,-0.338896632194519,-0.2969775199890136,0.2725583612918854,0.0,0.0,-0.0163190364837646,0.3186434507369995
-0.2431116998195648,0.4585267901420593,0.0107264937832951,-0.3609233796596527,-0.2833386361598968,0.2727779746055603,0.0,0.0,0.1540383100509643,0.2597247362136841
-0.2428117245435714,0.4506902396678924,0.017091354355216,-0.3458389043807983,-0.2700957655906677,0.2648574709892273,0.0,0.0,0.2912275791168213,0.6212615966796875
-0.2422518283128738,0.4431023597717285,0.044142760336399,-0.3350992202758789,-0.2579751312732696,0.2424128502607345,0.0,0.0,-0.6248265504837036,0.7108153104782104
-0.2416413724422454,0.435006320476532,0.0504452399909496,-0.35799640417099,-0.2471640706062317,0.2162213027477264,0.0,0.0,-0.1258105635643005,0.763128399848938
-0.2409733235836029,0.4264025688171386,0.0574846677482128,-0.3808486759662628,-0.237687349319458,0.1895343363285064,0.0,0.0,0.0871009826660156,0.7396641969680786
-0.240177720785141,0.4177658557891845,0.0717200487852096,-0.3826056718826294,-0.2297335863113403,0.1590751707553863,0.0,0.0,-0.2179381847381591,0.2974324226379394
-0.2393637150526046,0.4086347818374634,0.0735657885670661,-0.4046233892440796,-0.2217992544174194,0.1586865931749344,0.0,0.0,0.3410807847976684,0.4771950244903564
-0.2385508567094802,0.3996716737747192,0.0740232914686203,-0.3972854018211365,-0.2144543975591659,0.1468973010778427,0.0,0.0,0.4056946039199829,0.5177687406539917
-0.2374418228864669,0.3910690248012543,0.1044540032744407,-0.3814187347888946,-0.2079453468322754,0.1301809251308441,0.0,0.0,-0.292418360710144,0.5845000743865967
-0.2362473011016845,0.3819508552551269,0.1143173351883888,-0.404537558555603,-0.2027697563171386,0.1035117655992508,0.0,0.0,0.2028520107269287,0.1059837341308593
-0.2347951382398605,0.3731221854686737,0.1396312415599823,-0.3916327357292175,-0.1971451640129089,0.1124914437532424,0.0,0.0,-0.6904722452163696,0.5583736896514893
-0.2332526743412017,0.3637906610965729,0.1497705280780792,-0.4141424298286438,-0.1926405131816864,0.0900928974151611,0.0,0.0,0.482842206954956,-0.1820048093795776
-0.2313839495182037,0.3550567626953125,0.1818500012159347,-0.3875316083431244,-0.1875923424959182,0.1009634360671043,0.0,0.0,-0.8399999737739563,0.2357457876205444
-0.2294560968875885,0.3458279371261596,0.1878126412630081,-0.4095467031002044,-0.1825972497463226,0.0999017879366874,0.0,0.0,-0.687561571598053,-0.5419887900352478
-0.2275057733058929,0.3361215591430664,0.189015731215477,-0.4306650757789612,-0.1765558421611786,0.120828092098236,0.0,0.0,-0.8154288530349731,-0.518954336643219
-0.2255216091871261,0.3259348273277282,0.1915131509304046,-0.4519385993480682,-0.1696374863386154,0.1383667439222335,0.0,0.0,-0.2776607275009155,-0.1207435727119445
-0.2234630137681961,0.3152535557746887,0.1990122497081756,-0.4739556312561035,-0.162784606218338,0.1370578855276107,0.0,0.0,0.0489677190780639,-0.5738292336463928
-0.2213920652866363,0.3046921491622925,0.1992865949869156,-0.4685635864734649,-0.1549771577119827,0.1561491191387176,0.0,0.0,-0.2891910076141357,-0.5853812098503113
-0.2192931622266769,0.2936478853225708,0.2007218152284622,-0.4899236261844635,-0.1458222717046737,0.183097630739212,0.0,0.0,-0.0743708610534668,0.0577939748764038
-0.217106431722641,0.2821096777915954,0.2095677554607391,-0.5119436383247375,-0.1367436498403549,0.1815723776817321,0.0,0.0,0.5367134809494019,-0.2447550892829895
-0.2147362679243087,0.2708097696304321,0.2278645485639572,-0.5014030933380127,-0.1276328861713409,0.1822151988744735,0.0,0.0,0.2100336551666259,-0.5040506720542908
-0.2121734619140625,0.2593909502029419,0.2459666281938552,-0.506651759147644,-0.1173761561512947,0.2051346749067306,0.0,0.0,-0.0214325189590454,-0.702143669128418
-0.2095573842525482,0.2474898695945739,0.2501804828643799,-0.5280793309211731,-0.1060290709137916,0.226941630244255,0.0,0.0,0.3108007907867431,-0.2516769170761108
-0.2067513018846511,0.236046701669693,0.2691720426082611,-0.5078108310699463,-0.0946782976388931,0.2270153760910034,0.0,0.0,-0.3992497324943542,-0.8733084201812744
-0.2039015740156173,0.2241094410419464,0.2720405161380768,-0.5297757387161255,-0.0818648859858512,0.2562683224678039,0.0,0.0,0.8599319458007812,0.0504356622695922
