x_pos,y_pos,x_vel,y_vel,angle,ang_vel,leg_1,leg_2,main_booster,lat_booster
-0.001476478530094,1.403168559074402,-0.1497496962547302,-0.3445172011852264,0.0018734557088464,0.0369642749428749,0.0,0.0,0.2449005712829788,-0.7222823472004944
-0.0029184340965002,1.395501971244812,-0.1476875692605972,-0.3407443165779114,0.0053254482336342,0.0690472796559333,0.0,0.0,-0.3639089227850896,-0.9117210448810008
-0.0043674469925463,1.3873720169067385,-0.1499353945255279,-0.3613592982292175,0.0103122135624289,0.0997441411018371,0.0,0.0,-0.9256766908275448,0.8796052764003164
-0.0057112695649266,1.3787841796875,-0.1381479203701019,-0.3817086517810821,0.0140334041789174,0.0744305476546287,0.0,0.0,0.5283892907851344,0.9571245139748652
-0.0068025588989257,1.3706529140472412,-0.1112889200448989,-0.3614163100719452,0.0161597430706024,0.0425309613347053,0.0,0.0,-0.5928949389256735,-0.8557951793963047
-0.0078950878232717,1.362062931060791,-0.1128500699996948,-0.3818157911300659,0.0197268519550561,0.0713487565517425,0.0,0.0,0.1518158653825601,-0.9262616404406264
-0.0090353013947606,1.353618621826172,-0.1196062192320823,-0.3753896057605743,0.0252514872699975,0.1105025634169578,0.0,0.0,-0.6787467691917721,-0.7193542613966348
-0.010166073217988,1.344719171524048,-0.1198792234063148,-0.3956607282161712,0.0319781079888343,0.1345449388027191,0.0,0.0,0.5456485143553471,0.5656548301022977
-0.0112370494753122,1.336545705795288,-0.1128676384687423,-0.3633960485458374,0.0376822389662265,0.1140928417444229,0.0,0.0,-0.9195035849147776,0.8338078531359168
-0.012189483270049,1.327925443649292,-0.0994728133082389,-0.3832376599311828,0.0418663546442985,0.0836900249123573,0.0,0.0,-0.1802615175070461,-0.9914538667865
-0.0131550785154104,1.3188462257385254,-0.1026294976472854,-0.4037049114704132,0.0478656068444252,0.1199962869286537,0.0,0.0,-0.9954473168196474,0.939280230300062
-0.0139840124174952,1.3093154430389404,-0.086978405714035,-0.4237302839756012,0.0519125126302242,0.0809456184506416,0.0,0.0,0.7600350659109831,-0.7504831538763033
-0.0147047042846679,1.3004562854766846,-0.0781360417604446,-0.3939622044563293,0.0579127110540866,0.1200151666998863,0.0,0.0,-0.5876652565975915,0.6271162313243587
-0.0153153417631983,1.29114031791687,-0.0658427029848098,-0.4142346382141113,0.0626543536782264,0.0948415994644165,0.0,0.0,-0.5870723721623377,0.8393806915731621
-0.015789221972227,1.281385064125061,-0.050237514078617,-0.4336868822574615,0.0654672682285308,0.0562633462250232,0.0,0.0,-0.6185693804462433,-0.9983926767855276
-0.0162712093442678,1.2711561918258667,-0.0528040342032909,-0.4548281729221344,0.0700345635414123,0.0913539975881576,0.0,0.0,-0.1139003085594982,0.6690764598292795
-0.0166327469050884,1.260486125946045,-0.0392387434840202,-0.4743728339672088,0.0730932429432869,0.0611792616546154,0.0,0.0,-0.2920944194453789,-0.6761685366523349
-0.0169782638549804,1.2493501901626587,-0.038795031607151,-0.4951456189155578,0.077308565378189,0.0843139737844467,0.0,0.0,0.6182138786105684,0.71407426869965
-0.0171679500490427,1.2389596700668335,-0.022128777578473,-0.4619664847850799,0.0804446414113044,0.062727503478527,0.0,0.0,-0.2006061315036851,0.5329448413366027
-0.0172641761600971,1.2281174659729004,-0.0119924843311309,-0.4820114970207214,0.0827897861599922,0.0469069816172122,0.0,0.0,0.0852336890866578,-0.617863353178203
-0.0172991752624511,1.217567801475525,-0.0073555945418775,-0.4690884053707123,0.0866202786564827,0.076616883277893,0.0,0.0,0.3303283450201959,-0.5734734341088894
-0.017342185601592,1.207087159156799,-0.0094615267589688,-0.4661144614219665,0.0917399227619171,0.102401852607727,0.0,0.0,-0.0101533171548937,-0.8700607236437554
-0.0173813812434673,1.1961424350738523,-0.0105640208348631,-0.4868539869785309,0.0983443260192871,0.132099837064743,0.0,0.0,-0.2402072986614578,0.6693572411976054
-0.0173035617917776,1.1847437620162964,0.0025081804487854,-0.5069689154624939,0.1035866886377334,0.1048566102981567,0.0,0.0,-0.1055328729912641,0.5193007059377228
-0.0171367637813091,1.1728956699371338,0.0120829390361905,-0.5269054770469666,0.1081621795892715,0.0915179401636123,0.0,0.0,0.8621885406201386,0.984526259675338
-0.0171009059995412,1.1617422103881836,0.0011161947622895,-0.495889663696289,0.1106109544634819,0.0489755198359489,0.0,0.0,0.1029067793133409,-0.9295150720934798
-0.0171308517456054,1.1508502960205078,-0.0074477875605225,-0.4844244420528412,0.1150359585881233,0.0884998962283134,0.0,0.0,0.6420966817156639,0.6435984879401218
-0.0172864906489849,1.1407161951065063,-0.0185250993818044,-0.4506377875804901,0.1179758235812187,0.0587976463139057,0.0,0.0,0.6806614111095259,0.5860715677287809
-0.0175725929439067,1.1312878131866455,-0.0301531199365854,-0.4191599488258362,0.1195074096322059,0.0306315273046493,0.0,0.0,0.9004004765795399,-0.5742622208215991
-0.0179375652223825,1.12222421169281,-0.0392426736652851,-0.4030507802963257,0.1222383752465248,0.0546192303299903,0.0,0.0,0.8028145333624697,0.7557762002766617
-0.0182760246098041,1.1141037940979004,-0.0352348797023296,-0.3610238134860992,0.1236282661557197,0.0277974717319011,0.0,0.0,-0.9882141351699828,0.8094115257263184
-0.0185001380741596,1.1055333614349363,-0.0225240271538496,-0.3809232413768768,0.1237368732690811,0.0021721124649047,0.0,0.0,-0.9916458129882812,0.3397310972213745
-0.0186658855527639,1.096506953239441,-0.0168002136051654,-0.4011896848678589,0.1239693015813827,0.0046486491337418,0.0,0.0,-0.9708304405212402,0.410226821899414
-0.018773078918457,1.0870249271392822,-0.0110808974131941,-0.4214560687541961,0.1243254467844963,0.0071230260655283,0.0,0.0,-0.9625353813171388,0.2206460237503051
-0.0188220031559467,1.0770870447158811,-0.0053683891892433,-0.4417225122451782,0.1248052269220352,0.0095951715484261,0.0,0.0,-0.90183287858963,-0.3144226670265198
-0.0188125614076852,1.0666933059692385,0.0003349425387568,-0.4619889855384826,0.1254084557294845,0.0120649021118879,0.0,0.0,-0.8305127620697021,0.2440413236618042
-0.018744945526123,1.0558440685272217,0.0060266689397394,-0.4822554588317871,0.1261350512504577,0.0145320203155279,0.0,0.0,-0.9621418714523317,0.2428090572357177
-0.018619442358613,1.0445388555526731,0.0117042884230613,-0.5025219321250916,0.1269848644733429,0.0169963426887989,0.0,0.0,-0.9674513936042786,0.2003399133682251
-0.0184359550476074,1.0327779054641724,0.0173652190715074,-0.522788405418396,0.127957746386528,0.0194576121866703,0.0,0.0,-0.930716872215271,0.6108517646789551
-0.0181447975337505,1.0205718278884888,0.0292992535978555,-0.5424803495407104,0.1277759671211242,-0.0036358926445245,0.0,0.0,-0.7106585502624512,0.4370113611221313
-0.0177963264286518,1.007909893989563,0.0349186547100544,-0.5627467632293701,0.1277168840169906,-0.0011816404294222,0.0,0.0,-0.8014945387840271,0.1383235454559326
-0.0173905380070209,0.9947922825813292,0.0405130088329315,-0.5830132365226746,0.1277803182601928,0.0012685637921094,0.0,0.0,-0.4773200154304504,0.8506242036819458
-0.0168496128171682,0.9812244772911072,0.0558888129889965,-0.6028608083724976,0.1259974837303161,-0.0356565937399864,0.0,0.0,-0.6509453058242798,0.0737993717193603
-0.0162520408630371,0.9672009944915771,0.0614239275455474,-0.6231275200843811,0.1243366822600364,-0.0332158431410789,0.0,0.0,-0.2899634838104248,-0.3584308624267578
-0.015598202124238,0.9527217745780944,0.066924475133419,-0.6433941125869751,0.1227976381778717,-0.0307805873453617,0.0,0.0,-0.1195525527000427,-0.620574951171875
-0.0149331092834472,0.9377720952033995,0.066788837313652,-0.6644046902656555,0.1225272640585899,-0.0054078539833426,0.0,0.0,-0.1248862743377685,0.0662628412246704
-0.0142124174162745,0.9223667979240416,0.0722096189856529,-0.6846711039543152,0.1223779916763305,-0.0029852387961,0.0,0.0,-0.2723180055618286,0.6357941627502441
-0.0133969308808445,0.9065198302268982,0.0826268643140792,-0.7042182683944702,0.121314063668251,-0.0212785862386226,0.0,0.0,-0.4074394106864929,0.6570800542831421
-0.012487125582993,0.8902303576469421,0.0929564088582992,-0.7238182425498962,0.1193452328443527,-0.0393768474459648,0.0,0.0,0.0356116294860839,0.716516375541687
-0.011520099826157,0.8739654421806335,0.1000106185674667,-0.7226275205612183,0.116055890917778,-0.0657867342233657,0.0,0.0,0.6788791418075562,-0.7145020365715027
-0.0104649541899561,0.8581269383430481,0.1069393530488014,-0.7038219571113586,0.1146465018391609,-0.0281877815723419,0.0,0.0,0.0291811227798461,0.0676547288894653
-0.0094451904296875,0.8425103425979614,0.1034446135163307,-0.6939553618431091,0.113190047442913,-0.0291291438043117,0.0,0.0,-0.1657752394676208,0.2101819515228271
-0.0083733554929494,0.8264382481575012,0.10852612555027,-0.7142217755317688,0.1118518784642219,-0.0267634447664022,0.0,0.0,0.4096368551254272,-0.2014001607894897
-0.0073234559968113,0.8109250664710999,0.1061976104974746,-0.6893784403800964,0.1106438860297203,-0.0241597145795822,0.0,0.0,-0.4335678815841675,0.9305810928344728
-0.0061317444778978,0.7949681282043457,0.122608795762062,-0.7089510560035706,0.1072383299469947,-0.0681110769510269,0.0,0.0,0.4299479722976684,-0.284541368484497
-0.0050162314437329,0.7791504263877869,0.1152507439255714,-0.70274817943573,0.1035662665963172,-0.0734415203332901,0.0,0.0,-0.1444039940834045,-0.4546881914138794
-0.0038520812522619,0.7628771662712097,0.1200021728873252,-0.7230154275894165,0.1000093445181846,-0.0711385756731033,0.0,0.0,0.2335405349731445,-0.2875927090644836
-0.0025878907181322,0.7469151020050049,0.1294013559818267,-0.7092257738113403,0.0970431566238403,-0.0593238174915313,0.0,0.0,-0.4443148970603943,-0.7394288778305054
-0.0013287544716149,0.730497419834137,0.1274992525577545,-0.7295711040496826,0.0954783782362937,-0.0312955006957054,0.0,0.0,-0.549598217010498,0.1209313869476318
-2.4127959477482364e-05,0.7136239409446716,0.1319342255592346,-0.749837338924408,0.0940254032611846,-0.0290598031133413,0.0,0.0,-0.0348264575004577,-0.8592610955238342
0.0012634277809411,0.69627845287323,0.1285227388143539,-0.7709223628044128,0.0942523553967475,0.0045393276959657,0.0,0.0,-0.720632016658783,0.9466650485992432
0.0026556968223303,0.6784908771514893,0.1404790580272674,-0.7904790639877319,0.0930138155817985,-0.0247712060809135,0.0,0.0,-0.7358177304267883,-0.5720016360282898
0.0040538785979151,0.6602411270141602,0.1400421559810638,-0.8110888004302979,0.0927891805768013,-0.0044930698350071,0.0,0.0,0.2285608053207397,0.4183605909347534
0.005467414855957,0.6422185301780701,0.1413876563310623,-0.8009955883026123,0.0927509516477584,-0.000764392898418,0.0,0.0,-0.2433595061302185,-0.7512288689613342
0.0068614007905125,0.6237267851829529,0.1378405392169952,-0.8219621777534485,0.0942957028746604,0.0308952145278453,0.0,0.0,0.474561333656311,-0.1932158470153808
0.008132648654282,0.6055511236190796,0.1259775906801223,-0.8078789114952087,0.0954304710030555,0.0226953271776437,0.0,0.0,0.4209575653076172,-0.0212177038192749
0.0093872072175145,0.5880213379859924,0.1241316050291061,-0.7791860103607178,0.0967492908239364,0.0263764895498752,0.0,0.0,0.2060204744338989,0.4499552249908447
0.0107141491025686,0.5703631639480591,0.1309853643178939,-0.7849189043045044,0.098441295325756,0.0338400937616825,0.0,0.0,0.635176420211792,0.0568727254867553
0.0120160104706883,0.5535144209861755,0.1282599866390228,-0.7489625811576843,0.1003500819206237,0.0381757691502571,0.0,0.0,0.5085341930389404,0.7251760959625244
0.0132667543366551,0.5368461012840271,0.124684914946556,-0.7408405542373657,0.1007324308156967,0.0076471092179417,0.0,0.0,-0.0761734247207641,-0.132979154586792
0.0145444869995117,0.5197219252586365,0.1273091435432434,-0.7611063718795776,0.1012012064456939,0.0093755442649126,0.0,0.0,0.6284079551696777,-0.266767144203186
0.0158153530210256,0.5030618906021118,0.1263918727636337,-0.7404924035072327,0.1018928810954094,0.0138332936912775,0.0,0.0,0.3012062311172485,-0.040238618850708
0.0169402118772268,0.4869231581687927,0.1121798753738403,-0.7173007726669312,0.1021937653422355,0.0060178451240062,0.0,0.0,0.0130497217178344,-0.4347357749938965
0.0180938728153705,0.4708638191223144,0.1147723644971847,-0.7137914896011353,0.1027772948145866,0.0116706909611821,0.0,0.0,0.2572187185287475,-0.4312222003936767
0.0192089080810546,0.4547885656356811,0.1109703034162521,-0.7144887447357178,0.1033117175102233,0.0106884222477674,0.0,0.0,0.2661173343658447,-0.0693272948265075
0.020365048199892,0.4386373162269592,0.1147687211632728,-0.7178938388824463,0.1041518151760101,0.016801793128252,0.0,0.0,0.5774989128112793,-0.3383306264877319
0.0214696880429983,0.422508955001831,0.1097016707062721,-0.7168695330619812,0.104911670088768,0.0151970358565449,0.0,0.0,0.5854434967041016,0.2270368337631225
0.0224961284548044,0.4070589244365692,0.1018624678254127,-0.686722457408905,0.1056881248950958,0.01552907936275,0.0,0.0,0.593816876411438,0.2353348731994629
0.0235230438411235,0.3923391699790954,0.101495161652565,-0.6542978286743164,0.1068696752190589,0.0236313454806804,0.0,0.0,0.4334152936935425,0.6124222278594971
0.024419879540801,0.378217875957489,0.089914746582508,-0.6275936961174011,0.1066464856266975,-0.004463916644454,0.0,0.0,0.6847765445709229,-0.1828165054321289
0.0251504890620708,0.3641234636306762,0.0738615691661834,-0.6263614296913147,0.1058485656976699,-0.0159584917128086,0.0,0.0,0.5350151062011719,0.5043594837188721
0.0258807186037302,0.3506858944892883,0.0746969506144523,-0.5971096754074097,0.1041781306266784,-0.0334085449576377,0.0,0.0,0.2529404163360595,-0.4208356738090515
0.0264839176088571,0.3374314904212951,0.0623424351215362,-0.5889437198638916,0.1021747887134552,-0.0400670394301414,0.0,0.0,0.783862829208374,-0.0595094561576843
0.0269455909729003,0.3248043060302734,0.048445027321577,-0.5610564947128296,0.099913440644741,-0.0452268309891223,0.0,0.0,0.1613212823867797,-0.3270137310028076
0.0273388866335153,0.3124535381793976,0.0416342392563819,-0.5487700700759888,0.0976222231984138,-0.0458240956068038,0.0,0.0,0.2835021018981933,0.4167121648788452
0.027741527184844,0.3003315329551697,0.0422572046518325,-0.5386269688606262,0.0956466197967529,-0.0395121276378631,0.0,0.0,0.8281285762786865,-0.4301420450210571
0.0281171798706054,0.2883229553699493,0.0394466519355773,-0.5335974097251892,0.0937877893447876,-0.0371769033372402,0.0,0.0,0.8866114616394043,0.0735524892807006
0.0285355560481548,0.2765599489212036,0.0432326085865497,-0.522714376449585,0.092407651245594,-0.0276027116924524,0.0,0.0,0.8009483814239502,-0.2218384742736816
0.0290337558835744,0.2652928829193115,0.0504762157797813,-0.5007171630859375,0.0917514786124229,-0.013123519718647,0.0,0.0,0.8722661733627319,-0.3611222505569458
0.0296229366213083,0.2542591094970703,0.05887421220541,-0.4903916418552398,0.0918016880750656,0.0010041979840025,0.0,0.0,0.5458295345306396,-0.2466988563537597
0.0301146507263183,0.2438185960054397,0.0491672940552234,-0.4640229642391205,0.0917966440320015,-0.0001007532118819,0.0,0.0,0.4493709802627563,-0.453704833984375
0.0305418018251657,0.2339198142290115,0.0426327958703041,-0.4399527013301849,0.0918804183602333,0.0016751546645537,0.0,0.0,0.7245053052902222,-0.1598650217056274
0.0310015678405761,0.2246228605508804,0.0453297272324562,-0.413235992193222,0.0925229266285896,0.0128500266000628,0.0,0.0,0.7541861534118652,-0.6994530558586121
0.0314551368355751,0.2153887599706649,0.0430915914475917,-0.4105459749698639,0.0947755947709083,0.0450528897345066,0.0,0.0,0.5540372133255005,-0.0140639543533325
0.0317766182124614,0.2064069360494613,0.0301603265106678,-0.3993180990219116,0.0967460870742797,0.0394100025296211,0.0,0.0,0.8612687587738037,-0.7934024930000305
0.0320050232112407,0.1984358429908752,0.0190981812775135,-0.354517251253128,0.1004549786448478,0.0741781592369079,0.0,0.0,0.9241750240325928,0.4023764133453369
0.0320980064570903,0.1909940987825393,0.0057536424137651,-0.3309887945652008,0.1039749607443809,0.070399597287178,0.0,0.0,0.4797035455703735,0.8458657264709473
0.0320146568119525,0.1841578334569931,-0.0099443029612302,-0.3039442300796509,0.1055703684687614,0.0319080613553524,0.0,0.0,0.3249688148498535,0.7759740352630615
0.0319656357169151,0.177726462483406,-0.0049764765426516,-0.2858462035655975,0.1056439578533172,0.001471679424867,0.0,0.0,0.4800434112548828,0.1132510900497436
0.0317505821585655,0.1718339771032333,-0.0212740302085876,-0.2618736326694488,0.1054198965430259,-0.004481288138777,0.0,0.0,0.2019331455230713,0.0421712398529052
0.0313693061470985,0.1662884503602981,-0.0375360399484634,-0.2464253455400467,0.1048380434513092,-0.0116370553150773,0.0,0.0,-0.2538269758224487,0.5346426963806152
0.0309779159724712,0.1602915376424789,-0.0374388359487056,-0.2664134204387665,0.1031519696116447,-0.0337215475738048,0.0,0.0,-0.294124960899353,0.5427141189575195
0.0305688865482807,0.1538444310426712,-0.0382380001246929,-0.2863557040691376,0.100507341325283,-0.0528926327824592,0.0,0.0,-0.218942642211914,0.2706114053726196
0.0301064494997262,0.1469412893056869,-0.0434870086610317,-0.3066206872463226,0.0977741628885269,-0.0546639077365398,0.0,0.0,0.2828555107116699,0.6457980871200562
0.0296762473881244,0.140439972281456,-0.0390210971236228,-0.2886938154697418,0.0938149765133857,-0.0791836827993393,0.0,0.0,-0.0358762741088867,0.6906211376190186
0.0292506217956542,0.1334852576255798,-0.0369454659521579,-0.3087545931339264,0.0882475450634956,-0.1113487854599952,0.0,0.0,-0.0292210578918457,-0.2085750102996826
0.0287681575864553,0.1260749846696853,-0.0425363816320896,-0.3290216028690338,0.0825844034552574,-0.1132626682519912,0.0,0.0,-0.0404518246650695,0.412419319152832
0.0282277110964059,0.1182089671492576,-0.0482255034148693,-0.3492887318134308,0.0768236070871353,-0.1152161955833435,0.0,0.0,0.0016229152679443,0.720924973487854
0.0277448650449514,0.1106887683272361,-0.0409723110496997,-0.3338751792907715,0.0695850253105163,-0.1447715163230896,0.0,0.0,0.1752876043319702,0.2893722057342529
0.027227783575654,0.1033357232809066,-0.0445414744317531,-0.3264827132225036,0.0624963603913784,-0.1417735069990158,0.0,0.0,0.3076190948486328,0.0021944046020507
0.0266041755676269,0.0964943021535873,-0.0550603494048118,-0.3037770688533783,0.0552786141633987,-0.1443545371294021,0.0,0.0,0.0258539915084838,0.3957417011260986
0.0259300228208303,0.0899329781532287,-0.0601898021996021,-0.2913619875907898,0.0481311082839965,-0.142950102686882,0.0,0.0,-0.2289057970046997,-0.6632370948791504
0.0251486785709857,0.0829097330570221,-0.0719575658440589,-0.3119608461856842,0.0420219860970974,-0.1221824437379837,0.0,0.0,0.4903289079666137,0.4504482746124267
0.0241710655391216,0.076259933412075,-0.0909480601549148,-0.2953725159168243,0.03529604524374,-0.1345188021659851,0.0,0.0,0.5612195730209351,0.8055727481842041
0.0230422969907522,0.0698782056570053,-0.1041207164525985,-0.2834502160549164,0.0266408920288085,-0.1731031686067581,0.0,0.0,0.6471469402313232,0.1194487810134887
0.0218132976442575,0.063883364200592,-0.1139120012521743,-0.2663027942180633,0.0177780166268348,-0.1772575676441192,0.0,0.0,0.190618634223938,0.7210683822631836
0.0205918308347463,0.0580109693109989,-0.1116397380828857,-0.2608990967273712,0.0073966551572084,-0.2076270133256912,0.0,0.0,0.4189950227737427,-0.3081226348876953
0.0194155685603618,0.0521485172212123,-0.1075185090303421,-0.2605308592319488,-0.0025758240371942,-0.199449747800827,0.0,0.0,0.6543819904327393,-0.2839133143424988
0.0182738304138183,0.0468581281602382,-0.1044200509786605,-0.2351734787225723,-0.012207600288093,-0.1926353871822357,0.0,0.0,0.2628686428070068,-0.3129305243492126
0.0170934684574604,0.0420374497771263,-0.1082598716020584,-0.2143590152263641,-0.0218621920794248,-0.1930917054414749,0.0,0.0,-4.57763671875e-05,-0.0750799179077148
0.0158473961055278,0.0367621518671512,-0.1147143617272377,-0.2346321642398834,-0.0316287614405155,-0.1953313201665878,0.0,0.0,0.5627994537353516,0.0182820558547973
0.0146466251462697,0.0319032780826091,-0.1105091199278831,-0.2161804586648941,-0.0410785265266895,-0.1889952272176742,0.0,0.0,0.15289306640625,0.0148637294769287
