x_pos,y_pos,x_vel,y_vel,angle,ang_vel,leg_1,leg_2,main_booster,lat_booster
-0.0015376091469079,1.4032608270645142,-0.1549523621797561,-0.3404189646244049,0.0010682457359507,0.0210202392190694,0.0,0.0,0.7187328288871151,0.5254917358396636
-0.0029911040328443,1.3959782123565674,-0.1448071599006652,-0.3236738443374634,0.0005227764486335,-0.0109096216037869,0.0,0.0,0.923606016962598,0.5772889091142673
-0.0042485236190259,1.3890326023101809,-0.1237942576408386,-0.3086912930011749,-0.0013914841692894,-0.0382889732718467,0.0,0.0,0.8816415701062634,0.795901400652852
-0.0056050298735499,1.3825745582580566,-0.1310418546199798,-0.2870395481586456,-0.0059467600658535,-0.0911140739917755,0.0,0.0,0.3382524039570447,-0.5602106344229874
-0.0069029806181788,1.3765462636947632,-0.1258493512868881,-0.2679439783096313,-0.009859474375844,-0.0782615095376968,0.0,0.0,-0.5039276805950472,-0.9542984891715192
-0.0082737924531102,1.3701539039611816,-0.1338589489459991,-0.2841301262378692,-0.013048930093646,-0.0637949407100677,0.0,0.0,-0.7487780623633893,0.9104114449154836
-0.0095906257629394,1.3633968830108645,-0.1259483397006988,-0.3003718256950378,-0.0187122579663991,-0.1132770404219627,0.0,0.0,0.6250394899318239,0.8769999295823052
-0.0106771467253565,1.3572273254394531,-0.1007031574845314,-0.2743226289749145,-0.0265823472291231,-0.157416433095932,0.0,0.0,0.4182333652821888,-0.7311150294968002
-0.0118285175412893,1.3517826795578003,-0.1078725606203079,-0.2421305030584335,-0.0337682627141475,-0.1437314450740814,0.0,0.0,0.6415683744251512,0.883552100738527
-0.0129017829895019,1.3470594882965088,-0.0975340977311134,-0.2101704478263855,-0.0434540696442127,-0.1937341541051864,0.0,0.0,0.1780645658116033,-0.6325274092526358
-0.0139529230073094,1.3426082134246826,-0.0959478095173835,-0.1981142461299896,-0.0525220483541488,-0.1813762038946151,0.0,0.0,-0.0867253907316318,-0.5730866393125658
-0.0150590892881155,1.337796926498413,-0.1017061844468116,-0.2141702324151992,-0.0613398812711238,-0.1763729751110077,0.0,0.0,-0.5181739993048007,0.9409593785451068
-0.0160901062190532,1.332620620727539,-0.0911536887288093,-0.230594977736473,-0.0731814801692962,-0.2368536740541458,0.0,0.0,-0.021192003344749,-0.95596087155005
-0.0172032359987497,1.3270812034606934,-0.1003093123435974,-0.2467657625675201,-0.0840985849499702,-0.2183621227741241,0.0,0.0,0.9989103180923318,0.6701358663187089
-0.0180123336613178,1.3226488828659058,-0.0683024600148201,-0.1977505683898925,-0.0966109037399292,-0.2502690255641937,0.0,0.0,-0.9017640577362234,0.708381825137683
-0.0187713615596294,1.317838191986084,-0.0608729049563407,-0.21485136449337,-0.111548826098442,-0.2987855076789856,0.0,0.0,-0.6155454785164296,0.7555512612323579
-0.0194719322025775,1.3126649856567385,-0.052433680742979,-0.2313335537910461,-0.1290895044803619,-0.3508455157279968,0.0,0.0,0.5848164583745861,-0.8855077842584795
-0.0200591087341308,1.307644009590149,-0.04236451536417,-0.2246488481760025,-0.145403653383255,-0.3263126909732818,0.0,0.0,-0.6195667762298125,-0.5084511621296239
-0.0206939689815044,1.3022760152816772,-0.047267235815525,-0.2402354627847671,-0.1616255789995193,-0.3244676291942596,0.0,0.0,-0.1606384740406097,-0.8177943272756178
-0.0214159972965717,1.296566367149353,-0.0571107976138591,-0.2554679214954376,-0.1767543852329254,-0.3026034235954284,0.0,0.0,0.8335488699666231,-0.9538426553296756
-0.0219243057072162,1.291714787483215,-0.0371853969991207,-0.2173095792531967,-0.1904746443033218,-0.2744297981262207,0.0,0.0,-0.6881416064835817,0.7028663434975992
-0.0223925597965717,1.286483883857727,-0.0310353189706802,-0.2345898151397705,-0.2063975930213928,-0.3184876143932342,0.0,0.0,0.2118442159900124,-0.5738618932491131
-0.0227354057133197,1.2814615964889526,-0.0191225055605173,-0.2253967970609665,-0.2217343002557754,-0.3067614436149597,0.0,0.0,-0.6946627943525943,0.8633405437858368
-0.0230202674865722,1.2760469913482666,-0.0107091208919882,-0.2434272766113281,-0.2397810071706771,-0.3609666526317596,0.0,0.0,-0.217241606362919,0.8997489010870514
-0.023266315460205,1.270258545875549,-0.0048066126182675,-0.2606163322925567,-0.2599729299545288,-0.4038745760917663,0.0,0.0,-0.6189548869054995,-0.9733567617525588
-0.023621654137969,1.264134645462036,-0.0174594707787036,-0.2754856944084167,-0.2784763276576996,-0.3700681328773498,0.0,0.0,-0.1576020583118167,0.6312814944886724
-0.02394275739789,1.2576379776000977,-0.0121405823156237,-0.292685717344284,-0.2990275025367737,-0.4110233187675476,0.0,0.0,-0.04994145984034,-0.830980439974091
-0.0243526455014944,1.250828742980957,-0.0223981328308582,-0.3065652251243591,-0.3182749450206756,-0.3849491477012634,0.0,0.0,-0.9367214213149756,-0.5589104234722685
-0.0248266216367483,1.2436929941177368,-0.0295425169169902,-0.3211769163608551,-0.3368918299674988,-0.3723375797271728,0.0,0.0,-0.3837095936054016,0.6328137250497547
-0.0252701751887798,1.236175775527954,-0.0246886238455772,-0.3388295769691467,-0.3575218617916107,-0.4126010835170746,0.0,0.0,0.0369391630489763,0.5991028399293223
-0.0254834182560443,1.2290253639221191,4.012920908280648e-05,-0.3232790231704712,-0.3801174163818359,-0.4519111216068268,0.0,0.0,-0.7721649408340454,-0.9932152032852172
-0.025793457403779,1.2215646505355835,-0.0112809101119637,-0.3369914889335632,-0.4011671245098114,-0.4209941029548645,0.0,0.0,-0.7630752325057983,-0.983729362487793
-0.0261955261230468,1.21380877494812,-0.0221011992543935,-0.3499445021152496,-0.4206478595733642,-0.3896140456199646,0.0,0.0,-0.7078564167022705,-0.9908627271652222
-0.0266921035945415,1.2057418823242188,-0.0331070087850093,-0.3635665476322174,-0.4386213719844818,-0.3594700992107391,0.0,0.0,-0.3898838758468628,-0.9878889322280884
-0.0272701270878314,1.19736909866333,-0.042514469474554,-0.3769963085651397,-0.4553435444831848,-0.334443062543869,0.0,0.0,-0.8613162636756897,-0.9948383569717408
-0.0279273986816406,1.1886965036392212,-0.0517212636768817,-0.3901016116142273,-0.4707906246185303,-0.3089411854743957,0.0,0.0,-0.9033000469207764,-0.9969928860664368
-0.0286726001650095,1.179718017578125,-0.0618984773755073,-0.4033888578414917,-0.4848137497901916,-0.2804628014564514,0.0,0.0,-0.8208524584770203,-0.9967244267463684
-0.0294937137514352,1.1704403162002563,-0.0706738382577896,-0.4164125025272369,-0.4976098835468292,-0.2559233605861664,0.0,0.0,-0.687909722328186,-0.9931033849716188
-0.030397605150938,1.1608741283416748,-0.0803614482283592,-0.4288415312767029,-0.508903980255127,-0.2258821278810501,0.0,0.0,-0.6900753974914551,-0.9993635416030884
-0.0313798896968364,1.151005506515503,-0.0893770232796669,-0.4419216811656952,-0.5189258456230164,-0.2004355639219284,0.0,0.0,-0.7114226222038269,-0.9916427135467528
-0.03245210647583,1.1408543586730957,-0.0999624207615852,-0.4539642930030823,-0.5272014737129211,-0.1655137240886688,0.0,0.0,-0.7790870070457458,-0.9881787896156312
-0.0335918441414833,1.1303892135620115,-0.1075600385665893,-0.4676320254802704,-0.5345500111579895,-0.1469709426164627,0.0,0.0,-0.7048636674880981,-0.9954302310943604
-0.0348052978515625,1.1196061372756958,-0.1158399954438209,-0.4814353287220001,-0.5408746004104614,-0.1264918148517608,0.0,0.0,-0.5952081680297852,-0.9997319579124452
-0.036089040338993,1.1085132360458374,-0.1237840503454208,-0.4948638677597046,-0.5461545586585999,-0.105599507689476,0.0,0.0,-0.5228908061981201,-0.9812149405479432
-0.0374601371586322,1.0971155166625977,-0.1338353008031845,-0.5078988671302795,-0.5499463081359863,-0.0758345052599906,0.0,0.0,-0.4674466848373413,-0.9856415390968324
-0.0389088615775108,1.0854063034057615,-0.1426431238651275,-0.5213239789009094,-0.5525330305099487,-0.0517346858978271,0.0,0.0,-0.2426204681396484,-0.97039395570755
-0.0404307357966899,1.0733873844146729,-0.1509415805339813,-0.534688413143158,-0.5539830923080444,-0.0290009081363677,0.0,0.0,-0.4310789108276367,-0.99319189786911
-0.0420401580631732,1.061091065406799,-0.161259725689888,-0.546370804309845,-0.5536107420921326,0.0074474131688475,0.0,0.0,0.2170721292495727,-0.9655811786651612
-0.0435154922306537,1.0493333339691162,-0.1490403860807418,-0.5219476819038391,-0.5518666505813599,0.0348818860948085,0.0,0.0,-0.5604369640350342,-0.9878495931625366
-0.0450726523995399,1.0372769832611084,-0.15850231051445,-0.5346980690956116,-0.5486443638801575,0.0644452944397926,0.0,0.0,-0.3073999881744385,-0.9308966994285583
-0.0466899871826171,1.0249048471450806,-0.1652207821607589,-0.5484525561332703,-0.5446029901504517,0.0808270573616027,0.0,0.0,-0.6407012343406677,-0.917532444000244
-0.0483845695853233,1.0122400522232056,-0.1742436438798904,-0.5609633922576904,-0.5390962362289429,0.1101348027586937,0.0,0.0,-0.5529725551605225,-0.961342990398407
-0.0501461029052734,0.9992591738700868,-0.1818123161792755,-0.5746874213218689,-0.5326024293899536,0.1298758685588836,0.0,0.0,-0.5232910513877869,-0.8153829574584961
-0.0519717223942279,0.9859741926193236,-0.1891673654317855,-0.5878662467002869,-0.525044322013855,0.1511622220277786,0.0,0.0,-0.4493986368179321,-0.9230743050575256
-0.0538573265075683,0.9723684191703796,-0.1959089487791061,-0.6018900275230408,-0.5166807174682617,0.1672725975513458,0.0,0.0,-0.1743445396423339,-0.9255241751670836
-0.0558289512991905,0.9584625959396362,-0.2059525698423385,-0.6147359013557434,-0.5067068338394165,0.1994767040014267,0.0,0.0,0.222995638847351,-0.6666162014007568
-0.0575009360909462,0.9449586868286132,-0.1768373250961303,-0.5966446995735168,-0.4958576261997223,0.2169839143753051,0.0,0.0,0.0178232192993164,-0.6573210954666138
-0.0589454658329486,0.9316145777702332,-0.1548981070518493,-0.5893495678901672,-0.4841777682304382,0.2335970103740692,0.0,0.0,-0.5081337690353394,-0.6904707551002502
-0.0604405403137207,0.9179516434669496,-0.1605991572141647,-0.6034042239189148,-0.4718399345874786,0.2467568218708038,0.0,0.0,-0.4163370132446289,-0.4110199213027954
-0.0619462020695209,0.9039301872253418,-0.1611834466457367,-0.6196056008338928,-0.4601154029369354,0.2344914227724075,0.0,0.0,-0.0289148092269897,-0.4959439039230346
-0.0634624511003494,0.8895503878593445,-0.1617518961429596,-0.6358049511909485,-0.448992520570755,0.2224570214748382,0.0,0.0,-0.0941104292869567,-0.7293017506599426
-0.065047837793827,0.8748584985733032,-0.1698148995637893,-0.6494031548500061,-0.4366778433322906,0.2462936341762542,0.0,0.0,-0.5352924466133118,-0.3275505304336548
-0.0666433349251747,0.8598077893257141,-0.1703531742095947,-0.6656016111373901,-0.4249400198459625,0.2347572594881057,0.0,0.0,-0.3198481798171997,-0.4596314430236816
-0.0682487487792968,0.844398021697998,-0.1708747893571853,-0.6817981600761414,-0.413765549659729,0.2234894335269928,0.0,0.0,0.0224032402038574,-0.5930963754653931
-0.0698027610778808,0.8289905786514282,-0.166427657008171,-0.6815938949584961,-0.4019100368022918,0.2371109724044799,0.0,0.0,-0.344201922416687,-0.0249440073966979
-0.0713661164045333,0.8132237792015076,-0.1669168174266815,-0.6977888941764832,-0.3905891180038452,0.226418137550354,0.0,0.0,0.0975786447525024,-0.1684982776641845
-0.0727088898420333,0.7978779673576355,-0.1444836407899856,-0.6792791485786438,-0.3797214925289154,0.2173527926206588,0.0,0.0,-0.5440114140510559,-0.3218945860862732
-0.0740605369210243,0.7821720838546753,-0.1449383497238159,-0.6954705715179443,-0.3693571090698242,0.2072876244783401,0.0,0.0,-0.5642372965812683,0.2790453433990478
-0.07542085647583,0.7661063075065613,-0.1453756541013717,-0.7116602659225464,-0.3594793379306793,0.1975555121898651,0.0,0.0,-0.1499626636505127,0.0643768310546875
-0.0767895728349685,0.7496799826622009,-0.1457955539226532,-0.7278482913970947,-0.3500708937644958,0.1881691217422485,0.0,0.0,0.1038063764572143,-0.3855003118515014
-0.078068733215332,0.7335619926452637,-0.1361741572618484,-0.7143679261207581,-0.341397613286972,0.173465758562088,0.0,0.0,-0.5180129408836365,-0.3087615966796875
-0.0793555229902267,0.717083215713501,-0.1365589797496795,-0.7305527329444885,-0.3331572413444519,0.1648075729608535,0.0,0.0,-0.3602495193481445,-0.1712641716003418
-0.0806497558951377,0.7002432346343994,-0.1369263976812362,-0.7467361092567444,-0.3253307044506073,0.1565308719873428,0.0,0.0,0.063895583152771,-0.4981157779693603
-0.0817873924970626,0.6835477352142334,-0.1211163997650146,-0.7403887510299683,-0.3176794946193695,0.1530239433050155,0.0,0.0,0.0232568979263305,-0.8149406909942627
-0.0829416289925575,0.6668717265129089,-0.1240278035402298,-0.7393036484718323,-0.3087503314018249,0.178582563996315,0.0,0.0,0.287493348121643,-0.1736660599708557
-0.0839748382568359,0.6501720547676086,-0.111834168434143,-0.7404195666313171,-0.2999295592308044,0.1764150559902191,0.0,0.0,0.4701988697052002,-0.5326392650604248
-0.0849948897957801,0.6335709691047668,-0.1111946478486061,-0.7359638214111328,-0.2904362380504608,0.1898664534091949,0.0,0.0,-0.375308632850647,-0.3872902393341064
-0.0860204696655273,0.6166083812713623,-0.1114784628152847,-0.7521450519561768,-0.2812539339065552,0.1836457848548889,0.0,0.0,0.5168395042419434,-0.2401174306869506
-0.0867728218436241,0.6003327965736389,-0.0842258110642433,-0.7216523289680481,-0.272020936012268,0.1846592873334884,0.0,0.0,0.1800431013107299,-0.4982436895370483
-0.0874505043029785,0.5845712423324585,-0.0761485174298286,-0.6989760994911194,-0.2634258568286896,0.1719013452529907,0.0,0.0,0.3646190166473388,-0.647390604019165
-0.0882255584001541,0.5689035654067993,-0.0867518186569213,-0.6947067379951477,-0.2539840042591095,0.1888361871242523,0.0,0.0,-0.1841685771942138,-0.299778938293457
-0.0890047997236251,0.5528740286827087,-0.0869710594415664,-0.7108852863311768,-0.2447646260261535,0.1843871772289276,0.0,0.0,0.6869049072265625,-0.5293840765953064
-0.0897931084036827,0.5373929738998413,-0.0884613990783691,-0.686472475528717,-0.2349747419357299,0.1957975476980209,0.0,0.0,0.2187373638153076,0.017629861831665
-0.0905077010393142,0.5222933888435364,-0.0807560160756111,-0.6696345210075378,-0.2255491316318512,0.1885122507810592,0.0,0.0,-0.1667895317077636,0.2264801263809204
-0.0912253409624099,0.5068316459655762,-0.0809299945831298,-0.6858112215995789,-0.2162781357765197,0.1854200661182403,0.0,0.0,0.6926491260528564,0.2926033735275268
-0.091730497777462,0.4918522834777832,-0.0599795654416084,-0.6643936634063721,-0.206725925207138,0.1910442411899566,0.0,0.0,0.1696548461914062,0.2271895408630371
-0.0921718627214431,0.4768611490726471,-0.0535850822925567,-0.6649766564369202,-0.1972056776285171,0.1904049068689346,0.0,0.0,0.7176772356033325,0.444880723953247
-0.0924386009573936,0.4620952010154724,-0.036499548703432,-0.6549860239028931,-0.1873266398906707,0.1975804269313812,0.0,0.0,0.7378780841827393,0.7230402231216431
-0.0923734679818153,0.447788804769516,-0.0021601794287562,-0.6347663402557373,-0.1786027401685714,0.1744776368141174,0.0,0.0,0.3124743700027466,0.1722023487091064
-0.0921448692679405,0.4335527718067169,0.0136878164485096,-0.6316350698471069,-0.1694101691246032,0.1838510036468505,0.0,0.0,0.598827600479126,0.0953000783920288
-0.0918001160025596,0.4200304448604584,0.0253377743065357,-0.599976122379303,-0.160265102982521,0.1829013228416443,0.0,0.0,0.0837563276290893,-0.0363418459892272
-0.091356560587883,0.4068774580955505,0.0351064652204513,-0.5836082100868225,-0.1510273069143295,0.1847560852766037,0.0,0.0,-0.0320795178413391,0.1529450416564941
-0.0909134894609451,0.3933617770671844,0.0350341275334358,-0.5997816920280457,-0.1417700797319412,0.1851446032524109,0.0,0.0,0.5502383708953857,0.1305103302001953
-0.0903334617614746,0.3799182474613189,0.048230592161417,-0.596589207649231,-0.1320355981588363,0.1946896612644195,0.0,0.0,0.675126314163208,0.2611614465713501
-0.0897380858659744,0.3668903112411499,0.0499436818063259,-0.5781955122947693,-0.1224883571267128,0.1909449696540832,0.0,0.0,0.6058294773101807,0.42778480052948
-0.088958166539669,0.3547332286834717,0.0679320245981216,-0.5395199656486511,-0.112482339143753,0.2001203298568725,0.0,0.0,0.3599717617034912,0.7197244167327881
-0.0880896598100662,0.3429054021835327,0.0781654864549636,-0.525047242641449,-0.1038488745689392,0.1726689338684082,0.0,0.0,-0.4778621792793274,0.1272850036621093
-0.0872200950980186,0.3307146728038788,0.0781396478414535,-0.5412191152572632,-0.0951007828116417,0.1749617159366607,0.0,0.0,0.5990884304046631,0.3948237895965576
-0.0862011909484863,0.3191577792167663,0.0925308912992477,-0.5130736231803894,-0.0858309864997863,0.1853958517313003,0.0,0.0,-0.6298449635505676,0.4537829160690307
-0.0851809531450271,0.3072379827499389,0.0925193205475807,-0.5292463898658752,-0.0764124989509582,0.1883697211742401,0.0,0.0,0.2883485555648803,0.4922337532043457
-0.0841786414384841,0.2958362102508545,0.0908423587679863,-0.5062922835350037,-0.0671276003122329,0.1856981217861175,0.0,0.0,-0.1075114607810974,0.7069014310836792
-0.0831211060285568,0.2840638160705566,0.0975470244884491,-0.5228704810142517,-0.0590124018490314,0.1623041927814483,0.0,0.0,0.4284912347793579,0.6886951923370361
-0.0820876136422157,0.2727127075195312,0.096530757844448,-0.5042440891265869,-0.0522738471627235,0.1347710490226745,0.0,0.0,-0.1491798162460327,0.6645984649658203
-0.0810126289725303,0.2609935402870178,0.1014796644449234,-0.5206524133682251,-0.0463186129927635,0.1191048473119735,0.0,0.0,0.5991625785827637,0.4629273414611816
-0.079800508916378,0.249946191906929,0.1144787520170211,-0.4908010065555572,-0.0396665707230567,0.1330406814813614,0.0,0.0,-0.0561367273330688,-0.154342234134674
-0.0785857215523719,0.2385355830192566,0.114496037364006,-0.5069705843925476,-0.0327791944146156,0.1377474814653396,0.0,0.0,0.3622015714645386,-0.2185128331184387
-0.0772281661629676,0.2276989519596099,0.1279727071523666,-0.481476366519928,-0.0250911153852939,0.1537615954875946,0.0,0.0,-0.2967731952667236,-0.450447678565979
-0.0758677497506141,0.2164994031190872,0.1279944330453872,-0.4976474046707153,-0.0171440560370683,0.1589410603046417,0.0,0.0,0.6780014038085938,-0.6421639323234558
-0.07438325881958,0.2062432914972305,0.1384630799293518,-0.4557397067546844,-0.0072819688357412,0.1972416788339615,0.0,0.0,-0.0486032366752624,0.450156569480896
-0.072895623743534,0.1956247389316558,0.1384868323802948,-0.4719143509864807,0.0028601284138858,0.2028419077396392,0.0,0.0,0.5319578647613525,-0.0027053952217102
-0.0714136138558387,0.1857794672250747,0.1376594603061676,-0.4376188218593597,0.0132609605789184,0.2080167233943939,0.0,0.0,-0.0317440629005432,0.2757487297058105
-0.0699284523725509,0.1755719035863876,0.1376829892396927,-0.4537948966026306,0.0239603668451309,0.2139880955219268,0.0,0.0,0.5186195373535156,0.4728536605834961
-0.0683759674429893,0.1656370759010315,0.1437544822692871,-0.4417716562747955,0.0353092588484287,0.226977989077568,0.0,0.0,0.188228964805603,0.3027400970458984
-0.0669237151741981,0.1560022234916687,0.1338275074958801,-0.4285197257995605,0.0465659946203231,0.2251348793506622,0.0,0.0,0.0785858631134033,0.6523140668869019
-0.0655267685651779,0.1465041935443878,0.1294008791446685,-0.4224843680858612,0.0567360296845436,0.2034010142087936,0.0,0.0,0.2883627414703369,0.7389688491821289
-0.064111903309822,0.1373052150011062,0.1323932111263275,-0.4092134237289428,0.0657388344407081,0.1800559908151626,0.0,0.0,0.1902198791503906,0.1121046543121337
-0.0626999884843826,0.128320962190628,0.1316614151000976,-0.3997457325458526,0.0751627385616302,0.1884780824184417,0.0,0.0,-0.001284122467041,0.6221771240234375
-0.0612246505916118,0.118975430727005,0.1391951143741607,-0.4157972931861877,0.0834204033017158,0.1651532649993896,0.0,0.0,0.7814722061157227,0.936131477355957
-0.0596169456839561,0.1103975176811218,0.1537804901599884,-0.3816480636596679,0.0903410241007804,0.1384123265743255,0.0,0.0,0.5831019878387451,-0.918773114681244
-0.0581215843558311,0.1026143133640289,0.1403267830610275,-0.3465002477169037,0.0994740575551986,0.1826605796813964,0.0,0.0,0.0009403228759765,-0.0138382911682128
