x_pos,y_pos,x_vel,y_vel,angle,ang_vel,leg_1,leg_2,main_booster,lat_booster
-0.0015482902526855,1.4033969640731812,-0.1568407267332077,-0.334357351064682,0.0018098386935889,0.0357038974761962,0.0,0.0,0.1712980304036211,0.0885330670420226
-0.0030850409530103,1.396160364151001,-0.1556590944528579,-0.3216301500797272,0.0037648286670446,0.0391042046248912,0.0,0.0,0.2777342453249158,0.5587211583993635
-0.0044907568953931,1.389161229133606,-0.1416966021060943,-0.3110740780830383,0.0048719467595219,0.0221444852650165,0.0,0.0,0.9766741359000846,0.9862919029218724
-0.0060044289566576,1.3828274011611938,-0.1502057313919067,-0.2814964354038238,0.0037282358389347,-0.0228762775659561,0.0,0.0,0.2275273896015428,0.91844200693096
-0.0073608397506177,1.3769968748092651,-0.1327158063650131,-0.2591305375099182,0.0008307503303512,-0.0579552948474884,0.0,0.0,0.9695151445210162,-0.9292247753538032
-0.008635139092803,1.3719089031219482,-0.1267153918743133,-0.2261324822902679,0.0001209125985042,-0.0141976978629827,0.0,0.0,0.3097451512095202,-0.4328499635003976
-0.0099519733339548,1.3672800064086914,-0.1308503001928329,-0.2057241648435592,-0.0006987848901189,-0.0163955576717853,0.0,0.0,0.2239695247711854,0.3706299990186964
-0.0111821172758936,1.363142728805542,-0.1226898804306984,-0.1838842928409576,-0.0010202134726569,-0.0064290603622794,0.0,0.0,-0.0322823464180397,-0.8147207349581019
-0.0125020984560251,1.3587868213653564,-0.1332980394363403,-0.1935951858758926,0.0002670133835636,0.0257469471544027,0.0,0.0,0.5464216949142788,-0.3318896564224358
-0.0138472560793161,1.3552234172821045,-0.1357738375663757,-0.1583719998598098,0.0015065555926412,0.024793105199933,0.0,0.0,0.3078955397988048,0.122059141721653
-0.0151491165161132,1.3521385192871094,-0.1317168027162552,-0.1371070742607116,0.0030201463960111,0.0302745215594768,0.0,0.0,-0.5955739178247295,-0.500989281307868
-0.0165099147707223,1.348824977874756,-0.1384437382221222,-0.1472706645727157,0.0053539909422397,0.0466812439262867,0.0,0.0,0.5744225610497644,0.0941436763853008
-0.017774200066924,1.346285104751587,-0.129311978816986,-0.1128947809338569,0.0082124797627329,0.0571751371026039,0.0,0.0,-0.479265483813637,0.560602028870009
-0.0190129280090332,1.343513250350952,-0.1254459619522094,-0.1232087463140487,0.009764346294105,0.0310400575399398,0.0,0.0,0.7177643480220981,0.77172899129942
-0.0200618747621774,1.341810703277588,-0.105184718966484,-0.0756646692752838,0.0100462073460221,0.0056380392052233,0.0,0.0,0.5629759141937973,0.4450534559126478
-0.0210333820432424,1.3403041362762451,-0.0978546068072319,-0.0669685825705528,0.010738581418991,0.0138485850766301,0.0,0.0,0.5185420000915593,-0.0605992745795735
-0.0219099037349224,1.339751362800598,-0.0888758301734924,-0.0245721694082021,0.0119431763887405,0.0240942034870386,0.0,0.0,0.4492114234530895,-0.5587176961065405
-0.0227221492677927,1.339461088180542,-0.0838070213794708,-0.0129274521023035,0.0144940689206123,0.051022570580244,0.0,0.0,0.1016072615967087,-0.4404929308890519
-0.0235002525150775,1.339747667312622,-0.0806083530187606,0.0127049228176474,0.017256861552596,0.0552609264850616,0.0,0.0,-0.1548915276544429,-0.8547206430808761
-0.0243776328861713,1.3398044109344482,-0.092380478978157,0.0024638602044433,0.0218501109629869,0.0918735340237617,0.0,0.0,-0.736554551711673,-0.4206987328714889
-0.0252775195986032,1.3396341800689695,-0.0945254564285278,-0.0076419692486524,0.0263445358723402,0.0898964256048202,0.0,0.0,-0.5317443683595737,0.0054320254868267
-0.0261994358152151,1.3392367362976074,-0.0966386944055557,-0.0177508015185594,0.0307379271835088,0.0878757312893867,0.0,0.0,0.5962531203781098,-0.9165131723818628
-0.0270908363163471,1.3394027948379517,-0.0955152064561843,0.0072367298416793,0.0370394624769687,0.1260422021150589,0.0,0.0,0.4581996021067589,0.9371918200715624
-0.0278696063905954,1.3397520780563354,-0.0823176056146621,0.0154139986261725,0.0414402447640895,0.0880233794450759,0.0,0.0,0.2430910386010225,0.1140831298582609
-0.0287963859736919,1.340593338012695,-0.0965122282505035,0.0372792035341262,0.0452369041740894,0.0759397745132446,0.0,0.0,-0.2038326418895848,0.9207839595561452
-0.0296883583068847,1.3411946296691897,-0.0915131270885467,0.0266426559537649,0.0475322566926479,0.0459072403609752,0.0,0.0,0.5530575108313789,-0.2751772748074922
-0.0306294448673725,1.342591643333435,-0.0963409319519996,0.0620228201150894,0.0497301742434501,0.0439583659172058,0.0,0.0,0.6795479778608369,-0.8338126663973113
-0.0318455696105957,1.3450111150741575,-0.1251357495784759,0.1074117869138717,0.0532148443162441,0.0696934610605239,0.0,0.0,0.8589994667828151,-0.6774669843048182
-0.0333396904170513,1.3484976291656494,-0.1537856310606002,0.1547913253307342,0.0575410649180412,0.086524486541748,0.0,0.0,0.6090664235137799,0.8544747673162992
-0.0348355285823345,1.352468490600586,-0.152081087231636,0.1763871610164642,0.0600117035210132,0.0494125559926033,0.0,0.0,0.0012688330850063,0.3635623453458794
-0.0363696105778217,1.3569812774658203,-0.1558428257703781,0.2004703879356384,0.0624127015471458,0.0480202808976173,0.0,0.0,-0.570673942565918,0.7207093238830566
-0.0378725044429302,1.3612669706344604,-0.1513267755508422,0.1904380172491073,0.0634416118264198,0.0205784030258655,0.0,0.0,-0.7221622467041016,-0.311798095703125
-0.0393934249877929,1.3653254508972168,-0.1530033648014068,0.1803334504365921,0.0643452629446983,0.0180728454142808,0.0,0.0,-0.5047683119773865,-0.0083943605422973
-0.0409319885075092,1.3691563606262207,-0.1546340584754943,0.1702289283275604,0.0651221647858619,0.0155379893258214,0.0,0.0,-0.3463029861450195,0.1321723461151123
-0.042487621307373,1.3727596998214722,-0.1562178432941436,0.1601244509220123,0.0657709613442421,0.0129757225513458,0.0,0.0,-0.3426625728607178,-0.3843646049499511
-0.0440599434077739,1.3761357069015503,-0.1577537357807159,0.1500199884176254,0.0662903487682342,0.0103877196088433,0.0,0.0,-0.4814591407775879,0.1166940927505493
-0.0456484779715538,1.3792842626571655,-0.1592408120632171,0.1399155408143997,0.0666791349649429,0.0077755749225616,0.0,0.0,-0.1973365545272827,0.0553021430969238
-0.0472526550292968,1.382205367088318,-0.1606781929731369,0.1298111230134964,0.0669361650943756,0.0051406943239271,0.0,0.0,-0.1840730309486389,0.0481482744216918
-0.0488720908761024,1.3848987817764282,-0.1620651632547378,0.1197067275643348,0.0670603811740875,0.0024844016879796,0.0,0.0,-0.3502722978591919,0.0191531181335449
-0.0505062118172645,1.3873648643493652,-0.1634009778499603,0.1096023395657539,0.0670507624745369,-0.0001922111114254,0.0,0.0,-0.1598250865936279,-0.0160807371139526
-0.0521544441580772,1.3896033763885498,-0.1646851003170013,0.099497951567173,0.0669063553214073,-0.0028879817109555,0.0,0.0,-0.3972977995872497,0.136209487915039
-0.0538165085017681,1.3916144371032717,-0.1659169793128967,0.0893935784697532,0.0666262656450271,-0.0056018633767962,0.0,0.0,-0.4458276629447937,0.1770988702774047
-0.0554916374385356,1.3933980464935305,-0.1670962572097778,0.0792891979217529,0.0662096217274665,-0.0083329174667596,0.0,0.0,-0.2242254018783569,-0.4260083436965942
-0.0571794509887695,1.3949542045593262,-0.1682226210832595,0.0691848024725914,0.0656555965542793,-0.0110803237184882,0.0,0.0,-0.3551352620124817,-0.440454363822937
-0.0588793754577636,1.3962829113006592,-0.1692958772182464,0.0590803995728492,0.0649634376168251,-0.0138432849198579,0.0,0.0,-0.199446439743042,0.0181825160980224
-0.0605909340083599,1.3973839282989502,-0.1703159511089325,0.0489759668707847,0.0641323700547218,-0.0166210196912288,0.0,0.0,-0.2721651792526245,0.0966074466705322
-0.0623135566711425,1.3982577323913574,-0.1712828427553177,0.038871519267559,0.0631617233157157,-0.0194128677248954,0.0,0.0,-0.4892530441284179,-0.1138490438461303
-0.0640467628836631,1.3989038467407229,-0.1721967160701751,0.0287670418620109,0.0620508193969726,-0.0222180988639593,0.0,0.0,-0.2618971467018127,0.1695011854171753
-0.0657898932695388,1.3993226289749146,-0.1730578243732452,0.018662529066205,0.0607989989221096,-0.0250361524522304,0.0,0.0,-0.4704691171646118,0.2959493398666382
-0.0675426498055458,1.399513840675354,-0.1738665401935577,0.0085579771548509,0.0594056732952594,-0.0278663523495197,0.0,0.0,-0.4103761911392212,-0.0771905183792114
-0.0693044662475586,1.3994778394699097,-0.1746233254671096,-0.0015466186450794,0.0578702725470066,-0.0307081695646047,0.0,0.0,-0.4342018365859985,0.2781133651733398
-0.0710747689008712,1.3992140293121338,-0.1753287613391876,-0.0116512645035982,0.0561922267079353,-0.0335610471665859,0.0,0.0,-0.7430853247642517,0.06817626953125
-0.0728529915213584,1.3987231254577637,-0.1759835630655288,-0.0217559654265642,0.0543710067868232,-0.0364244431257247,0.0,0.0,-0.5959969162940979,0.0854494571685791
-0.0746388435363769,1.3980046510696411,-0.1765884906053543,-0.0318607278168201,0.0524061247706413,-0.039297766983509,0.0,0.0,-0.7279195785522461,-0.017465054988861
-0.0764315575361251,0.0,-0.1771444529294967,-0.0419655591249465,0.0502970926463604,-0.0421805754303932,0.0,0.0,-0.7794420719146729,0.2592751979827881
-0.0782308578491211,1.395885348320007,-0.1776524484157562,-0.052070464938879,0.0480434671044349,-0.045072317123413,0.0,0.0,-0.5905512571334839,-0.3863131403923034
-0.0800363570451736,1.3944847583770752,-0.1781135499477386,-0.0621754489839077,0.0456448607146739,-0.047972485423088,0.0,0.0,-0.7840657234191895,0.3386861085891723
-0.0818473845720291,1.3928567171096802,-0.1785289198160171,-0.0722805112600326,0.0431008227169513,-0.0508806034922599,0.0,0.0,-0.9337705373764038,0.1043844223022461
-0.083663560450077,1.3910013437271118,-0.1788998395204544,-0.0823856592178344,0.0404110103845596,-0.053796149790287,0.0,0.0,-0.8715350031852722,-0.1247216463088989
-0.085484504699707,1.38891863822937,-0.1792276203632354,-0.0924909114837646,0.0375750809907913,-0.0567186474800109,0.0,0.0,-0.9035724997520448,0.7159273624420166
-0.0872483253479003,1.386605978012085,-0.1717903912067413,-0.1026791036128997,0.0330482795834541,-0.0905360728502273,0.0,0.0,-0.9001296758651733,0.0693926811218261
-0.0890159606933593,1.384065866470337,-0.172036200761795,-0.1127855479717254,0.0283747240900993,-0.0934708192944526,0.0,0.0,-0.9564502835273744,-0.022518515586853
-0.0907872170209884,1.3812990188598633,-0.1722433269023895,-0.1228921562433242,0.0235541816800832,-0.0964109525084495,0.0,0.0,-0.9150661826133728,0.520764946937561
-0.0925189033150672,1.3783073425292969,-0.1670425832271576,-0.1328801810741424,0.017510050907731,-0.1208827123045921,0.0,0.0,-0.928426206111908,-0.1527668833732605
-0.0942534431815147,1.3750889301300049,-0.167177140712738,-0.1429881751537323,0.0113184507936239,-0.1238320022821426,0.0,0.0,-0.9832112193107604,0.2224495410919189
-0.0959903746843338,1.371643304824829,-0.1672780066728592,-0.1530963778495788,0.0049791922792792,-0.1267850548028946,0.0,0.0,-0.9885854721069336,-0.2532820701599121
-0.0977295860648155,1.3679710626602173,-0.1673469096422195,-0.1632048189640045,-0.0015078720171004,-0.1297414004802703,0.0,0.0,-0.9707573056221008,0.2904595136642456
-0.0994707122445106,1.3640719652175903,-0.1673856228590011,-0.173313483595848,-0.0081428932026028,-0.132700428366661,0.0,0.0,-0.9915320873260498,-0.607202410697937
-0.1012592315673828,1.3599536418914795,-0.1731503158807754,-0.1830788701772689,-0.0137725723907351,-0.1125933900475502,0.0,0.0,-0.995683491230011,-0.873265266418457
-0.103129006922245,1.3556060791015625,-0.1831625699996948,-0.1932642012834549,-0.017542639747262,-0.0754012614488601,0.0,0.0,-0.8981996774673462,-0.3792216777801513
-0.1050000190734863,1.3510314226150513,-0.1831217110157013,-0.2033707350492477,-0.021460885182023,-0.0783651322126388,0.0,0.0,-0.981753945350647,-0.4315601587295532
-0.1068717017769813,1.3462295532226562,-0.1830580979585647,-0.2134774327278137,-0.0255273468792438,-0.0813292935490608,0.0,0.0,-0.9984928369522096,-0.3711118102073669
-0.1087441444396972,1.341200828552246,-0.1829736232757568,-0.2235842794179916,-0.0297420062124729,-0.0842930898070335,0.0,0.0,-0.991311013698578,-0.3852048516273498
-0.1106169670820236,1.3359447717666626,-0.1828702092170715,-0.2336912602186203,-0.0341047905385494,-0.087255835533142,0.0,0.0,-0.9934736490249634,-0.420750617980957
-0.112490177154541,1.3304619789123535,-0.1827497780323028,-0.2437984347343444,-0.0386156365275383,-0.0902168154716491,0.0,0.0,-0.9913411140441896,-0.3544090986251831
-0.1143634766340255,1.324751853942871,-0.1826142966747284,-0.2539057433605194,-0.0432744137942791,-0.0931752696633338,0.0,0.0,-0.9951940178871156,-0.7496820092201233
-0.1162993460893631,1.318811535835266,-0.1903143227100372,-0.2641193866729736,-0.0465123690664768,-0.0647590681910514,0.0,0.0,-0.9984900951385498,0.3903576135635376
-0.1182351112365722,1.3126438856124878,-0.1901544630527496,-0.2742259800434112,-0.0498979017138481,-0.0677104815840721,0.0,0.0,-0.9030994772911072,0.8046267032623291
-0.1200983971357345,1.3062520027160645,-0.1809181869029998,-0.2842769920825958,-0.0552432350814342,-0.106906734406948,0.0,0.0,-0.9938777089118958,-0.1718621253967285
-0.1219613999128341,1.2996331453323364,-0.1807419061660766,-0.29438516497612,-0.0607355833053588,-0.1098469048738479,0.0,0.0,-0.9984720945358276,-0.1299021244049072
-0.1238240227103233,1.2927874326705933,-0.1805603206157684,-0.3044935464859009,-0.0663745924830436,-0.1127802729606628,0.0,0.0,-0.988948941230774,0.4716238975524902
-0.1256862580776214,1.285714864730835,-0.1803753077983856,-0.3146021664142608,-0.0721598714590072,-0.1157057508826255,0.0,0.0,-0.994962215423584,0.3358672857284546
-0.1275480240583419,1.2784154415130615,-0.1801888048648834,-0.3247109949588775,-0.0780909955501556,-0.1186222806572914,0.0,0.0,-0.9719418287277222,-0.2157085537910461
-0.1294094026088714,1.2708895206451416,-0.1800027191638946,-0.3348200023174286,-0.0841674208641052,-0.121528722345829,0.0,0.0,-0.889742910861969,0.1018664836883544
-0.1312704086303711,1.2631367444992063,-0.1798189282417297,-0.3449292480945587,-0.0903886184096336,-0.1244238391518592,0.0,0.0,-0.9418600797653198,0.1266653537750244
-0.1331310272216797,1.255157470703125,-0.1796393245458603,-0.3550387024879455,-0.0967539250850677,-0.1273063123226165,0.0,0.0,-0.8416956663131714,-0.571954071521759
-0.1350349485874176,1.2469520568847656,-0.1849322021007537,-0.3650463819503784,-0.1021693497896194,-0.1083088293671608,0.0,0.0,-0.953402817249298,0.6717276573181152
-0.1368780136108398,1.2385058403015137,-0.1771416366100311,-0.3758961856365204,-0.109275035560131,-0.1421137899160385,0.0,0.0,-0.5791323781013489,0.1923305988311767
-999.0,1.2298330068588257,-0.1769856661558151,-0.3860068619251251,-0.1165225133299827,-0.1449493467807769,0.0,0.0,-0.8421611785888672,-0.5989671945571899
-0.1406001150608062,1.220935583114624,-0.1814165413379669,-0.3959663510322571,-0.1229941323399543,-0.1294325441122055,0.0,0.0,-0.8216689229011536,0.6379657983779907
-0.1424293518066406,1.2118070125579834,-0.175018772482872,-0.4063847661018371,-0.1308652460575103,-0.157422199845314,0.0,0.0,-0.2110324501991272,-0.0253454446792602
-0.1442587822675705,1.2024521827697754,-0.1749025285243988,-0.4164965450763702,-0.1388750076293945,-0.1601951122283935,0.0,0.0,-0.2912222146987915,-0.2556524276733398
-0.1460885107517242,1.1928712129592896,-0.1748028993606567,-0.4266085922718048,-0.1470221728086471,-0.162943035364151,0.0,0.0,-0.6022726893424988,-0.0166869163513183
-0.147918701171875,1.1830638647079468,-0.1747215837240219,-0.4367209076881408,-0.1553053557872772,-0.1656636148691177,0.0,0.0,-0.4220079183578491,0.0297094583511352
-0.1497493684291839,1.1730303764343262,-0.1746601909399032,-0.446833461523056,-0.1637230664491653,-0.1683543026447296,0.0,0.0,-0.1442055106163025,-0.0535902976989746
-0.1515810936689376,1.1627709865570068,-0.1746202856302261,-0.4569462537765503,-0.1722736805677414,-0.1710124313831329,0.0,0.0,-0.4101830124855041,-0.7610116600990295
-0.153475284576416,1.1523008346557615,-0.1823405474424362,-0.4661738574504852,-0.1793715208768844,-0.1419570744037628,0.0,0.0,-0.5770668983459473,-0.508209228515625
-0.1554179191589355,1.1416219472885132,-0.1882851421833038,-0.4753576517105102,-0.1853660196065902,-0.1198895797133445,0.0,0.0,-0.5589334964752197,-0.9087657928466796
-0.1574216783046722,1.1307376623153689,-0.1958502829074859,-0.4843188226222992,-0.1899248957633972,-0.0911772325634956,0.0,0.0,-0.0144873261451721,-0.0080679059028625
-0.1594274491071701,1.119626522064209,-0.195909708738327,-0.4944276511669159,-0.1946086138486862,-0.0936743468046188,0.0,0.0,0.0145108699798583,-0.2627090811729431
-0.1613960266113281,1.1089802980422974,-0.1918550282716751,-0.4738375246524811,-0.1996497511863708,-0.1008227095007896,0.0,0.0,0.1627659797668457,0.2360581159591674
-0.1633145362138748,1.098627686500549,-0.1866563707590103,-0.460825651884079,-0.2048916220664978,-0.1048367768526077,0.0,0.0,-0.3040396571159363,0.1374509334564209
-0.1652357131242752,1.0880483388900757,-0.1868052035570144,-0.4709350764751434,-0.2102502584457397,-0.1071728691458702,0.0,0.0,0.6114270687103271,0.1132042407989502
-0.1671966612339019,1.0780377388000488,-0.1900041997432708,-0.4457918703556061,-0.216401532292366,-0.1230254918336868,0.0,0.0,0.3969111442565918,-0.6274667382240295
-0.1689821183681488,1.068678617477417,-0.1737962067127227,-0.416666030883789,-0.2212052792310714,-0.0960746854543685,0.0,0.0,0.5416803359985352,0.6676428318023682
-0.1705839186906814,1.059553146362305,-0.1541211307048797,-0.4065005481243133,-0.2273369580507278,-0.1226338297128677,0.0,0.0,-0.2690771222114563,-0.7389395236968994
-0.1722317636013031,1.0502214431762695,-0.1597472578287124,-0.4155248999595642,-0.2324364632368087,-0.1019901186227798,0.0,0.0,0.1415603160858154,-0.1210243701934814
-0.1737754791975021,1.0414512157440186,-0.1491796672344207,-0.3906174600124359,-0.23770771920681,-0.1054254993796348,0.0,0.0,0.6346575021743774,-0.8469962477684021
-0.1750352829694748,1.0336642265319824,-0.1226320639252662,-0.3466277420520782,-0.2411080002784729,-0.0680055692791938,0.0,0.0,0.5283365249633789,-0.6894943714141846
-0.1761493682861328,1.0264233350753784,-0.1094951778650283,-0.322140634059906,-0.2430557906627655,-0.0389558896422386,0.0,0.0,0.7658216953277588,-0.6555449366569519
-0.1771156340837478,1.0202537775039673,-0.0959249064326286,-0.2743226289749145,-0.2437787503004074,-0.0144591275602579,0.0,0.0,0.7770388126373291,-0.4048837423324585
-0.1778196394443512,1.0150665044784546,-0.0699089244008064,-0.2306263148784637,-0.2442789673805236,-0.0100041683763265,0.0,0.0,0.7513641119003296,-0.5639224648475647
-0.1783668547868728,1.0103397369384766,-0.0555142983794212,-0.2099456042051315,-0.2434735596179962,0.0161082614213228,0.0,0.0,0.5194158554077148,-0.2995350360870361
-0.1788923293352127,1.0062544345855713,-0.0527571327984333,-0.1815381199121475,-0.2432559877634048,0.0043513467535376,0.0,0.0,0.3361517190933227,0.7126531600952148
-0.1793820410966873,1.0025676488876345,-0.0475426986813545,-0.1640942096710205,-0.2447137534618377,-0.0291552245616912,0.0,0.0,0.3799608945846557,0.5517046451568604
-0.1797412931919098,0.9993299841880798,-0.0333017446100711,-0.144336000084877,-0.2473841458559036,-0.053407959640026,0.0,0.0,0.8183951377868652,0.742297887802124
-0.1798771917819976,0.9966849684715272,-0.0095132552087306,-0.1182519942522049,-0.2515358626842499,-0.0830341130495071,0.0,0.0,0.5655325651168823,0.8451995849609375
-0.1797386109828949,0.9942240715026855,0.0194537583738565,-0.1103426590561866,-0.257241815328598,-0.114119067788124,0.0,0.0,0.3318672180175781,0.1846456527709961
-0.179391473531723,0.9923060536384584,0.0399747788906097,-0.0861825793981552,-0.2626183629035949,-0.1075310558080673,0.0,0.0,-0.0576063394546508,-0.6915287971496582
-0.179101750254631,0.9901877641677856,0.0329442545771598,-0.0948661267757415,-0.2666743099689483,-0.0811189040541648,0.0,0.0,0.6265175342559814,-0.4479920268058777
