x_pos,y_pos,x_vel,y_vel,angle,ang_vel,leg_1,leg_2,main_booster,lat_booster
-0.0015651702415198,1.403414249420166,-0.1584552377462387,-0.3335931599140167,0.00172890140675,0.0341016575694084,0.0,0.0,-0.0289848446846008,0.8638062477111816
-0.0030985833145678,1.3957173824310305,-0.1530964225530624,-0.3420844376087188,0.0014878464862704,-0.004820636473596,0.0,0.0,-0.1066637635231018,0.550513505935669
-0.0046206475235521,1.3878059387207031,-0.1505440771579742,-0.3516215682029724,-0.0001541220553917,-0.0328424572944641,0.0,0.0,0.2196245193481445,0.5409221649169922
-0.0062376977875828,1.3802356719970703,-0.1586804538965225,-0.3364563584327698,-0.0031486076768487,-0.0598957054316997,0.0,0.0,-0.037581443786621,-0.300517201423645
-0.0078958515077829,1.3724554777145386,-0.1627132594585418,-0.3458040952682495,-0.0062147453427314,-0.061328399926424,0.0,0.0,-0.2199532985687255,0.5830087661743164
-0.0095385555177927,1.3644638061523438,-0.1596639901399612,-0.3552115857601166,-0.0107696177437901,-0.091105967760086,0.0,0.0,-0.2724568247795105,-0.0757802724838256
-0.0112217906862497,1.3562620878219604,-0.1636491864919662,-0.3645554482936859,-0.0153960678726434,-0.0925373509526252,0.0,0.0,-0.1697850227355957,0.0218598842620849
-0.0129454610869288,1.347850680351257,-0.1676098555326461,-0.3738997280597687,-0.0200950484722852,-0.0939881950616836,0.0,0.0,-0.4366262555122375,0.7538967132568359
-0.014650821685791,1.33923602104187,-0.164235234260559,-0.3829778730869293,-0.0263290833681821,-0.1246920675039291,0.0,0.0,-0.1751644611358642,0.7363792657852173
-0.0163379665464162,1.330413818359375,-0.1608619689941406,-0.3922477662563324,-0.0340910516679286,-0.1552537381649017,0.0,0.0,-0.1412030458450317,0.61356520652771
-0.018009090796113,1.3213801383972168,-0.1577967554330825,-0.4017333984375,-0.0433139875531196,-0.1844758093357086,0.0,0.0,-0.1935150027275085,0.0700228214263916
-0.0197192188352346,1.312137484550476,-0.1616217792034149,-0.411082923412323,-0.0526075661182403,-0.1858882009983062,0.0,0.0,-0.7122892737388611,0.3960930109024048
-0.0214677806943655,1.3026858568191528,-0.1654092669486999,-0.4204330146312713,-0.0619719289243221,-0.1873046457767486,0.0,0.0,-0.6827590465545654,0.7679641246795654
-0.0231874473392963,1.2930119037628174,-0.1607330590486526,-0.430450439453125,-0.0731070041656494,-0.2227217257022857,0.0,0.0,-0.6514267325401306,0.6194717884063721
-0.0248842239379882,1.2831296920776367,-0.1568536162376403,-0.4398883283138275,-0.0858272463083267,-0.2544277012348175,0.0,0.0,-0.5495290160179138,-0.460638165473938
-0.0266180988401174,1.27303946018219,-0.1604986488819122,-0.4492454528808594,-0.0986156016588211,-0.2557904124259949,0.0,0.0,-0.7514784932136536,0.3499696254730224
-0.0283883102238178,1.262741208076477,-0.1640917211771011,-0.4586032629013061,-0.111471988260746,-0.2571510672569275,0.0,0.0,-0.2069786787033081,0.1354548931121826
-0.0301943775266408,1.2522351741790771,-0.1676283329725265,-0.4679614007472992,-0.124395377933979,-0.2584910094738006,0.0,0.0,-0.1877581477165222,0.29462730884552
-0.0320357307791709,1.2415210008621216,-0.1711037904024124,-0.4773205816745758,-0.1373848915100097,-0.2598137259483337,0.0,0.0,-0.7103274464607239,-0.4512198567390442
-0.033911608159542,1.230599045753479,-0.1745131313800811,-0.4866804480552673,-0.1504396349191665,-0.2611185312271118,0.0,0.0,-0.4114437103271484,-0.4159749746322632
-0.0358211509883403,1.2194690704345703,-0.1778510361909866,-0.4960409700870514,-0.1635586470365524,-0.2624035775661468,0.0,0.0,-0.6684616208076477,-0.8326994180679321
-0.0378278717398643,1.2081421613693235,-0.1891535520553589,-0.5047299265861511,-0.1751099675893783,-0.2310470789670944,0.0,0.0,0.2931478023529053,-0.1113533377647399
-0.0396924018859863,1.1972095966339111,-0.1753749549388885,-0.4872361421585083,-0.1862518340349197,-0.2228573113679886,0.0,0.0,-0.4470698237419128,-0.4959237575531006
-0.0415883064270019,1.1860685348510742,-0.1784690916538238,-0.4965988099575043,-0.1974549889564514,-0.2240829169750213,0.0,0.0,-0.5593265891075134,-0.8342328667640686
-0.0435941703617572,1.1747448444366455,-0.1914719045162201,-0.5045155882835388,-0.2066455334424972,-0.183827131986618,0.0,0.0,-0.0377231240272522,-0.2301616668701172
-0.0456324592232704,1.1631911993026731,-0.1946623623371124,-0.5148035287857056,-0.2158961594104766,-0.1850124299526214,0.0,0.0,-0.4503482580184936,-0.624049186706543
-0.04774646833539,1.151448130607605,-0.2034339159727096,-0.5231037735939026,-0.2239547967910766,-0.1611727774143219,0.0,0.0,-0.3654847145080566,-0.4658575654029846
-0.0498878471553325,1.139495849609375,-0.206125259399414,-0.5324510335922241,-0.2320710867643356,-0.162325918674469,0.0,0.0,-0.1673195362091064,-0.3599463701248169
-0.0520552620291709,1.127334475517273,-0.2086896002292633,-0.5417984127998352,-0.2402436137199401,-0.1634505093097686,0.0,0.0,-0.0369321703910827,-0.7000269889831543
-0.0543033592402935,1.1149815320968628,-0.2181494981050491,-0.5501183271408081,-0.2470109015703201,-0.1353460550308227,0.0,0.0,0.845120906829834,-0.515293538570404
-0.0563603416085243,1.1038068532943726,-0.2000961601734161,-0.4976081848144531,-0.2527211904525757,-0.1142056360840797,0.0,0.0,0.6959035396575928,-0.7238597869873047
-0.0584671013057231,1.093125820159912,-0.2062803953886032,-0.4754756093025207,-0.2572036981582641,-0.0896500647068023,0.0,0.0,-0.3067010045051574,-0.0530351400375366
-0.0605939850211143,1.0822350978851318,-0.2082519233226776,-0.4848191440105438,-0.2617356777191162,-0.0906396061182022,0.0,0.0,0.6977877616882324,0.1551226377487182
-0.0627066642045974,1.0716969966888428,-0.2064941227436065,-0.4692180752754211,-0.2666182219982147,-0.0976506024599075,0.0,0.0,-0.2393974065780639,0.2826526165008545
-0.0648360252380371,1.0609493255615234,-0.2081201821565628,-0.4785619080066681,-0.2715461850166321,-0.0985594987869262,0.0,0.0,0.5587689876556396,-0.4878443479537964
-0.0667721778154373,1.051016092300415,-0.1888438761234283,-0.4423684179782867,-0.2764380872249603,-0.0978381410241127,0.0,0.0,-0.3422586321830749,-0.7283405661582947
-0.0687795653939247,1.0408940315246582,-0.1974251121282577,-0.4504978060722351,-0.2798332571983337,-0.0679041072726249,0.0,0.0,0.4995458126068115,-0.3068212270736694
-0.0705737099051475,1.031543850898743,-0.1762264817953109,-0.4161792397499084,-0.2831072509288788,-0.0654790997505188,0.0,0.0,-0.555172324180603,-0.1792947053909301
-0.0723765343427658,1.0219837427139282,-0.1770727634429931,-0.4255218505859375,-0.2864172160625458,-0.0661985352635383,0.0,0.0,0.3386092185974121,-0.827288806438446
-0.0740843787789344,1.0129399299621582,-0.1691941320896148,-0.4022588729858398,-0.2880525290966034,-0.0327062830328941,0.0,0.0,-0.0109498500823974,-0.0398244857788085
-0.0757967978715896,1.0036861896514893,-0.1696167141199112,-0.4116007089614868,-0.2897183299064636,-0.033315785229206,0.0,0.0,0.6734092235565186,-0.2343317866325378
-0.0772400870919227,0.9949310421943665,-0.1432538330554962,-0.3893360197544098,-0.2908334136009216,-0.0223015379160642,0.0,0.0,-0.5808811187744141,-0.5306820869445801
-0.0787183791399002,0.9859752058982848,-0.1475876867771148,-0.398082286119461,-0.2910745143890381,-0.0048220232129096,0.0,0.0,-0.5181571841239929,-0.389796495437622
-0.0801943764090538,0.9768093228340148,-0.1473540961742401,-0.4074237644672394,-0.2913368344306946,-0.005246334709227,0.0,0.0,0.1769411563873291,-0.6236764788627625
-0.08168525993824,0.9677627682685852,-0.1499940752983093,-0.4018886387348175,-0.2904055416584015,0.0186261497437953,0.0,0.0,-0.0590018033981323,-0.4135605096817016
-0.0831696540117263,0.9585060477256776,-0.1493224650621414,-0.4112299680709839,-0.2894885838031769,0.018338993191719,0.0,0.0,0.0986943244934082,-0.671845018863678
-0.0845677405595779,0.949466109275818,-0.1420631110668182,-0.401334285736084,-0.2871718406677246,0.0463346317410469,0.0,0.0,0.7785484790802002,-0.6059320569038391
-0.0858696922659874,0.9415889978408812,-0.133326843380928,-0.3494844436645508,-0.2839552760124206,0.0643318220973014,0.0,0.0,0.2700656652450561,-0.0545525550842285
-0.087086871266365,0.9344169497489928,-0.1243766397237777,-0.3182365000247955,-0.2812135517597198,0.0548345521092414,0.0,0.0,-0.1608288288116455,-0.620219349861145
-0.0883378013968467,0.9270544052124025,-0.1290290206670761,-0.3264743983745575,-0.2771699428558349,0.0808720216155052,0.0,0.0,-0.1225595474243164,-0.1044247150421142
-0.0895715728402137,0.919481873512268,-0.1273262202739715,-0.3358165025711059,-0.2731212675571441,0.0809736400842666,0.0,0.0,-0.6153125762939453,0.2111870050430297
-0.0907863602042198,0.9116992950439452,-0.125435471534729,-0.3451584875583648,-0.269063264131546,0.0811600312590599,0.0,0.0,-0.4525248408317566,-0.3554698228836059
-0.0919801741838455,0.9037067294120787,-0.123364582657814,-0.3545003831386566,-0.2649916112422943,0.0814331322908401,0.0,0.0,-0.8612919449806213,-0.3180792331695556
-0.0931514725089073,0.8955041766166687,-0.1211217492818832,-0.3638421893119812,-0.2609018683433532,0.0817946568131446,0.0,0.0,-0.8969423770904541,-0.1702760457992553
-0.0942983627319336,0.8870915174484253,-0.1187155470252037,-0.373183935880661,-0.2567895948886871,0.0822461247444152,0.0,0.0,-0.7870876789093018,-0.120291531085968
-0.0954193100333213,0.8784688115119934,-0.1161546930670738,-0.382525622844696,-0.2526501715183258,0.0827886685729026,0.0,0.0,-0.8646933436393738,-0.3744896650314331
-0.0965128913521766,0.8696361184120178,-0.1134480088949203,-0.3918672502040863,-0.2484790086746215,0.0834232121706008,0.0,0.0,-0.8558675646781921,-0.396696925163269
-0.0975775718688964,0.8605932593345642,-0.1106043308973312,-0.4012088179588318,-0.2442715018987655,0.0841503962874412,0.0,0.0,-0.9923561811447144,-0.2615364789962768
-0.0986121147871017,0.8513404726982117,-0.1076323390007019,-0.4105502963066101,-0.2400229573249817,0.0849704891443252,0.0,0.0,-0.984214723110199,0.1870646476745605
-0.0996152907609939,0.8418776392936707,-0.104540504515171,-0.419891744852066,-0.2357288002967834,0.0858833640813827,0.0,0.0,-0.9889873266220092,-0.2310549020767212
-0.1005858406424522,0.8322045207023621,-0.1013371124863624,-0.4292331337928772,-0.2313843816518783,0.0868887603282928,0.0,0.0,-0.9847210049629213,0.0306670665740966
-0.1015227288007736,0.822321355342865,-0.0980301052331924,-0.4385744929313659,-0.2269850820302963,0.0879860073328018,0.0,0.0,-0.9804714918136596,0.0638061761856079
-0.1024249047040939,0.8122281432151794,-0.0946270897984504,-0.4479158520698547,-0.2225263863801956,0.0891741141676902,0.0,0.0,-0.9952023029327391,-0.3118106722831726
-0.1032915115356445,0.8019248843193054,-0.0911352857947349,-0.4572571814060211,-0.2180037796497345,0.0904519706964492,0.0,0.0,-0.998100519180298,-0.0192097425460815
-0.1041216850280761,0.7914114594459534,-0.087561547756195,-0.4665985107421875,-0.2134128957986831,0.0918179079890251,0.0,0.0,-0.9899381995201112,0.4177627563476562
-0.1049145683646202,0.7806879281997681,-0.0839123055338859,-0.4759398102760315,-0.208749383687973,0.0932702422142028,0.0,0.0,-0.9745537638664246,-0.2237061262130737
-0.1056695953011512,0.7697543501853943,-0.0801936089992523,-0.4852811098098755,-0.2040090262889862,0.0948070138692855,0.0,0.0,-0.9981436729431152,-0.5324437618255615
-0.1064222306013107,0.7586155533790588,-0.0809691399335861,-0.4942825138568878,-0.1982679367065429,0.1148221939802169,0.0,0.0,-0.9713746905326844,0.386021614074707
-0.1071355789899826,0.7472668886184692,-0.0771282911300659,-0.503624677658081,-0.1924418807029724,0.1165210008621215,0.0,0.0,-0.9837282299995422,-0.3044281601905823
-0.1078090667724609,0.7357080578804016,-0.0732337236404419,-0.5129669308662415,-0.1865270435810089,0.1182971224188804,0.0,0.0,-0.9805381298065186,-0.3017986416816711
-0.1084421128034591,0.7239395380020142,-0.0692899599671363,-0.5223092436790466,-0.1805196404457092,0.1201479583978653,0.0,0.0,-0.9886893630027772,-0.1816509366035461
-0.1090342551469802,0.7119608521461487,-0.0653011500835418,-0.5316516757011414,-0.1744160801172256,0.1220708936452865,0.0,0.0,-0.9835100173950196,0.2064697742462158
-0.109585091471672,0.6997724771499634,-0.0612711310386657,-0.5409942269325256,-0.1682129055261612,0.1240631788969039,0.0,0.0,-0.9995832443237304,0.3769288063049316
-0.1100940704345703,0.6873742341995239,-0.0572034418582916,-0.5503368377685547,-0.1619068086147308,0.1261217892169952,0.0,0.0,-0.996446132659912,0.5206024646759033
-0.1105231270194053,0.6747525334358215,-0.0483276806771755,-0.560382604598999,-0.1564809530973434,0.1085170656442642,0.0,0.0,-0.9620740413665771,0.4810982942581177
-0.1109096556901931,0.6619208455085754,-0.044193860143423,-0.569724440574646,-0.1509459167718887,0.1107005923986435,0.0,0.0,-0.9940687417984008,-0.0711325407028198
-0.1112534552812576,0.6488791704177856,-0.0400313101708889,-0.5790664553642273,-0.1452987939119339,0.1129422411322593,0.0,0.0,-0.9916911721229552,-0.1000056862831115
-0.1115540489554405,0.6356274485588074,-0.0358425304293632,-0.5884085893630981,-0.139536827802658,0.1152392029762268,0.0,0.0,-0.9974470138549804,-0.185806930065155
-0.1118113547563552,0.6221659183502197,-0.0316298082470893,-0.5977509021759033,-0.1336574107408523,0.1175886765122413,0.0,0.0,-0.9924601316452026,0.5116328001022339
-0.1119918823242187,0.608492910861969,-0.0232524126768112,-0.6072340607643127,-0.1284873038530349,0.1034022197127342,0.0,0.0,-0.9909871816635132,0.8258483409881592
-0.1120786666870117,0.5945914387702942,-0.0126838702708482,-0.6175016164779663,-0.1244938150048255,0.0798699781298637,0.0,0.0,-0.9951339960098268,-0.361869215965271
-0.1121212989091873,0.5804798007011414,-0.0084108496084809,-0.6268425583839417,-0.120375744998455,0.0823615342378616,0.0,0.0,-0.9725852608680724,0.6122887134552002
-0.1120799034833908,0.5661507248878479,0.0008991796639747,-0.6365907788276672,-0.1171475872397422,0.064562976360321,0.0,0.0,-0.6806192398071289,-0.4824210405349731
-0.1119940727949142,0.5516113638877869,0.0052039641886949,-0.6459312438964844,-0.1137907579541206,0.0671368017792701,0.0,0.0,-0.4536223411560058,-0.4532465934753418
-0.1118637099862098,0.5368618965148926,0.0095224846154451,-0.6552718281745911,-0.1103033497929573,0.0697481781244278,0.0,0.0,0.0462481975555419,-0.6391953825950623
-0.1116361618041992,0.5224496126174927,0.0177475046366453,-0.6401822566986084,-0.1053376942873001,0.0993133932352066,0.0,0.0,-0.343543529510498,0.3897340297698974
-0.1113638877868652,0.5078273415565491,0.0220897160470485,-0.6495240330696106,-0.1002380400896072,0.1019932255148887,0.0,0.0,0.305844783782959,0.5228593349456787
-0.1108946800231933,0.4934480786323547,0.0425182208418846,-0.6387912631034851,-0.09586813300848,0.087397888302803,0.0,0.0,0.3617594242095947,-0.3333699107170105
-0.1102146133780479,0.4795441627502441,0.0628927201032638,-0.6176357269287109,-0.090800292789936,0.1013569384813308,0.0,0.0,-0.1966535449028015,-0.2123365998268127
-0.1094894409179687,0.4654301404953003,0.0672630667686462,-0.626977801322937,-0.0855940654873848,0.1041243523359298,0.0,0.0,0.418634295463562,0.5459020137786865
-0.1086258888244628,0.4520693123340606,0.0820686072111129,-0.5935754179954529,-0.0813469588756561,0.0849422737956047,0.0,0.0,-0.4775878190994262,-0.6418604254722595
-0.1077648177742958,0.4385092854499817,0.0804538130760192,-0.6023737192153931,-0.0757447332143783,0.1120446696877479,0.0,0.0,-0.4677125215530395,0.5264151096343994
-0.1068080887198448,0.4247354567050934,0.0911450535058975,-0.6119469404220581,-0.0712652280926704,0.0895899012684822,0.0,0.0,0.1898572444915771,-0.6380271315574646
-0.1057590469717979,0.411093533039093,0.0988292694091796,-0.6060312390327454,-0.0652508363127708,0.1202880591154098,0.0,0.0,0.134286880493164,-0.144957959651947
-0.1046775802969932,0.3977685272693634,0.1020800843834877,-0.5919665098190308,-0.0592593699693679,0.1198292523622512,0.0,0.0,0.0227206945419311,0.6403722763061523
-0.1034087166190147,0.3850313425064087,0.1219055280089378,-0.5659102201461792,-0.0543328486382961,0.0985304862260818,0.0,0.0,-0.7962467670440674,-0.2348677515983581
-0.1020942702889442,0.3720841407775879,0.1263147890567779,-0.5752524137496948,-0.0492606274783611,0.1014445275068283,0.0,0.0,0.2820525169372558,-0.5449356436729431
-0.1008519157767295,0.3598679304122925,0.1180713921785354,-0.542753279209137,-0.0431794077157974,0.1216244250535965,0.0,0.0,-0.8487702012062073,0.3290987014770508
-0.0995639786124229,0.3474419116973877,0.1224863976240158,-0.5520967245101929,-0.0369510054588317,0.1245682090520858,0.0,0.0,-0.6949296593666077,0.4087177515029907
-0.0982303619384765,0.3348062932491302,0.1269035339355468,-0.5614405274391174,-0.0305747408419847,0.1275252401828766,0.0,0.0,-0.3031961917877197,0.5805881023406982
-0.0968113914132118,0.3219631612300873,0.1363017410039901,-0.5707006454467773,-0.0250457674264907,0.1105795055627822,0.0,0.0,0.3692953586578369,0.5803442001342773
-0.095312975347042,0.3095262050628662,0.1453122347593307,-0.5526829361915588,-0.0205698311328887,0.0895186811685562,0.0,0.0,0.5238776206970215,-0.0163646936416625
-0.0938650146126747,0.2977145612239837,0.1406216323375702,-0.5249114632606506,-0.0164420939981937,0.0825546085834503,0.0,0.0,0.2830748558044433,-0.2536002397537231
-0.0924814194440841,0.2863058745861053,0.1345756351947784,-0.5070182085037231,-0.012704917229712,0.0747434422373771,0.0,0.0,-0.0001155734062194,-0.1961867809295654
-0.0910520553588867,0.274687111377716,0.1389967203140258,-0.5163601040840149,-0.0088172769173979,0.0777527987957,0.0,0.0,0.2873342037200928,-0.4521999955177307
-0.0895265564322471,0.2632890045642853,0.1482276767492294,-0.5065628290176392,-0.0045576910488307,0.0851918086409568,0.0,0.0,0.4797735214233398,-0.4354197978973388
-0.0878223404288292,0.2527050971984863,0.1653439700603485,-0.4703880250453949,0.0004540280788205,0.1002347245812416,0.0,0.0,-0.4135894775390625,-0.4908426403999328
-0.0860723480582237,0.2419114410877227,0.1697619259357452,-0.4797310531139374,0.0056172758340835,0.1032650098204612,0.0,0.0,-0.1190835833549499,-0.6357008814811707
-0.0843151062726974,0.2309150248765945,0.1693589985370636,-0.4887644052505493,0.0118966978043317,0.1255885064601898,0.0,0.0,0.3506616353988647,-0.7181172370910645
-0.0825051292777061,0.2204202264547348,0.1729283481836319,-0.4665206372737884,0.0198637153953313,0.1593405902385711,0.0,0.0,0.2360081672668457,-0.6986868381500244
-0.0807230919599533,0.2106375247240066,0.1685855537652969,-0.4349421560764313,0.0293635837733745,0.1899970322847366,0.0,0.0,-0.4282084703445434,-0.2572673559188843
-0.0788953751325607,0.2006459087133407,0.1729929149150848,-0.4442909955978393,0.039015807211399,0.1930445283651352,0.0,0.0,-0.0796914100646972,-0.2300013303756714
-0.0770222693681716,0.1904454976320266,0.1773963719606399,-0.4536401629447937,0.0488205626606941,0.1960949599742889,0.0,0.0,0.2099062204360962,0.3486099243164062
-0.075215145945549,0.1807080060243606,0.1710594892501831,-0.4331164062023163,0.0583636090159416,0.1908608973026275,0.0,0.0,-0.1410360932350158,-0.0430658459663391
-0.0733625441789627,0.1707617342472076,0.175453320145607,-0.4424656331539154,0.0680593848228454,0.1939155757427215,0.0,0.0,0.1505756378173828,0.2151218652725219
-0.0715063065290451,0.1611927598714828,0.1757465749979019,-0.4257680475711822,0.0778385698795318,0.1955834925174713,0.0,0.0,0.1167415380477905,-0.1323111653327942
-0.0696152672171592,0.1519563049077987,0.1789934188127517,-0.4110654294490814,0.0878517404198646,0.200263500213623,0.0,0.0,0.1157120466232299,-0.0355453491210937
-0.0676124542951583,0.1428857147693634,0.1896117180585861,-0.4037971198558807,0.0984256789088249,0.2114787548780441,0.0,0.0,-0.111026644706726,-0.0488882064819335
-0.0655646324157714,0.1336067020893097,0.1939783096313476,-0.4131485819816589,0.1091523990035057,0.2145345509052276,0.0,0.0,0.2104774713516235,-0.475741982460022
-0.0635178536176681,0.1250034719705581,0.1936395466327667,-0.3832074701786041,0.1201167851686477,0.2192875444889068,0.0,0.0,0.0963435173034668,-0.2472317814826965
