x_pos,y_pos,x_vel,y_vel,angle,ang_vel,leg_1,leg_2,main_booster,lat_booster
-0.0015854835510253,1.4034796953201294,-0.1608199924230575,-0.3306847512722015,0.0020303139463067,0.0400697588920593,0.0,0.0,-0.149506588829817,-0.6571103937351579
-0.003279685974121,1.3959144353866575,-0.1728308796882629,-0.3362416923046112,0.0054132314398884,0.0676650255918502,0.0,0.0,0.3404617276328316,-0.690904188017499
-0.0049696923233568,1.3886914253234863,-0.1742353588342666,-0.321052998304367,0.0105947535485029,0.1036401391029357,0.0,0.0,-0.1909678291827614,-0.6382954985411472
-0.0067787170410156,1.3813209533691406,-0.1878948211669922,-0.3276426494121551,0.0175020396709442,0.1381584405899047,0.0,0.0,-0.2809454063841459,-0.6738891743043547
-0.0086874011904001,1.3738075494766235,-0.1991366147994995,-0.3340454697608948,0.025671562179923,0.1634056866168975,0.0,0.0,-0.1243126039924042,0.9781024861256123
-0.0105585101991891,1.366152286529541,-0.1931822448968887,-0.3403445780277252,0.0316783934831619,0.1201480031013488,0.0,0.0,0.6204744214180153,-0.9537469777001032
-0.0126029010862112,1.359197735786438,-0.2126059532165527,-0.3092903792858124,0.0397532507777214,0.1615121811628341,0.0,0.0,0.1575589378287059,0.7055139043260088
-0.0145458225160837,1.3527908325195312,-0.2014051377773285,-0.2849554121494293,0.0467944964766502,0.1408377885818481,0.0,0.0,0.9981628529689756,-0.8615999276903082
-0.0166728980839252,1.3477599620819092,-0.2217269241809845,-0.2238958775997162,0.0557191111147403,0.1785086989402771,0.0,0.0,-0.8722547130857667,0.6351635238490221
-0.0188018791377544,1.3425934314727783,-0.2208495587110519,-0.2299383580684662,0.0635957643389701,0.1575475633144378,0.0,0.0,0.562339487417316,-0.9099279446159564
-0.0209967605769634,1.3381274938583374,-0.2295946329832077,-0.1989399939775467,0.0736175626516342,0.2004543542861938,0.0,0.0,-0.5021899050212515,0.9492729988173816
-0.0231568329036235,1.3335251808166504,-0.224210113286972,-0.2049630135297775,0.081743374466896,0.1625309884548187,0.0,0.0,-0.8319192624932217,0.6628245949934509
-0.0253010746091604,1.328790545463562,-0.2212122976779937,-0.2108170092105865,0.0884781256318092,0.1347071975469589,0.0,0.0,-0.8572218507507947,-0.8220790604095092
-0.0275477413088083,1.3238967657089231,-0.2331170737743377,-0.2180206030607223,0.0968706831336021,0.1678663343191146,0.0,0.0,0.8560674435756004,-0.7454465626581664
-0.0298157688230276,1.3202663660049438,-0.237349584698677,-0.1620587557554245,0.1073489487171173,0.2095843106508255,0.0,0.0,0.8026251728180218,0.6646421830489552
-0.0319803245365619,1.316997766494751,-0.2261820584535598,-0.1459933817386627,0.1170348674058914,0.1937358528375625,0.0,0.0,-0.7932748366938149,-0.6420146977837322
-0.0342253670096397,1.3135870695114136,-0.2354238331317901,-0.1524886041879654,0.1279096901416778,0.2175162583589553,0.0,0.0,-0.8015542394968709,-0.7243970624534901
-0.0365529060363769,1.3100188970565796,-0.2449624240398407,-0.1596724689006805,0.1400932222604751,0.2436927109956741,0.0,0.0,0.8765454494747915,0.9367809806291196
-0.0388524048030376,1.3077123165130615,-0.2406858205795288,-0.1035623699426651,0.1508194953203201,0.2145446985960006,0.0,0.0,-0.5397870658147164,0.686873215588594
-0.0411417968571186,1.3052725791931152,-0.2386746108531952,-0.1094455420970916,0.1605589091777801,0.1948055326938629,0.0,0.0,0.5727878372952695,-0.7492830643606709
-0.0435070991516113,1.3037734031677246,-0.2481888830661773,-0.0679334178566932,0.1722426265478134,0.2336955517530441,0.0,0.0,-0.5843554615360655,0.7684791309929596
-0.04584426805377,1.302142858505249,-0.243976429104805,-0.0736960172653198,0.1825567036867141,0.2062996327877044,0.0,0.0,-0.6211737750413162,-0.7286555700926062
-0.0482570640742778,1.3003562688827517,-0.2528659701347351,-0.0808719545602798,0.1942146122455597,0.2331786453723907,0.0,0.0,-0.9173551674962122,-0.7289870949163877
-0.0507487282156944,1.298404574394226,-0.2621974647045135,-0.0885014086961746,0.2073649913072586,0.2630312740802765,0.0,0.0,-0.4028502424513607,0.7560784385018086
-0.0532243736088275,1.2963271141052246,-0.2596068382263183,-0.09407988935709,0.2195437401533126,0.2435968816280365,0.0,0.0,0.6742047150171306,0.8833421352594479
-0.0559720993041992,1.2951037883758545,-0.2849731743335724,-0.0559161379933357,0.2298791110515594,0.2067068815231323,0.0,0.0,0.7397086707970459,-0.8732703749526449
-0.0589823722839355,1.2948386669158936,-0.3131290376186371,-0.0137200020253658,0.2421672791242599,0.2457632720470428,0.0,0.0,0.7931025092566117,0.7306585396026668
-0.0623255744576454,1.2957080602645874,-0.3447934985160827,0.0368782952427864,0.2528249025344848,0.2131523638963699,0.0,0.0,0.2686297333169989,0.9511046565052768
-0.0658803954720497,1.297290325164795,-0.3641793131828308,0.0688049048185348,0.2616905570030212,0.177313357591629,0.0,0.0,0.3380095355419212,-0.6772121036052323
-0.0696267113089561,1.2992714643478394,-0.3847784996032715,0.0862010195851326,0.2720800340175628,0.2077903002500534,0.0,0.0,-0.8113321686874155,-0.6026453624154602
-0.0734369307756424,1.301098108291626,-0.3924636840820312,0.0790076404809951,0.2838256359100342,0.2349119931459427,0.0,0.0,-0.318609177948169,-0.6414552936956546
-0.0773181915283203,1.3027548789978027,-0.4011212885379791,0.0710567310452461,0.2972213327884674,0.2679136991500854,0.0,0.0,0.890451125438406,-0.7457289211426743
-0.0816390067338943,1.3055219650268557,-0.4464467167854309,0.1199700087308883,0.3120703399181366,0.2969801127910614,0.0,0.0,0.3022164394480615,-0.6029936942514091
-0.0861578956246376,1.3085010051727295,-0.4674370884895324,0.1289842873811721,0.3282216191291809,0.3230253159999847,0.0,0.0,-0.6249805422817896,-0.8720479894064095
-0.0907535552978515,1.3113093376159668,-0.4768186509609222,0.1207912191748619,0.3462708294391632,0.3609848022460937,0.0,0.0,-0.016549290174711,0.8082002136279323
-0.0953005775809288,1.3140164613723757,-0.4703875184059143,0.1164539232850074,0.3627695739269256,0.3299747109413147,0.0,0.0,-0.8959637366605495,0.8527489508952212
-0.0997967720031738,1.316612720489502,-0.463784784078598,0.1117313429713249,0.3777566850185394,0.2997420132160187,0.0,0.0,0.6175847375844983,-0.622292444828932
-0.1045858412981033,1.3201069831848145,-0.494415819644928,0.1511064171791076,0.3942661881446838,0.3301902413368225,0.0,0.0,-0.4828036566124523,0.6289643739488792
-0.1093419045209884,1.3234933614730835,-0.4900097846984863,0.1464313417673111,0.4097028076648712,0.3087331652641296,0.0,0.0,-0.7041651217130331,0.860561421808107
-0.1140399947762489,1.3267815113067627,-0.4825103282928467,0.1423986107110977,0.4234175980091095,0.274295836687088,0.0,0.0,-0.977751845586655,-0.9491914996118216
-0.1188253387808799,1.3298816680908203,-0.493422657251358,0.133228525519371,0.4395846724510193,0.3233415484428406,0.0,0.0,-0.8586929440498352,0.99583101272583
-0.123529240489006,1.332898497581482,-0.4830107092857361,0.1300651282072067,0.4533910453319549,0.2761280536651611,0.0,0.0,-0.9476579427719116,0.9908071756362916
-0.1281518042087555,1.335822820663452,-0.4727474153041839,0.1265158653259277,0.4649403095245361,0.2309847623109817,0.0,0.0,-0.9756430983543396,0.9818395376205444
-0.1326954811811447,1.3386627435684204,-0.4627593159675598,0.1233879998326301,0.4742231070995331,0.1856562197208404,0.0,0.0,-0.9624584317207336,0.9883053302764891
-0.1371720284223556,0.0,-0.4543907046318054,0.1192702800035476,0.4817095398902893,0.1497291177511215,0.0,0.0,-0.8438393473625183,0.9742233753204346
-0.1415723860263824,1.3440393209457395,-0.4448913931846618,0.1156578361988067,0.4871212542057037,0.1082340627908706,0.0,0.0,-0.9812382459640504,0.9882595539093018
-0.1458946168422699,1.3465909957885742,-0.4351179599761963,0.1123837158083915,0.4903587400913238,0.0647497624158859,0.0,0.0,-0.9715834856033324,0.9263967275619508
-0.1501660346984863,1.3490488529205322,-0.4286946356296539,0.1086898371577262,0.4920954704284668,0.03473462164402,0.0,0.0,-0.9858638048171996,0.904752254486084
-0.1543887108564376,1.3514087200164795,-0.4225613176822662,0.1047765091061592,0.4924278259277344,0.0066470159217715,0.0,0.0,-0.9883618354797364,0.8356703519821167
-0.1585514992475509,1.3536670207977295,-0.4151479601860046,0.1007733270525932,0.4911514222621918,-0.0255280435085296,0.0,0.0,-0.9569265842437744,0.8663101196289062
-0.1626363694667816,1.355840086936951,-0.4053966104984283,0.0976825878024101,0.4876946806907654,-0.0691340416669845,0.0,0.0,-0.9608352780342102,0.8244681358337402
-0.1666670739650726,1.357914924621582,-0.3986187577247619,0.0937792211771011,0.4827306270599365,-0.0992813259363174,0.0,0.0,-0.9873281717300416,0.2831971645355224
-0.1706928312778473,1.359845757484436,-0.3981659114360809,0.0873425230383873,0.4778279662132263,-0.0980531126260757,0.0,0.0,-0.9900636076927184,0.6551265716552734
-0.1746694594621658,0.0,-0.3920339941978454,0.0831529572606086,0.4715860784053802,-0.1248375549912452,0.0,0.0,-0.8804915547370911,0.4990783929824829
-0.1786403656005859,1.3633568286895752,-0.3914905786514282,0.0767159238457679,0.4653880298137665,-0.1239607185125351,0.0,0.0,-0.9490155577659608,0.8087891340255737
-0.1825567185878753,1.36492919921875,-0.3847576975822449,0.0721602737903595,0.4578047394752502,-0.1516660153865814,0.0,0.0,-0.9949779510498048,0.7215852737426758
-0.186410516500473,1.3664069175720217,-0.3769012093544006,0.0684316307306289,0.4484927356243133,-0.1862398982048034,0.0,0.0,-0.9932042956352234,0.7274961471557617
-0.1901960372924804,1.3677892684936523,-0.3683388531208038,0.064680628478527,0.4373261630535126,-0.2233315259218216,0.0,0.0,-0.9935604333877563,0.4457103013992309
-0.1939755380153656,1.3690285682678225,-0.3676826953887939,0.0582384690642356,0.4261666238307953,-0.2231909781694412,0.0,0.0,-0.9962502121925354,-0.190313458442688
-0.1977488547563552,1.370124578475952,-0.3670144379138946,0.0517966076731681,0.4150047600269317,-0.2232367545366287,0.0,0.0,-0.9993863701820374,0.6663347482681274
-0.2014626562595367,1.3711066246032717,-0.3596085608005523,0.0470512956380844,0.4023395776748657,-0.2533037960529327,0.0,0.0,-0.9973765015602112,0.1833342313766479
-0.2051705420017242,1.371945858001709,-0.3589317500591278,0.0406071692705154,0.3896537721157074,-0.2537164688110351,0.0,0.0,-0.9947563409805298,-0.0746321082115173
-0.2088726013898849,1.3726420402526855,-0.3582602739334106,0.0341632030904293,0.3769383728504181,-0.2543086111545563,0.0,0.0,-0.9883103966712952,0.5214654207229614
-0.2125296592712402,1.3732199668884275,-0.352611243724823,0.0290729776024818,0.3630674481391907,-0.2774192988872528,0.0,0.0,-0.9974290728569032,-0.5882731080055237
-0.2162230014801025,1.3736265897750854,-0.3572576642036438,0.0210796240717172,0.3503479957580566,-0.2543891966342926,0.0,0.0,-0.9669109582901,0.1432952880859375
-0.2199111878871917,1.3738902807235718,-0.3566362559795379,0.0146360397338867,0.3375734090805053,-0.2554917931556701,0.0,0.0,-0.8032869100570679,-0.0759028196334838
-0.2235946208238601,1.3740111589431765,-0.3560425937175751,0.0081924507394433,0.3247357606887817,-0.2567527294158935,0.0,0.0,-0.9865320324897766,-0.5158441662788391
-0.227305456995964,1.3739662170410156,-0.3595473170280456,0.0005474573699757,0.3127440512180328,-0.2398339956998825,0.0,0.0,-0.9782060980796814,0.0678346157073974
-0.2310122996568679,1.373777985572815,-0.3590262234210968,-0.0058944458141922,0.3006745278835296,-0.2413913458585739,0.0,0.0,-0.999476194381714,0.5467774868011475
-0.2346804589033126,1.3734606504440308,-0.3541239798069,-0.0115327518433332,0.2875840067863464,-0.2618105709552765,0.0,0.0,-0.996787428855896,-0.2103189826011657
-0.2383456230163574,1.3730005025863647,-0.3536944985389709,-0.0179767925292253,0.2744023501873016,-0.2636331617832184,0.0,0.0,-0.9685056209564208,-0.6001609563827515
-0.2420519292354583,1.372380018234253,-0.3587849736213684,-0.0253947954624891,0.2622768878936767,-0.2425094544887542,0.0,0.0,-0.9973171353340148,-0.3967355489730835
-0.2457564324140548,1.3716164827346802,-0.3584691286087036,-0.0318369045853614,0.2500485181808471,-0.2445674389600753,0.0,0.0,-0.929755926132202,0.0749526023864746
-0.2494598925113678,1.370709776878357,-0.3582167625427246,-0.0382792502641677,0.2377119809389114,-0.2467310726642608,0.0,0.0,-0.9386131167411804,-0.2623460292816162
-0.2531629502773285,1.3696601390838623,-0.3580325245857239,-0.0447218641638755,0.2252623438835144,-0.2489926815032959,0.0,0.0,-0.9226595759391784,-0.5388472676277161
-0.2569023072719574,1.3684487342834473,-0.3624643683433532,-0.0521187931299209,0.2136626541614532,-0.2319937646389007,0.0,0.0,-0.8989425301551819,-0.0427861213684082
-0.2606427669525146,1.3670941591262815,-0.3624302446842193,-0.0585601069033145,0.2019411772489547,-0.2344299256801605,0.0,0.0,-0.9087406396865844,0.5488873720169067
-0.2643441259860992,1.3656142950057983,-0.357276052236557,-0.0640667304396629,0.1890026926994323,-0.2587698400020599,0.0,0.0,-0.8536295890808105,0.2609356641769409
-0.2680483758449554,1.3639918565750122,-0.3574072420597076,-0.0705109387636184,0.1759351193904876,-0.2613514959812164,0.0,0.0,-0.5150094032287598,0.3396787643432617
-0.2717564702033996,1.3622262477874756,-0.3576273024082184,-0.0769555419683456,0.1627352982759475,-0.2639966309070587,0.0,0.0,-0.3158069252967834,0.2154737710952758
-0.2754693031311035,1.3603181838989258,-0.3579397797584533,-0.083400584757328,0.1494003385305404,-0.2666992247104645,0.0,0.0,-0.5568522214889526,-0.2449235916137695
-0.2791878283023834,1.358267307281494,-0.3583481609821319,-0.0898460522294044,0.1359276622533798,-0.2694535851478576,0.0,0.0,-0.4406182765960693,0.7272074222564697
-0.2828657627105713,1.3560839891433716,-0.3529035151004791,-0.0957519337534904,0.1211063116788864,-0.2964271306991577,0.0,0.0,-0.8724695444107056,0.8649907112121582
-0.2864900529384613,1.353773593902588,-0.3457903265953064,-0.1014118269085884,0.1045716926455497,-0.3306923508644104,0.0,0.0,-0.8986251950263977,-0.3743665218353271
-0.2901232838630676,1.3513219356536863,-0.3465033769607544,-0.1078658029437065,0.0878932550549507,-0.333568811416626,0.0,0.0,-0.94342702627182,0.7923769950866699
-0.2936948835849762,1.3487391471862793,-0.3383514285087585,-0.1137868613004684,0.0692617446184158,-0.3726301789283752,0.0,0.0,-0.366420030593872,0.631238579750061
-0.2972254753112793,1.3460159301757812,-0.3327532410621643,-0.120222695171833,0.0491787083446979,-0.4016607701778412,0.0,0.0,-0.8323147892951965,-0.1029272079467773
-0.3007681965827942,1.3431531190872192,-0.3337945938110351,-0.1266883015632629,0.0289478059858083,-0.4046183228492737,0.0,0.0,-0.8076856732368469,0.8823375701904297
-0.3042372763156891,0.0,-0.3240519165992737,-0.1329548358917236,0.0063841990195214,-0.4512723982334137,0.0,0.0,-0.4905742406845093,0.876255989074707
-0.3076351284980774,1.3370141983032229,-0.314604789018631,-0.1396830230951309,-0.01847480610013,-0.4971802830696106,0.0,0.0,-0.3181467652320862,-0.6949747800827026
-0.3111037611961365,1.3337429761886597,-0.3229512274265289,-0.1458569020032882,-0.0420885384082794,-0.4722746312618255,0.0,0.0,-0.7106174230575562,-0.4653050899505615
-0.3145888447761535,0.0,-0.3244579136371612,-0.1523366421461105,-0.0658531785011291,-0.475293219089508,0.0,0.0,-0.794059693813324,-0.6231734156608582
-0.3181301653385162,1.3267946243286133,-0.3309711515903473,-0.1584981977939605,-0.0887846946716308,-0.4586305618286133,0.0,0.0,-0.6969188451766968,-0.072232186794281
-0.321690022945404,1.32311749458313,-0.3327163457870483,-0.1649757474660873,-0.1118681728839874,-0.4616698622703552,0.0,0.0,-0.3136687278747558,-0.8057824373245239
-0.3253385126590729,1.319311499595642,-0.3432439267635345,-0.1709084808826446,-0.1333570033311844,-0.4297764897346496,0.0,0.0,-0.5152450799942017,-0.6976780891418457
-0.3290540277957916,1.3153846263885498,-0.3510556817054748,-0.1764858663082122,-0.1537966281175613,-0.4087925553321838,0.0,0.0,-0.6754602193832397,-0.8539776802062988
-0.3328608572483063,1.3113341331481934,-0.3618657886981964,-0.1820685267448425,-0.1726145297288894,-0.3763580024242401,0.0,0.0,-0.6453081965446472,-0.0576222538948059
-0.336690753698349,1.307144045829773,-0.3640846312046051,-0.1885325312614441,-0.1915856003761291,-0.3794218003749847,0.0,0.0,-0.4268810749053955,-0.5130763649940491
-0.3405786156654358,1.302826762199402,-0.3706676661968231,-0.1943308562040329,-0.2098269909620285,-0.3648280501365661,0.0,0.0,-0.9324127435684204,0.6764721870422363
-0.3444433212280273,1.2983592748641968,-0.3670639991760254,-0.2014304846525192,-0.2294577807188034,-0.3926161527633667,0.0,0.0,-0.0268402695655822,-0.6551204323768616
-0.3483909666538238,1.2937768697738647,-0.376768410205841,-0.2065716236829757,-0.2477359622716903,-0.3655635714530945,0.0,0.0,0.2551960945129394,-0.4616925716400146
-0.3522916734218597,1.2896116971969604,-0.3719163537025451,-0.1882881969213485,-0.2662546634674072,-0.3703744411468506,0.0,0.0,-0.4053130149841308,-0.9698470830917358
-0.3563087582588196,1.2853431701660156,-0.3857871890068054,-0.1926928162574768,-0.282581090927124,-0.3265286982059479,0.0,0.0,0.574840784072876,-0.0149803757667541
-0.3603540956974029,1.2817132472991943,-0.3878930211067199,-0.1646460741758346,-0.2997238934040069,-0.3428559303283691,0.0,0.0,0.1240392923355102,0.33077073097229
-0.3642168939113617,1.278611660003662,-0.3699001669883728,-0.1413171887397766,-0.3166861236095428,-0.3392452597618103,0.0,0.0,-0.051843523979187,-0.8885707855224609
-0.3681727349758148,1.2753912210464478,-0.3807072341442108,-0.1464585810899734,-0.3321815431118011,-0.3099081218242645,0.0,0.0,0.3911535739898681,-0.4655032157897949
-0.3718365132808685,1.272880792617798,-0.3519628047943115,-0.1149599030613899,-0.3472645282745361,-0.301659494638443,0.0,0.0,0.2984997034072876,-0.3500932455062866
-0.3753433227539062,1.2710987329483032,-0.3361262679100036,-0.0827923491597175,-0.3625828623771667,-0.3063665628433227,0.0,0.0,-0.7619202136993408,-0.8422300219535828
-0.3789297044277191,1.2692112922668457,-0.3452755212783813,-0.0873310640454292,-0.3767207860946655,-0.2827590703964233,0.0,0.0,-0.7579665184020996,-0.8569635152816772
-0.3826063573360443,1.2672144174575806,-0.355689525604248,-0.0919566079974174,-0.389468789100647,-0.2549596428871155,0.0,0.0,-0.1874025464057922,-0.5437023043632507
-0.3863583207130432,1.265105128288269,-0.3641993403434753,-0.0967982336878776,-0.4012253582477569,-0.2351315468549728,0.0,0.0,-0.3466867208480835,-0.8007988929748535
-0.3901979923248291,1.2628928422927856,-0.3742794096469879,-0.1010940745472908,-0.4116340577602386,-0.2081740796566009,0.0,0.0,-0.0888254642486572,-0.3076710700988769
-0.394076257944107,1.2605379819869995,-0.378034234046936,-0.1075399592518806,-0.4221935272216797,-0.2111893892288208,0.0,0.0,0.5406975746154785,-0.7133352756500244
-0.3979224562644958,1.2589421272277832,-0.3759063184261322,-0.0735718458890914,-0.4316469132900238,-0.1890677660703659,0.0,0.0,0.1161681413650512,-0.851660966873169
-0.4018162786960602,1.2577801942825315,-0.3821636140346527,-0.0538790114223957,-0.439504861831665,-0.1571587175130844,0.0,0.0,0.5338913202285767,-0.7613361477851868
-0.4056025147438049,1.2572373151779177,-0.3727034032344818,-0.0259994734078645,-0.4459624588489532,-0.1291518807411193,0.0,0.0,0.3729563951492309,0.1081458330154419
-0.4092196524143219,1.2571369409561155,-0.3557713031768799,-0.006369138136506,-0.4524695873260498,-0.1301433593034744,0.0,0.0,0.0296418666839599,-0.6810514330863953
-0.4127472937107086,1.2571640014648438,-0.348054826259613,-0.0003378557739779,-0.4576438665390014,-0.1034864336252212,0.0,0.0,-0.1761152744293213,-0.5360334515571594
-0.4163486361503601,1.2570728063583374,-0.3561602532863617,-0.0053668152540922,-0.4620237052440643,-0.0875968560576438,0.0,0.0,-0.0972838401794433,-0.2567958831787109
-0.4199934899806976,1.2568379640579224,-0.3603831827640533,-0.0118062635883688,-0.4665516018867492,-0.0905574336647987,0.0,0.0,0.2003358602523803,0.1936471462249755
-0.4235390722751617,1.2567319869995115,-0.350523442029953,-0.0060726488009095,-0.4710131287574768,-0.0892308205366134,0.0,0.0,-0.185261070728302,0.1775381565093994
