x_pos,y_pos,x_vel,y_vel,angle,ang_vel,leg_1,leg_2,main_booster,lat_booster
-0.0015187263488769,1.4035378694534302,-0.1535309106111526,-0.328095406293869,0.0014849524013698,0.029271375387907,0.0,0.0,-0.509890079498291,0.6573833227157593
-0.002978992415592,1.3960893154144287,-0.1457710564136505,-0.3310478627681732,0.0012293882900848,-0.0051111294887959,0.0,0.0,-0.2385575771331787,0.6091666221618652
-0.004380798432976,1.3885494470596311,-0.1381323486566543,-0.3351068496704101,-0.0007950689760036,-0.0404927879571914,0.0,0.0,-0.1396158933639526,0.3663151264190674
-0.0057851793244481,1.3809229135513306,-0.1380739212036132,-0.3389554321765899,-0.0031239998061209,-0.0465828701853752,0.0,0.0,0.0139129161834716,0.4164156913757324
-0.0071142194792628,1.373810052871704,-0.1306122690439224,-0.3161365091800689,-0.0053860088810324,-0.0452447719871997,0.0,0.0,-0.1464744806289672,0.6193075180053711
-0.0083911893889307,1.3666092157363892,-0.1235678642988205,-0.3200530707836151,-0.0094710001721978,-0.0817074105143547,0.0,0.0,-0.4044724702835083,-0.0630883574485778
-0.0096785547211766,1.3593223094940186,-0.1242838352918624,-0.3238968551158905,-0.0138796884566545,-0.0881817638874054,0.0,0.0,-0.2911853790283203,-0.5600206851959229
-0.0110122682526707,1.3519515991210938,-0.12942735850811,-0.3276324570178985,-0.0177846979349851,-0.0781072825193405,0.0,0.0,0.0133407115936279,0.3867894411087036
-0.0123601909726858,1.345264554023743,-0.1304750740528106,-0.2972583472728729,-0.0220616590231657,-0.0855468213558197,0.0,0.0,-0.5918201208114624,-0.6352274417877197
-0.0137769700959324,1.3384966850280762,-0.1382820010185241,-0.3008430898189544,-0.0254195947200059,-0.0671648308634758,0.0,0.0,-0.2364978194236755,-0.2450572252273559
-0.0152152059599757,1.3316428661346436,-0.1400887817144394,-0.3046864867210388,-0.0291251298040151,-0.0741173028945922,0.0,0.0,-0.6585462093353271,0.2232594490051269
-0.0166779514402151,1.3247027397155762,-0.14217010140419,-0.3085331618785858,-0.0331822112202644,-0.0811491757631301,0.0,0.0,-0.8284204006195068,-0.1923965215682983
-0.0181678775697946,1.3176765441894531,-0.1445266008377075,-0.3123804032802582,-0.0375956259667873,-0.0882764756679534,0.0,0.0,-0.7265031933784485,-0.244729459285736
-0.0196877475827932,1.310564398765564,-0.1471574604511261,-0.3162282109260559,-0.0423696003854274,-0.0954879596829414,0.0,0.0,-0.8784249424934387,0.6500042676925659
-0.0211768150329589,1.3033690452575684,-0.1421110332012176,-0.3200021088123321,-0.0490986406803131,-0.1345931440591812,0.0,0.0,-0.7947959899902344,-0.7222700715065002
-0.0227480884641408,1.2960827350616455,-0.1511516571044922,-0.3240377604961395,-0.0550232380628585,-0.1185025572776794,0.0,0.0,-0.8343421816825867,0.0015976428985595
-0.0243576057255268,1.2887108325958252,-0.1545934826135635,-0.3278875350952148,-0.0613200776278972,-0.1259482204914093,0.0,0.0,-0.8519679307937622,0.1226410865783691
-0.0260079391300678,1.2812533378601074,-0.1582996547222137,-0.3317382633686065,-0.0679912194609642,-0.133434772491455,0.0,0.0,-0.8266613483428955,0.2953070402145386
-0.0277017597109079,1.2737102508544922,-0.1622664928436279,-0.335589736700058,-0.075039729475975,-0.1409829705953598,0.0,0.0,-0.9375465512275696,0.4239182472229004
-0.0294416435062885,1.26608145236969,-0.1664891690015792,-0.3394420742988586,-0.0824682042002677,-0.1485830247402191,0.0,0.0,-0.9128735065460204,0.5184531211853027
-0.0311802867799997,1.2583651542663574,-0.1647336632013321,-0.3434696495532989,-0.09152802079916,-0.1812127828598022,0.0,0.0,-0.8570988178253174,0.7772537469863892
-0.032907772809267,1.2505512237548828,-0.1616485863924026,-0.3479993939399719,-0.1025508493185043,-0.2204764187335968,0.0,0.0,-0.8337606191635132,0.7846689224243164
-0.034613512456417,1.242640733718872,-0.1571919620037078,-0.352553516626358,-0.1158602759242057,-0.2662125825881958,0.0,0.0,-0.8340398073196411,-0.1711229085922241
-0.0363747589290142,1.234646558761597,-0.1623678803443908,-0.3564198315143585,-0.1295564919710159,-0.2739487886428833,0.0,0.0,-0.922347366809845,-0.7429154515266418
-0.0382655151188373,1.226584792137146,-0.1767901480197906,-0.3594124019145965,-0.1418073326349258,-0.2450387924909591,0.0,0.0,-0.9312695860862732,-0.4687458276748657
-0.0402183532714843,1.218418002128601,-0.1826160848140716,-0.3642221391201019,-0.1544500440359115,-0.2528538405895233,0.0,0.0,-0.9594942331314088,-0.5962197780609131
-0.0422794334590435,1.2101819515228271,-0.194261223077774,-0.3673168122768402,-0.1662991344928741,-0.2369816750288009,0.0,0.0,-0.9628121852874756,-0.8080754280090332
-0.0444807037711143,1.2018895149230957,-0.2098741084337234,-0.3697315156459808,-0.1765689700841903,-0.2053968012332916,0.0,0.0,-0.9679524302482604,-0.4198532700538635
-0.0467484481632709,1.193513035774231,-0.2161424905061721,-0.3735893070697784,-0.1872356534004211,-0.2133332937955856,0.0,0.0,-0.8030184507369995,0.0260860919952392
-0.0490843765437603,1.185052752494812,-0.2225989550352096,-0.3774480819702148,-0.1983003765344619,-0.2212945967912674,0.0,0.0,-0.8325206637382507,-0.600120484828949
-0.0515346527099609,1.1765285730361938,-0.2348090857267379,-0.3802545368671417,-0.2085914611816406,-0.2058215886354446,0.0,0.0,-0.7714201807975769,-0.6230425834655762
-0.0541114807128906,1.1679340600967407,-0.2485032826662063,-0.3833068311214447,-0.2178704887628555,-0.1855805814266204,0.0,0.0,-0.9439688324928284,-0.7194008231163025
-0.0568239204585552,1.1592828035354614,-0.2633111476898193,-0.3857002556324005,-0.2258985936641693,-0.1605618894100189,0.0,0.0,-0.7890503406524658,0.4979243278503418
-0.0596115104854106,1.150546908378601,-0.2704385817050934,-0.3895562887191772,-0.234328344464302,-0.1685952842235565,0.0,0.0,-0.7244967222213745,-0.9369783997535706
-0.0625452995300293,1.1417535543441772,-0.2864925265312195,-0.391927033662796,-0.2413200438022613,-0.1398339718580246,0.0,0.0,-0.652040958404541,-0.6358193755149841
-0.0656034499406814,1.1328977346420288,-0.2997808754444122,-0.3946007788181305,-0.2474657297134399,-0.1229134574532508,0.0,0.0,-0.7915470600128174,-0.6530013084411621
-0.068793773651123,1.1239736080169678,-0.3139477670192718,-0.3974940478801727,-0.2526405751705169,-0.1034970507025718,0.0,0.0,-0.1257251501083374,0.6296789646148682
-0.0720127075910568,1.1149497032165527,-0.3151039481163025,-0.4022473990917206,-0.259567528963089,-0.1385387778282165,0.0,0.0,-0.8001545071601868,0.8322882652282715
-0.0752525329589843,1.1058268547058103,-0.3152738809585571,-0.4070281088352203,-0.2684630453586578,-0.177910178899765,0.0,0.0,-0.8870296478271484,-0.1023286581039428
-0.0785751342773437,1.096619963645935,-0.3231841325759887,-0.4108866751194,-0.2777613401412964,-0.1859662532806396,0.0,0.0,-0.9240643978118896,-0.7742733359336853
-0.0820494666695594,1.0873647928237915,-0.3397911190986633,-0.412811666727066,-0.2856073081493377,-0.1569191813468933,0.0,0.0,-0.8538145422935486,-0.8762629628181458
-0.085661694407463,1.078046798706055,-0.3545853495597839,-0.4154539704322815,-0.2924429476261139,-0.1367127001285553,0.0,0.0,-0.8663684725761414,0.2749818563461303
-0.0893597602844238,1.0686442852020264,-0.3627958297729492,-0.4193106293678283,-0.2996801435947418,-0.1447438448667526,0.0,0.0,-0.6198174953460693,-0.5306723117828369
-0.0931780785322189,1.0591720342636108,-0.3753232359886169,-0.4223476350307464,-0.30641770362854,-0.1347511559724807,0.0,0.0,-0.6626395583152771,-0.0992348790168762
-0.0970839485526084,1.049615502357483,-0.3837056457996368,-0.4262046217918396,-0.3135551810264587,-0.1427495777606964,0.0,0.0,-0.8439943790435791,-0.2364476323127746
-0.1010782271623611,1.039974808692932,-0.392166405916214,-0.4300622045993805,-0.3210915327072143,-0.1507267355918884,0.0,0.0,-0.6177128553390503,-0.2482651472091674
-0.1051613837480545,1.030250072479248,-0.4007005095481872,-0.4339204728603363,-0.329025536775589,-0.1586793959140777,0.0,0.0,-0.513729989528656,0.3238589763641357
-0.10933418571949,1.0204412937164309,-0.4093034267425537,-0.437779426574707,-0.3373557329177856,-0.1666040271520614,0.0,0.0,-0.7101294994354248,0.1429020166397094
-0.1135971993207931,1.0105489492416382,-0.4179706573486328,-0.4416390657424927,-0.3460806012153625,-0.1744972020387649,0.0,0.0,-0.5540618896484375,0.3895673751831054
-0.1179511100053787,1.0005728006362915,-0.4266979694366455,-0.445499449968338,-0.3551983535289764,-0.1823551952838897,0.0,0.0,-0.6461139917373657,-0.3853666186332702
-0.1223961859941482,0.9905132055282592,-0.435481458902359,-0.449360579252243,-0.3647070527076721,-0.1901740580797195,0.0,0.0,-0.7128466367721558,0.1405969858169555
-0.1269328147172927,0.9803698658943176,-0.4443171620368957,-0.4532225728034973,-0.3746045231819153,-0.1979496926069259,0.0,0.0,-0.686843752861023,0.1944611072540283
-0.131561666727066,0.9701432585716248,-0.4532015919685364,-0.4570852816104889,-0.3848884105682373,-0.205677792429924,0.0,0.0,-0.6797903180122375,0.4374375343322754
-0.1362829208374023,0.9598334431648254,-0.4621313214302063,-0.4609488546848297,-0.395556092262268,-0.2133538424968719,0.0,0.0,-0.90150386095047,0.2838307619094848
-0.1410970687866211,0.9494406580924988,-0.4711031317710876,-0.4648131728172302,-0.4066047370433807,-0.2209730446338653,0.0,0.0,-0.8668902516365051,0.011633276939392
-0.1460042893886566,0.9389647245407104,-0.4801138937473297,-0.4686783254146576,-0.418031245470047,-0.2285303175449371,0.0,0.0,-0.8242828845977783,0.1841564178466797
-0.1510047912597656,0.9284061193466188,-0.4891607165336609,-0.4725442826747894,-0.4298322796821594,-0.2360202968120575,0.0,0.0,-0.7708961367607117,-0.4296427369117737
-0.1560989320278167,0.9177648425102234,-0.4982408881187439,-0.4764110743999481,-0.4420041739940643,-0.2434373646974563,0.0,0.0,-0.9312109351158142,-0.1748877763748169
-0.1612870246171951,0.9070410132408142,-0.5073516964912415,-0.4802786707878113,-0.4545429348945617,-0.2507754266262054,0.0,0.0,-0.4448152780532837,0.1187520027160644
-0.1665689498186111,0.8962347507476807,-0.5164905786514282,-0.4841471314430237,-0.4674443304538727,-0.2580281794071197,0.0,0.0,-0.1868073940277099,-0.3316771984100342
-0.1719450056552887,0.8853462934494019,-0.5256552696228027,-0.4880163371562958,-0.4807037711143493,-0.2651888728141784,0.0,0.0,-0.2580540776252746,-0.3481178283691406
-0.1774152815341949,0.8743755221366882,-0.5348433256149292,-0.4918863177299499,-0.4943162798881531,-0.2722503542900085,0.0,0.0,0.3213770389556885,-0.1214098930358886
-0.1826966255903244,0.8637986183166504,-0.5161387920379639,-0.4744608104228973,-0.5078195929527283,-0.2700660824775696,0.0,0.0,-0.2108222246170044,-0.3975557088851928
-0.1880723983049392,0.8531395792961121,-0.5253663063049316,-0.4783313870429992,-0.5216649174690247,-0.2769060730934143,0.0,0.0,0.442493200302124,-0.4163899421691894
-0.1933622360229492,0.8428486585617065,-0.5166047215461731,-0.4621902108192444,-0.5358144640922546,-0.2829907536506653,0.0,0.0,-0.4401088953018188,-0.2947228550910949
-0.1987465918064117,0.8324758410453796,-0.5258640646934509,-0.4660619795322418,-0.5502932071685791,-0.2895746827125549,0.0,0.0,-0.6143873333930969,-0.5700705647468567
-0.2042593508958816,0.8220601677894592,-0.5395668745040894,-0.4677756130695343,-0.5639110803604126,-0.2723570466041565,0.0,0.0,0.4146636724472046,0.0061362981796264
-0.2096734493970871,0.8118234276771545,-0.5298008918762207,-0.4599242508411407,-0.5775183439254761,-0.2721448540687561,0.0,0.0,0.7578996419906616,-0.1800958514213562
-0.2146619260311126,0.802622377872467,-0.4872010350227356,-0.4140588343143463,-0.5912988781929016,-0.2756112515926361,0.0,0.0,0.8295739889144897,-0.5006977915763855
-0.2195773124694824,0.7941150069236755,-0.4803850054740906,-0.3831653892993927,-0.6046168804168701,-0.2663601338863373,0.0,0.0,0.9578020572662354,-0.6970067024230957
-0.2242707312107086,0.7866635918617249,-0.4590702652931213,-0.3359594941139221,-0.6169877052307129,-0.2474162578582763,0.0,0.0,0.8265296220779419,-0.6775817275047302
-0.228672981262207,0.7799858450889587,-0.4310860633850097,-0.3011511862277984,-0.6280856132507324,-0.2219584733247757,0.0,0.0,0.9618470668792723,-0.6844577789306641
-0.232753187417984,0.7746398448944092,-0.3996452689170837,-0.2416931539773941,-0.638342559337616,-0.2051386088132858,0.0,0.0,0.9832803010940552,-0.8139706254005432
-0.2364884912967682,0.7700161337852478,-0.3665939569473266,-0.2089572846889495,-0.646893322467804,-0.1710148602724075,0.0,0.0,0.9880003929138184,-0.478972315788269
-0.2400668561458587,0.7659087181091309,-0.3506058752536773,-0.1862301379442215,-0.6558760404586792,-0.1796538978815078,0.0,0.0,0.9911532402038574,-0.0823276042938232
-0.2434356659650802,0.7621081471443176,-0.3298079073429107,-0.1725681722164154,-0.6647111177444458,-0.176701545715332,0.0,0.0,0.9809728860855104,-0.8091182708740234
-0.246732622385025,0.7587940692901611,-0.3238261938095093,-0.1503845304250717,-0.672089695930481,-0.1475721299648285,0.0,0.0,0.992647647857666,-0.6989270448684692
-0.2495760023593902,0.7565839290618896,-0.2795377969741821,-0.1007876396179199,-0.6781538128852844,-0.1212819665670394,0.0,0.0,0.9118707180023192,-0.7612432837486267
-0.2518852353096008,0.7553583979606628,-0.2274908721446991,-0.0563154369592666,-0.6825153231620789,-0.0872301384806633,0.0,0.0,0.927475094795227,-0.6886050701141357
-0.2538342475891113,0.755346953868866,-0.1922864019870758,-0.0019344761967658,-0.6858472228050232,-0.0666376203298568,0.0,0.0,-0.0274457335472106,-0.3243172168731689
-0.2558766305446625,0.7552503943443298,-0.201507493853569,-0.005786667112261,-0.6893348693847656,-0.0697531625628471,0.0,0.0,-0.1374737620353698,-0.4618749022483825
-0.2580119967460632,0.7550686001777649,-0.2107096165418625,-0.0096380310133099,-0.6929608583450317,-0.0725192427635192,0.0,0.0,0.6487390995025635,-0.6075144410133362
-0.25999316573143,0.7556137442588806,-0.196053609251976,0.0230804793536663,-0.6956110000610352,-0.0530038550496101,0.0,0.0,-0.0870507955551147,-0.4965883493423462
-0.2620666027069092,0.7560732364654541,-0.2052091658115387,0.0192313864827156,-0.6983624696731567,-0.0550279840826988,0.0,0.0,0.7328718900680542,-0.8308995366096497
-0.2638182044029236,0.7573680281639099,-0.1743746846914291,0.0571054071187973,-0.69937664270401,-0.0202829279005527,0.0,0.0,0.0421953201293945,-0.6065443158149719
-0.2654134631156921,0.7589837908744812,-0.1597802191972732,0.0719519630074501,-0.6990529894828796,0.0064729922451078,0.0,0.0,-0.3698456883430481,-0.5101311802864075
-0.2671309113502502,0.7605461478233337,-0.1727928221225738,0.0700282305479049,-0.6976975798606873,0.027107834815979,0.0,0.0,-0.041888415813446,-0.0135513544082641
-0.2689386904239654,0.7620223164558411,-0.1818181574344635,0.0661838799715042,-0.6963613033294678,0.0267255194485187,0.0,0.0,0.1421746015548706,-0.326305091381073
-0.2705050408840179,0.7637682557106018,-0.1580406427383422,0.0783858224749565,-0.6945518255233765,0.0361894927918911,0.0,0.0,-0.0139605998992919,-0.2445155382156372
-0.272160530090332,0.7654277682304382,-0.1669788211584091,0.0745437443256378,-0.692717432975769,0.0366883091628551,0.0,0.0,0.1669752597808838,-0.4317768812179565
-0.2735686898231506,0.7676167488098145,-0.1422700732946396,0.0980874598026275,-0.6908540725708008,0.0372666530311107,0.0,0.0,-0.1450320482254028,-0.1682210564613342
-0.2750646471977234,0.769718587398529,-0.1511029154062271,0.094247780740261,-0.6889206171035767,0.0386688970029354,0.0,0.0,-0.1619697213172912,-0.065826416015625
-0.2766475081443786,0.7717332243919373,-0.1598754525184631,0.0904092863202095,-0.6868942975997925,0.0405266359448432,0.0,0.0,0.1535487174987793,0.1244196891784668
-0.2781175673007965,0.7738577723503113,-0.1489381790161132,0.0954831540584564,-0.6844266057014465,0.0493542924523353,0.0,0.0,-0.2841156721115112,0.2552542686462402
-0.2796728014945984,0.7758949995040894,-0.1575728356838226,0.0916468799114227,-0.6818204522132874,0.0521213822066783,0.0,0.0,0.020271897315979,0.1347062587738037
-0.2809359133243561,0.7784152626991272,-0.1286814361810684,0.1132970973849296,-0.67881178855896,0.0601733550429344,0.0,0.0,-0.1223930120468139,0.1992509365081787
-0.2822822034358978,0.7808478474617004,-0.1371518969535827,0.1094629317522049,-0.6756200194358826,0.0638348162174224,0.0,0.0,-0.3642294406890869,0.4623852968215942
-0.2837106585502624,0.7831923365592957,-0.1455289870500564,0.1056298017501831,-0.6722233891487122,0.0679330751299858,0.0,0.0,-0.028387427330017,0.0907025337219238
-0.2852199077606201,0.7854484915733337,-0.1538044512271881,0.1017976626753807,-0.6686004400253296,0.0724588185548782,0.0,0.0,-0.2923247218132019,0.3979722261428833
-0.2868087887763977,0.7876163125038147,-0.1619694381952285,0.0979664400219917,-0.6647303700447083,0.077401079237461,0.0,0.0,0.2914943695068359,0.150141954421997
-0.2881657183170318,0.7904466986656189,-0.1387578547000885,0.1273843199014663,-0.660892128944397,0.0767647922039032,0.0,0.0,0.2864267826080322,0.616849422454834
-0.2893414497375488,0.7936214804649353,-0.1197643056511879,0.1422353088855743,-0.6581534743309021,0.0547723956406116,0.0,0.0,-0.3869460821151733,0.559359073638916
-0.2905645370483398,0.7966758608818054,-0.1239620447158813,0.1365963369607925,-0.656093955039978,0.0411899015307426,0.0,0.0,-0.4341421723365783,-0.0429179072380065
-0.2918612062931061,0.7996411919593811,-0.1315807551145553,0.132769376039505,-0.6537110209465027,0.0476585626602172,0.0,0.0,-0.255244493484497,0.380314826965332
-0.2932295799255371,0.8025172352790833,-0.1390336453914642,0.1289431601762771,-0.6509876847267151,0.054468423128128,0.0,0.0,-0.2242286205291748,0.3412834405899048
-0.2946678102016449,0.8053039908409119,-0.1463073045015335,0.1251175850629806,-0.647907555103302,0.0616022944450378,0.0,0.0,0.2629499435424804,0.1546409130096435
-0.2957333624362945,0.8085987567901611,-0.1097615584731102,0.1480405926704406,-0.6439425349235535,0.0793001502752304,0.0,0.0,-0.2975401878356933,0.6820703744888306
-0.2968214154243469,0.8117626309394836,-0.1111843138933181,0.1418039053678512,-0.6410105228424072,0.0586403496563434,0.0,0.0,-0.6504464149475098,0.4359749555587768
-0.2979726195335388,0.8148369193077087,-0.1178316622972488,0.1379801630973816,-0.6376785635948181,0.066639095544815,0.0,0.0,-0.3033831119537353,0.508590579032898
-0.2991487979888916,0.817781925201416,-0.1196538358926773,0.1318947672843933,-0.6351804137229919,0.0499634891748428,0.0,0.0,-0.286399245262146,0.6542313098907471
-0.3003399968147278,0.8205978870391846,-0.1203649416565895,0.1257623136043548,-0.6336519122123718,0.030570313334465,0.0,0.0,-0.4195128679275512,0.239927053451538
-0.3015863001346588,0.8233239054679871,-0.1262368261814117,0.1219405308365821,-0.6316884756088257,0.0392692610621452,0.0,0.0,0.0421010255813598,0.3547230958938598
-0.3026729524135589,0.8262651562690735,-0.1108272820711135,0.131770834326744,-0.6290450692176819,0.0528678819537162,0.0,0.0,-0.2153675556182861,0.5616440773010254
-0.3037800192832947,0.829086422920227,-0.1124527305364608,0.1262368410825729,-0.6269176602363586,0.0425476506352424,0.0,0.0,-0.3858335614204407,0.2152366638183593
-0.3049326539039612,0.8318176865577698,-0.1173855513334274,0.1224160492420196,-0.6243281364440918,0.0517904981970787,0.0,0.0,-0.1303000450134277,0.4260547161102295
-0.30612713098526,0.8344588279724121,-0.1219676882028579,0.1185953915119171,-0.6212689876556396,0.0611824207007885,0.0,0.0,-0.2859202623367309,0.2817944288253784
-0.3073597848415375,0.8370101451873779,-0.1261804103851318,0.1147747784852981,-0.6177335977554321,0.0707083791494369,0.0,0.0,0.2460919618606567,0.1761622428894043
-0.3083892464637756,0.8397175669670105,-0.1066426187753677,0.1220683827996254,-0.6132602691650391,0.089466281235218,0.0,0.0,0.4608910083770752,0.5080339908599854
-0.3089918196201324,0.8429643511772156,-0.0636546462774276,0.1458863765001297,-0.6091735363006592,0.081734612584114,0.0,0.0,-0.5557667016983032,0.5917751789093018
-0.3095788061618805,0.8460845947265625,-0.061405461281538,0.1399333029985427,-0.6059169173240662,0.0651328638195991,0.0,0.0,-0.5087828636169434,0.3420310020446777
