x_pos,y_pos,x_vel,y_vel,angle,ang_vel,leg_1,leg_2,main_booster,lat_booster
-0.0015402793651446,1.4029779434204102,-0.1562760770320892,-0.352983146905899,0.0020140004344284,0.0397466085851192,0.0,0.0,0.644817161039964,-0.9850415886587972
-0.0031174658797681,1.395096778869629,-0.16199392080307,-0.3502911031246185,0.006237156689167,0.0844720155000686,0.0,0.0,-0.292715035026464,0.9301277665671756
-0.004622459411621,1.3865625858306885,-0.152726724743843,-0.3793078064918518,0.0084433443844318,0.044127844274044,0.0,0.0,0.5870496309207265,0.9074915368284384
-0.0062056542374193,1.3780981302261353,-0.1587735712528228,-0.3761982917785644,0.0088927214965224,0.0089883524924516,0.0,0.0,0.9472045752372478,-0.9773715416424966
-0.0077212331816554,1.3701441287994385,-0.1545170843601226,-0.3535239100456238,0.011823664419353,0.0586243942379951,0.0,0.0,-0.4802928418654442,0.8560382736405736
-0.0091712949797511,1.361544132232666,-0.1461029648780822,-0.3822372853755951,0.0129061369225382,0.021651541814208,0.0,0.0,-0.7161493833124546,0.7731154017812445
-0.0105799678713083,1.3522987365722656,-0.1407089680433273,-0.4109025001525879,0.0127500435337424,-0.0031220726668834,0.0,0.0,-0.5794837182752093,0.8258936815099329
-0.0119246486574411,1.3424110412597656,-0.1324881613254547,-0.4394420087337494,0.0107874609529972,-0.039255104959011,0.0,0.0,0.1608928363413768,0.7573329204421015
-0.0132428165525197,1.3327679634094238,-0.128549039363861,-0.4285646378993988,0.0075487555004656,-0.0647802352905273,0.0,0.0,0.537897919768006,-0.5573488383349978
-0.0146279335021972,1.323495388031006,-0.1365846246480941,-0.4121030271053314,0.0056464551016688,-0.0380491986870765,0.0,0.0,0.0272407451608731,-0.6773238820806198
-0.0160243026912212,1.314131259918213,-0.1393673419952392,-0.4161809682846069,0.0053818086162209,-0.005293546244502,0.0,0.0,0.5318131579320222,0.8995052995237733
-0.0172955505549907,1.3048546314239502,-0.1253857016563415,-0.412287563085556,0.003668715711683,-0.0342650711536407,0.0,0.0,-0.3047002670458243,-0.5853914199938752
-0.0186198242008686,1.2949342727661133,-0.1318484246730804,-0.4409027099609375,0.0030996848363429,-0.0113818878307938,0.0,0.0,-0.7955455686093351,0.8911810541830656
-0.0198824889957904,1.2843596935272217,-0.1239346638321876,-0.4699815809726715,0.000793146144133,-0.0461350083351135,0.0,0.0,0.5481703956284185,-0.6791280364803882
-0.0210711471736431,1.2743045091629028,-0.118446908891201,-0.4468977749347687,0.0003744572750292,-0.008374523371458,0.0,0.0,-0.1780847975286466,0.7820327708010746
-0.0222034454345703,1.2635934352874756,-0.11118134111166,-0.4760462343692779,-0.0016479481710121,-0.0404516495764255,0.0,0.0,-0.5960110424099281,-0.6926187808084265
-0.0233942028135061,1.2522441148757937,-0.1183305159211158,-0.5044108033180237,-0.0023782674688845,-0.0146078243851661,0.0,0.0,0.7751296403861188,0.6631916831093358
-0.024382209405303,1.240845799446106,-0.0973743200302124,-0.5065917372703552,-0.0037901641335338,-0.0282402373850345,0.0,0.0,0.6626573082972671,0.5287206725874399
-0.025236701592803,1.2300169467926023,-0.0834830701351165,-0.4812899529933929,-0.0057350238785147,-0.0389008074998855,0.0,0.0,0.7287932919942293,-0.5020912977748883
-0.0262328144162893,1.2194308042526243,-0.0986113846302032,-0.4705066978931427,-0.0067168627865612,-0.0196388345211744,0.0,0.0,-0.8619384851956682,0.692677068504761
-0.0271778106689453,1.2082023620605469,-0.0920454040169715,-0.4990540742874145,-0.0091408658772706,-0.0484846197068691,0.0,0.0,-0.4350081088048396,-0.9501441178119352
-0.0282114036381244,1.1963231563568115,-0.1030082553625106,-0.5279669165611267,-0.0094896014779806,-0.006975439377129,0.0,0.0,0.3840841149839458,-0.7872851580334754
-0.0291954986751079,1.184479832649231,-0.1000295877456665,-0.5263674259185791,-0.0078849447891116,0.0320958569645881,0.0,0.0,0.8321480011318583,-0.5040390310732492
-0.0301490779966115,1.1725029945373535,-0.0984539166092872,-0.5322931408882141,-0.0048166131600737,0.061372272670269,0.0,0.0,0.9168351120422118,0.866772827820771
-0.031225299462676,1.1610028743743896,-0.1088432818651199,-0.5111127495765686,-0.0036128971260041,0.0240766685456037,0.0,0.0,-0.2253680778836591,0.8618699713645228
-0.0322633758187294,1.148838996887207,-0.1039280444383621,-0.5406144857406616,-0.0034927800297737,0.0024021775461733,0.0,0.0,0.1605733832249301,0.8455122257641282
-0.0332426056265831,1.1367990970611572,-0.0965590104460716,-0.5351107120513916,-0.0048406403511762,-0.0269572623074054,0.0,0.0,0.2833591537080064,0.7518503668844676
-0.034286119043827,1.1250827312469482,-0.101538635790348,-0.5207446217536926,-0.007620092947036,-0.0555889829993248,0.0,0.0,0.1538078780973397,-0.8787275032196529
-0.0355133041739463,1.1135404109954834,-0.1218323707580566,-0.5129929780960083,-0.0084896460175514,-0.0173910595476627,0.0,0.0,0.300541100454732,0.6767414605691511
-0.0367135033011436,1.1019244194030762,-0.1179486289620399,-0.5162783265113831,-0.0105328522622585,-0.0408642888069152,0.0,0.0,-0.8641687735447676,-0.6932264518965023
-0.0379776954650878,1.0896705389022827,-0.1259015947580337,-0.5446155071258545,-0.0110421143472194,-0.0101853115484118,0.0,0.0,-0.977847695350647,0.3789180517196655
-0.0392520911991596,1.076770305633545,-0.1271260976791381,-0.5733464956283569,-0.011357438750565,-0.006306373514235,0.0,0.0,-0.9702465534210204,-0.3826608657836914
-0.0405362136662006,1.0632234811782837,-0.1282821148633957,-0.6020774245262146,-0.0114831309765577,-0.0025139099452644,0.0,0.0,-0.607457160949707,0.2922787666320801
-0.0418292991816997,1.049030303955078,-0.129366248846054,-0.630808413028717,-0.0114238364621996,0.0011860399972647,0.0,0.0,-0.8640562891960144,0.6172044277191162
-0.0430804267525672,1.034191012382507,-0.1240802630782127,-0.6595299243927002,-0.0124449701979756,-0.0204227641224861,0.0,0.0,-0.7189368605613708,0.3153679370880127
-0.044339083135128,1.0187052488327026,-0.1250104159116745,-0.6882609724998474,-0.0132912853732705,-0.016926173120737,0.0,0.0,-0.9445114135742188,-0.8071486949920654
-0.04567127302289,1.002570390701294,-0.1342250406742096,-0.717101514339447,-0.0122935008257627,0.0199554897844791,0.0,0.0,-0.6080620884895325,0.1218509674072265
-0.0470093712210655,0.9857889413833618,-0.1349877417087555,-0.745832622051239,-0.0111323669552803,0.0232227556407451,0.0,0.0,0.3745381832122803,-0.3387134075164795
-0.048377513885498,0.969413161277771,-0.1379994750022888,-0.72780841588974,-0.0099656200036406,0.0233348365873098,0.0,0.0,-0.5264331102371216,-0.2169654965400695
-0.0497499480843544,0.9523909091949464,-0.1385816782712936,-0.7565395832061768,-0.0086483741179108,0.0263451039791107,0.0,0.0,-0.7447936534881592,-0.45022714138031
-0.0511258132755756,0.9347221255302428,-0.1390689611434936,-0.7852708101272583,-0.0071875788271427,0.0292160008102655,0.0,0.0,0.2518362998962402,0.0319421291351318
-0.0524078384041786,0.917000949382782,-0.130258560180664,-0.7876015305519104,-0.0051580006256699,0.0405914299190044,0.0,0.0,-0.1168654561042785,0.8121609687805176
-0.0536168105900287,0.8986237049102783,-0.1211847886443138,-0.8167641758918762,-0.0048757195472717,0.005645906087011,0.0,0.0,0.1927541494369506,0.2998183965682983
-0.0547529235482215,0.8801719546318054,-0.1143505126237869,-0.820075273513794,-0.0041414815932512,0.0146846277639269,0.0,0.0,0.891761064529419,0.6679102182388306
-0.055884551256895,0.8615716099739075,-0.1125425100326538,-0.8266830444335938,-0.0047492943704128,-0.0121562611311674,0.0,0.0,0.776775598526001,0.6944806575775146
-0.0569045059382915,0.8428561091423035,-0.1002125963568687,-0.8318099975585938,-0.0065120374783873,-0.0352548398077487,0.0,0.0,0.9610724449157716,0.3377350568771362
-0.0578461661934852,0.8242890238761902,-0.0928242057561874,-0.8252084851264954,-0.0078460378572344,-0.0266799442470073,0.0,0.0,0.6693028211593628,-0.3654738068580627
-0.0588914863765239,0.8063405752182007,-0.1027325019240379,-0.7977219223976135,-0.0096211470663547,-0.0355021283030509,0.0,0.0,0.722545862197876,-0.0492106080055236
-0.060062788426876,0.7889801859855652,-0.1147576346993446,-0.7715889811515808,-0.0119619034230709,-0.0468151494860649,0.0,0.0,0.6653907299041748,-0.3750859498977661
-0.0612438209354877,0.7717429399490356,-0.1156950742006301,-0.7661256790161133,-0.0143373450264334,-0.0475090481340885,0.0,0.0,0.1614620685577392,-0.3526589870452881
-0.0623117461800575,0.7544590830802917,-0.1049105674028396,-0.7681883573532104,-0.0161929316818714,-0.0371116399765014,0.0,0.0,-0.495255172252655,-0.2789826393127441
-0.0633721351623535,0.736528754234314,-0.1041967868804931,-0.7969197630882263,-0.0180059690028429,-0.0362609401345253,0.0,0.0,0.6165599822998047,0.1633253097534179
-0.0643090233206749,0.7186015844345093,-0.0923872143030166,-0.7967783212661743,-0.0192928779870271,-0.0257383696734905,0.0,0.0,0.7714192867279053,-0.1704802513122558
-0.0652162581682205,0.7013106942176819,-0.0894593596458435,-0.7685056328773499,-0.0205440465360879,-0.0250231828540563,0.0,0.0,0.7953234910964966,0.3808584213256836
-0.0659400969743728,0.6841628551483154,-0.0718737244606018,-0.7621338367462158,-0.0210378803312778,-0.0098767969757318,0.0,0.0,0.4124258756637573,-0.2061869502067566
-0.0667252540588378,0.6669752597808838,-0.0776271075010299,-0.7639063596725464,-0.0219130534678697,-0.0175036545842885,0.0,0.0,0.7425655126571655,0.0102193355560302
-0.067379854619503,0.6503986716270447,-0.0650349780917167,-0.7367481589317322,-0.0223449133336544,-0.0086370538920164,0.0,0.0,0.047983169555664,0.7745964527130127
-0.067848302423954,0.6338148713111877,-0.0448667630553245,-0.7370908856391907,-0.0242924951016902,-0.0389517471194267,0.0,0.0,-0.2590298652648926,0.3337278366088867
-0.0683018714189529,0.6165846586227417,-0.0433410182595253,-0.7658223509788513,-0.0262794122099876,-0.0397383496165275,0.0,0.0,0.327420711517334,0.2948839664459228
-0.0687841400504112,0.5996571183204651,-0.0458733811974525,,-0.0286007840186357,-0.0464273430407047,0.0,0.0,0.7554175853729248,-0.3434023857116699
-0.0691839233040809,0.5826709270477295,-0.0378180146217346,-0.7549869418144226,-0.0307338777929544,-0.0426619797945022,0.0,0.0,0.8324975967407227,-0.2019194364547729
-0.0696531310677528,0.5662099123001099,-0.0441671572625637,-0.7316591739654541,-0.0334567241370677,-0.0544569380581378,0.0,0.0,0.6174907684326172,-0.2887781858444214
-0.0699658393859863,0.5498555898666382,-0.0289944503456354,-0.7269117832183838,-0.0357071608304977,-0.0450085438787937,0.0,0.0,0.7560514211654663,-0.6782800555229187
-0.0702622383832931,0.533833920955658,-0.0286850277334451,-0.7120962142944336,-0.0366436876356601,-0.0187307558953762,0.0,0.0,0.763322114944458,0.9514987468719482
-0.0704379081726074,0.5177956223487854,-0.014614375308156,-0.7128909230232239,-0.0395697504281997,-0.0585209913551807,0.0,0.0,0.7998220920562744,-0.5587183237075806
-0.0707549080252647,0.502087414264679,-0.0293358024209737,-0.6982038021087646,-0.0419005304574966,-0.0466153733432292,0.0,0.0,0.8098914623260498,0.4069545269012451
-0.0709869414567947,0.4871365129947662,-0.0208176746964454,-0.6645517945289612,-0.0442541800439357,-0.0470731146633625,0.0,0.0,0.2045868635177612,-0.1564527153968811
-0.0711267441511154,0.4718549251556396,-0.0117368195205926,-0.6792510747909546,-0.0464730411767959,-0.0443773753941059,0.0,0.0,0.8923907279968262,-0.4353828430175781
-0.071166418492794,0.4573899507522583,-0.0017187886405736,-0.6429567933082581,-0.048700887709856,-0.044557087123394,0.0,0.0,-0.0673246383666992,-0.8819695115089417
-0.0712625533342361,0.4422808289527893,-0.0092379320412874,-0.6715312600135803,-0.0490621477365493,-0.0072253653779625,0.0,0.0,0.9627490043640136,0.1204855442047119
-0.0714029297232627,0.4277385473251343,-0.0129888383671641,-0.6463594436645508,-0.0500993430614471,-0.0207436792552471,0.0,0.0,0.9412754774093628,0.2218154668807983
-0.0714447051286697,0.4136427044868469,-0.003120444715023,-0.6265162825584412,-0.0511494949460029,-0.021002858877182,0.0,0.0,0.5848985910415649,0.5046558380126953
-0.0715105086565017,0.4001270234584808,-0.0039501236751675,-0.60079026222229,-0.0537483990192413,-0.0519780442118644,0.0,0.0,0.3927831649780273,-0.4116087555885315
-0.0714612007141113,0.3866893053054809,0.0074672559276223,-0.5973264575004578,-0.0562575608491897,-0.0501830652356147,0.0,0.0,0.643629789352417,-0.7263770699501038
-0.0714566260576248,0.3731902837753296,0.001809474080801,-0.6000081300735474,-0.057600975036621,-0.0268682055175304,0.0,0.0,0.8641963005065918,-0.613486111164093
-0.0713694542646408,0.3595848083496094,0.0088376011699438,-0.6046896576881409,-0.057719450443983,-0.0023692294489592,0.0,0.0,0.9350979328155518,0.2732293605804443
-0.0712676048278808,0.3459316492080688,0.0107033494859933,-0.6068260073661804,-0.0582277216017246,-0.010165736079216,0.0,0.0,0.956451177597046,-0.1562848687171936
-0.0710917487740516,0.3330396711826324,0.0183789692819118,-0.5730081796646118,-0.0590069778263568,-0.0155850974842906,0.0,0.0,0.8935065269470215,-0.4617717266082763
-0.0707393661141395,0.3208933472633362,0.0358264744281768,-0.5398625135421753,-0.0595931410789489,-0.011723443865776,0.0,0.0,0.5833101272583008,-0.7630781531333923
-0.0704887360334396,0.309297114610672,0.0245720446109771,-0.5153645277023315,-0.0591103099286556,0.0096569415181875,0.0,0.0,0.1849768161773681,0.1565054655075073
-0.070286177098751,0.2974187135696411,0.0204465109854936,-0.5279383063316345,-0.0592989847064018,-0.0037733607459813,0.0,0.0,0.2917019128799438,0.1241168975830078
-0.0699844360351562,0.2858166992664337,0.0304570905864238,-0.5156592130661011,-0.0595890395343303,-0.0058010285720229,0.0,0.0,0.4861674308776855,-0.6275481581687927
-0.0697695761919021,0.2743567228317261,0.0209893696010112,-0.5093082785606384,-0.0590934380888938,0.0099119553342461,0.0,0.0,0.2183752059936523,0.1245617866516113
-0.0695337280631065,0.2630026936531067,0.023522974923253,-0.5046232342720032,-0.0590411201119422,0.0010465171653777,0.0,0.0,0.5816881656646729,-0.0144736170768737
-0.0692379027605056,0.252005785703659,0.0298492554575204,-0.488760381937027,-0.0593020915985107,-0.0052194665186107,0.0,0.0,0.5870370864868164,-0.5263481736183167
-0.0688284859061241,0.241195261478424,0.0401700995862484,-0.4804345369338989,-0.0585437640547752,0.0151663897559046,0.0,0.0,0.46623694896698,-0.4198012351989746
-0.0683477371931076,0.2301916182041168,0.0474808774888515,-0.4890274405479431,-0.0579557046294212,0.0117613738402724,0.0,0.0,0.7035486698150635,-0.7820199131965637
-0.0677670463919639,0.2191540151834488,0.0559703819453716,-0.4904807507991791,-0.0558805242180824,0.0415033809840679,0.0,0.0,0.4087908267974853,-0.473541259765625
-0.0670006722211837,0.20818892121315,0.0742204934358596,-0.487246960401535,-0.0534988418221473,0.0476337820291519,0.0,0.0,0.5461091995239258,-0.0779315829277038
-0.0660510063171386,0.1971200555562973,0.0922281667590141,-0.4918528497219085,-0.0507902987301349,0.0541710183024406,0.0,0.0,0.5861639976501465,-0.708577036857605
-0.065092846751213,0.1864955723285675,0.0919399932026863,-0.4720765352249145,-0.046962022781372,0.0765656381845474,0.0,0.0,0.4693491458892822,-0.6961621642112732
-0.0640936866402626,0.1762428879737854,0.0948598906397819,-0.4555269479751587,-0.0419732518494129,0.0997754707932472,0.0,0.0,0.2355357408523559,-0.8649774193763733
-0.063000775873661,0.1660926938056945,0.1027124971151351,-0.4509466290473938,-0.0354720614850521,0.1300238817930221,0.0,0.0,0.4825448989868164,-0.8697288632392883
-0.0618303306400775,0.1557251960039138,0.1088719591498375,-0.4606062471866607,-0.027398943901062,0.1614623367786407,0.0,0.0,0.9111161231994628,-0.7719466686248779
-0.060736559331417,0.14559867978096,0.1000856608152389,-0.4499274492263794,-0.0182257108390331,0.1834645420312881,0.0,0.0,0.658322811126709,-0.8811567425727844
-0.059567354619503,0.1361355632543563,0.1059984788298606,-0.4204804003238678,-0.0074423691257834,0.21566703915596,0.0,0.0,0.7394139766693115,-0.7522916197776794
-0.058445356786251,0.1269273608922958,0.1001047864556312,-0.4092374742031097,0.0044900961220264,0.2386494129896164,0.0,0.0,0.3402602672576904,0.7967090606689453
-0.057342529296875,0.118049032986164,0.1002413630485534,-0.3946447372436523,0.0144058382138609,0.1983148157596588,0.0,0.0,0.6324050426483154,-0.4477007389068603
-0.0561287887394428,0.1095616668462753,0.1112317889928817,-0.3773421347141266,0.0244254320859909,0.2003916501998901,0.0,0.0,0.4329674243927002,-0.1432615518569946
-0.0549423210322856,0.1014031767845153,0.1090175732970237,-0.3627832531929016,0.0339350439608097,0.1901919990777969,0.0,0.0,0.4734940528869629,-0.1643221378326416
-0.0538171753287315,0.0935966596007347,0.103533923625946,-0.3471837937831878,0.0428070351481437,0.1774396449327469,0.0,0.0,0.5597753524780273,0.0093320608139038
-0.0527005195617675,0.0858476459980011,0.103106178343296,-0.3446707427501678,0.0512730740010738,0.1693207770586013,0.0,0.0,0.6533602476119995,0.7812483310699463
-0.0516462326049804,0.0783498361706733,0.0989823788404464,-0.3334677517414093,0.0576471388339996,0.1274812370538711,0.0,0.0,0.6230325698852539,0.9011838436126708
-0.0506803505122661,0.0709661841392517,0.092498242855072,-0.3283293545246124,0.0616932064294815,0.0809213668107986,0.0,0.0,0.7070157527923584,-0.6351057887077332
-0.0496569648385047,0.064057670533657,0.0969755575060844,-0.3072735667228699,0.066986545920372,0.1058668494224548,0.0,0.0,0.7599813938140869,0.8039201498031616
-0.0484890937805175,0.0570975169539451,0.1132180467247963,-0.3095009624958038,0.0705197155475616,0.0706634372472763,0.0,0.0,0.9312037229537964,0.0113085508346557
-0.0471794120967388,0.0508431755006313,0.1269132196903228,-0.2781672179698944,0.0745359361171722,0.0803244039416313,0.0,0.0,0.7575904130935669,-0.7324498295783997
-0.0459801666438579,0.045173916965723,0.1147564798593521,-0.2522332370281219,0.0796500220894813,0.1022818312048912,0.0,0.0,0.5871303081512451,-0.1246037483215332
-0.0446740165352821,0.0401020385324955,0.1251152455806732,-0.2257194370031356,0.0850957781076431,0.1089151054620742,0.0,0.0,0.3056426048278808,0.243546724319458
-0.0433112159371376,0.0350760072469711,0.1308164894580841,-0.2236987948417663,0.0905176326632499,0.1084369644522667,0.0,0.0,0.5876564979553223,-0.2407017946243286
-0.0419905669987201,0.0305747613310813,0.1269381195306778,-0.2003765255212783,0.0956041663885116,0.1017306298017501,0.0,0.0,0.14924156665802,-0.4794088006019592
-0.0406444557011127,0.0262509677559137,0.1295848041772842,-0.1924953013658523,0.1005823016166687,0.0995625406503677,0.0,0.0,0.1063251495361328,-0.4143515825271606
-0.0392399802803993,0.0217470750212669,0.1354911029338836,-0.2005173861980438,0.1055061295628547,0.0984765663743019,0.0,0.0,0.4562530517578125,-0.6537842750549316
-0.0380263328552246,0.0173838716000318,0.1156307458877563,-0.1943368762731552,0.111195333302021,0.1137840524315834,0.0,0.0,0.8162962198257446,0.848064661026001
-0.0369275100529193,0.0132006974890828,0.106457844376564,-0.1861766278743744,0.1145969703793525,0.0680326372385025,0.0,0.0,0.7680842876434326,-0.0729773640632629
-0.0359672531485557,0.0100371930748224,0.1119879856705665,-0.139442041516304,0.0987718999385833,-0.3164659440517425,0.0,1.0,0.8816390037536621,-0.0066021084785461
-0.0351392738521099,0.0077554560266435,0.1149283424019813,-0.0995997190475463,0.0669139474630355,-0.6371880173683167,0.0,1.0,0.536569356918335,-0.8467363715171814
-0.034249972552061,0.0053182933479547,0.118390180170536,-0.1072590500116348,0.0377974770963192,-0.5823296308517456,0.0,1.0,0.3899339437484741,-0.7217426300048828
-0.0333485603332519,0.0031127666588872,0.1180236712098121,-0.0975498631596565,0.0102645261213183,-0.5506592392921448,0.0,0.0,0.6046537160873413,-0.8732587099075317
-0.0324615463614463,0.0014531230553984,0.1150952354073524,-0.0737852081656456,-0.0157957859337329,-0.521206259727478,0.0,0.0,0.4763029813766479,-0.984308421611786
-0.0314559936523437,0.0002673006092663,0.1059844717383384,-0.0527684763073921,-0.0211631879210472,-0.1073519811034202,1.0,0.0,0.1339695453643798,-0.6121125221252441
