x_pos,y_pos,x_vel,y_vel,angle,ang_vel,leg_1,leg_2,main_booster,lat_booster
-0.0015239715576171,1.4033368825912476,-0.154842123389244,-0.3370327651500702,0.0021822080016136,0.0430776588618755,0.0,0.0,-0.7361396661772113,0.7391909224538282
-0.0029850960709154,1.3954858779907229,-0.1470636278390884,-0.3489359319210052,0.0031288876198232,0.0189360715448856,0.0,0.0,-0.1299047534417265,-0.9004562079580684
-0.0045005800202488,1.387340068817139,-0.1543194055557251,-0.362046867609024,0.0058653182350099,0.0547335036098957,0.0,0.0,0.0011797390930874,-0.6979191142592505
-0.0061546326614916,1.3793572187423706,-0.169894129037857,-0.3548083901405334,0.0103066265583038,0.0888342410326004,0.0,0.0,-0.2933715010874538,-0.7511261093792664
-0.0078533170744776,1.371088981628418,-0.1759471893310547,-0.3675315976142883,0.016311876475811,0.1201161965727806,0.0,0.0,0.4790561601577745,-0.8754344791660579
-0.0094879148527979,1.363263726234436,-0.1718768030405044,-0.3479066491127014,0.0246343184262514,0.1664642840623855,0.0,0.0,0.052442561190926,-0.9417643354400376
-0.0112198833376169,1.3557002544403076,-0.1838771402835846,-0.3363641202449798,0.0352081917226314,0.2114968299865722,0.0,0.0,-0.9945302659816132,0.7268121443943805
-0.0128767965361475,1.3478564023971558,-0.1749374270439148,-0.3488526344299316,0.0443671196699142,0.1831952333450317,0.0,0.0,-0.8679183257259164,0.989450763637814
-0.0144529342651367,1.3397421836853027,-0.1653091013431549,-0.3608793318271637,0.0519807152450084,0.1522858440876007,0.0,0.0,-0.6368556454819461,0.8688026299337099
-0.0159553531557321,1.3313521146774292,-0.1565746068954467,-0.3731299042701721,0.0582451820373535,0.1253007352352142,0.0,0.0,0.990617510273968,-0.8969745434191041
-0.0174496658146381,1.3237522840499878,-0.1581638157367706,-0.3381300568580627,0.0668930262327194,0.1729728281497955,0.0,0.0,-0.6045325861638149,-0.8620741787536086
-0.0189963337033987,1.3158583641052246,-0.1652693748474121,-0.35134357213974,0.0774094313383102,0.2103471010923385,0.0,0.0,-0.3068453627895371,-0.6413937658718978
-0.0205741878598928,1.3076777458190918,-0.1697441190481186,-0.364244133234024,0.0892757624387741,0.2373484075069427,0.0,0.0,-0.6286114122704174,0.8262994170932276
-0.0220697410404682,1.2992135286331177,-0.1600079238414764,-0.3768399953842163,0.0996599048376083,0.2077014446258545,0.0,0.0,-0.3373297107630397,0.7909055771454097
-0.0234784130007028,1.2904831171035769,-0.1497086137533188,-0.3886310458183288,0.1084396839141845,0.1756115853786468,0.0,0.0,-0.7558068588672358,-0.6189859016927639
-0.0249144546687603,1.2814528942108154,-0.1537685096263885,-0.4021064043045044,0.1185617893934249,0.202460378408432,0.0,0.0,-0.6300653355129735,-0.7063789536929703
-0.0263807289302349,1.2721378803253174,-0.1581918895244598,-0.4149633944034576,0.1300879120826721,0.2305430471897125,0.0,0.0,0.8075039580447847,-0.6217108408401203
-0.0277679450809955,1.2631652355194092,-0.1522742807865142,-0.4000205099582672,0.1436079740524292,0.2704255580902099,0.0,0.0,-0.1181031052562402,0.8623968013024804
-0.029062271118164,1.2539325952529907,-0.1412617266178131,-0.4115235209465027,0.155429720878601,0.2364564836025238,0.0,0.0,-0.3783814924434834,0.9177660744706582
-0.0302777290344238,1.244428634643555,-0.1320558339357376,-0.4235276877880096,0.1659615486860275,0.2106551826000213,0.0,0.0,-0.3417030017211511,0.6761018016661879
-0.0314114578068256,1.234660029411316,-0.1225312203168869,-0.4352133870124817,0.1751398295164108,0.1835819631814956,0.0,0.0,-0.1544884499692238,0.9802350756357164
-0.032447051256895,1.2246202230453491,-0.1109861880540847,-0.4471007585525512,0.1825995743274688,0.1492081731557846,0.0,0.0,-0.7123915570151869,0.6041288761486887
-0.0334041602909565,1.2143090963363647,-0.1019327193498611,-0.4590486884117126,0.1888580322265625,0.1251805126667022,0.0,0.0,-0.94728566463393,-0.9627045220816068
-0.0344030372798442,1.2036821842193604,-0.1080594062805175,-0.4733653664588928,0.1970914006233215,0.1646820306777954,0.0,0.0,-0.8249182201404353,-0.7838151172440451
-0.0354530327022075,1.1927491426467896,-0.1153287142515182,-0.487321674823761,0.2075174748897552,0.2085399180650711,0.0,0.0,-0.0915521125854452,0.9482477407489348
-0.03641939163208,1.1815319061279297,-0.1057698130607605,-0.4998550713062286,0.2167344987392425,0.1843403130769729,0.0,0.0,0.8564461037915054,0.8657347928459072
-0.0374632850289344,1.171253323554993,-0.1120105013251304,-0.4579662680625915,0.2244437783956527,0.1541856676340103,0.0,0.0,-0.7675184165849342,0.6858145903223558
-0.0384379401803016,1.1607096195220947,-0.1042151823639869,-0.4696555733680725,0.2312855571508407,0.1368355602025985,0.0,0.0,0.0677927346004998,0.6799866847106063
-0.0395388603210449,1.1506012678146362,-0.1155850440263748,-0.4501339495182037,0.2368680834770202,0.1116508394479751,0.0,0.0,0.416702302743605,-0.7811533466443501
-0.0407846458256244,1.140784502029419,-0.1317935734987259,-0.4374777376651764,0.2441994249820709,0.1466264724731445,0.0,0.0,0.2172201899237402,0.7372674201439882
-0.0420774444937706,1.1316241025924685,-0.1352075636386871,-0.4081279635429382,0.2502403557300567,0.1208187714219093,0.0,0.0,-0.1391070413630395,-0.7293504019912578
-0.0433971397578716,1.1221492290496826,-0.1397021859884262,-0.4224491119384765,0.2581265270709991,0.1577236354351043,0.0,0.0,-0.3038865598747393,0.6776392224852954
-0.0446366295218467,1.1124117374420166,-0.1306655555963516,-0.4339760839939117,0.2649906277656555,0.1372822374105453,0.0,0.0,-0.1045888139878004,-0.6864544927472511
-0.0458943359553813,1.10235857963562,-0.1341429650783538,-0.448348194360733,0.2735530436038971,0.1712481379508972,0.0,0.0,0.5051048028808092,0.6717740458251829
-0.0472002997994422,1.0928736925125122,-0.1377871483564376,-0.4229115843772888,0.2809289991855621,0.1475194841623306,0.0,0.0,0.8363479452708913,0.7229096528090739
-0.0486232750117778,1.0843520164489746,-0.1482134014368057,-0.3798959851264953,0.2870161235332489,0.1217422932386398,0.0,0.0,-0.3010047534573217,-0.7692239733374558
-0.050063133239746,1.0755131244659424,-0.1516098082065582,-0.3943554759025574,0.2948605418205261,0.1568891108036041,0.0,0.0,0.3888656015732521,-0.8605394576491401
-0.0516762733459472,1.0672993659973145,-0.1707380712032318,-0.3670030832290649,0.3045978248119354,0.1947448104619979,0.0,0.0,-0.0197514657036865,0.8120290446785168
-0.0531886108219623,1.058834671974182,-0.1592278480529785,-0.3779032826423645,0.3128826320171356,0.1656964272260666,0.0,0.0,0.5355968206045199,0.9070755094977162
-0.0547317489981651,1.0509376525878906,-0.1606321483850479,-0.3523547947406769,0.3194436430931091,0.1312201619148254,0.0,0.0,-0.5656538715051282,-0.7366363555012503
-0.0562924370169639,1.0427279472351074,-0.1641435176134109,-0.3666828274726867,0.3278489410877228,0.1681062132120132,0.0,0.0,-0.9161598682403564,0.9853296279907228
-0.0577142722904682,1.034274697303772,-0.1479791551828384,-0.377032071352005,0.333902359008789,0.12106853723526,0.0,0.0,-0.8810907006263733,0.9758470058441162
-0.058997917920351,1.0255680084228516,-0.1320143938064575,-0.387810081243515,0.337711751461029,0.0761881172657013,0.0,0.0,-0.91574889421463,0.900538444519043
-0.0601506233215332,1.016613483428955,-0.116906926035881,-0.3983679115772247,0.3394284248352051,0.0343332029879093,0.0,0.0,-0.989456295967102,0.9484689235687256
-0.0611810684204101,1.0073955059051514,-0.1030023097991943,-0.4096706509590149,0.3393897712230682,-0.0007728466298431,0.0,0.0,-0.9954562187194824,0.98688006401062
-0.062075138092041,0.997922658920288,-0.0873245224356651,-0.4205315411090851,0.3372214734554291,-0.0433668047189712,0.0,0.0,-0.996479332447052,0.983299732208252
-0.0628309249877929,0.988199770450592,-0.0714181885123252,-0.4311652779579162,0.3328673541545868,-0.0870830789208412,0.0,0.0,-0.9994935393333436,0.994145393371582
-0.0634715110063552,0.9782308340072632,-0.05829469114542,-0.4417484998703003,0.3268629312515259,-0.1200885400176048,0.0,0.0,-0.9990533590316772,0.9910662174224854
-0.0639976486563682,0.968012511730194,-0.0453253649175167,-0.4525199234485626,0.31927689909935,-0.1517209112644195,0.0,0.0,-0.9992337822914124,0.9834429025650024
-0.0643923729658126,0.9575400352478028,-0.0303119011223316,-0.4634517729282379,0.309756189584732,-0.1904142946004867,0.0,0.0,-0.9978930354118348,0.9893426895141602
-0.0646346062421798,0.9468252062797546,-0.0125964730978012,-0.473777025938034,0.2977303564548492,-0.2405167818069458,0.0,0.0,-0.999554455280304,0.9155523777008056
-0.0647540092468261,0.9358595013618468,0.0013792521785944,-0.4847000241279602,0.2839971780776977,-0.2746635973453522,0.0,0.0,-0.9965139627456664,0.6794652938842773
-0.0647495239973068,0.9246318340301514,0.0154423434287309,-0.4961667060852051,0.2686138451099396,-0.3076667189598083,0.0,0.0,-0.9879664778709412,0.0798112154006958
-0.0646815299987793,0.9131196737289428,0.0218814667314291,-0.5089656114578247,0.2531994581222534,-0.3082875907421112,0.0,0.0,-0.9820959568023682,0.0989447832107544
-0.0645490661263465,0.9013227820396424,0.0284172557294368,-0.5217645764350891,0.2377475053071975,-0.3090383410453796,0.0,0.0,-0.8600288033485413,-0.3440174460411072
-0.06435127556324,0.8892412781715393,0.0350454747676849,-0.5345636606216431,0.2222519665956497,-0.3099108636379242,0.0,0.0,-0.9810656905174256,-0.7799745798110962
-0.0641393661499023,0.8768646121025085,0.0352805480360984,-0.5480124950408936,0.2080271691083908,-0.2844960987567901,0.0,0.0,-0.9296989440917968,-0.6271372437477112
-0.0638979896903038,0.8641934394836426,0.0373473726212978,-0.5613588094711304,0.1947180181741714,-0.2661830186843872,0.0,0.0,-0.7190412878990173,-0.9944592714309692
-0.0636575669050216,0.8512265682220459,0.0356072485446929,-0.5748220086097717,0.1830916553735733,-0.2325272858142852,0.0,0.0,-0.8075249791145325,-0.5029993057250977
-0.0633931159973144,0.8379659056663513,0.0369747057557106,-0.5881038308143616,0.1725352704524994,-0.211127832531929,0.0,0.0,-0.7690069675445557,-0.8631545305252075
-0.0631196945905685,0.8243951797485352,0.0363578237593174,-0.6021184921264648,0.1634985655546188,-0.1807340681552887,0.0,0.0,-0.7750197052955627,-0.8713798522949219
-0.0628560036420822,0.8105226755142212,0.0334413610398769,-0.6158017516136169,0.1564235687255859,-0.1414993703365326,0.0,0.0,-0.4788498878479004,-0.7089067101478577
-0.0625654235482215,0.7963505983352661,0.035087764263153,-0.629245400428772,0.1504033654928207,-0.1204039454460144,0.0,0.0,-0.6863794922828674,-0.3965262174606323
-0.0622035041451454,0.781891405582428,0.0423033945262432,-0.6420279145240784,0.144306793808937,-0.1219313293695449,0.0,0.0,0.0535725355148315,-0.431774377822876
-0.0618015304207801,0.7675254940986633,0.0463707037270069,-0.6379004120826721,0.1381549686193466,-0.1230365261435508,0.0,0.0,0.29537034034729,-0.3520963191986084
-0.0614870078861713,0.7535409331321716,0.0381520725786685,-0.6209336519241333,0.1314743459224701,-0.1336121261119842,0.0,0.0,-0.5303667187690735,0.5972498655319214
-0.0610518455505371,0.7392857670783997,0.0515551045536994,-0.6328732371330261,0.123474083840847,-0.1600050628185272,0.0,0.0,-0.251667857170105,-0.827068030834198
-0.0605985634028911,0.7247235774993896,0.0520153157413005,-0.6466764807701111,0.1168231815099716,-0.1330183744430542,0.0,0.0,0.4609436988830566,0.4740347862243652
-0.0601358413696289,0.7110028266906738,0.0529422350227832,-0.6092996597290039,0.1102015599608421,-0.1324325501918792,0.0,0.0,0.67244553565979,-0.8977566361427307
-0.0598276145756244,0.6976761817932129,0.0359304994344711,-0.5919262170791626,0.1051308959722518,-0.101413644850254,0.0,0.0,0.1480735540390014,-0.8623693585395813
-0.059636116027832,0.6847452521324158,0.022639213129878,-0.5744692087173462,0.1016659960150718,-0.0692979842424392,0.0,0.0,-0.7699877619743347,0.8587459325790405
-0.0592988952994346,0.671539306640625,0.0391094200313091,-0.5865721106529236,0.0963225215673446,-0.1068694740533828,0.0,0.0,-0.1103249788284301,0.7802382707595825
-0.0588388442993164,0.6580620408058167,0.0527082197368145,-0.5985775589942932,0.0896771997213363,-0.1329064071178436,0.0,0.0,-0.1205334067344665,0.7901313304901123
-0.0582335479557514,0.6443072557449341,0.0690927430987358,-0.6108356714248657,0.0811915546655654,-0.1697126924991607,0.0,0.0,0.0514401197433471,-0.5958057641983032
-0.0576435104012489,0.6306244134902954,0.0664719566702842,-0.6077377796173096,0.0737906992435455,-0.1480170637369156,0.0,0.0,-0.4838308095932007,-0.8096674084663391
-0.0570340156555175,0.6166395545005798,0.0670559778809547,-0.6212526559829712,0.067755326628685,-0.1207073107361793,0.0,0.0,-0.6341413259506226,-0.0655078291893005
-0.0563484206795692,0.6023678779602051,0.0747246667742729,-0.6340358257293701,0.0616569034755229,-0.1219686269760131,0.0,0.0,-0.1948922276496887,-0.7227048873901367
-0.0556448921561241,0.5878099799156189,0.0751156285405159,-0.6468282341957092,0.0569569692015647,-0.0939988195896148,0.0,0.0,-0.5176060199737549,0.3481836318969726
-0.0548649802803993,0.5729648470878601,0.0828024595975875,-0.6596102118492126,0.0522034764289855,-0.0950698107481002,0.0,0.0,-0.1356550455093383,-0.6617053747177124
-0.0540709495544433,0.5578340291976929,0.0826863497495651,-0.6723683476448059,0.0489627830684185,-0.0648140981793403,0.0,0.0,-0.4175833463668823,0.6834585666656494
-0.0531577095389366,0.5424119830131531,0.0957228690385818,-0.6852887272834778,0.0446134656667709,-0.086986169219017,0.0,0.0,0.3773679733276367,-0.2163084745407104
-0.052163790911436,0.5276923775672913,0.1036770790815353,-0.6540836691856384,0.0403840541839599,-0.0845885723829269,0.0,0.0,0.0530025959014892,-0.630519688129425
-0.0512308105826377,0.513227641582489,0.0964212790131568,-0.6427966356277466,0.0372925661504268,-0.0618296936154365,0.0,0.0,-0.2940518260002136,-0.518266499042511
-0.0502661690115928,0.4984751045703888,0.0984779074788093,-0.6556206941604614,0.0353043004870414,-0.0397654846310615,0.0,0.0,0.060845136642456,-0.1834856271743774
-0.0492485985159873,0.4841077029705047,0.1038220301270484,-0.6385036706924438,0.0332670174539089,-0.0407454147934913,0.0,0.0,-0.4056473970413208,0.5047677755355835
-0.0481089577078819,0.4694552421569824,0.117198646068573,-0.6511531472206116,0.0300751477479934,-0.0638374239206314,0.0,0.0,0.3436852693557739,-0.8887192606925964
-0.0469493865966796,0.4549217522144317,0.1173640042543411,-0.6459053754806519,0.0286750420928001,-0.0280019100755453,0.0,0.0,-0.2611343264579773,-0.8349937200546265
-0.0457695946097373,0.4400922060012817,0.1179606541991233,-0.6590919494628906,0.0286932680755853,0.0003644895332399,0.0,0.0,-0.3339468240737915,-0.7989634275436401
-0.0445617660880088,0.4249728620052337,0.1195355653762817,-0.6719967722892761,0.0299346968531608,0.024828378111124,0.0,0.0,-0.0402230620384216,-0.5400974154472351
-0.0433109290897846,0.4095603227615356,0.1229579895734787,-0.6850438714027405,0.0320344492793083,0.0419950783252716,0.0,0.0,0.8081338405609131,-0.7943336367607117
-0.0420806892216205,0.395095556974411,0.1192630305886268,-0.6429653167724609,0.0357422120869159,0.0741552859544754,0.0,0.0,-0.6130194067955017,-0.4614102840423584
-0.0407754890620708,0.3803434073925018,0.1267172545194625,-0.6557470560073853,0.0395033806562423,0.075223371386528,0.0,0.0,0.1225827932357788,-0.2137318253517151
-0.0393287651240825,0.3659882843494415,0.1403955817222595,-0.6381232142448425,0.0437203869223594,0.0843403935432434,0.0,0.0,-0.4304996728897095,-0.3964447975158691
-0.0378078445792198,0.3513459265232086,0.1477514207363128,-0.6509054899215698,0.0480132959783077,0.0858581140637397,0.0,0.0,0.3555185794830322,-0.6710209846496582
-0.0363336578011512,0.3370332419872284,0.1417122334241867,-0.6363142728805542,0.0536462813615798,0.1126598864793777,0.0,0.0,0.5822041034698486,0.1270554065704345
-0.0347495079040527,0.3236776292324066,0.1522359699010849,-0.5938166379928589,0.0597537197172641,0.1221487298607826,0.0,0.0,-0.6618684530258179,-0.4622822403907776
-0.0330925956368446,0.3100350499153137,0.1594050973653793,-0.606600821018219,0.065973050892353,0.1243867650628089,0.0,0.0,-0.0096881985664367,0.2818520069122314
-0.0313634872436523,0.2961055040359497,0.1665004789829254,-0.619385302066803,0.0723168328404426,0.1268755197525024,0.0,0.0,0.8272221088409424,0.1845371723175048
-0.0295225139707326,0.2830542325973511,0.177093356847763,-0.5804088115692139,0.0792429894208908,0.1385232806205749,0.0,0.0,0.5757981538772583,-0.1939284205436706
-0.0277183540165424,0.2707802355289459,0.1735082864761352,-0.5458938479423523,0.0860830545425415,0.1368013769388198,0.0,0.0,0.0475162267684936,0.2092044353485107
-0.0259373672306537,0.2589221596717834,0.1712825000286102,-0.5274322032928467,0.0928437784314155,0.1352141797542572,0.0,0.0,-0.1877323985099792,-0.0113600492477417
-0.0240872390568256,0.2467774003744125,0.1780174374580383,-0.540217936038971,0.0997811257839202,0.1387468874454498,0.0,0.0,0.4387478828430176,-0.0192041993141174
-0.0223222728818655,0.2351124435663223,0.1697934567928314,-0.5189055800437927,0.1064385548233985,0.1331487447023391,0.0,0.0,0.0953773260116577,0.4244682788848877
-0.0206261631101369,0.2236628383398056,0.1631604433059692,-0.5093459486961365,0.1128380894660949,0.1279907524585724,0.0,0.0,-0.1836574673652649,-0.0204144120216369
-0.0188641548156738,0.2119264900684356,0.1695462763309478,-0.5221319794654846,0.1194548904895782,0.1323358714580536,0.0,0.0,0.329416275024414,0.5271700620651245
-0.0169776920229196,0.2003581672906875,0.1826967895030975,-0.5146370530128479,0.125373438000679,0.1183710470795631,0.0,0.0,0.5626394748687744,-0.2863590121269226
-0.0149818416684865,0.189602792263031,0.1927597224712371,-0.4786040484905243,0.1321711540222168,0.135954201221466,0.0,0.0,0.3464025259017944,-0.500809907913208
-0.0130667686462402,0.1794937998056411,0.1834698170423507,-0.450023740530014,0.1401773989200592,0.1601250618696212,0.0,0.0,0.3938300609588623,0.0413422584533691
-0.0110725406557321,0.170194610953331,0.190556600689888,-0.4141549468040466,0.1490125060081482,0.1767018139362335,0.0,0.0,-0.1940811276435852,0.0945029258728027
-0.0090194698423147,0.1606094688177108,0.1961794793605804,-0.4269455373287201,0.1581334173679351,0.1824183464050293,0.0,0.0,-0.1355481743812561,0.2579395771026611
-0.0069090845063328,0.1507385820150375,0.2016187906265258,-0.4397368729114532,0.1675538122653961,0.1884079426527023,0.0,0.0,0.1284300088882446,-0.4977196455001831
-0.0047922134399414,0.1413879692554474,0.2017881423234939,-0.4167306125164032,0.1774788647890091,0.1985011100769043,0.0,0.0,0.0670058727264404,0.4219973087310791
-0.0026228905189782,0.1322028785943985,0.2064815312623977,-0.40951007604599,0.1879711151123047,0.209845095872879,0.0,0.0,-0.1560717821121215,-0.7828189730644226
-0.0004755020199809,0.1227133572101593,0.2020956724882125,-0.4234118461608886,0.2006925046443939,0.2544277310371399,0.0,0.0,0.5719857215881348,0.0107321739196777
0.0015037537086755,0.11362274736166,0.1855158507823944,-0.4057612419128418,0.2132020145654678,0.2501901388168335,0.0,0.0,0.4936925172805786,-0.4403911828994751
0.0034028054215013,0.1049886792898178,0.1772666722536087,-0.3856144249439239,0.2259876579046249,0.2557130753993988,0.0,0.0,0.5158902406692505,0.1718437671661377
0.0052597997710108,0.096793919801712,0.1726056039333343,-0.3662752211093902,0.239262655377388,0.2655001878738403,0.0,0.0,0.52204430103302,0.6077146530151367
0.0072543146088719,0.0888559445738792,0.1869436651468277,-0.354888767004013,0.2519983351230621,0.2547132670879364,0.0,0.0,0.1919009685516357,0.1663200855255127
0.0092329978942871,0.0813767313957214,0.1846776455640792,-0.3347288072109222,0.2654637694358825,0.2693085372447967,0.0,0.0,0.0350291728973388,-0.3155164718627929
0.0111302379518747,0.0743514150381088,0.1761139780282974,-0.3147618472576141,0.2794187068939209,0.2790984809398651,0.0,0.0,0.0359232425689697,0.3241699934005737
0.0130451200529932,0.0673414096236229,0.1773203909397125,-0.3143333494663238,0.293987363576889,0.2913727462291717,0.0,0.0,0.0965849161148071,-0.2194814682006836
