x_pos,y_pos,x_vel,y_vel,angle,ang_vel,leg_1,leg_2,main_booster,lat_booster
-0.0014822005759924,1.4029357433319092,-0.1508121490478515,-0.3548639416694641,0.0023274086415767,0.0459522306919097,0.0,0.0,0.3390336036682129,0.9276103973388672
-0.0028014183044433,1.3948423862457275,-0.1329964101314544,-0.3597051799297333,0.003393089864403,0.0213162861764431,0.0,0.0,0.2870190143585205,0.2556780576705932
-0.0039738654159009,1.3865323066711426,-0.1194327101111412,-0.3693432211875915,0.0055466061457991,0.0430744066834449,0.0,0.0,-0.1781420707702636,0.7906184196472168
-0.0050519942305982,1.3775311708450315,-0.1093210205435752,-0.4000539183616638,0.0070355590432882,0.0297818928956985,0.0,0.0,0.1155717372894287,0.7599320411682129
-0.005928230471909,1.3685060739517212,-0.0883113592863082,-0.4011244177818298,0.0077120927162468,0.0135319586843252,0.0,0.0,-0.8225435018539429,0.30706787109375
-0.0067582130432128,1.358792066574097,-0.0842997655272483,-0.4317435622215271,0.0089864004403352,0.0254887156188488,0.0,0.0,-0.2214889526367187,-0.1530844569206237
-0.0075413705781102,1.3483893871307373,-0.080216035246849,-0.4623554646968841,0.0108603024855256,0.0374817624688148,0.0,0.0,-0.0776947140693664,-0.3920580744743347
-0.0082769393920898,1.337298035621643,-0.0760625228285789,-0.4929689168930053,0.0133359674364328,0.0495180524885654,0.0,0.0,-0.8133201003074646,-0.1381763219833374
-0.0089642526581883,1.3255181312561035,-0.0718419700860977,-0.5235833525657654,0.01641496270895,0.0615854933857917,0.0,0.0,-0.4396059513092041,-0.5645981431007385
-0.0096471784636378,1.3130521774291992,-0.0731471180915832,-0.5541030764579773,0.0212183501571416,0.0960763916373252,0.0,0.0,-0.3703181743621826,0.1793447732925415
-0.0102806091308593,1.2998979091644287,-0.0688047036528587,-0.5847192406654358,0.0266266167163848,0.1081751212477684,0.0,0.0,-0.7360574007034302,0.3517472743988037
-0.0108637809753417,1.286055564880371,-0.0644034221768379,-0.6153361201286316,0.0326411388814449,0.120301604270935,0.0,0.0,-0.7109250426292419,-0.0807594656944274
-0.011396313086152,1.271525263786316,-0.0599461309611797,-0.645953893661499,0.0392620824277401,0.1324308514595031,0.0,0.0,-0.7603275775909424,-0.2821701169013977
-0.0118776317685842,1.2563068866729736,-0.0554357580840587,-0.6765726208686829,0.0464895032346248,0.1445614397525787,0.0,0.0,-0.2497535943984985,0.3106300830841064
-0.0123072620481252,1.240401029586792,-0.0508749410510063,-0.707192599773407,0.0543231926858425,0.1566882282495498,0.0,0.0,-0.6385452747344971,0.6129709482192993
-0.0126274107024073,1.223804950714111,-0.0390791855752468,-0.7378740906715393,0.0613257773220539,0.1400646269321441,0.0,0.0,-0.8544484376907349,0.9105072021484376
-0.0128070833161473,1.2065398693084717,-0.0234068538993597,-0.7675718665122986,0.0667098388075828,0.1076910346746444,0.0,0.0,-0.774792492389679,0.7577881813049316
-0.0128595354035496,1.188587665557861,-0.0094115929678082,-0.7980650067329407,0.0708390176296234,0.0825909450650215,0.0,0.0,-0.4950887560844421,0.607560396194458
-0.0128030776977539,1.1699590682983398,0.0022863715421408,-0.8281000256538391,0.0741682723164558,0.0665907561779022,0.0,0.0,0.0837670564651489,0.751711368560791
-0.0127215385437011,1.1511971950531006,0.0057395114563405,-0.8339821696281433,0.0765580534934997,0.0478000901639461,0.0,0.0,-0.5722087621688843,0.6606502532958984
-0.012522792443633,1.1317591667175293,0.018461549654603,-0.8639854192733765,0.0779553204774856,0.0279476884752511,0.0,0.0,0.3994643688201904,0.0063596963882446
-0.0122886653989553,1.1121946573257446,0.0213546156883239,-0.8696418404579163,0.0799982398748397,0.0408620797097682,0.0,0.0,0.3435004949569702,0.7384636402130127
-0.0118588451296091,1.0926240682601929,0.0416250899434089,-0.8698753714561462,0.0813420340418815,0.0268785096704959,0.0,0.0,0.2685699462890625,0.6405386924743652
-0.0112830158323049,1.0727300643920898,0.0568115301430225,-0.8842242360115051,0.0821084901690483,0.0153304683044552,0.0,0.0,0.1958405971527099,0.5077366828918457
-0.0107617378234863,1.0528368949890137,0.0520132482051849,-0.8841537237167358,0.0822173729538917,0.002177991438657,0.0,0.0,0.7391090393066406,0.6656479835510254
-0.0103577617555856,1.0333313941955566,0.0414286367595195,-0.8668501973152161,0.0811998546123504,-0.0203504525125026,0.0,0.0,0.9283015727996826,-0.2084065675735473
-0.0099620819091796,1.0144059658050537,0.0399817302823066,-0.8411035537719727,0.0807894840836525,-0.0082073602825403,0.0,0.0,0.6445919275283813,0.5764346122741699
-0.0096709253266453,0.9960153698921204,0.0304557625204324,-0.8172903656959534,0.0794601440429687,-0.0265867263078689,0.0,0.0,0.7939763069152832,0.4950766563415527
-0.0095314979553222,0.9781773090362548,0.015360471792519,-0.7927245497703552,0.0780557170510292,-0.0280886087566614,0.0,0.0,0.7003605365753174,0.6111290454864502
-0.009349632076919,0.9604023694992064,0.020303001627326,-0.7898926138877869,0.0759541317820549,-0.0420315787196159,0.0,0.0,0.3917374610900879,0.6392600536346436
-0.0090981479734182,0.943020761013031,0.0279514081776142,-0.7723726034164429,0.0731839835643768,-0.0554027743637561,0.0,0.0,0.3777220249176025,-0.5531265139579773
-0.0089305881410837,0.9254819750785828,0.0180242080241441,-0.7794374823570251,0.0719275772571563,-0.0251280702650547,0.0,0.0,0.3519773483276367,0.5506712198257446
-0.0087837222963571,0.9082385897636414,0.0166587252169847,-0.7662866711616516,0.0699759572744369,-0.0390324480831623,0.0,0.0,-0.2653647065162658,0.2260613441467285
-0.008580207824707,0.8903067111968994,0.0217528976500034,-0.7969021201133728,0.0685847550630569,-0.0278241746127605,0.0,0.0,-0.0186526179313659,0.4998557567596435
-0.0083202365785837,0.8716867566108704,0.026850426569581,-0.8275173902511597,0.0677490904927253,-0.0167133454233407,0.0,0.0,0.7597439289093018,0.6940906047821045
-0.0079825399443507,0.853597104549408,0.0354005955159664,-0.803913950920105,0.0661283060908317,-0.0324155315756797,0.0,0.0,0.2125225067138672,0.7929338216781616
-0.0075696944259107,0.8353192806243896,0.0439909435808658,-0.8122299313545227,0.0634544491767883,-0.0534772351384162,0.0,0.0,0.7038700580596924,0.5340690612792969
-0.007066345307976,0.8175404667854309,0.0534528419375419,-0.7900356650352478,0.0603698678314685,-0.0616917125880718,0.0,0.0,0.6004211902618408,0.224523663520813
-0.0065939901396632,0.8002921938896179,0.049990888684988,-0.7664811611175537,0.057641863822937,-0.0545598976314067,0.0,0.0,0.3295475244522095,0.6801307201385498
-0.0060148239135742,0.7830958962440491,0.0614715442061424,-0.7641448378562927,0.0541282556951046,-0.0702721700072288,0.0,0.0,-0.1075659394264221,0.1434162855148315
-0.0053796768188476,0.7652115225791931,0.0665374398231506,-0.79475998878479,0.0511345751583576,-0.0598736219108104,0.0,0.0,-0.1825256943702697,0.1492452621459961
-0.0046889306977391,0.7466385960578918,0.0715888813138008,-0.8253747820854187,0.0486537739634513,-0.0496158897876739,0.0,0.0,0.6394057273864746,-8.90493392944336e-05
-0.0038615227676928,0.7278508543968201,0.0842888429760932,-0.8349692225456238,0.0471244379878044,-0.0305867940187454,0.0,0.0,0.1159775257110595,-0.030527651309967
-0.0029287338256835,0.7089141607284546,0.0940072685480117,-0.8416040539741516,0.0464031100273132,-0.0144266262650489,0.0,0.0,0.3823387622833252,0.0791319608688354
-0.0019865990616381,0.6896559000015259,0.0946181565523147,-0.8559089303016663,0.0460142418742179,-0.0077771851792931,0.0,0.0,0.5196125507354736,0.3094332218170166
-0.0009616852039471,0.6701727509498596,0.102193534374237,-0.8659307360649109,0.0463022775948047,0.0057606790214776,0.0,0.0,0.5196206569671631,-0.3617709875106811
0.0001543045073049,0.6506208181381226,0.1105700880289077,-0.8690057396888733,0.0473226197063922,0.0204068776220083,0.0,0.0,0.81732177734375,-0.7358483672142029
0.0010879517067223,0.6317487955093384,0.0906812101602554,-0.8388391733169556,0.0499706827104091,0.05296141654253,0.0,0.0,0.3021354675292969,-0.0340186953544616
0.0019393920665606,0.6131113767623901,0.0824924260377883,-0.8284251093864441,0.0525894239544868,0.0523748397827148,0.0,0.0,0.4971718788146972,0.6357431411743164
0.0028487206436693,0.5944762825965881,0.0891609489917755,-0.8282853960990906,0.0543438866734504,0.0350891575217247,0.0,0.0,0.5778034925460815,0.4893382787704468
0.0039174081757664,0.5759808421134949,0.1040207892656326,-0.8221231698989868,0.0571668371558189,0.0564591661095619,0.0,0.0,0.7649781703948975,-0.0831291079521179
0.0049315453507006,0.5579705238342285,0.09840789437294,-0.8005789518356323,0.0601297467947006,0.0592582747340202,0.0,0.0,0.8288254737854004,0.3773496150970459
0.0060877799987792,0.5400195717811584,0.1116480603814125,-0.797982931137085,0.0640664845705032,0.0787348002195358,0.0,0.0,0.7466610670089722,0.3228802680969238
0.0072438241913914,0.5226433277130127,0.1111989766359329,-0.7724778056144714,0.0684220045804977,0.0871102958917617,0.0,0.0,0.6450172662734985,0.6840038299560547
0.0086318012326955,0.5053247809410095,0.1350187808275222,-0.7698879837989807,0.0721576958894729,0.0747143253684043,0.0,0.0,0.6948003768920898,-0.0525190234184265
0.0099359508603811,0.4880306720733642,0.126715749502182,-0.7688115835189819,0.0758207663893699,0.0732613056898117,0.0,0.0,0.6192734241485596,0.0799260139465332
0.0113207818940281,0.4712271690368652,0.1339864581823349,-0.7470570206642151,0.0802792385220527,0.0891694948077201,0.0,0.0,0.2199938297271728,-0.1372357606887817
0.0128143308684229,0.454492449760437,0.1440270841121673,-0.7440583109855652,0.0855664908885955,0.1057447046041488,0.0,0.0,0.7574670314788818,0.2755525112152099
0.0143585205078125,0.4383889138698578,0.1483618170022964,-0.7160683870315552,0.0915666669607162,0.1200035065412521,0.0,0.0,0.1548565626144409,-0.2245789170265197
0.0158446319401264,0.4224108159542084,0.1424685567617416,-0.7105302214622498,0.0976536944508552,0.1217403262853622,0.0,0.0,0.7688956260681152,0.7247781753540039
0.0174530986696481,0.406347393989563,0.1557022482156753,-0.7142725586891174,0.1027495115995407,0.1019166707992553,0.0,0.0,0.6504963636398315,-0.2431320548057556
0.0189329143613576,0.3906261324882507,0.1430044919252395,-0.6990727782249451,0.1076902449131012,0.0988147109746933,0.0,0.0,0.7533433437347412,0.6893398761749268
0.0205912590026855,0.3750653862953186,0.1616198122501373,-0.6919012665748596,0.1118767112493515,0.0837293490767479,0.0,0.0,0.4159486293792724,0.0835189819335937
0.0222514159977436,0.3596029281616211,0.1614324450492859,-0.6875713467597961,0.1164396405220031,0.091258592903614,0.0,0.0,0.8876340389251709,-0.1338006854057312
0.0239064209163188,0.3441362977027893,0.1606000363826751,-0.6877955794334412,0.1213142275810241,0.0974917486310005,0.0,0.0,0.9015657901763916,0.1321572065353393
0.0253754612058401,0.3289686441421509,0.1424006968736648,-0.6744906306266785,0.1257872432470321,0.0894602090120315,0.0,0.0,0.776247501373291,0.0037026405334472
0.0267880447208881,0.3144865036010742,0.1364172548055648,-0.6440673470497131,0.1306118071079254,0.0964910984039306,0.0,0.0,0.8371877670288086,0.2424293756484985
0.0282834060490131,0.299817830324173,0.1440379917621612,-0.6524326801300049,0.1360907554626464,0.1095785349607467,0.0,0.0,0.9484078884124756,0.1796512603759765
0.0297067649662494,0.2859638929367065,0.1364684104919433,-0.6162769794464111,0.1419365555047989,0.1169158965349197,0.0,0.0,0.871870756149292,0.8074131011962891
0.0310336109250783,0.2722035944461822,0.1284673064947128,-0.6119747161865234,0.1461359560489654,0.0839876532554626,0.0,0.0,0.6957225799560547,0.5939342975616455
0.0322344787418842,0.2587770223617553,0.1171275749802589,-0.5970293879508972,0.1490858942270279,0.0589991733431816,0.0,0.0,0.8454663753509521,0.2387597560882568
0.0333934798836708,0.2457010895013809,0.1126080974936485,-0.5814884305000305,0.1523770242929458,0.0658224746584892,0.0,0.0,0.9532029628753662,0.7839300632476807
0.0343232154846191,0.2334021180868148,0.0914478674530983,-0.5467761754989624,0.1538959890604019,0.0303791500627994,0.0,0.0,0.9857468605041504,0.7359778881072998
0.0353216156363487,0.2214789539575576,0.0994157344102859,-0.5299664735794067,0.1543293744325637,0.0086676375940442,0.0,0.0,0.9440113306045532,-0.0662747621536254
0.036231517791748,0.2095401138067245,0.0905860140919685,-0.5306532979011536,0.1547258198261261,0.0079289376735687,0.0,0.0,0.987140655517578,-0.2547207474708557
0.0371809005737304,0.197511225938797,0.0940322130918502,-0.5347118973731995,0.1556358337402343,0.0182003825902938,0.0,0.0,0.9896996021270752,-0.4988293647766113
0.0380460731685161,0.1853907853364944,0.0856619700789451,-0.5387772917747498,0.1564939022064209,0.0171613991260528,0.0,0.0,0.9899903535842896,-0.4224425554275512
0.0387667641043663,0.1739949733018875,0.0711475759744644,-0.5065752267837524,0.1574185639619827,0.0184931047260761,0.0,0.0,0.9901843070983888,-0.8511857986450195
0.0393820777535438,0.1633838713169098,0.0585832223296165,-0.4719179570674896,0.1603643000125885,0.0589149072766304,0.0,0.0,0.9863179922103882,-0.23504638671875
0.0397167205810546,0.1535071283578872,0.031050244346261,-0.4392303228378296,0.1627785563468933,0.0482853725552558,0.0,0.0,0.9953340291976928,0.4009344577789306
0.0398391708731651,0.1434959024190902,0.0104752229526638,-0.4451365768909454,0.1645529121160507,0.0354870446026325,0.0,0.0,0.9862005710601808,0.9574964046478271
0.0399368293583393,0.1342425644397735,0.0097417291253805,-0.41126149892807,0.1645740121603012,0.000421910372097,0.0,0.0,0.9730391502380372,0.1377220153808593
0.0398040786385536,0.1252879202365875,-0.0127941593527793,-0.3979332149028778,0.1640998870134353,-0.0094828763976693,0.0,0.0,0.9142812490463256,0.8194167613983154
0.0395371429622173,0.1168091371655464,-0.0244908016175031,-0.3765936493873596,0.161894217133522,-0.0441135391592979,0.0,0.0,0.8595019578933716,0.9643828868865968
0.0391995422542095,0.1088265255093574,-0.029644614085555,-0.3543362915515899,0.1577785462141037,-0.0823134630918502,0.0,0.0,0.7304856777191162,0.9741528034210204
0.0389369949698448,0.1011009812355041,-0.0203606449067592,-0.3427483737468719,0.151893064379692,-0.1177095994353294,0.0,0.0,0.7881999015808105,0.0993154048919677
0.0386347770690918,0.0932422503829002,-0.0244850777089595,-0.3487014472484588,0.1461589187383651,-0.1146824806928634,0.0,0.0,0.8445988893508911,0.8810825347900391
0.0384379401803016,0.0853963196277618,-0.0124081363901495,-0.3480105102062225,0.1388996988534927,-0.1451843678951263,0.0,0.0,0.9688889980316162,0.7374889850616455
0.0383779518306255,0.077924758195877,0.0022959946654736,-0.3313198983669281,0.1306368261575698,-0.1652573943138122,0.0,0.0,0.7282553911209106,-0.7401193976402283
0.0383477210998535,0.07039275765419,0.0034433875698596,-0.33420130610466,0.1242005601525306,-0.1287250220775604,0.0,0.0,0.9416075944900512,-0.722744345664978
0.038124181330204,0.0634798854589462,-0.0173142403364181,-0.3068288564682007,0.1191953793168068,-0.1001038327813148,0.0,0.0,0.948194980621338,-0.3755944371223449
0.0378085151314735,0.057217251509428,-0.0267030391842126,-0.2779578864574432,0.1143614202737808,-0.0966789871454238,0.0,0.0,0.7600890398025513,-0.432193398475647
0.0375189781188964,0.0513479337096214,-0.0246960334479808,-0.2605417668819427,0.1101390048861503,-0.0844485014677047,0.0,0.0,0.8883287906646729,0.6408607959747314
0.0373355858027935,0.0453683957457542,-0.0131256859749555,-0.2653801441192627,0.1049534082412719,-0.103711724281311,0.0,0.0,0.8713743686676025,-0.2867975234985351
0.0370031371712684,0.0395516492426395,-0.0277204625308513,-0.2581474483013153,0.0994821786880493,-0.1094245761632919,0.0,0.0,0.8574187755584717,-0.3563021421432495
0.0366376861929893,0.0345083810389041,-0.0314587354660034,-0.2238148599863052,0.094437301158905,-0.1008979231119155,0.0,0.0,0.8380377292633057,-0.0756154060363769
0.0361531265079975,0.0297185275703668,-0.0432335548102855,-0.2125602811574936,0.0892556831240654,-0.1036322861909866,0.0,0.0,0.8587220907211304,0.1331415176391601
0.0354136452078819,0.0255587436258792,-0.0680476352572441,-0.1845391690731048,0.0834071412682533,-0.1169706210494041,0.0,0.0,0.7648777961730957,0.9060502052307128
0.0347485542297363,0.0218515023589134,-0.0589311234652996,-0.1643617302179336,0.0758999437093734,-0.1501440107822418,0.0,0.0,0.6963297128677368,-0.6458538770675659
0.0338748916983604,0.0186004489660263,-0.080910325050354,-0.1441804319620132,0.0695146694779396,-0.1277056336402893,0.0,0.0,0.5001106262207031,0.8450567722320557
0.0328950881958007,0.0156829208135604,-0.0896868258714675,-0.1293060034513473,0.0613045021891593,-0.1642031073570251,0.0,0.0,0.4200522899627685,0.8085141181945801
0.0318860039114952,0.012719402089715,-0.0909235477447509,-0.1313304603099823,0.0514279827475547,-0.1975306570529937,0.0,0.0,0.469292402267456,0.5173952579498291
0.0307340621948242,0.0098648881539702,-0.103846326470375,-0.1265149414539337,0.0402157120406627,-0.2242451906204223,0.0,0.0,0.4249906539916992,0.8514480590820312
0.0294386856257915,0.0069939587265253,-0.1162643581628799,-0.1272919028997421,0.0271072033792734,-0.2621702253818512,0.0,0.0,0.1215338706970214,0.4933063983917236
0.0281544681638479,0.0041708801873028,-0.1154599040746688,-0.1252845078706741,0.0143062928691506,-0.2560183703899383,0.0,0.0,0.1650893688201904,-0.0014141201972961
0.0268609039485454,0.0010524010285735,-0.1165677532553672,-0.1385256350040435,0.0016813268885016,-0.252499520778656,0.0,0.0,0.5486432313919067,-0.0676596164703369
0.0256520267575979,-0.0016797685530036,-0.1087107434868812,-0.1214609071612358,-0.0103377336636185,-0.2403810024261474,1.0,0.0,0.3639450073242187,0.6447089910507202
0.0246082302182912,-0.0037798667326569,-0.1025731936097145,-0.0934766978025436,-0.0115807857364416,-0.0241749584674835,1.0,0.0,0.4214895963668823,0.6640846729278564
0.0238711349666118,-0.0043117310851812,-0.070523627102375,-0.0236915852874517,-0.0147699574008584,-0.0638428181409835,1.0,1.0,-0.7421781420707703,0.992351770401001
0.0233561508357524,-0.0044986987486481,-0.0500893369317054,-0.0083446744829416,-0.0162043403834104,-0.028742766007781,1.0,1.0,-0.8709911108016968,0.9533696174621582
0.0230382923036813,-0.0042790793813765,-0.0308328978717327,0.0097341062501072,-0.017188798636198,-0.019742876291275,1.0,1.0,-0.8871203064918518,0.1566493511199951
0.022838782519102,-0.0037912749685347,-0.0236956067383289,0.0217077191919088,-0.0135135045275092,0.0734771341085434,1.0,1.0,-0.2703310847282409,0.9887933731079102
0.0227298736572265,-0.003069438971579,-0.0126548688858747,0.0320882722735405,-0.0117983883246779,0.0342668816447258,1.0,1.0,-0.317208468914032,0.2894301414489746
0.0226684566587209,-0.0023214602842926,-0.0118512706831097,0.0332710705697536,-0.0061801173724234,0.1123363822698593,1.0,1.0,-0.3695901036262512,0.9411733150482178
0.0226795189082622,-0.001610925188288,-0.0043366448953747,0.0315870195627212,-0.0008165398612618,0.1072472333908081,1.0,1.0,-0.4903082847595215,0.995668649673462
0.0227788928896188,-0.0010133647592738,0.0053060487844049,0.0265492275357246,0.0037337674293667,0.0909860432147979,1.0,1.0,-0.5572115182876587,0.8182135820388794
0.0229054447263479,-0.0010095024481415,0.0126380231231451,0.0001685652532614,0.0037366377655416,4.066608380526304e-05,1.0,1.0,-0.5524110198020935,-0.2468591332435608
0.0229677204042673,-0.001012792577967,0.0062132645398378,-0.0001491645089117,0.0037352822255343,-3.845845276373439e-05,1.0,1.0,-0.8533722162246704,-0.1179460287094116
0.0229671485722064,-0.001012792577967,-6.875254621263593e-05,-3.3237340630876133e-06,0.0037368580233305,2.0571635104715824e-05,1.0,1.0,-0.6213414072990417,-0.1157666444778442
0.0229470245540142,-0.0010127210989594,-0.0020643123425543,-1.3849742117599817e-06,0.0037683956325054,0.0006053515244275,1.0,1.0,-0.7443663477897644,-0.156790554523468
0.0229341499507427,-0.0010127210989594,-0.0013174192281439,-1.4720465060236163e-06,0.0037886211648583,0.0003859781718347,1.0,1.0,-0.8724681735038757,-0.0669721364974975
