x_pos,y_pos,x_vel,y_vel,angle,ang_vel,leg_1,leg_2,main_booster,lat_booster
-0.0015449523925781,1.4033547639846802,-0.1563551872968673,-0.3362485468387604,0.0016665945295244,0.0328677184879779,0.0,0.0,-0.0898877499973032,0.8990550796060264
-0.0030362128745764,1.3955382108688354,-0.1487130969762802,-0.3474029898643493,0.0012573689455166,-0.0081845726817846,0.0,0.0,0.9543455948315268,0.5438350400459407
-0.0043421746231615,1.388164520263672,-0.129529669880867,-0.3277219831943512,0.0002078946563415,-0.0209915302693843,0.0,0.0,0.720408779648559,-0.5002013943633052
-0.0058448789641261,1.3812992572784424,-0.1497403085231781,-0.3051185309886932,-0.0003214098396711,-0.0105868708342313,0.0,0.0,0.7662740651641131,-0.932582692856598
-0.0072940825484693,1.375212788581848,-0.1464632600545883,-0.2705147564411163,0.0012086990755051,0.0306048933416605,0.0,0.0,0.2462453081749449,-0.6858580551963804
-0.0087100025266408,1.3694698810577393,-0.1446660310029983,-0.255246639251709,0.0042465198785066,0.0607623979449272,0.0,0.0,-0.9611066857392256,0.5923645165072167
-0.0101102832704782,1.363457202911377,-0.1419468373060226,-0.2672304213047027,0.0061375587247312,0.0378244034945964,0.0,0.0,-0.4461578622019886,0.7016453772456688
-0.0114720342680811,1.357177495956421,-0.1363332867622375,-0.2791002988815307,0.0062960223294794,0.0031695228535681,0.0,0.0,-0.8687435484202561,-0.7022683639081626
-0.0129214283078908,1.3506348133087158,-0.146554559469223,-0.2907890975475311,0.0078907376155257,0.0318975038826465,0.0,0.0,0.2957058793296505,0.7678374239730223
-0.0143478391692042,1.3446823358535769,-0.1427431553602218,-0.2645577490329742,0.0079962881281971,0.0021111969836056,0.0,0.0,-0.4246700343076681,0.9984846266417884
-0.0157173164188861,1.3384616374969482,-0.1348173022270202,-0.2764710783958435,0.0058926930651068,-0.0420758314430713,0.0,0.0,-0.0268748929997582,-0.6340999709137591
-0.0171646121889352,1.3319692611694336,-0.1437958776950836,-0.2885459363460541,0.0049672299064695,-0.0185110904276371,0.0,0.0,0.557862507937311,-0.8112175094216872
-0.0185770038515329,1.3262009620666504,-0.1422522366046905,-0.2563712894916534,0.0059662233106791,0.0199816692620515,0.0,0.0,0.2046302155852681,0.7678121637567048
-0.0199084281921386,1.320544719696045,-0.1327699720859527,-0.2513798475265503,0.0056047667749226,-0.0072295875288546,0.0,0.0,0.873652897483425,0.8778904389964552
-0.0210353843867778,1.3160324096679688,-0.1110384687781333,-0.200549229979515,0.0039642150513827,-0.0328141599893569,0.0,0.0,0.4782743849316841,-0.8356172219001081
-0.0221555717289447,1.3116390705108645,-0.1123378872871398,-0.1952549964189529,0.0042716516181826,0.0061493786051869,0.0,0.0,0.7177740042287493,0.6155019714339829
-0.0231136325746774,1.3083186149597168,-0.0954269915819168,-0.1475770175457,0.0038941267412155,-0.0075510651804506,0.0,0.0,-0.0155963758302033,0.6662804251472053
-0.0240441318601369,1.304722547531128,-0.0911720842123031,-0.159815028309822,0.002040238585323,-0.0370811447501182,0.0,0.0,-0.8234910671228084,0.7573691944465446
-0.0249429699033498,1.300864338874817,-0.0864194184541702,-0.171479120850563,-0.0013876043958589,-0.0685632079839706,0.0,0.0,0.130486945448478,0.704665832474985
-0.0258865356445312,1.2973170280456543,-0.089583620429039,-0.1576760113239288,-0.0061006969772279,-0.0942704975605011,0.0,0.0,-0.5851908943906323,0.8526541733228383
-0.0267868991941213,1.2935054302215576,-0.0833939760923385,-0.1694455444812774,-0.0126689048483967,-0.1313756704330444,0.0,0.0,0.5623823657858384,-0.5322368084406841
-0.027751063928008,1.2900495529174805,-0.0910825878381729,-0.1536511033773422,-0.0179396905004978,-0.1054253727197647,0.0,0.0,0.4820353336538348,-0.7016430371814653
-0.0286727901548147,1.2870533466339111,-0.0887158289551734,-0.1332113593816757,-0.0213566571474075,-0.0683453455567359,0.0,0.0,0.0313790136707332,0.8657315942839685
-0.0295100212097167,0.0,-0.0787615925073623,-0.132848784327507,-0.0262638796120882,-0.0981533005833625,0.0,0.0,0.2988153460184577,0.6113909011260192
-0.0304483417421579,1.281572341918945,-0.0876531153917312,-0.1109494417905807,-0.0323771089315414,-0.12227563560009,0.0,0.0,0.8620000782568538,-0.5832807969234757
-0.0316228866577148,1.2799911499023438,-0.1122123450040817,-0.0704016685485839,-0.0375603064894676,-0.1036638393998146,0.0,0.0,-0.6381446625246399,-0.8425264123403924
-0.0329039581120014,1.2781490087509155,-0.1248062029480934,-0.0819579884409904,-0.0408208183944225,-0.0652101784944534,0.0,0.0,0.7210503527850143,0.7554036516524805
-0.0342795364558696,1.2773388624191284,-0.132698193192482,-0.0361462906002998,-0.0456220395863056,-0.0960243865847587,0.0,0.0,0.9446207691938988,-0.8984775330424853
-0.0358939170837402,1.2776490449905396,-0.1583373844623565,0.0136792762205004,-0.0486855171620845,-0.0612695701420307,0.0,0.0,-0.3075455694866322,0.9058772378299628
-0.0374802574515342,1.2776806354522705,-0.1540553867816925,0.0012499826261773,-0.0532100982964038,-0.090491771697998,0.0,0.0,-0.5134832489607011,-0.5900717838706961
-0.0391526222229003,1.27745258808136,-0.164101094007492,-0.0102503476664423,-0.0563099570572376,-0.0619969591498374,0.0,0.0,-0.9267441630363464,-0.9111140966415404
-0.0409476272761821,1.2769560813903809,-0.1787406951189041,-0.0220989622175693,-0.0570715107023716,-0.0152307748794555,0.0,0.0,-0.9052838087081908,-0.5019175410270691
-0.0428290367126464,1.276197910308838,-0.1888194680213928,-0.0336694531142711,-0.056398581713438,0.0134585024788975,0.0,0.0,-0.9521670937538148,-0.63431316614151
-0.044807530939579,1.2751686573028564,-0.2002507746219635,-0.0456585884094238,-0.0540278293192386,0.0474152192473411,0.0,0.0,-0.8403670787811279,-0.5210095643997192
-0.0468676574528217,1.2738735675811768,-0.2097443640232086,-0.0574248023331165,-0.0503400824964046,0.0737551972270011,0.0,0.0,-0.5778017640113831,-0.6619104743003845
-0.0490200035274028,1.27231764793396,-0.2205791473388672,-0.0689871460199356,-0.0450615137815475,0.1055714935064315,0.0,0.0,-0.9403440356254578,0.1413589715957641
-0.0512141212821006,1.2704917192459106,-0.2250777930021286,-0.0809848010540008,-0.0394659973680973,0.11191026866436,0.0,0.0,-0.9367926716804504,0.315946102142334
-0.0534501075744628,1.2683963775634766,-0.2295882701873779,-0.0929828658699989,-0.0335495434701442,0.1183290854096412,0.0,0.0,-0.8963233828544617,0.8941650390625
-0.0556616783142089,1.2660378217697144,-0.2257932126522064,-0.1047257035970687,-0.0289697218686342,0.0915968567132949,0.0,0.0,-0.940301775932312,0.3665691614151001
-0.0579152107238769,1.2634096145629885,-0.2303241789340973,-0.1167231723666191,-0.0240618083626031,0.0981582850217819,0.0,0.0,-0.978191077709198,0.8646390438079834
-0.0601544380187988,1.2605167627334597,-0.2277908772230148,-0.1285105049610138,-0.0202368274331092,0.0764996409416198,0.0,0.0,-0.9766675233840942,0.781962513923645
-0.0623611435294151,1.257350206375122,-0.2229868620634079,-0.1407124400138855,-0.0179517231881618,0.0457019954919815,0.0,0.0,-0.9919062852859496,0.2608619928359985
-0.064609907567501,1.2539135217666626,-0.227541834115982,-0.1527089178562164,-0.0153298322111368,0.0524380020797252,0.0,0.0,-0.995757520198822,0.9039065837860109
-0.0668176636099815,1.250203251838684,-0.2216509133577346,-0.1648946106433868,-0.0144627699628472,0.0173411462455987,0.0,0.0,-0.9981399178504944,0.5685985088348389
-0.0690257102251052,1.2462152242660522,-0.2209600210189819,-0.1772411465644836,-0.0143090523779392,0.0030745037365704,0.0,0.0,-0.991204798221588,0.5820446014404297
-0.0712264999747276,1.241950273513794,-0.2193179428577423,-0.1895603090524673,-0.015057954005897,-0.0149781182408332,0.0,0.0,-0.9884063005447388,0.2002937793731689
-0.0734694451093673,1.2374153137207031,-0.2238943129777908,-0.2015564143657684,-0.0154615622013807,-0.0080721285194158,0.0,0.0,-0.987256109714508,0.6670503616333008
-0.0757118239998817,1.2326165437698364,-0.223080113530159,-0.2132896482944488,-0.0165968351066112,-0.0227056536823511,0.0,0.0,-0.98321932554245,0.525835394859314
-0.0779639258980751,1.2275516986846924,-0.2235875427722931,-0.2251245528459549,-0.0181988161057233,-0.0320396199822425,0.0,0.0,-0.9407165050506592,0.8063268661499023
-0.0801967605948448,1.222212791442871,-0.2204520404338836,-0.2373178303241729,-0.0209984946995973,-0.0559936575591564,0.0,0.0,-0.994901955127716,0.0939507484436035
-0.0824720412492752,1.2166041135787964,-0.2250396907329559,-0.2493143826723098,-0.0234473627060651,-0.0489773228764534,0.0,0.0,-0.9251683950424194,0.7861350774765015
-0.0847331061959266,1.210728645324707,-0.2225625962018966,-0.2611880004405975,-0.026958068832755,-0.0702137798070907,0.0,0.0,-0.996440887451172,0.1300413608551025
-0.0870367065072059,1.2045835256576538,-0.2271524965763092,-0.2731847763061523,-0.0301161296665668,-0.063161477446556,0.0,0.0,-0.9776533842086792,0.8089253902435303
-0.0893179923295974,1.198172926902771,-0.2236561328172683,-0.2850117087364197,-0.0345376729965209,-0.0884307101368904,0.0,0.0,-0.9938251972198486,0.4415566921234131
-0.0916416198015213,1.1914925575256348,-0.2282460182905197,-0.2970088124275207,-0.0386054068803787,-0.0813545584678649,0.0,0.0,-0.820271909236908,0.4755237102508545
-0.0940075889229774,1.1845422983169556,-0.232835054397583,-0.3090055584907532,-0.0423189364373683,-0.0742707103490829,0.0,0.0,-0.9196653962135316,0.778994083404541
-0.0963444709777832,1.177324652671814,-0.2284675538539886,-0.320935994386673,-0.0474687293171882,-0.1029960662126541,0.0,0.0,-0.7075210809707642,0.0785515308380127
-0.0987234115600586,1.1698373556137085,-0.2330532819032669,-0.3329332768917084,-0.0522639714181423,-0.0959047824144363,0.0,0.0,-0.9903323650360109,0.8779690265655518
-0.1010664924979209,1.1620831489562988,-0.227818489074707,-0.344870001077652,-0.0586669333279132,-0.1280594170093536,0.0,0.0,-0.9732214212417604,0.9484002590179444
-0.1033857315778732,1.1540621519088743,-0.22415392100811,-0.3568224012851715,-0.0663627386093139,-0.153915986418724,0.0,0.0,-0.9642416834831238,0.3867027759552002
-0.1057472229003906,1.1457712650299072,-0.2287304848432541,-0.3688218891620636,-0.0737044066190719,-0.1468332707881927,0.0,0.0,-0.9385219812393188,0.607209324836731
-0.108110710978508,1.1372098922729492,-0.2282750308513641,-0.380927562713623,-0.0816994160413742,-0.1598998606204986,0.0,0.0,-0.7301243543624878,0.3231335878372192
-0.1105162650346756,1.1283788681030271,-0.2328420579433441,-0.3929270505905151,-0.0893412381410598,-0.152836263179779,0.0,0.0,-0.3500738739967346,0.6143772602081299
-0.1129135116934776,1.1192727088928225,-0.2310833930969238,-0.4052624106407165,-0.0979024916887283,-0.1712250262498855,0.0,0.0,-0.7179282307624817,0.8781380653381348
-0.1152831092476844,1.109880447387695,-0.226888969540596,-0.4181252419948578,-0.107887715101242,-0.1997047215700149,0.0,0.0,-0.8782107830047607,0.9809266328811646
-0.1176330596208572,1.1002099514007568,-0.2237387895584106,-0.4306578040122986,-0.1190764009952545,-0.2237737625837326,0.0,0.0,-0.6836487054824829,0.0132616758346557
-0.1200248748064041,1.0902705192565918,-0.2282784730195999,-0.4426612257957458,-0.1299153715372085,-0.2167793959379196,0.0,0.0,0.208277940750122,0.0770792961120605
-0.1223710030317306,1.0803685188293457,-0.2243636399507522,-0.4410195648670196,-0.1401281654834747,-0.2042559087276458,0.0,0.0,-0.6019319295883179,0.5902396440505981
-0.1247097998857498,1.0701940059661863,-0.2227555066347122,-0.4532903134822845,-0.1512231975793838,-0.2219009697437286,0.0,0.0,-0.3872613906860351,0.509375810623169
-0.12705659866333,1.0597405433654783,-0.2230670899152755,-0.4658189713954925,-0.1628336012363433,-0.2322081327438354,0.0,0.0,0.2681260108947754,-0.0915756225585937
-0.1294300109148025,1.0498045682907104,-0.2257655560970306,-0.4429053366184234,-0.1744260936975479,-0.2318495213985443,0.0,0.0,-0.0865403413772583,-0.2294918298721313
-0.1318446099758148,1.0395997762680054,-0.2302484214305877,-0.4549079239368438,-0.1856764107942581,-0.2250060737133026,0.0,0.0,0.1091507673263549,0.6087527275085449
-0.1342425346374511,1.0299818515777588,-0.2275939732789993,-0.4290342032909393,-0.197942316532135,-0.2453179806470871,0.0,0.0,-0.5628682374954224,0.3401790857315063
-0.1366813629865646,1.0200951099395752,-0.2320453375577926,-0.441037505865097,-0.2098701000213623,-0.2385555952787399,0.0,0.0,-0.4905850887298584,-0.0415342450141906
-0.1391609162092209,1.009939193725586,-0.2364781349897384,-0.4530397951602936,-0.2214620262384414,-0.2318389117717743,0.0,0.0,-0.8752631545066833,0.4527149200439453
-0.1416809111833572,0.999514102935791,-0.2408905774354934,-0.4650411605834961,-0.2327205836772918,-0.2251712083816528,0.0,0.0,-0.7751230001449585,0.6321884393692017
-0.1441963165998459,0.9887974262237548,-0.2395871877670288,-0.4782292544841766,-0.2448614239692688,-0.2428173124790191,0.0,0.0,-0.4198369979858398,-0.7256457209587097
-0.146807000041008,0.977839171886444,-0.2509381473064422,-0.488767147064209,-0.2551829814910888,-0.2064311206340789,0.0,0.0,0.174548864364624,0.2745704650878906
-0.1492562294006347,0.9674311876296996,-0.2353873550891876,-0.4642667770385742,-0.2649163007736206,-0.1946664303541183,0.0,0.0,-0.2185720205307006,0.0591456890106201
-0.1517450362443924,0.9567532539367676,-0.2396961003541946,-0.4762639105319977,-0.2743277251720428,-0.188228502869606,0.0,0.0,0.1476360559463501,0.6290915012359619
-0.1542612016201019,0.9461523294448853,-0.2413781583309173,-0.4731121361255646,-0.2848437428474426,-0.2103201150894165,0.0,0.0,-0.0441952347755432,0.316827654838562
-0.1568163931369781,0.9352816939353944,-0.2456201761960983,-0.4851101040840149,-0.2950446307659149,-0.2040179222822189,0.0,0.0,0.6534147262573242,0.1512749195098877
-0.1593398153781891,0.9250120520591736,-0.2423217296600341,-0.4584961831569671,-0.3054031729698181,-0.2071711272001266,0.0,0.0,0.0831170082092285,0.5313254594802856
-0.1617654860019683,0.9151095151901244,-0.2317663133144378,-0.44242063164711,-0.3166015446186065,-0.2239669263362884,0.0,0.0,-0.6777085661888123,-0.2202467322349548
-0.16422900557518,0.9049374461174012,-0.2358822077512741,-0.4544192552566528,-0.3274964690208435,-0.2178981006145477,0.0,0.0,0.1107975244522094,0.1190171241760253
-0.1665485352277755,0.8950226902961731,-0.2220722436904907,-0.4429238438606262,-0.3378210663795471,-0.2064921110868454,0.0,0.0,-0.0381264090538024,0.383465051651001
-0.1689050644636154,0.8848381638526917,-0.2260818034410476,-0.454920619726181,-0.3478510677814483,-0.200600117444992,0.0,0.0,0.5589911937713623,0.1761665344238281
-0.171086311340332,0.8748745322227478,-0.2092343270778656,-0.4450005888938904,-0.3571862876415252,-0.1867046654224395,0.0,0.0,0.9018665552139282,0.0238263607025146
-0.1729146987199783,0.8654757738113403,-0.1750067174434662,-0.4197006821632385,-0.3654532134532928,-0.1653384268283844,0.0,0.0,0.9819982051849364,-0.6655930876731873
-0.1744918823242187,0.8563963174819946,-0.1518880426883697,-0.4050339758396148,-0.3716214895248413,-0.1233655959367752,0.0,0.0,0.9944303035736084,-0.9550414681434632
-0.175849437713623,0.8483647108078003,-0.1320500671863556,-0.3579266369342804,-0.3755546808242798,-0.0786640346050262,0.0,0.0,0.9958610534667968,-0.8804560899734497
-0.1769293844699859,0.841362476348877,-0.1063253879547119,-0.3116486370563507,-0.3773180246353149,-0.0352667942643165,0.0,0.0,0.9962177276611328,-0.8952673673629761
-0.1776563674211502,0.8351637721061707,-0.0733240395784378,-0.2753351628780365,-0.3766553699970245,0.0132531467825174,0.0,0.0,0.8941583633422852,-0.8602853417396545
-0.1782248467206955,0.8291749358177185,-0.059599220752716,-0.2654541432857513,-0.3737368285655975,0.0583707280457019,0.0,0.0,0.9535160064697266,-0.9440903663635254
-0.178737923502922,0.8238314390182495,-0.0560319535434246,-0.2362604737281799,-0.3687449991703033,0.0998363941907882,0.0,0.0,0.9465088844299316,-0.6692739129066467
-0.1788617074489593,0.8196176886558533,-0.0188905131071805,-0.1856185495853424,-0.3618545532226562,0.1378086805343628,0.0,0.0,0.6522502899169922,-0.3766295909881592
-0.1788342446088791,0.8159443140029907,-0.0039187297224998,-0.1615998893976211,-0.3548340499401092,0.1404093205928802,0.0,0.0,0.6317543983459473,-0.88057941198349
-0.1787528097629547,0.8132210373878479,-0.0002836774801835,-0.1189831122756004,-0.3459611535072326,0.1774571985006332,0.0,0.0,-0.1016809940338134,-0.7244619727134705
-0.1787419319152832,0.8102560043334961,-0.0088151600211858,-0.1294343918561935,-0.3355901539325714,0.2074193507432937,0.0,0.0,-0.768997848033905,-0.0968192219734191
-0.1787552833557129,0.8070213198661804,-0.0114806350320577,-0.1414334177970886,-0.3250024020671844,0.2117549180984497,0.0,0.0,-0.4776468276977539,0.3991715908050537
-0.1787912398576736,0.8035172820091248,-0.0139801800251007,-0.1534331887960434,-0.3142053484916687,0.2159415036439895,0.0,0.0,-0.5746601819992065,0.7524747848510742
-0.1787946671247482,0.7997154593467712,-0.0095379725098609,-0.1670166552066803,-0.3046800792217254,0.190505176782608,0.0,0.0,-0.5798513293266296,-0.0935378670692443
-0.1788173615932464,0.7956439256668091,-0.0116741368547081,-0.1790155321359634,-0.2949609756469726,0.1943823546171188,0.0,0.0,-0.7340216636657715,0.2386627197265625
-0.1788574159145355,0.7913030385971069,-0.013614447787404,-0.1910150647163391,-0.2850560247898102,0.1980991065502166,0.0,0.0,-0.7659263610839844,0.3804786205291748
-0.178912729024887,0.7866927981376648,-0.0153496041893959,-0.2030152678489685,-0.2749734222888946,0.2016521245241165,0.0,0.0,-0.6684983372688293,0.7344506978988647
-0.1789213120937347,0.7817811369895935,-0.0092485407367348,-0.2167460322380066,-0.2663682699203491,0.1721031367778778,0.0,0.0,-0.9137194156646729,0.417265772819519
-0.1789411604404449,0.7765999436378479,-0.010547038167715,-0.2287449389696121,-0.25760218501091,0.175320878624916,0.0,0.0,-0.8870471715927124,0.559091329574585
-0.1789279878139495,0.7711374163627625,-0.0063714357092976,-0.2414518892765045,-0.2497676163911819,0.156691163778305,0.0,0.0,-0.916486918926239,0.1263363361358642
-0.1789216995239257,0.7654053568840027,-0.0072060502134263,-0.2534503936767578,-0.2417893707752227,0.1595647931098938,0.0,0.0,-0.778917670249939,0.166906476020813
-0.1789198815822601,0.759403645992279,-0.0078014270402491,-0.2654493749141693,-0.2336761653423309,0.1622640788555145,0.0,0.0,-0.928565502166748,0.34161376953125
-0.1789200752973556,0.7531325221061707,-0.0081542441621422,-0.2774488031864166,-0.2254367470741272,0.1647883951663971,0.0,0.0,-0.9733012318611144,0.3461884260177612
-0.178920179605484,0.746592104434967,-0.0082625988870859,-0.2894486784934997,-0.2170798778533935,0.1671374142169952,0.0,0.0,-0.9894468784332277,0.5457077026367188
-0.1788703948259353,0.7397636771202087,-0.0021633792202919,-0.302449494600296,-0.2098618596792221,0.1443600356578827,0.0,0.0,-0.9608116149902344,0.2288004159927368
-0.1788156479597091,0.7326659560203552,-0.0017824191600084,-0.3144485056400299,-0.2025438398122787,0.1463600695133209,0.0,0.0,-0.9811999797821044,0.174384593963623
-0.1787537634372711,0.7252986431121826,-0.0011600640136748,-0.3264479041099548,-0.1951344907283783,0.1481871157884597,0.0,0.0,-0.9640895128250122,-0.1058981418609619
-0.1786821335554123,0.7176618576049805,-0.000300164159853,-0.3384475708007812,-0.187642365694046,0.1498429328203201,0.0,0.0,-0.8767335414886475,0.120968222618103
-0.1785988807678222,0.7097557187080383,0.000792137812823,-0.3504475057125091,-0.1800758838653564,0.151329755783081,0.0,0.0,-0.9936790466308594,0.2473082542419433
-0.178501695394516,0.7015803456306458,0.0021105371415615,-0.3624477088451385,-0.1724433600902557,0.152650311589241,0.0,0.0,-0.9626402854919434,0.2171331644058227
-0.1783884018659591,0.6931356191635132,0.0036476987879723,-0.374448150396347,-0.1647529900074005,0.1538076996803283,0.0,0.0,-0.967625856399536,0.4661846160888672
-0.1782570779323578,0.6844216585159302,0.0053954245522618,-0.3864488303661346,-0.1570127159357071,0.15480537712574,0.0,0.0,-0.9399311542510986,0.3820852041244507
