x_pos,y_pos,x_vel,y_vel,angle,ang_vel,leg_1,leg_2,main_booster,lat_booster
-0.0015232085715979,1.4030766487121582,-0.154744490981102,-0.3485942482948303,0.0021616760641336,0.0426708422601223,0.0,0.0,-0.9197259428593104,-0.7234172387033033
-0.0030991553794592,1.3947051763534546,-0.1614576131105423,-0.3720765113830566,0.0059917499311268,0.0766094774007797,0.0,0.0,-0.5432828440162487,0.8962427444586858
-0.0045901299454271,1.385779857635498,-0.1512343734502792,-0.3966910541057586,0.0080956667661666,0.0420823395252227,0.0,0.0,0.8190508882781604,-0.838805177894464
-0.006297874264419,1.377126693725586,-0.1747462749481201,-0.384608119726181,0.0120216161012649,0.0785263925790786,0.0,0.0,-0.9046816466814523,0.9098646537677156
-0.0079219816252589,1.367930293083191,-0.1646593511104583,-0.4087464213371277,0.0142473652958869,0.0445189699530601,0.0,0.0,0.47527004972688,0.9568484234646646
-0.009342098608613,1.3589171171188354,-0.143020674586296,-0.4006004333496094,0.0152428038418293,0.0199106950312852,0.0,0.0,0.4902526359352932,0.6819674195204082
-0.0107440948486328,1.3501380681991575,-0.1403232365846634,-0.3901815712451935,0.0153683824464678,0.0025117839686572,0.0,0.0,-0.352848137770795,-0.8711295112274571
-0.0122038843110203,1.3408126831054688,-0.1479827612638473,-0.4144831895828247,0.0173377823084592,0.0393918231129646,0.0,0.0,-0.7880182519951797,0.6855531446414261
-0.013618660159409,1.3309485912322998,-0.1426848322153091,-0.4384170472621918,0.0185377784073352,0.024001944810152,0.0,0.0,0.819559270383436,-0.7636931969931527
-0.0151182170957326,1.3217397928237915,-0.1532814055681228,-0.4093203842639923,0.0218280777335166,0.0658117681741714,0.0,0.0,-0.3491141273012965,0.9890198707608744
-0.0165390018373727,1.311987042427063,-0.1437374204397201,-0.4334821999073028,0.0234711896628141,0.0328650549054145,0.0,0.0,0.6732756187746025,-0.927589041733924
-0.0179767608642578,1.30248761177063,-0.1480376124382019,-0.4222702383995056,0.0276861488819122,0.0843069329857826,0.0,0.0,0.5782778348458784,-0.7903638153820617
-0.0193705558776855,1.2934499979019165,-0.146107479929924,-0.4018078148365021,0.0343371853232383,0.1330330669879913,0.0,0.0,0.2947766577548179,-0.9024839823565188
-0.0207973476499319,1.2842741012573242,-0.1518967598676681,-0.4080544412136078,0.043462224304676,0.1825173050165176,0.0,0.0,-0.5251555492702893,-0.7766162993826411
-0.0222874637693166,1.2745572328567505,-0.160073921084404,-0.4322206377983093,0.0544102005660533,0.2189795970916748,0.0,0.0,-0.0219027212331386,0.6976062465351227
-0.0237301830202341,1.2642916440963743,-0.1543355733156204,-0.4566433727741241,0.0643772184848785,0.1993584036827087,0.0,0.0,-0.7762222415110376,-0.8277566991142185
-0.0252429954707622,1.2534852027893066,-0.1632918715476989,-0.4808430075645447,0.0762759819626808,0.2379970550537109,0.0,0.0,0.2176176627879054,-0.9994757848974932
-0.0267529487609863,1.2425438165664673,-0.1656997799873352,-0.4871002435684204,0.0908593237400055,0.2916929423809051,0.0,0.0,-0.4710127537127855,-0.8151027747460576
-0.0283400528132915,1.231058955192566,-0.1754501312971115,-0.5115403532981873,0.1074814647436142,0.3324731588363647,0.0,0.0,-0.5709474607559304,0.6339853995730061
-0.0299087520688772,1.219037413597107,-0.1731695979833603,-0.5355371832847595,0.1236992999911308,0.3243859410285949,0.0,0.0,0.2003361503032086,0.827147729299088
-0.0314011573791503,1.207323670387268,-0.1646344661712646,-0.5219615697860718,0.1390456706285476,0.3069555163383484,0.0,0.0,0.4089956731092652,-0.8319091543621742
-0.0330273620784282,1.1956113576889038,-0.180364191532135,-0.5222958922386169,0.1567744612693786,0.3546072840690613,0.0,0.0,-0.1848790665480595,-0.7283801809964794
-0.0347281470894813,1.1833457946777344,-0.1896075904369354,-0.5473141074180603,0.1763563007116317,0.3916718065738678,0.0,0.0,-0.1696551777642323,0.6164162637673449
-0.0364063270390033,1.1705466508865356,-0.1866364926099777,-0.5712048411369324,0.195279985666275,0.3785076141357422,0.0,0.0,0.4271700071253013,-0.6955756011342186
-0.0384131446480751,1.157970905303955,-0.2212928235530853,-0.5617694854736328,0.2160826921463012,0.4160915017127991,0.0,0.0,0.6247657314969681,0.9912372112293896
-0.0406833663582801,1.14582622051239,-0.246133416891098,-0.5426744222640991,0.2354347109794616,0.3870403468608856,0.0,0.0,0.5544339655564277,-0.8800633977447829
-0.0432141311466693,1.1341211795806885,-0.274560809135437,-0.5238121747970581,0.2572976946830749,0.4372604489326477,0.0,0.0,0.134209437573882,0.7587790465192872
-0.0459704399108886,1.1226898431777954,-0.2961228191852569,-0.5117911100387573,0.2782762348651886,0.4195705950260162,0.0,0.0,0.3727462740327534,-0.86059814232824
-0.0491287223994731,1.1115765571594238,-0.3384872674942016,-0.4984229505062103,0.3016134202480316,0.4667438864707947,0.0,0.0,-0.2292847178137136,-0.9080683163969174
-0.0523992553353309,1.0998899936676023,-0.3521126210689544,-0.5248218178749084,0.3276132941246032,0.5199977159500122,0.0,0.0,-0.226104688908282,-0.854833794433737
-0.0557782165706157,1.0876456499099731,-0.3650428652763366,-0.5505975484848022,0.3560445606708526,0.5686253309249878,0.0,0.0,-0.6731769542403518,-0.6457254415882959
-0.0592567436397075,1.0748347043991089,-0.3768311142921448,-0.5768665075302124,0.38672935962677,0.6136959195137024,0.0,0.0,-0.8399377475026801,0.630612048472227
-0.062745951116085,1.06152081489563,-0.3772008717060089,-0.5997020602226257,0.41703861951828,0.606185257434845,0.0,0.0,-0.4595803678603696,-0.6873847947650271
-0.0663386359810829,1.0476335287094116,-0.3893229067325592,-0.626435399055481,0.4496907293796539,0.6530424952507019,0.0,0.0,-0.1566754869851334,-0.8478498017656751
-0.0700433701276779,1.033176302909851,-0.4022791385650635,-0.6531924605369568,0.484821617603302,0.7026181817054749,0.0,0.0,0.1002841590199254,0.8020810539564204
-0.0739723220467567,1.018917441368103,-0.4232982695102691,-0.6447972059249878,0.5190218687057495,0.6840054392814636,0.0,0.0,0.7305432901603301,-0.6795743036970372
-0.0782660469412803,1.0046870708465576,-0.4610298275947571,-0.6449829936027527,0.5553641319274902,0.7268456220626831,0.0,0.0,0.0088071051847506,0.8421984615608341
-0.0827875137329101,0.990600287914276,-0.4822246134281158,-0.6389690041542053,0.5906539559364319,0.7057964205741882,0.0,0.0,0.5453664290195741,-0.944578332607002
-0.0879090279340744,0.9768807291984558,-0.5437807440757751,-0.624424397945404,0.6286845803260803,0.7606126070022583,0.0,0.0,0.3981464430408565,-0.9080686809291488
-0.0934330001473426,0.963223159313202,-0.5853573083877563,-0.6236072182655334,0.6694654226303101,0.8156176805496216,0.0,0.0,-0.4337857445916033,-0.9045761752091735
-0.0990924835205078,0.94897198677063,-0.6002448201179504,-0.6522201299667358,0.7133287787437439,0.8772686123847961,0.0,0.0,-0.9252670407295228,0.999934196472168
-0.1047506332397461,0.934287965297699,-0.5974252223968506,-0.6715707778930664,0.7552899122238159,0.8392232656478882,0.0,0.0,-0.9813881516456604,0.9999339580535888
-0.1104091629385948,0.9191634058952332,-0.594973087310791,-0.691139280796051,0.7954361438751221,0.8029242753982544,0.0,0.0,-0.9452052116394044,0.9996993541717528
-0.1160759925842285,0.903607189655304,-0.5933448672294617,-0.7101632952690125,0.8337191343307495,0.7656608819961548,0.0,0.0,-0.9373372197151184,0.9995286464691162
-0.1217612251639366,0.8875950574874878,-0.5932230949401855,-0.7304074168205261,0.870662271976471,0.7388643026351929,0.0,0.0,-0.8541637659072876,0.9996676445007324
-0.1274614334106445,0.8711418509483337,-0.592606246471405,-0.7496986389160156,0.9059134125709534,0.7050243616104126,0.0,0.0,-0.8341075778007507,0.999427318572998
-0.1331810057163238,0.854254424571991,-0.5924667119979858,-0.768549382686615,0.9393863677978516,0.669460654258728,0.0,0.0,-0.9265359044075012,0.9977498054504396
-0.1389444321393966,0.8369168639183044,-0.5952844619750977,-0.7883618474006653,0.9717074632644652,0.6464225053787231,0.0,0.0,-0.8372862935066223,0.999070644378662
-0.1447546035051345,0.8191255927085876,-0.5985015034675598,-0.8083069920539856,1.0029423236846924,0.624698281288147,0.0,0.0,-0.8655391335487366,0.9995360374450684
-0.1505997627973556,0.8008928894996643,-0.6003684997558594,-0.827409029006958,1.0326591730117798,0.5943371057510376,0.0,0.0,-0.7145866751670837,0.9963546991348268
-0.1564732491970062,0.7822467684745789,-0.6013354063034058,-0.8448033928871155,1.0601985454559326,0.550787091255188,0.0,0.0,-0.6254869699478149,0.9950270652770996
-0.1623936593532562,0.7631585597991943,-0.6047117710113525,-0.8638635277748108,1.0863299369812012,0.5226274132728577,0.0,0.0,-0.5681782364845276,0.9934903383255004
-0.1683462113142013,0.7436505556106567,-0.6063879132270813,-0.8814912438392639,1.1104017496109009,0.4814363420009613,0.0,0.0,-0.6387043595314026,0.9792287349700928
-0.1743482649326324,0.7237103581428528,-0.6100981831550598,-0.8998624682426453,1.1328351497650146,0.4486677646636963,0.0,0.0,-0.6424214839935303,0.9935333728790284
-0.1803855001926422,0.7033594846725464,-0.6122342348098755,-0.916879415512085,1.153019905090332,0.4036954045295715,0.0,0.0,-0.68858802318573,0.9909422397613524
-0.1864718496799469,0.6825563907623291,-0.6162679195404053,-0.9363000988960266,1.1719293594360352,0.3781891465187073,0.0,0.0,-0.6450475454330444,0.9624525308609008
-0.1926088333129882,0.6613351702690125,-0.6202369928359985,-0.9537309408187866,1.188857913017273,0.338567703962326,0.0,0.0,-0.5440957546234131,0.9722646474838256
-0.1987924575805664,0.6397029757499695,-0.6238340139389038,-0.9706900119781494,1.2036007642745972,0.2948580682277679,0.0,0.0,-0.6195403337478638,0.9773743152618408
-0.2050304412841797,0.6176522374153137,-0.6283783912658691,-0.9881067276000975,1.2163774967193604,0.2555351853370666,0.0,0.0,-0.7242119312286377,0.9604616165161132
-0.2113297879695892,0.595154881477356,-0.6339026093482971,-1.007141351699829,1.2278188467025757,0.228827953338623,0.0,0.0,-0.6656370162963867,0.9173901081085204
-0.2176771610975265,0.5722224116325378,-0.638012707233429,-1.025421977043152,1.237553358078003,0.1946896165609359,0.0,0.0,-0.6291698217391968,0.961555004119873
-0.2240863740444183,0.5488385558128357,-0.643703043460846,-1.044707417488098,1.246036171913147,0.1696554273366928,0.0,0.0,-0.5969595909118652,0.8699835538864136
-0.2305477112531662,0.5250272154808044,-0.648253321647644,-1.0625227689743042,1.2526613473892212,0.132504403591156,0.0,0.0,-0.5699126720428467,0.9437382221221924
-0.237065702676773,0.5007826089859009,-0.6533418893814087,-1.080699801445007,1.2575857639312744,0.098487913608551,0.0,0.0,-0.6091815233230591,0.8308846950531006
-0.2436391413211822,0.4760875999927521,-0.6584540605545044,-1.099851131439209,1.261154294013977,0.0713707655668258,0.0,0.0,-0.5305002927780151,0.9062961339950562
-0.2502755522727966,0.4509311318397522,-0.6644117832183838,-1.1196755170822144,1.2636544704437256,0.0500038266181945,0.0,0.0,-0.7044512629508972,0.707761287689209
-0.2569798827171325,0.4253167510032654,-0.6708586812019348,-1.1393089294433594,1.2650408744812012,0.0277275033295154,0.0,0.0,-0.5299449563026428,0.7531033754348755
-0.2637385725975036,0.3992526233196258,-0.6758662462234497,-1.1583925485610962,1.2650232315063477,-0.0003520868776831,0.0,0.0,-0.4925601482391357,0.800877571105957
-0.2705639004707336,0.3727420270442962,-0.6821030378341675,-1.1773499250411987,1.263623833656311,-0.0279874596744775,0.0,0.0,-0.5093987584114075,0.7443515062332153
-0.2774525582790375,0.345758706331253,-0.6881722807884216,-1.1978037357330322,1.261365532875061,-0.0451649278402328,0.0,0.0,-0.4822089672088623,0.8227479457855225
-0.28440722823143,0.3183120489120483,-0.6944455504417419,-1.2177300453186035,1.2580649852752686,-0.0660108253359794,0.0,0.0,-0.4806138873100281,0.7857921123504639
-0.2914236485958099,0.2904150784015655,-0.7001772522926331,-1.2368717193603516,1.2534013986587524,-0.0932718440890312,0.0,0.0,-0.6032670140266418,0.7269325256347656
-0.2985117435455322,0.2620424032211303,-0.7070827484130859,-1.2575381994247437,1.247989058494568,-0.108246698975563,0.0,0.0,-0.6024924516677856,0.8025648593902588
-0.3056583404541015,0.2332265973091125,-0.7123934030532837,-1.276246190071106,1.241020441055298,-0.1393713355064392,0.0,0.0,-0.638119637966156,0.5021564960479736
-0.3128707408905029,0.2039207071065902,-0.7187639474868774,-1.2977112531661987,1.2335433959960938,-0.1495411098003387,0.0,0.0,-0.5382409691810608,0.4273413419723511
-0.3201628625392914,0.1740754395723343,-0.7268995642662048,-1.322106122970581,1.2267115116119385,-0.1366382241249084,0.0,0.0,-0.4139712452888489,0.2995564937591553
-0.3275343775749206,0.143690600991249,-0.7350170612335205,-1.3464999198913574,1.2205162048339844,-0.1239068061113357,0.0,0.0,0.0547401905059814,0.4085712432861328
-0.3354624211788177,0.1130192875862121,-0.790849506855011,-1.3596255779266355,1.214923620223999,-0.1118515953421592,0.0,1.0,0.9898309707641602,0.9989912509918212
-0.3430193960666656,0.0928321182727813,-0.8065797686576843,-1.0613418817520142,1.4178071022033691,3.7243125438690186,0.0,1.0,-0.9927247762680054,0.2864795923233032
-0.3497231900691986,0.0786048248410224,-0.107602871954441,0.0640722587704658,1.6234501600265503,0.4333027303218841,0.0,1.0,-0.9927247762680054,0.2864795923233032
