x_pos,y_pos,x_vel,y_vel,angle,ang_vel,leg_1,leg_2,main_booster,lat_booster
-0.0014718056190758,1.4034432172775269,-0.1489365845918655,-0.3323048055171966,0.0015725382836535,0.031005535274744,0.0,0.0,0.0116608142852783,0.6664383411407471
-0.0028032301925122,1.3962290287017822,-0.1332534700632095,-0.3206345438957214,0.0016814046539366,0.0021781742107123,0.0,0.0,-0.1670504212379455,0.4942775964736938
-0.0040822029113769,1.388832926750183,-0.127881720662117,-0.3287156224250793,0.0016645507421344,-0.0003371390921529,0.0,0.0,-0.3766012191772461,0.3601161241531372
-0.0053086280822753,1.3812555074691772,-0.1225188821554184,-0.3367722332477569,0.0015422159340232,-0.0024469569325447,0.0,0.0,-0.5739809274673462,0.7374433279037476
-0.0064120292663574,1.3734993934631348,-0.1083353757858276,-0.3447149097919464,-0.0004353258409537,-0.0395545586943626,0.0,0.0,-0.1864993572235107,-0.6207910180091858
-0.0075002671219408,1.3655612468719482,-0.1077221184968948,-0.3528079092502594,-0.0015258217463269,-0.0218116883188486,0.0,0.0,-0.4019132852554321,0.1619668006896972
-0.0085355760529637,1.357441782951355,-0.1023899167776107,-0.3608621060848236,-0.0026589494664222,-0.0226644836366176,0.0,0.0,-0.6967383027076721,0.3681662082672119
-0.0095180515199899,1.3491411209106443,-0.0970702096819877,-0.3689164221286773,-0.0038122339174151,-0.0230679791420698,0.0,0.0,-0.772383451461792,0.2722737789154053
-0.0104473112151026,1.340659499168396,-0.0917651206254959,-0.3769707977771759,-0.0049644792452454,-0.0230472348630428,0.0,0.0,-0.7769233584403992,-0.1563095450401306
-0.0113235469907522,1.3319965600967407,-0.0864759534597396,-0.3850251734256744,-0.0060944347642362,-0.0226014368236064,0.0,0.0,-0.7221190333366394,0.4689688682556152
-0.012146663852036,1.3231523036956787,-0.0812041908502578,-0.3930796086788177,-0.0071811662055552,-0.0217365082353353,0.0,0.0,-0.8858261704444885,0.2416354417800903
-0.0129164699465036,1.314126968383789,-0.075951412320137,-0.4011340737342834,-0.0082041071727871,-0.020460695028305,0.0,0.0,-0.8563982248306274,0.1158187389373779
-0.0136331561952829,1.304920315742493,-0.0707193315029144,-0.4091885387897491,-0.0091432388871908,-0.0187843292951583,0.0,0.0,-0.8099809288978577,-0.0988228321075439
-0.0142967225983738,1.295532464981079,-0.0655097812414169,-0.4172430038452148,-0.0099791418761014,-0.0167197324335575,0.0,0.0,-0.7902215719223022,0.3408713340759277
-0.0149072650820016,1.2859632968902588,-0.060324776917696,-0.4252975285053253,-0.0106931198388338,-0.0142809301614761,0.0,0.0,-0.8995734453201294,-0.2162313461303711
-0.0154647827148437,1.2762129306793213,-0.0551664419472217,-0.433351993560791,-0.0112672271206974,-0.01148312818259,0.0,0.0,-0.9021335244178772,0.0719094276428222
-0.0159693714231252,1.2662814855575562,-0.050037145614624,-0.4414064586162567,-0.0116843059659004,-0.0083426795899868,0.0,0.0,-0.69443678855896,-0.2788372039794922
-0.0164212230592966,1.2561686038970947,-0.0449394732713699,-0.4494609534740448,-0.0119281187653541,-0.0048766415566205,0.0,0.0,-0.958647847175598,-0.668951690196991
-0.0168648716062307,1.2458816766738892,-0.0454309023916721,-0.4571908116340637,-0.0108688687905669,0.0211868844926357,0.0,0.0,-0.847585916519165,-0.3652188181877136
-0.0172561649233102,1.2354134321212769,-0.040408506989479,-0.4652453064918518,-0.009607040323317,0.0252389665693044,0.0,0.0,-0.7673473358154297,-0.7418880462646484
-0.017641544342041,1.2247700691223145,-0.0412205830216407,-0.4730218946933746,-0.0069664996117353,0.0528157576918602,0.0,0.0,-0.979796290397644,-0.5228709578514099
-0.018015956506133,1.2139430046081543,-0.0413724072277545,-0.4811850488185882,-0.0030785852577537,0.0777654275298118,0.0,0.0,-0.9827653765678406,0.3717091083526611
-0.0183390621095895,1.2029350996017456,-0.0364892221987247,-0.489240825176239,0.0010502083459869,0.0825832709670066,0.0,0.0,-0.970397174358368,-0.1377624869346618
-0.0186114311218261,1.1917461156845093,-0.0316582322120666,-0.4972971379756927,0.0054313731379806,0.0876308530569076,0.0,0.0,-0.923873782157898,0.0816447734832763
-0.0188333503901958,1.1803762912750244,-0.0268844701349735,-0.5053536891937256,0.0100749898701906,0.0928806215524673,0.0,0.0,-0.9336186051368712,0.269930362701416
-0.0190051086246967,1.168804168701172,-0.0221580639481544,-0.5143641829490662,0.0149911288172006,0.0983228385448455,0.0,0.0,-0.9305662512779236,0.2832622528076172
-0.0191273689270019,1.1570510864257812,-0.0174999255686998,-0.5224191546440125,0.0201893653720617,0.103964939713478,0.0,0.0,-0.923647940158844,0.5497612953186035
-0.0191669464111328,1.1451239585876465,-0.0086482744663953,-0.5301633477210999,0.0248218588531017,0.0926498025655746,0.0,0.0,-0.85544753074646,0.3216603994369507
-0.0191584583371877,1.1330163478851318,-0.0041415276937186,-0.5382183194160461,0.0297532062977552,0.0986268147826194,0.0,0.0,-0.9735422730445862,0.7644660472869873
-0.0190442092716693,1.1207271814346311,0.0076081096194684,-0.5462563037872314,0.0335236713290214,0.0754096359014511,0.0,0.0,-0.8205313086509705,0.449034571647644
-0.0188834182918071,1.1082574129104614,0.0119358543306589,-0.5543109178543091,0.0376074910163879,0.081676498055458,0.0,0.0,-0.7977069020271301,0.5510435104370117
-0.0186391826719045,1.095605731010437,0.0209320206195116,-0.5623893141746521,0.0410570241510868,0.0689906254410743,0.0,0.0,-0.8654252886772156,0.5103501081466675
-0.0183157920837402,1.0827800035476685,0.0294053349643945,-0.5701114535331726,0.0439556315541267,0.0579722300171852,0.0,0.0,-0.7192091941833496,0.7529902458190918
-0.0178956035524606,1.069770097732544,0.040102869272232,-0.5782738327980042,0.0458473935723304,0.0378352813422679,0.0,0.0,-0.833129346370697,0.0260474681854248
-0.0174333564937114,1.056579351425171,0.0439733937382698,-0.5863279700279236,0.0480760969221591,0.0445741415023803,0.0,0.0,-0.6831983327865601,0.3574138879776001
-0.0169302932918071,1.043207764625549,0.0477060675621032,-0.5943824052810669,0.0506467707455158,0.0514132194221019,0.0,0.0,-0.683479905128479,0.6011734008789062
-0.0163423530757427,1.029655694961548,0.0570030286908149,-0.6023808717727661,0.0524205267429351,0.0354749783873558,0.0,0.0,-0.8450043201446533,-0.0162520408630371
-0.0157166477292776,1.0159226655960083,0.0604286976158618,-0.6104352474212646,0.0545454509556293,0.0424982570111751,0.0,0.0,-0.7327703833580017,0.6389979124069214
-0.0150077817961573,1.0020195245742798,0.0695809200406074,-0.617959201335907,0.0558357536792755,0.0258061531931161,0.0,0.0,-0.8016831874847412,0.2095657587051391
-0.0142644885927438,0.9879357218742372,0.0726560205221176,-0.6260135769844055,0.0574855431914329,0.0329958014190197,0.0,0.0,-0.7929666638374329,0.1573193073272705
-0.0134886745363473,0.9736710786819458,0.0755391791462898,-0.6340681314468384,0.0594987049698829,0.0402632355690002,0.0,0.0,-0.680278480052948,0.4739075899124145
-0.0126824378967285,0.9592254757881165,0.0782193392515182,-0.6421228051185608,0.0618789717555046,0.0476053729653358,0.0,0.0,-0.6927350163459778,0.8803913593292236
-0.0117666246369481,0.9445969462394714,0.0908586829900741,-0.6501910090446472,0.0625969171524047,0.0143588930368423,0.0,0.0,-0.9519553780555724,-0.7223299741744995
-0.0108721731230616,0.9297813773155212,0.0871287733316421,-0.6585609912872314,0.0648901537060737,0.0458645559847354,0.0,0.0,-0.7106539011001587,0.662994384765625
-0.0099045755341649,0.9147820472717284,0.0952966436743736,-0.6666992902755737,0.0663319900631904,0.0288371406495571,0.0,0.0,-0.8226762413978577,0.4298686981201172
-0.0089155193418264,0.8996018767356873,0.0970611870288848,-0.6747541427612305,0.0681547075510025,0.0364541821181774,0.0,0.0,-0.8879950642585754,0.8235025405883789
-0.0078355791047215,0.8842437863349915,0.1075793132185936,-0.682600200176239,0.068556860089302,0.0080434000119566,0.0,0.0,-0.5327725410461426,0.3494520187377929
-0.0067392350174486,0.8687048554420471,0.1088334172964096,-0.6906549334526062,0.0693461596965789,0.0157863460481166,0.0,0.0,-0.4145322442054748,0.8224458694458008
-0.0055788992904126,0.8529975414276123,0.116141952574253,-0.698093831539154,0.0692470073699951,-0.0019833238329738,0.0,0.0,-0.7675328850746155,-0.5465107560157776
-0.0044518471695482,0.8371034264564514,0.1112651452422142,-0.7064777612686157,0.0706676691770553,0.0284134447574615,0.0,0.0,-0.5838615298271179,0.2906590700149536
-0.0033164024353027,0.821028470993042,0.111712172627449,-0.7145327925682068,0.0724843069911003,0.0363328605890274,0.0,0.0,-0.6155664920806885,0.6214574575424194
-0.0021309852600097,0.8047816157341003,0.1174313202500343,-0.7221348285675049,0.0735793784260749,0.0219014585018157,0.0,0.0,-0.6837356686592102,0.3847355842590332
-0.0009425163152627,0.7883540391921997,0.1173290386795997,-0.7301899790763855,0.0750758796930313,0.0299300253391265,0.0,0.0,-0.6562440395355225,0.2510255575180053
0.0002461433468852,0.7717456221580505,0.1169532984495163,-0.7382451891899109,0.076976403594017,0.0380104854702949,0.0,0.0,-0.6871320009231567,0.958847999572754
0.0015270232688635,0.7549640536308289,0.1281674653291702,-0.7458518147468567,0.0769022032618522,-0.0014838268980383,0.0,0.0,-0.6814528703689575,-0.2146273851394653
0.0028030395042151,0.7380014657974243,0.1272545456886291,-0.7539070844650269,0.0772369280457496,0.0066945529542863,0.0,0.0,-0.6714910864830017,-0.1367740035057068
0.004071426577866,0.7208583354949951,0.1260806769132614,-0.761962354183197,0.0779828578233718,0.0149187268689274,0.0,0.0,-0.8788926601409912,0.3413379192352295
0.0053296089172363,0.7035343050956726,0.1246525794267654,-0.7700177431106567,0.079142190515995,0.0231865122914314,0.0,0.0,-0.56597501039505,0.6117734909057617
0.0066292760893702,0.6860422492027283,0.1297525763511657,-0.7774340510368347,0.0793453752994537,0.0040639289654791,0.0,0.0,-0.8641447424888611,-0.6271268129348755
0.0078578945249319,0.6683682799339294,0.1208190470933914,-0.7856176495552063,0.08137147128582,0.0405218228697776,0.0,0.0,-0.3951222896575928,0.5847948789596558
0.0091197965666651,0.6505146622657776,0.1249856725335121,-0.7935567498207092,0.082554318010807,0.0236571691930294,0.0,0.0,-0.5056885480880737,0.0461989641189575
0.0103621482849121,0.6324805021286011,0.1226267218589782,-0.8016121983528137,0.0841581299901008,0.0320761948823928,0.0,0.0,-0.5098516345024109,-0.2388771772384643
0.0115832332521677,0.614265501499176,0.1200598254799842,-0.8096679449081421,0.086184486746788,0.0405270084738731,0.0,0.0,0.0395798683166503,-0.1069878935813903
0.012762451544404,0.5964482426643372,0.1153851523995399,-0.7920256853103638,0.0887034386396408,0.0503790862858295,0.0,0.0,-0.3527345061302185,0.7266782522201538
0.0139748575165867,0.5784527659416199,0.1197470799088478,-0.7998883128166199,0.0901826024055481,0.0295832697302103,0.0,0.0,0.2430695295333862,-0.3107531070709228
0.0150275230407714,0.5609284043312073,0.1037754863500595,-0.7789518237113953,0.0916574671864509,0.0294973291456699,0.0,0.0,-0.2539366483688354,0.7748086452484131
0.0161142349243164,0.543241024017334,0.1083641424775123,-0.7861217260360718,0.0919577404856681,0.0060057779774069,0.0,0.0,0.3737983703613281,0.0051417350769042
0.017216395586729,0.5257457494735718,0.1091637760400772,-0.7776359915733337,0.0930024310946464,0.0208940096199512,0.0,0.0,0.5754843950271606,0.621625542640686
0.0182878486812114,0.5093034505844116,0.1068395227193832,-0.7307848334312439,0.0932988747954368,0.0059289033524692,0.0,0.0,-0.1160103678703308,-0.0196162462234497
0.0193262100219726,0.4926806092262268,0.1031136289238929,-0.7388408184051514,0.0940256118774414,0.0145345879718661,0.0,0.0,0.1892096996307373,0.4408118724822998
0.0202190391719341,0.4765956401824951,0.0884156972169876,-0.714941680431366,0.0948774814605712,0.01703742146492,0.0,0.0,0.0827362537384033,0.7472854852676392
0.0211196895688772,0.4609521627426147,0.0902542695403099,-0.6952530145645142,0.0946879163384437,-0.0037911650724709,0.0,0.0,-0.3676481246948242,-0.5299904346466064
0.0219328887760639,0.4451267719268799,0.0797814354300499,-0.7034492492675781,0.0962105244398117,0.0304523352533578,0.0,0.0,-0.2551586031913757,0.716060996055603
0.022771930322051,0.4291298389434814,0.0835469514131546,-0.7109944820404053,0.0965637266635894,0.0070642018690705,0.0,0.0,0.8228676319122314,-0.2426027655601501
0.0234940536320209,0.4135912656784057,0.071590282022953,-0.6906452775001526,0.0971772372722625,0.0122702131047844,0.0,0.0,0.5884352922439575,0.3753199577331543
0.0242116935551166,0.3983481824398041,0.0704073384404182,-0.6775611042976379,0.0985256806015968,0.0269687715917825,0.0,0.0,0.6012685298919678,0.574615478515625
0.0248698238283395,0.3834116458892822,0.0652524158358573,-0.6638821363449097,0.0990814641118049,0.0111157167702913,0.0,0.0,0.611018180847168,0.5231351852416992
0.0254429820924997,0.3694585561752319,0.0573914349079132,-0.62013179063797,0.0990016534924507,-0.0015960282180458,0.0,0.0,-0.778605580329895,0.2771055698394775
0.0259746555238962,0.3553248345851898,0.0528191104531288,-0.6281879544258118,0.0993539988994598,0.0070465616881847,0.0,0.0,0.3170475959777832,0.6518542766571045
0.0263521187007427,0.3419825136661529,0.0384379774332046,-0.5929466485977173,0.0986644402146339,-0.0137909231707453,0.0,0.0,-0.1149694919586181,0.4898866415023803
0.0266870502382516,0.3284595310688019,0.0337474457919597,-0.6010027527809143,0.0984062328934669,-0.0051640248857438,0.0,0.0,0.2399739027023315,0.7352354526519775
0.0270119663327932,0.315661758184433,0.0337598100304603,,0.0971525385975837,-0.0250739306211471,0.0,0.0,0.6508814096450806,0.3591411113739013
0.0271368976682424,0.3035272359848022,0.0137880146503448,-0.5392306447029114,0.0958605855703353,-0.0258392784744501,0.0,0.0,0.2363858222961425,0.5439112186431885
0.0271671302616596,0.2919714152812958,0.005080766044557,-0.5134603977203369,0.0938218086957931,-0.0407753512263298,0.0,0.0,-0.069662868976593,0.5363051891326904
0.0271942131221294,0.2802436351776123,0.0053863953799009,-0.5210695862770081,0.0911627188324928,-0.0531815998256206,0.0,0.0,0.1449900865554809,-0.1510860323905944
0.0271999351680278,0.2689457535743713,0.0025419392623007,-0.502007246017456,0.0892104730010032,-0.0390447378158569,0.0,0.0,0.2987179756164551,0.4873534440994262
0.0271551124751567,0.2578718066215515,-0.0030306151602417,-0.4920905232429504,0.0877705141901969,-0.0287994798272848,0.0,0.0,0.6327131986618042,0.7200734615325928
0.0271870605647563,0.2472272217273712,0.0054620397277176,-0.4729616343975067,0.0855251401662826,-0.0449072420597076,0.0,0.0,0.493342638015747,0.4963549375534057
0.0272616390138864,0.2371903955936432,0.0086798286065459,-0.4460107386112213,0.0843181237578392,-0.024140452966094,0.0,0.0,0.5747822523117065,0.1769039630889892
0.0273909568786621,0.2275515347719192,0.0131052937358617,-0.42838254570961,0.0841472297906875,-0.0034180413931608,0.0,0.0,0.5066907405853271,-0.1497665047645568
0.0274112708866596,0.2187553942203521,0.001805049018003,-0.3909520208835602,0.0843719765543937,0.004494790919125,0.0,0.0,0.5702636241912842,0.8430557250976562
0.0274230949580669,0.2108751386404037,0.0021854029037058,-0.3501790165901184,0.0833823233842849,-0.019793052226305,0.0,0.0,0.3523817062377929,0.471642255783081
0.0274443626403808,0.2036430388689041,0.0022288186009973,-0.3214187324047088,0.0832794159650802,-0.0020578375551849,0.0,0.0,0.3040124177932739,-0.0407778024673461
0.0274765975773334,0.1966253072023391,0.0025364141911268,-0.3119360208511352,0.0839574187994003,0.0135600445792078,0.0,0.0,0.3961955308914184,0.7405012845993042
0.0274347309023141,0.1900692135095596,-0.0037155069876462,-0.2913576364517212,0.0834939777851104,-0.0092688705772161,0.0,0.0,0.0382614135742187,0.4846483469009399
0.0273533817380666,0.1841494590044021,-0.0083242179825901,-0.2631101012229919,0.0836834609508514,0.0037895180284976,0.0,0.0,-0.5136436223983765,0.4833334684371948
0.0272246357053518,0.1780489832162857,-0.0134774018079042,-0.2711654901504516,0.0842765048146247,0.0118610337376594,0.0,0.0,-0.3271253108978271,0.6569740772247314
0.0270890239626169,0.1717790514230728,-0.0135174514725804,-0.2786646485328674,0.0842292308807373,-0.0009452059166505,0.0,0.0,-0.1907324790954589,0.5998173952102661
0.0269596092402935,0.1653380990028381,-0.0119150234386324,-0.2862036824226379,0.0832093581557273,-0.0203975699841976,0.0,0.0,0.2958428859710693,0.4916660785675049
0.0266915317624807,0.159590944647789,-0.025974640622735,-0.2553850710391998,0.0823870375752449,-0.0164465494453907,0.0,0.0,0.1268354654312133,0.4006928205490112
0.0262772552669048,0.1544194966554641,-0.040724977850914,-0.2298032343387603,0.0816908478736877,-0.0139237325638532,0.0,0.0,-0.690316379070282,0.3631025552749634
0.0258149150758981,0.1490673124790191,-0.0459200367331504,-0.2378584593534469,0.0813768208026886,-0.0062805511988699,0.0,0.0,-0.8262237906455994,0.4185898303985595
0.0253044124692678,0.143534317612648,-0.0511197820305824,-0.2459135949611663,0.0814395174384117,0.0012540634488686,0.0,0.0,-0.6772498488426208,0.3915798664093017
0.0247455593198537,0.1378204971551895,-0.0563231036067009,-0.2539686858654022,0.0818730816245079,0.0086712781339883,0.0,0.0,-0.7317426204681396,0.4745610952377319
0.0241382606327533,0.1319259256124496,-0.0615288838744163,-0.262023776769638,0.0826711654663086,0.0159616935998201,0.0,0.0,-0.7480612993240356,0.6419997215270996
0.023538589477539,0.1258519738912582,-0.0597047917544841,-0.2699406445026397,0.0824193656444549,-0.0050360048189759,0.0,0.0,-0.2782516479492187,0.6709989309310913
0.0229558944702148,0.1196105778217315,-0.0567006170749664,-0.277310848236084,0.0808576345443725,-0.0312345065176486,0.0,0.0,-0.3226144313812256,0.6115856170654297
0.0223706252872943,0.1131990998983383,-0.0561111383140087,-0.2848259210586548,0.0784648805856704,-0.047855444252491,0.0,0.0,-0.0362911224365234,0.7666013240814209
0.0218109134584665,0.1066246107220649,-0.0519749708473682,-0.2919948399066925,0.0745148658752441,-0.0790004432201385,0.0,0.0,-0.2313394546508789,0.8285181522369385
0.0212761871516704,0.0998778939247131,-0.0479335263371467,-0.2995873391628265,0.0690307840704917,-0.1096816807985305,0.0,0.0,0.4065181016921997,-0.0847284793853759
0.0206385608762502,0.0939901918172836,-0.05850750207901,-0.2614419162273407,0.0638336688280105,-0.1039424911141395,0.0,0.0,-0.1003342866897583,0.3180844783782959
0.0199521072208881,0.0879218876361846,-0.063700757920742,-0.2694983780384063,0.0589416623115539,-0.0978402718901634,0.0,0.0,-0.2258293032646179,0.3094930648803711
0.0192167274653911,0.0816729888319969,-0.0688880831003189,-0.2775543928146362,0.0543438643217086,-0.0919558033347129,0.0,0.0,0.3415722846984863,0.5355720520019531
0.0183396339416503,0.0759910643100738,-0.0820183008909225,-0.2523359954357147,0.0487197414040565,-0.112482450902462,0.0,0.0,0.0387629270553588,0.9278502464294434
0.017375087365508,0.070609413087368,-0.0892001539468765,-0.2389637976884842,0.0415405072271823,-0.1435846537351608,0.0,0.0,0.0386098623275756,0.4938400983810425
0.0163331031799316,0.0655776560306549,-0.0971226543188095,-0.2234520614147186,0.0345564149320125,-0.1396820247173309,0.0,0.0,-0.1375309228897094,0.7217756509780884
0.0153017044067382,0.0603674501180648,-0.0948000997304916,-0.2313963770866394,0.026319146156311,-0.1647456884384155,0.0,0.0,0.2584673166275024,0.4288549423217773
0.014313411898911,0.0553916320204734,-0.0911820605397224,-0.2210342586040496,0.0187723319977521,-0.1509360522031784,0.0,0.0,-0.1265472173690796,0.7331235408782959
0.0133434291929006,0.0502407886087894,-0.0878571569919586,-0.2288409769535064,0.0097469920292496,-0.1805069148540496,0.0,0.0,0.4206067323684692,-0.5329899787902832
0.0122986789792776,0.0459548346698284,-0.0966653674840927,-0.1904551982879638,0.0020373791921883,-0.154192104935646,0.0,0.0,-0.3809225559234619,0.3761632442474365
0.0112048145383596,0.0414884909987449,-0.1017631664872169,-0.198512777686119,-0.0054873758926987,-0.1504953801631927,0.0,0.0,-0.1410427689552307,0.4715280532836914
