x_pos,y_pos,x_vel,y_vel,angle,ang_vel,leg_1,leg_2,main_booster,lat_booster
-0.0014490127796307,1.4035046100616455,-0.1464847177267074,-0.3295866250991821,0.0014111574273556,0.0278105083853006,0.0,0.0,-0.5684281587600708,0.5914753675460815
-0.0027719498611986,1.395989179611206,-0.1320772022008896,-0.3340173959732055,0.0011957155074924,-0.004308387171477,0.0,0.0,-0.5865355134010315,0.3818135261535644
-0.0040183067321777,1.3883533477783203,-0.1240817159414291,-0.3393767476081848,0.0006514766719192,-0.0108856055885553,0.0,0.0,-0.3792899250984192,0.2563328742980957
-0.0051872255280613,1.3805972337722778,-0.1160041913390159,-0.3447170257568359,-0.0002300826308783,-0.0176327098160982,0.0,0.0,-0.4918950796127319,0.3086202144622803
-0.0062782289460301,1.3727209568023682,-0.1078489273786544,-0.3500538468360901,-0.0014564682496711,-0.0245301704853773,0.0,0.0,-0.2902259230613708,0.3707886934280395
-0.0072903633117675,1.3647246360778809,-0.099620446562767,-0.3553900718688965,-0.0030348596628755,-0.0315708592534065,0.0,0.0,-0.3914581537246704,-0.0123865008354187
-0.0082232477143406,1.356608510017395,-0.0913229808211326,-0.3607264459133148,-0.0049718911759555,-0.0387441925704479,0.0,0.0,-0.5282341837882996,-0.5257614850997925
-0.0091073038056492,1.3483741283416748,-0.0868672132492065,-0.3659822046756744,-0.0064903418533504,-0.0303719453513622,0.0,0.0,-0.5521993041038513,-0.3854284286499023
-0.0099109653383493,1.3400195837020874,-0.0784468427300453,-0.3713188171386719,-0.0083797192201018,-0.037791222333908,0.0,0.0,-0.6107250452041626,0.3203077316284179
-0.0106336595490574,1.3315452337265017,-0.0699698254466056,-0.3766556084156036,-0.0106447776779532,-0.0453054420650005,0.0,0.0,-0.6203362941741943,-0.5962319374084473
-0.0113150598481297,1.3229519128799438,-0.0664913281798362,-0.3819380104541778,-0.0122778695076704,-0.0326650030910968,0.0,0.0,-0.8136094808578491,0.1159251928329467
-0.0119147300720214,1.314238667488098,-0.0579164326190948,-0.3872748017311096,-0.0142967728897929,-0.0403817370533943,0.0,0.0,-0.8605979084968567,-0.4499455690383911
-0.0124320033937692,1.3054053783416748,-0.0492966212332248,-0.3926119804382324,-0.0167049765586853,-0.0481686405837535,0.0,0.0,-0.8069733381271362,-0.536948561668396
-0.0129043580964207,1.2964481115341189,-0.045345164835453,-0.3981195390224457,-0.0185639634728431,-0.0371831618249416,0.0,0.0,-0.7011577486991882,-0.851444661617279
-0.013345050625503,1.2873811721801758,-0.0430936776101589,-0.402985543012619,-0.0195260476320981,-0.0192434675991535,0.0,0.0,-0.9638333320617676,-0.6131618618965149
-0.0137422559782862,1.2781883478164673,-0.0393442995846271,-0.4085782766342163,-0.019894165918231,-0.0073634730651974,0.0,0.0,-0.9225156903266908,-0.2010838985443115
-0.0140560148283839,1.2688753604888916,-0.0305930282920599,-0.4139153063297272,-0.0206662528216838,-0.0154432253912091,0.0,0.0,-0.934995174407959,-0.4722347259521484
-0.0142861362546682,1.2594425678253174,-0.0218155570328235,-0.4192524552345276,-0.0218447595834732,-0.0235723964869976,0.0,0.0,-0.7420664429664612,-0.3909737467765808
-0.0144324302673339,1.2498899698257446,-0.0130157517269253,-0.4245898425579071,-0.0234325118362903,-0.0317578762769699,0.0,0.0,-0.7805343866348267,-0.8986505270004272
-0.0145750995725393,1.2402197122573853,-0.0142941223457455,-0.4297889769077301,-0.02340829372406,0.0004843457136303,0.0,0.0,-0.9407339692115784,-0.8175854086875916
-0.0146845821291208,1.2304372787475586,-0.0118450233712792,-0.4347613155841827,-0.0225183870643377,0.0177998561412096,0.0,0.0,-0.8488107323646545,-0.5165272355079651
-0.0147500038146972,1.22053325176239,-0.0080351624637842,-0.4401533901691437,-0.0210389494895935,0.0295913517475128,0.0,0.0,-0.8310336470603943,-0.6207989454269409
-0.0147696491330862,1.2105097770690918,-0.0040256385691463,-0.4454613327980041,-0.0190104078501462,0.040574662387371,0.0,0.0,-0.8489315509796143,-0.6255449056625366
-0.0147490501403808,1.2003607749938965,-0.0006782088894397,-0.4510386884212494,-0.0163037665188312,0.0541377142071723,0.0,0.0,-0.8594285249710083,-0.700186014175415
-0.0147127155214548,1.1900954246520996,-0.0004240710695739,-0.4561974108219147,-0.012299058958888,0.0801013559103012,0.0,0.0,-0.8814509510993958,0.0122662782669067
-0.0145925525575876,1.1796889305114746,0.0083910534158349,-0.462489515542984,-0.0087182931602001,0.0716155767440795,0.0,0.0,-0.9036474227905272,-0.5036406517028809
-0.0144279478117823,1.1691662073135376,0.0122591983526945,-0.4676568806171417,-0.0045667164959013,0.0830313488841056,0.0,0.0,-0.9393683671951294,0.1143971681594848
-0.0141793247312307,1.1585237979888916,0.0210817120969295,-0.4729929864406585,-0.0008403325919061,0.074527807533741,0.0,0.0,-0.9151508808135986,0.3531780242919922
-0.0138470651581883,1.147761344909668,0.0298876520246267,-0.4783287346363067,0.0024602676276117,0.0660120174288749,0.0,0.0,-0.9145585298538208,0.1835713386535644
-0.01343116723001,1.1368789672851562,0.0386729277670383,-0.4836640954017639,0.0053345668129622,0.0574858896434307,0.0,0.0,-0.9042295813560486,0.2612006664276123
-0.0129320146515965,1.125876784324646,0.047433353960514,-0.4889991879463196,0.0077821272425353,0.0489514097571373,0.0,0.0,-0.9636077880859376,-0.0454142689704895
-0.0123499874025583,1.114754557609558,0.0561645813286304,-0.4943339228630066,0.0098026515915989,0.0404104851186275,0.0,0.0,-0.9339243173599244,0.1180673837661743
-0.0116851804777979,1.1035122871398926,0.0648621395230293,-0.4996684789657593,0.0113959088921546,0.0318649932742118,0.0,0.0,-0.9312344193458556,-0.2284746170043945
-0.010938262566924,1.09214985370636,0.0735213533043861,-0.5050027966499329,0.0125617487356066,0.0233167763799428,0.0,0.0,-0.919818103313446,-0.642199695110321
-0.0101588247343897,1.0806678533554075,0.075932502746582,-0.51032954454422,0.0145426159724593,0.0396170653402805,0.0,0.0,-0.7915822863578796,-0.5144624710083008
-0.0093376161530613,1.0690686702728271,0.0795432105660438,-0.5155405402183533,0.0170879606157541,0.0509071573615074,0.0,0.0,-0.9073991179466248,0.1350075006484985
-0.0084356311708688,1.0573495626449585,0.0880574434995651,-0.5208750367164612,0.0192060004919767,0.0423608683049678,0.0,0.0,-0.914249062538147,-0.3239483833312988
-0.0074533461593091,1.0455102920532229,0.0965125784277916,-0.52620929479599,0.0208969265222549,0.0338186956942081,0.0,0.0,-0.8873439431190491,-0.7570230960845947
-0.0064555169083178,1.0335575342178345,0.0968852490186691,-0.5312812328338623,0.0237642508000135,0.0573464147746562,0.0,0.0,-0.9354019165039062,0.4434942007064819
-0.0053788186050951,1.021484613418579,0.1052045002579689,-0.5366156101226807,0.0262051448225975,0.0488175749778747,0.0,0.0,-0.8874944448471069,-0.8379175662994385
-0.0043020248413085,1.0092957019805908,0.103642463684082,-0.5418071746826172,0.0301812682300806,0.0795225203037262,0.0,0.0,-0.8977428674697876,-0.3355821967124939
-0.003148078918457,0.99698668718338,0.1118001341819763,-0.547141969203949,0.0337319709360599,0.0710140988230705,0.0,0.0,-0.747362494468689,-0.5799130797386169
-0.0019561767112463,0.9845494031906128,0.1150543689727783,-0.5528697967529297,0.0378260910511016,0.0818822830915451,0.0,0.0,-0.9045251607894896,-0.3704081773757934
-0.0006887436029501,0.9719919562339784,0.1230218783020973,-0.5582044124603271,0.0414961837232112,0.0734017789363861,0.0,0.0,-0.94865220785141,-0.7998269200325012
0.0005857467767782,0.9593008756637572,0.1224381327629089,-0.5641942620277405,0.0464430637657642,0.09893798828125,0.0,0.0,-0.9036758542060852,-0.8167012929916382
0.0018739700317382,0.946477472782135,0.1227268427610397,-0.5701308846473694,0.0524700842797756,0.120540402829647,0.0,0.0,-0.924474000930786,-0.3671788573265075
0.0032341957557946,0.9335342049598694,0.1303487718105316,-0.5754665732383728,0.058075912296772,0.1121165975928306,0.0,0.0,-0.9589096903800964,-0.7993447184562683
0.0045897485688328,0.920473039150238,0.1284021735191345,-0.5807852149009705,0.0651476979255676,0.1414358913898468,0.0,0.0,-0.7412811517715454,0.2885005474090576
0.0060144425369799,0.9072921872138976,0.1357482373714447,-0.5861217379570007,0.0718007311224937,0.1330608874559402,0.0,0.0,-0.9316875338554382,-0.8552730083465576
0.0074370382353663,0.8939816951751709,0.1341846585273742,-0.5919873714447021,0.0797999277710914,0.1599836647510528,0.0,0.0,-0.9345393776893616,-0.2206625938415527
0.0089257238432765,0.8805515170097351,0.1412139534950256,-0.5973244905471802,0.0873833000659942,0.1516672372817993,0.0,0.0,-0.9005640745162964,0.0512753725051879
0.0104786874726414,0.8670015335083008,0.1480681449174881,-0.6026608943939209,0.0945525020360946,0.14338418841362,0.0,0.0,-0.5980823040008545,0.3494299650192261
0.0120942117646336,0.8533315658569336,0.1547354608774185,-0.6079965233802795,0.1013093739748001,0.1351372897624969,0.0,0.0,-0.4022729396820068,-0.4919033050537109
0.0137701034545898,0.8395417332649231,0.1612036526203155,-0.6133314371109009,0.1076558455824852,0.1269292533397674,0.0,0.0,-0.9085614085197448,-0.2327275872230529
0.0155044551938772,0.8256315588951111,0.1674599945545196,-0.6186657547950745,0.113594003021717,0.1187631636857986,0.0,0.0,-0.9131888151168824,-0.2029348611831665
0.0172950737178325,0.8116014003753662,0.1734912693500518,-0.6239994168281555,0.1191261038184166,0.1106420904397964,0.0,0.0,-0.8359568119049072,-0.1767151951789856
0.0191393848508596,0.7974509596824646,0.1792838722467422,-0.6293324828147888,0.1242545694112777,0.1025692969560623,0.0,0.0,-0.8144417405128479,-0.6385369896888733
0.0209962837398052,0.7831754088401794,0.1799526363611221,-0.6349545121192932,0.1299635171890258,0.1141788512468338,0.0,0.0,-0.8061274886131287,-0.7767286896705627
0.0228478424251079,0.7687771916389465,0.178458109498024,-0.6405185461044312,0.1366292685270309,0.133315160870552,0.0,0.0,-0.8778812289237976,-0.4588922262191772
0.0247451774775981,0.7542586326599121,0.1834499537944793,-0.6458523273468018,0.1428996920585632,0.125408262014389,0.0,0.0,-0.9334569573402404,0.9250755310058594
0.026764964684844,0.7396289706230164,0.1980875879526138,-0.650592565536499,0.1467753201723098,0.0775129795074462,0.0,0.0,-0.8894169330596924,-0.0586526989936828
0.0288246162235736,0.7248784899711609,0.2024717777967453,-0.65592360496521,0.1502621173858642,0.0697360038757324,0.0,0.0,-0.901469111442566,-0.5650152564048767
0.0308859832584857,0.7099980711936951,0.2021344900131225,-0.6617622971534729,0.1542627513408661,0.0800127312541008,0.0,0.0,-0.9754403233528136,0.3617186546325683
0.0329807288944721,0.6949970126152039,0.2058526575565338,-0.6670933365821838,0.1578818708658218,0.0723820626735687,0.0,0.0,-0.7043600678443909,-0.645187258720398
0.0350561141967773,0.6798587441444397,0.2030206173658371,-0.6732965707778931,0.1624006927013397,0.0903762131929397,0.0,0.0,-0.8434275388717651,0.1401953697204589
0.0371576324105262,0.6646000742912292,0.2060160934925079,-0.6786278486251831,0.1665461808443069,0.0829098969697952,0.0,0.0,-0.888977587223053,0.7948598861694336
0.0393447875976562,0.6492457985877991,0.2165909111499786,-0.6826487183570862,0.1686684042215347,0.0424444638192653,0.0,0.0,-0.4161608219146728,-0.9305666089057922
0.0414891242980957,0.633743941783905,0.2110656946897506,-0.6893589496612549,0.1720432639122009,0.0674971118569374,0.0,0.0,-0.4185973405838012,-0.1996001601219177
0.0436479561030864,0.618121325969696,0.212880402803421,-0.6946894526481628,0.1750589460134506,0.0603137500584125,0.0,0.0,-0.528924822807312,-0.8304111957550049
0.0457430854439735,0.6023547053337097,0.2049312144517898,-0.7012854814529419,0.1796475648880005,0.0917726531624794,0.0,0.0,-0.2237036824226379,0.1138920783996582
0.0478444099426269,0.586467444896698,0.205905944108963,-0.7066165804862976,0.1838877350091934,0.0848038047552108,0.0,0.0,-0.3987364172935486,0.1183211803436279
0.0499477386474609,0.5704596042633057,0.2064483910799026,-0.7119473814964294,0.187785267829895,0.0779505148530006,0.0,0.0,-0.5669769644737244,0.1291089057922363
0.0520487800240516,0.5543310642242432,0.2065524607896804,-0.7172779440879822,0.1913461834192276,0.0712183862924575,0.0,0.0,-0.152214229106903,-0.1713930368423462
0.054142951965332,0.5380818247795105,0.2062138020992279,-0.7226083278656006,0.1945768594741821,0.0646132677793502,0.0,0.0,-0.4696115255355835,0.0726411342620849
0.0562261566519737,0.5217117667198181,0.2054297626018524,-0.7279385924339294,0.1974839121103286,0.0581411123275756,0.0,0.0,0.2289173603057861,-0.2072066664695739
0.058296013623476,0.5055914521217346,0.204183742403984,-0.7168315052986145,0.2003083080053329,0.0564879179000854,0.0,0.0,0.0192518234252929,-0.0235043764114379
0.0602853782474994,0.4896525740623474,0.196521520614624,-0.7087269425392151,0.2027331590652465,0.0484968833625316,0.0,0.0,0.3582905530929565,-0.4902118444442749
0.0621124282479286,0.4745488166809082,0.180633395910263,-0.6715604662895203,0.2048244327306747,0.0418255403637886,0.0,0.0,0.4392809867858886,0.2861601114273071
0.063834860920906,0.4603894650936126,0.1701327264308929,-0.6296011209487915,0.2069444358348846,0.0424001477658748,0.0,0.0,-0.2610986232757568,0.8227274417877197
0.0655750259757042,0.4461336135864258,0.173540860414505,-0.6336605548858643,0.2074268013238906,0.0096472892910242,0.0,0.0,0.327473521232605,0.631930947303772
0.0671610832214355,0.4321211874485016,0.1598656475543975,-0.6225957274436951,0.2061584740877151,-0.0253665745258331,0.0,0.0,0.6817629337310791,-0.4629281759262085
0.0685817748308181,0.4191822111606598,0.1434040814638137,-0.5748825073242188,0.2048123478889465,-0.0269226282835006,0.0,0.0,0.3571590185165405,0.4690042734146118
0.0697799697518348,0.4067914187908172,0.1217964142560958,-0.5504301190376282,0.2028228789567947,-0.0397893525660038,0.0,0.0,0.3358973264694214,0.9242684841156006
0.0708401650190353,0.3950957655906677,0.1101247295737266,-0.5192486643791199,0.1986885368824005,-0.0826869830489158,0.0,0.0,0.7798038721084595,-0.3204971551895141
0.0716867446899414,0.3843836784362793,0.0890603363513946,-0.4755096733570099,0.1942565441131591,-0.0886401981115341,0.0,0.0,-0.2277678251266479,0.7065396308898926
0.0725400894880294,0.3735699951648712,0.0915842801332473,-0.4798027575016022,0.1879727989435196,-0.125674769282341,0.0,0.0,0.9468004703521729,-0.92482727766037
0.0732184424996376,0.3632096648216247,0.0724032074213028,-0.4598859548568725,0.1833912134170532,-0.0916318148374557,0.0,0.0,0.4591966867446899,0.2675662040710449
0.0738501548767089,0.3532759845256805,0.0675589442253112,-0.4409588575363159,0.1789842396974563,-0.0881393998861312,0.0,0.0,-0.1215338706970214,0.2361245155334472
0.0744163542985916,0.3432222008705139,0.0612028166651725,-0.4462921321392059,0.1743850260972976,-0.0919839590787887,0.0,0.0,-0.0656846165657043,-0.0470381379127502
0.0749140754342079,0.3330481946468353,0.0545450262725353,-0.4516258537769317,0.1696062535047531,-0.0955757200717926,0.0,0.0,0.3458560705184936,-0.336742639541626
0.0752327889204025,0.323657751083374,0.0368395075201988,-0.4167951941490173,0.1646396815776825,-0.0993317812681198,0.0,0.0,-0.2027423977851867,0.7155160903930664
0.0755358710885047,0.3141673803329468,0.0369372256100177,-0.4210752546787262,0.1580104231834411,-0.1325854957103729,0.0,0.0,0.3379461765289306,-0.5391438007354736
0.0757438689470291,0.3053752183914184,0.0262489281594753,-0.3901942372322082,0.1525636464357376,-0.1089355945587158,0.0,0.0,-0.5517274141311646,0.4811058044433594
0.0758734717965126,0.2964632213115692,0.0185412336140871,-0.3955296576023102,0.1469925642013549,-0.1114218458533287,0.0,0.0,-0.2668324708938598,0.2984523773193359
0.0759224891662597,0.2874313294887543,0.0106088742613792,-0.4008654356002807,0.1413121074438095,-0.1136095896363258,0.0,0.0,-0.3185760974884033,-0.5583932399749756
0.0758509635925293,0.2782782018184662,-0.0023142863065004,-0.4063552618026733,0.1364934891462326,-0.0963728129863739,0.0,0.0,0.4626016616821289,0.1291134357452392
0.0756063461303711,0.2697497606277466,-0.0194571875035762,-0.3785920143127441,0.1315009593963623,-0.0998504310846328,0.0,0.0,-0.2996895313262939,0.545172929763794
0.0753091797232627,0.2611131966114044,-0.0237652175128459,-0.3833329975605011,0.125579684972763,-0.1184258833527565,0.0,0.0,-0.5535883903503418,0.1710599660873413
0.0749245658516883,0.2523570358753204,-0.0324592068791389,-0.3886699974536896,0.1196122914552688,-0.1193478554487228,0.0,0.0,-0.0251271128654479,-0.0009790062904357
0.0744510665535926,0.2434812933206558,-0.0413123443722724,-0.3940072357654571,0.1136153042316436,-0.1199397072196006,0.0,0.0,0.1030850410461425,0.2809479236602783
0.0737759619951248,0.235221654176712,-0.0612105950713157,-0.3666273951530456,0.1073498725891113,-0.1253085136413574,0.0,0.0,-0.3992140293121338,0.4416201114654541
0.0730092972517013,0.2268425822257995,-0.0703488588333129,-0.3719652891159057,0.1010883226990699,-0.1252313256263733,0.0,0.0,-0.158968448638916,0.0863175392150878
0.0721502304077148,0.2183439880609512,-0.079614445567131,-0.3773033022880554,0.0948474407196044,-0.1248176842927932,0.0,0.0,-0.3759886026382446,0.5495281219482422
0.0712302178144455,0.2097293734550476,-0.0849151387810707,-0.3824377655982971,0.0878227725625038,-0.140493094921112,0.0,0.0,0.0565657615661621,0.8335214853286743
0.0703200325369834,0.2017064243555069,-0.0823382884263992,-0.3560921847820282,0.0792110413312912,-0.1722346544265747,0.0,0.0,-0.5393041372299194,-0.8205611705780029
0.0692566856741905,0.1935502141714096,-0.0991889685392379,-0.3621371388435364,0.072140023112297,-0.1414201855659485,0.0,0.0,-0.2270274758338928,-0.1598549485206604
0.0680973976850509,0.1852747052907943,-0.1088759154081344,-0.3674764037132263,0.0651561245322227,-0.1396776884794235,0.0,0.0,0.1222211122512817,-0.2271488904953003
0.0667914375662803,0.1776673942804336,-0.1235575079917907,-0.3378132283687591,0.0582035854458808,-0.1390508115291595,0.0,0.0,0.1227293014526367,0.1279835700988769
0.0654512420296669,0.1708188205957412,-0.1275597512722015,-0.3041468560695648,0.0518185272812843,-0.1277012526988983,0.0,0.0,-0.482864499092102,0.2806284427642822
0.064013198018074,0.163850724697113,-0.1374860554933548,-0.3094854354858398,0.0455677881836891,-0.1250148862600326,0.0,0.0,-0.5984853506088257,0.0052630901336669
0.062476634979248,0.1567632555961609,-0.1474801003932953,-0.3148238360881805,0.0394663028419017,-0.1220295876264572,0.0,0.0,-0.7192078828811646,0.7486032247543335
0.0609062202274799,0.1495669186115265,-0.1493776738643646,-0.3196541368961334,0.0318883098661899,-0.1515598446130752,0.0,0.0,-0.7404492497444153,-0.0052059888839721
0.0592363364994525,0.142251431941986,-0.1594915241003036,-0.3249939978122711,0.0244880989193916,-0.1480043679475784,0.0,0.0,-0.8903574347496033,0.5211641788482666
0.057499598711729,0.1348188519477844,-0.165537029504776,-0.3302266001701355,0.0164530426263809,-0.1607013195753097,0.0,0.0,-0.8701135516166687,0.132375955581665
0.0556627288460731,0.1272671073675155,-0.1757525354623794,-0.3355668485164642,0.0086221853271126,-0.1566171199083328,0.0,0.0,-0.898766279220581,-0.2610517740249634
0.0537254326045513,0.1195962056517601,-0.1860128343105316,-0.3409067094326019,0.0010079356143251,-0.1522851288318634,0.0,0.0,-0.6338624358177185,0.532056450843811
0.0517313964664936,0.1118051409721374,-0.1908031851053238,-0.3462860286235809,-0.0074815624393522,-0.1697898656129837,0.0,0.0,-0.3767808675765991,-0.3967828750610351
0.049636460840702,0.1038950532674789,-0.2011423856019973,-0.3516264855861664,-0.0157313533127307,-0.1649958193302154,0.0,0.0,0.4145951271057129,0.0863617658615112
0.0475329384207725,0.0967417061328888,-0.2026399075984954,-0.3180237710475921,-0.0233447030186653,-0.1522669047117233,0.0,0.0,0.3021880388259887,-0.3502769470214844
0.0453626625239849,0.0904217809438705,-0.2096771001815796,-0.281018316745758,-0.0306061524897813,-0.1452288478612899,0.0,0.0,-0.2795875668525696,0.0408409833908081
0.0430908203125,0.0839824080467224,-0.2201115190982818,-0.2863566279411316,-0.0375974811613559,-0.1398266851902008,0.0,0.0,0.1220945119857788,0.4517345428466797
