x_pos,y_pos,x_vel,y_vel,angle,ang_vel,leg_1,leg_2,main_booster,lat_booster
-0.0015266418922692,1.4033100605010986,-0.1544095277786255,-0.3382253050804138,0.0015631215646862,0.0308187399059534,0.0,0.0,0.2826238782228047,0.8255891250187348
-0.0029462813399732,1.395941972732544,-0.1416927278041839,-0.3274634778499603,0.0012972861295565,-0.0053163678385317,0.0,0.0,-0.8146951327599754,0.6251223047666314
-0.0043089864775538,1.3882546424865725,-0.1342575699090957,-0.3416613042354584,-0.0006878684507682,-0.0397069342434406,0.0,0.0,0.6318339625427096,-0.8799275662856214
-0.0058749197050929,1.3809902667999268,-0.1559061706066131,-0.3228553831577301,-0.0013625796418637,-0.0134954825043678,0.0,0.0,-0.9240618971093864,0.6434232710947759
-0.0073825838044285,1.373413324356079,-0.1483024954795837,-0.3367536962032318,-0.0037923594936728,-0.048600248992443,0.0,0.0,0.0528161957295563,0.9140211597888678
-0.0087162014096975,1.366039156913757,-0.1288754791021347,-0.3277606666088104,-0.0082320189103484,-0.0888018384575843,0.0,0.0,-0.6285555313691853,-0.6847886341632683
-0.0101088527590036,1.358351469039917,-0.1359883695840835,-0.3417024314403534,-0.0114731965586543,-0.064829371869564,0.0,0.0,0.2423182727591617,0.8805285601876578
-0.0113001819700002,1.3510782718658447,-0.1139922589063644,-0.3232962787151336,-0.0165628660470247,-0.1018029004335403,0.0,0.0,-0.057783915954001,0.6443497057447248
-0.0124449729919433,1.3434970378875732,-0.1078535467386245,-0.3370367884635925,-0.0231091752648353,-0.1309379637241363,0.0,0.0,0.0933354070227006,-0.724190585746612
-0.0136392591521143,1.3363293409347534,-0.1140557155013084,-0.3186618983745575,-0.0284270141273736,-0.1063668727874755,0.0,0.0,0.3519715804638494,0.752195076759428
-0.014684772118926,1.3295716047286987,-0.0975777953863143,-0.3004921078681946,-0.0353210233151912,-0.1378926932811737,0.0,0.0,0.3092270421074823,0.7051011400377373
-0.0156006813049316,1.3231199979782104,-0.0830988436937332,-0.2869582176208496,-0.0437161438167095,-0.1679179668426513,0.0,0.0,0.3065735155079836,-0.8831117866084918
-0.0164469722658395,1.3171851634979248,-0.0778198167681694,-0.2639840841293335,-0.050454244017601,-0.1347745656967163,0.0,0.0,-0.7234974585857756,0.8473510008044911
-0.017222499474883,1.3109230995178225,-0.0686389431357383,-0.2786325216293335,-0.059272676706314,-0.1763845086097717,0.0,0.0,-0.7482434567023306,-0.6617757774140794
-0.0180407520383596,1.3043582439422607,-0.0737417638301849,-0.2921096086502075,-0.0672844871878624,-0.1602506339550018,0.0,0.0,0.9656671047384512,-0.7640491084033336
-0.0187580101191997,1.29799222946167,-0.0653109699487686,-0.2832437455654144,-0.0736459046602249,-0.127239853143692,0.0,0.0,0.9024378665820376,-0.9219336173594204
-0.0193033218383789,1.2927849292755127,-0.0500949136912822,-0.2316558808088302,-0.078047938644886,-0.0880487114191055,0.0,0.0,-0.9113131545815149,-0.9947925197832967
-0.0199124328792095,1.2872620820999146,-0.0577886179089546,-0.2456273883581161,-0.0811429172754287,-0.0619053952395916,0.0,0.0,-0.7621614304326847,0.6852391898480568
-0.0204620361328125,1.2814241647720337,-0.0500473454594612,-0.2597384452819824,-0.0860178619623184,-0.0975078344345092,0.0,0.0,-0.731952806137107,-0.985215703343348
-0.0211031921207904,1.2752830982208252,-0.0612320080399513,-0.2731044888496399,-0.0888670906424522,-0.0569895505905151,0.0,0.0,0.1125741998929266,-0.8257369939799442
-0.0216680523008108,1.2695858478546145,-0.0551357567310333,-0.2532952129840851,-0.0902159065008163,-0.0269787814468145,0.0,0.0,-0.3610111220361094,-0.727115389276092
-0.0222930908203125,1.2635776996612549,-0.0623707994818687,-0.2670355141162872,-0.0903422608971595,-0.0025273985229432,0.0,0.0,-0.13639173933939,0.9078464010743096
-0.0228349678218364,1.2572423219680786,-0.0516481176018714,-0.2817231714725494,-0.0928607955574989,-0.0503752455115318,0.0,0.0,0.1732177546015667,-0.995992196010557
-0.0233804695308208,1.2509158849716189,-0.0538203939795494,-0.2812283337116241,-0.093589149415493,-0.0145682543516159,0.0,0.0,0.7203970623229841,-0.6231972910487926
-0.0240749362856149,1.2453068494796753,-0.0693704187870025,-0.2492933422327041,-0.0936591699719429,-0.0014004905242472,0.0,0.0,0.9078241927801308,0.8081039012320664
-0.0248172767460346,1.2405976057052612,-0.0719685107469558,-0.2094457149505615,-0.0959148332476615,-0.0451131276786327,0.0,0.0,0.1200362895582103,0.8055507966912685
-0.0254495628178119,1.2363051176071167,-0.0591429583728313,-0.1910464316606521,-0.0999586135149002,-0.0808759555220604,0.0,0.0,-0.643533347358223,0.9151178187978952
-0.0260283462703228,1.2316997051239014,-0.0521854571998119,-0.2050753682851791,-0.1056111082434654,-0.1130498498678207,0.0,0.0,0.6613829562892346,-0.9839347952599032
-0.0267527587711811,1.2279860973358154,-0.0683623403310775,-0.1653397679328918,-0.1096608638763427,-0.080994889140129,0.0,0.0,0.0614875304290838,-0.6328318725337481
-0.0275115966796875,1.2244340181350708,-0.0728822648525238,-0.1580938547849655,-0.1126455143094062,-0.0596929267048835,0.0,0.0,-0.3328761272170828,0.7952949925259358
-0.0282090194523334,1.220565915107727,-0.0649148821830749,-0.172283262014389,-0.1174374669790268,-0.0958391577005386,0.0,0.0,0.3734480745317527,-0.7274669160199916
-0.0289963725954294,1.2169452905654907,-0.0750937014818191,-0.1612084209918975,-0.1210624650120735,-0.0724999532103538,0.0,0.0,0.6862229696162656,0.6522033068233969
-0.0297274589538574,1.214242458343506,-0.0677809491753578,-0.1205724477767944,-0.1263659298419952,-0.1060695201158523,0.0,0.0,0.6258362948913583,-0.7964475197929409
-0.030549431219697,1.2117717266082764,-0.078170508146286,-0.1101580038666725,-0.1303679943084716,-0.0800414532423019,0.0,0.0,-0.3897820333135986,-0.910443531943231
-0.0314440727233886,1.2090023756027222,-0.0870726108551025,-0.1232880800962448,-0.1327594369649887,-0.047829233109951,0.0,0.0,0.5877077090146097,0.7972321382854473
-0.0321638099849224,1.2069895267486572,-0.0678580924868583,-0.0898367911577224,-0.136863112449646,-0.08207318931818,0.0,0.0,-0.5614138703571772,0.7757384947709812
-0.0328293815255165,1.2046468257904053,-0.0607926547527313,-0.1046579182147979,-0.1426015049219131,-0.1147677302360534,0.0,0.0,-0.1673353102144932,0.7607200235025611
-0.0334343910217285,1.201982855796814,-0.0529853627085685,-0.1191386952996254,-0.1500987112522125,-0.1499441564083099,0.0,0.0,0.8469454601927304,-0.7700439182007045
-0.034008502960205,1.2004352807998655,-0.0512124374508857,-0.0694213286042213,-0.1562930792570114,-0.1238873377442359,0.0,0.0,-0.0373938740973733,-0.9532433544705424
-0.0346567146480083,1.1985918283462524,-0.0603115074336528,-0.0824097245931625,-0.1608016937971115,-0.0901723057031631,0.0,0.0,-0.7187365339322414,0.6901337833412085
-0.0352632515132427,1.1964296102523804,-0.0548826679587364,-0.0967327132821083,-0.1665702760219574,-0.1153716295957565,0.0,0.0,-0.9807894229888916,-0.9931684136390686
-0.0359346382319927,1.1939669847488403,-0.0628395304083824,-0.1099418401718139,-0.1708782762289047,-0.0861600562930107,0.0,0.0,-0.9657583236694336,-0.959317147731781
-0.0366729721426963,1.191196084022522,-0.0710310786962509,-0.1234768331050872,-0.1736929416656494,-0.0562932379543781,0.0,0.0,-0.7200506329536438,-0.7619863748550415
-0.0374641418457031,1.1881225109100342,-0.0774711146950721,-0.1367921978235244,-0.1753377020359039,-0.0328953191637992,0.0,0.0,-0.9839770197868348,-0.7048141360282898
-0.0383176803588867,1.1847423315048218,-0.0851219072937965,-0.150263711810112,-0.1755758076906204,-0.0047619850374758,0.0,0.0,-0.8495339155197144,-0.1183990240097045
-0.0391741767525672,1.1810479164123535,-0.085317425429821,-0.1642379462718963,-0.1759015619754791,-0.0065150978043675,0.0,0.0,-0.8883099555969238,-0.6111472249031067
-0.040076445788145,1.1770472526550293,-0.090920902788639,-0.1777221262454986,-0.1752070188522339,0.0138908131048083,0.0,0.0,-0.9244247674942015,-0.7674311399459839
-0.04105119779706,1.1727595329284668,-0.0999240130186081,-0.1902844458818435,-0.1727511286735534,0.0491172485053539,0.0,0.0,-0.7813377380371094,-0.7016744613647461
-0.0420943275094032,1.1681811809539795,-0.1084217578172683,-0.2030130922794342,-0.1686348766088485,0.0823249146342277,0.0,0.0,-0.3606913089752197,0.7245063781738281
-0.0430855751037597,1.163272500038147,-0.1017902940511703,-0.2178565561771392,-0.1659695953130722,0.0533054880797863,0.0,0.0,-0.1803244948387146,0.0290960073471069
-0.0440791137516498,1.1580498218536377,-0.1019773706793785,-0.2318306416273117,-0.1633431315422058,0.0525292642414569,0.0,0.0,-0.6906037330627441,0.2280429601669311
-0.0450746528804302,1.152512788772583,-0.1021619662642479,-0.2458045482635498,-0.1607448309659958,0.0519664473831653,0.0,0.0,-0.9378451108932496,0.4309914112091064
-0.0460723862051963,1.1466615200042725,-0.102343812584877,-0.2597783207893371,-0.158163771033287,0.0516209304332733,0.0,0.0,-0.3316661715507507,0.0075693130493164
-0.0470717437565326,1.140496015548706,-0.1025225967168808,-0.2737519145011902,-0.1555889993906021,0.0514955148100853,0.0,0.0,-0.71938556432724,-0.0174698829650878
-0.0480730049312114,1.1340162754058838,-0.1026980429887771,-0.287725418806076,-0.1530093848705291,0.0515918731689453,0.0,0.0,-0.7869119644165039,0.8338103294372559
-0.04902134090662,1.127205729484558,-0.0960217490792274,-0.3025697767734527,-0.1518194824457168,0.0237980186939239,0.0,0.0,-0.8137808442115784,0.753319501876831
-0.0499021522700786,1.1200718879699707,-0.0875699296593666,-0.317110151052475,-0.1523412764072418,-0.0104354927316308,0.0,0.0,-0.7330264449119568,0.236504316329956
-0.0507843010127544,1.112623691558838,-0.0877331644296646,-0.3310827016830444,-0.1528251022100448,-0.00967638194561,0.0,0.0,-0.2471649646759033,0.3405638933181762
-0.0516675934195518,1.10486102104187,-0.0878916606307029,-0.3450550734996795,-0.1532601714134216,-0.008701286278665,0.0,0.0,-0.8716863989830017,0.5592660903930664
-0.0525131225585937,1.096779704093933,-0.0832006484270095,-0.3593066334724426,-0.1546107530593872,-0.0270112864673137,0.0,0.0,-0.5058001279830933,0.5394759178161621
-0.0533141121268272,1.0883686542510986,-0.0776525288820266,-0.3740813136100769,-0.1570655405521392,-0.0490955598652362,0.0,0.0,-0.9281020760536194,-0.3194520473480224
-0.0541157722473144,1.0796430110931396,-0.07779461145401,-0.3880537748336792,-0.1594406515359878,-0.0475024431943893,0.0,0.0,-0.7004148960113525,-0.208092451095581
-0.0549180023372173,1.0706031322479248,-0.0779303684830665,-0.4020260572433471,-0.1617264747619629,-0.0457164011895656,0.0,0.0,-0.7989977598190308,0.3488940000534057
-0.0557204261422157,1.061248540878296,-0.078059397637844,-0.4159981310367584,-0.1639137268066406,-0.0437451899051666,0.0,0.0,-0.8639238476753235,0.014532446861267
-0.056523036211729,1.051579475402832,-0.0781812816858291,-0.4299700856208801,-0.1659935712814331,-0.0415970906615257,0.0,0.0,-0.9271159768104552,-0.1365777850151062
-0.0573256500065326,1.041595697402954,-0.0782956033945083,-0.4439418017864227,-0.1679575890302658,-0.0392807498574256,0.0,0.0,-0.8456133604049683,-0.6087663769721985
-0.0581729896366596,1.0313159227371216,-0.0840713530778884,-0.4569525122642517,-0.1686176508665084,-0.013200893998146,0.0,0.0,-0.6500245332717896,-0.0107797384262084
-0.0590200424194335,1.0207215547561646,-0.084169253706932,-0.4709236919879913,-0.1691464036703109,-0.0105749545618891,0.0,0.0,-0.9728283286094666,-0.0170819759368896
-0.0598664283752441,1.0098124742507937,-0.0842583701014518,-0.4848946928977966,-0.1695367991924286,-0.007807811256498,0.0,0.0,-0.8596621751785278,-0.6645352244377136
-0.0607725158333778,0.9986011385917664,-0.0918922424316406,-0.4981344044208526,-0.1682445257902145,0.0258451998233795,0.0,0.0,-0.9930291175842284,-0.261305034160614
-0.0616777427494525,0.9870750904083252,-0.0919626727700233,-0.5121053457260132,-0.1668011099100113,0.0288680102676153,0.0,0.0,-0.8480672240257263,-0.2193384766578674
-0.0625819191336631,0.97523432970047,-0.0920232012867927,-0.5260763764381409,-0.1652008295059204,0.0320055410265922,0.0,0.0,-0.9093503952026368,0.0452743768692016
-0.0634851455688476,0.9630788564682008,-0.0920734852552414,-0.5400474071502686,-0.1634383350610733,0.0352497547864913,0.0,0.0,-0.993894100189209,0.1273900270462036
-0.0643869414925575,0.9506086707115172,-0.092113196849823,-0.5540183186531067,-0.161508709192276,0.0385925434529781,0.0,0.0,-0.9985529780387878,-0.2716529965400696
-0.0652873963117599,0.9378238916397096,-0.0921420454978942,-0.5679892897605896,-0.1594073921442031,0.042026363313198,0.0,0.0,-0.9922959208488464,-0.0179091095924377
-0.0661862343549728,0.924724280834198,-0.0921597480773925,-0.5819603204727173,-0.157130166888237,0.045544110238552,0.0,0.0,-0.9861775636672974,0.4288715124130249
-0.0670832619071006,0.911310076713562,-0.0921660661697387,-0.5959312915802002,-0.154673233628273,0.0491390042006969,0.0,0.0,-0.9981891512870787,-0.2356582283973693
-0.0679784789681434,0.897581160068512,-0.0921607762575149,-0.6099024415016174,-0.1520330011844635,0.0528047308325767,0.0,0.0,-0.9814875721931458,-0.0962540507316589
-0.0688715949654579,0.8835375308990479,-0.0921436995267868,-0.6238736510276794,-0.1492062360048294,0.0565354116261005,0.0,0.0,-0.9897892475128174,0.8112689256668091
-0.0697101578116417,0.8691756129264832,-0.0855515226721763,-0.6381361484527588,-0.147505983710289,0.0340050421655178,0.0,0.0,-0.9916724562644958,-0.0193012356758117
-0.0705462470650672,0.8544990420341492,-0.0855103433132171,-0.6521070599555969,-0.1456135213375091,0.037849485874176,0.0,0.0,-0.9761580228805542,-0.770505428314209
-0.0714354515075683,0.8395268321037292,-0.0924542546272277,-0.6650848984718323,-0.1420853286981582,0.0705636590719223,0.0,0.0,-0.967484176158905,0.0356251001358032
-0.0723219886422157,0.8242402672767639,-0.0923888906836509,-0.6790565848350525,-0.1383601725101471,0.0745029896497726,0.0,0.0,-0.9737595319747924,0.0403740406036376
-0.073205754160881,0.8086389899253845,-0.0923113450407981,-0.6930283904075623,-0.1344359815120697,0.0784835666418075,0.0,0.0,-0.7777665853500366,-0.4167659878730774
-0.0740865692496299,0.7927231192588806,-0.092221662402153,-0.7070003747940063,-0.130310907959938,0.0825017243623733,0.0,0.0,-0.9370834231376648,-0.1835042238235473
-0.074964240193367,0.7764929533004761,-0.0921199098229408,-0.7209725975990295,-0.1259832382202148,0.086554042994976,0.0,0.0,-0.8089520335197449,0.288392424583435
-0.0758387595415115,0.7599480748176575,-0.0920061841607093,-0.7349449396133423,-0.1214513480663299,0.0906375050544738,0.0,0.0,-0.3212564587593078,0.2433979511260986
-0.0767098441720008,0.7430887818336487,-0.0918806195259094,-0.7489175200462341,-0.1167138963937759,0.0947492867708206,0.0,0.0,-0.0702823996543884,0.2361851930618286
-0.077577494084835,0.7259153723716736,-0.0917433947324752,-0.7628903985023499,-0.1117695569992065,0.0988867208361625,0.0,0.0,0.3677935600280761,0.7305212020874023
-0.0782202705740928,0.7088770866394043,-0.0681835263967514,-0.756961464881897,-0.1078804209828376,0.0777826681733131,0.0,0.0,0.2529994249343872,0.2112529277801513
-0.0788021087646484,0.6923748850822449,-0.0622941926121711,-0.7331408262252808,-0.1038020700216293,0.0815668553113937,0.0,0.0,-0.3637868165969848,0.2923672199249267
-0.0793801322579383,0.6755582094192505,-0.0621231384575367,-0.7471133470535278,-0.0995136797428131,0.0857681632041931,0.0,0.0,0.0379441976547241,0.8240902423858643
-0.0797561630606651,0.6590322256088257,-0.0405082665383815,-0.7342968583106995,-0.0966341495513916,0.0575903579592704,0.0,0.0,0.04207444190979,-0.1922258734703064
-0.0800449401140213,0.6424899101257324,-0.0322937294840812,-0.7349964380264282,-0.0932486429810524,0.0677103474736213,0.0,0.0,0.2915828227996826,0.3335899114608764
-0.0803334265947341,0.6262334585189819,-0.0322815515100955,-0.7223007082939148,-0.0898406878113746,0.0681591928005218,0.0,0.0,-0.1207728385925293,0.3304600715637207
-0.0806176215410232,0.6096624732017517,-0.0320694223046302,-0.7362730503082275,-0.0862196162343025,0.0724211484193801,0.0,0.0,-0.0149176120758056,0.1126990318298339
-0.0808973312377929,0.5927770137786865,-0.0318478941917419,-0.7502456307411194,-0.0823848918080329,0.0766948610544204,0.0,0.0,0.6660323143005371,0.1830252408981323
-0.0812315940856933,0.5767918229103088,-0.0369332060217857,-0.7102637887001038,-0.0789164081215858,0.0693695843219757,0.0,0.0,0.601414680480957,0.281450867652893
-0.0814239531755447,0.5614936351776123,-0.0233425684273242,-0.679704487323761,-0.0748429372906684,0.0814694464206695,0.0,0.0,0.0876529216766357,0.5191476345062256
-0.0815722495317459,0.5466234683990479,-0.0180474836379289,-0.66074138879776,-0.0716583728790283,0.0636912360787391,0.0,0.0,-0.3278121948242187,0.7904635667800903
-0.0816617012023925,0.5314385890960693,-0.011011091992259,-0.6747855544090271,-0.0696146637201309,0.0408742204308509,0.0,0.0,0.3089932203292846,0.2262860536575317
-0.081738568842411,0.5165315866470337,-0.0098759215325117,-0.6624311804771423,-0.0674462392926216,0.0433681607246398,0.0,0.0,0.0043734312057495,0.1065260171890258
-0.0818566307425499,0.5018644332885742,-0.0138847036287188,-0.6517812609672546,-0.0653897225856781,0.0411301515996456,0.0,0.0,-0.4984378218650818,0.3154404163360595
-0.0819697380065918,0.486882746219635,-0.013607220724225,-0.6657534241676331,-0.0631167590618133,0.0454589873552322,0.0,0.0,0.4845895767211914,0.3849024772644043
-0.081942081451416,0.4725443124771118,-0.0001937610213644,-0.6371437311172485,-0.0601868368685245,0.0585985071957111,0.0,0.0,-0.0788238644599914,0.6712831258773804
-0.0818511024117469,0.4578801989555359,0.0074046314693987,-0.6516711115837097,-0.0585135780274868,0.0334651097655296,0.0,0.0,0.8286340236663818,-0.0510942339897155
-0.081545352935791,0.4441519975662231,0.0279182288795709,-0.6100412607192993,-0.0558805502951145,0.0526601672172546,0.0,0.0,0.2732024192810058,-0.0509650111198425
-0.0812184363603591,0.4310064613819122,0.0298840794712305,-0.5841445326805115,-0.0531118623912334,0.0553737357258796,0.0,0.0,-0.4859374761581421,0.1264066696166992
-0.0808863639831543,0.4175465106964111,0.0301909390836954,-0.5981171727180481,-0.0501258037984371,0.0597211048007011,0.0,0.0,0.1524932384490966,0.3176369667053222
-0.0804755240678787,0.4043738543987274,0.0375962369143962,-0.5853384137153625,-0.0466760955750942,0.0689940899610519,0.0,0.0,-0.3290083408355713,0.2950795888900757
-0.0800592452287674,0.3908868432044983,0.037912655621767,-0.5993115901947021,-0.0430088192224502,0.0733453035354614,0.0,0.0,0.5920655727386475,0.4735971689224243
-0.0795465484261512,0.3782190978527069,0.0470659397542476,-0.5628957152366638,-0.0388535149395465,0.0831060856580734,0.0,0.0,-0.1423068642616272,0.3728445768356323
-0.0790284126996994,0.3652371168136596,0.0473908074200153,-0.5768694281578064,-0.0344805382192134,0.0874593406915664,0.0,0.0,0.6477220058441162,0.5782320499420166
-0.0785689353942871,0.3528706431388855,0.0428021773695945,-0.5495514273643494,-0.0313706696033477,0.0621973499655723,0.0,0.0,0.2096356153488159,0.4628468751907348
-0.07818603515625,0.34075927734375,0.0353642478585243,-0.5382236838340759,-0.0284778755158185,0.0578559525310993,0.0,0.0,0.6051814556121826,0.7882089614868164
-0.0777426734566688,0.3291526138782501,0.0428107753396034,-0.5158236622810364,-0.0269759763032197,0.0300380680710077,0.0,0.0,-0.0227415561676025,0.7234768867492676
-0.077234074473381,0.3172276616096496,0.0506383776664733,-0.5299904346466064,-0.0267576035112142,0.0043674241751432,0.0,0.0,0.7973642349243164,0.6872440576553345
-0.0765013694763183,0.3055603504180908,0.073855236172676,-0.5185602307319641,-0.0273283720016479,-0.0114156082272529,0.0,0.0,0.6404705047607422,-0.8935896754264832
-0.0757067650556564,0.2945989668369293,0.0778518766164779,-0.487142264842987,-0.0257440656423568,0.0316861197352409,0.0,0.0,-0.0740793943405151,-0.7540293335914612
-0.0749635696411132,0.2833327054977417,0.0710385590791702,-0.5006702542304993,-0.0225045215338468,0.0647908672690391,0.0,0.0,0.0509108304977417,0.6174569129943848
