x_pos,y_pos,x_vel,y_vel,angle,ang_vel,leg_1,leg_2,main_booster,lat_booster
-0.0015457153785973,1.4029433727264404,-0.1570457518100738,-0.3545244634151459,0.0022153509780764,0.0437337793409824,0.0,0.0,-0.2651187777519226,0.9408671855926514
-0.0030334473121911,1.394304275512695,-0.1493550240993499,-0.3839598298072815,0.002782531781122,0.011345462873578,0.0,0.0,-0.4461622834205627,0.1811628341674804
-0.0045434953644871,1.3849834203720093,-0.1520033180713653,-0.4142572581768036,0.0037764837034046,0.0198806300759315,0.0,0.0,0.3021707534790039,0.9888828992843628
-0.0061086653731763,1.3755688667297363,-0.1559094786643982,-0.4184277653694153,0.0031758865807205,-0.0120130013674497,0.0,0.0,0.3136792182922363,0.8947951793670654
-0.0075096129439771,1.366254448890686,-0.1382489949464798,-0.4139713048934936,0.0013454614672809,-0.0366118513047695,0.0,0.0,0.2333141565322876,0.4552397727966308
-0.008830833248794,1.3568671941757202,-0.1312004476785659,-0.4172123372554779,0.0004315770347602,-0.0182794798165559,0.0,0.0,0.0728702545166015,0.9316494464874268
-0.0101185794919729,1.3473613262176514,-0.1264101564884185,-0.4224854409694671,-0.0019019215833395,-0.046674259006977,0.0,0.0,0.4437843561172485,0.8393008708953857
-0.0112143512815237,1.3380241394042969,-0.1061795502901077,-0.4149902760982513,-0.0052591944113373,-0.0671517625451088,0.0,0.0,-0.2598957419395447,0.529658317565918
-0.0122912405058741,1.3280115127563477,-0.1036972999572753,-0.4450315535068512,-0.009218412451446,-0.0791914016008377,0.0,0.0,-0.009133756160736,0.0324616432189941
-0.0133904460817575,1.3173177242279053,-0.1063435226678848,-0.4753030240535736,-0.012751817703247,-0.0706744045019149,0.0,0.0,0.659563422203064,0.3474321365356445
-0.014417553320527,1.306836724281311,-0.0999845266342163,-0.4658414125442505,-0.0154500249773263,-0.0539688989520072,0.0,0.0,-0.823637068271637,0.4198207855224609
-0.0154669759795069,1.2956745624542236,-0.1026353240013122,-0.4961225092411041,-0.0177245493978261,-0.0454947650432586,0.0,0.0,0.1424177885055542,-0.7998871803283691
-0.0164892189204692,1.2845598459243774,-0.1020463109016418,-0.4939993321895599,-0.0179065614938735,-0.0036405448336154,0.0,0.0,-0.7545818090438843,0.2227509021759033
-0.0175338741391897,1.2727633714675903,-0.104703702032566,-0.5242788791656494,-0.017667718231678,0.0047772759571671,0.0,0.0,0.2687070369720459,0.2164696455001831
-0.0184811595827341,1.2612324953079224,-0.095923863351345,-0.5124730467796326,-0.0164976436644792,0.0234035514295101,0.0,0.0,-0.1221740841865539,-0.3511239290237427
-0.0194509513676166,1.249020218849182,-0.0985823422670364,-0.5427541732788086,-0.0149088883772492,0.0317781493067741,0.0,0.0,0.3680336475372314,0.125874638557434
-0.0203183181583881,1.2371865510940552,-0.0893133729696273,-0.52591472864151,-0.0123665975406765,0.0508505627512931,0.0,0.0,-0.3987436294555664,0.1738829612731933
-0.0212080962955951,1.2246716022491455,-0.0919715613126754,-0.5561975240707397,-0.0094088744372129,0.0591599717736244,0.0,0.0,-0.503921627998352,0.2431690692901611
-0.0221202857792377,1.2114757299423218,-0.094627521932125,-0.5864695906639099,-0.0060368878766894,0.0674457997083664,0.0,0.0,-0.1369605064392089,0.5545518398284912
-0.0230169296264648,1.1975979804992676,-0.0925207585096359,-0.6167755722999573,-0.0032067892607301,0.0566068403422832,0.0,0.0,0.0748624801635742,0.2520151138305664
-0.023851204663515,1.1837726831436155,-0.0871020704507827,-0.6144564151763916,0.0004208132450003,0.0725588649511337,0.0,0.0,-0.4922791719436645,0.7299942970275879
-0.0246490482240915,1.1692620515823364,-0.0823682993650436,-0.6449192762374878,0.002976750023663,0.0511234402656555,0.0,0.0,0.157163381576538,0.290939450263977
-0.0253793708980083,1.154642939567566,-0.0764546245336532,-0.6497513055801392,0.0063612298108637,0.0676954314112663,0.0,0.0,-0.7950167059898376,0.7318947315216064
-0.0260673519223928,1.1393351554870603,-0.0709820315241813,-0.6803584694862366,0.008523603901267,0.0432514809072017,0.0,0.0,-0.2369089126586914,0.3770885467529297
-0.0267773624509573,1.123346209526062,-0.0736076384782791,-0.7106311917304993,0.011085906997323,0.0512507557868957,0.0,0.0,0.2630887031555176,-0.1303886175155639
-0.02762689627707,1.107460379600525,-0.0874273627996444,-0.7060551047325134,0.0135282389819622,0.0488468743860721,0.0,0.0,0.4213119745254516,0.687136173248291
-0.0284489635378122,1.0918364524841309,-0.0837007239460945,-0.6944129467010498,0.0150024583563208,0.0294841732829809,0.0,0.0,-0.3621081113815307,-0.3716650009155273
-0.0292931552976369,1.0755314826965332,-0.0862966105341911,-0.7246858477592468,0.0168645940721035,0.0372425355017185,0.0,0.0,-0.1238129734992981,0.5630893707275391
-0.030124282464385,1.0585508346557615,-0.0845085904002189,-0.7547031044960022,0.018232561647892,0.027359664440155,0.0,0.0,0.1019232273101806,0.4344470500946045
-0.0309973713010549,1.0413768291473389,-0.0890105813741684,-0.7633159160614014,0.0199140571057796,0.0336301252245903,0.0,0.0,-0.3334462642669678,0.6619598865509033
-0.0318384170532226,1.0235308408737185,-0.0848075076937675,-0.7931672930717468,0.0206105560064315,0.0139298317953944,0.0,0.0,0.8310408592224121,0.782381534576416
-0.0327434539794921,1.00572669506073,-0.0898033529520034,-0.7912905216217041,0.0199205875396728,-0.0137993618845939,0.0,0.0,0.6715154647827148,-0.6827859282493591
-0.0338313095271587,0.9884598255157472,-0.1096285805106163,-0.7674290537834167,0.0207483805716037,0.0165558587759733,0.0,0.0,-0.055026888847351,0.3531792163848877
-0.0349409095942974,0.970511794090271,-0.1121486201882362,-0.7977020144462585,0.0219300631433725,0.0236337073147296,0.0,0.0,0.7244594097137451,-0.2091263532638549
-0.0360692963004112,0.9528653025627136,-0.1144670993089675,-0.7843164205551147,0.0235366839915514,0.0321322716772556,0.0,0.0,0.9371087551116944,0.7099347114562988
-0.0371607765555381,0.9358758330345154,-0.1097515076398849,-0.7551034092903137,0.0241251848638057,0.0117701096460223,0.0,0.0,-0.1664671301841735,0.1840826272964477
-0.0382737144827842,0.9182051420211792,-0.1122148633003234,-0.7853764891624451,0.0250434856861829,0.0183660574257373,0.0,0.0,0.9127376079559326,-0.1450806856155395
-0.0393856987357139,0.9011766314506532,-0.1126603633165359,-0.7568466067314148,0.0264860205352306,0.0288508422672748,0.0,0.0,-0.4269276261329651,0.662775993347168
-0.0404698364436626,0.8834763169288635,-0.1089401841163635,-0.7866840362548828,0.0270061902701854,0.0104036210104823,0.0,0.0,0.1713887453079223,-0.6158122420310974
-0.0416128151118755,0.8657412528991699,-0.116409346461296,-0.7882706522941589,0.029085898771882,0.0415943190455436,0.0,0.0,0.3500905036926269,0.2139744758605957
-0.0428821556270122,0.8482753038406372,-0.128930315375328,-0.7763049006462097,0.0310500748455524,0.0392836257815361,0.0,0.0,-0.4383680820465088,-0.2083902359008789
-0.0441720001399517,0.8301283717155457,-0.1312576532363891,-0.8065782785415649,0.0332900919020175,0.0448002889752388,0.0,0.0,0.8142647743225098,0.827846884727478
-0.0453106872737407,0.8118166923522949,-0.1149700060486793,-0.8138740658760071,0.0343750193715095,0.0216984935104846,0.0,0.0,0.9083986282348632,0.7539567947387695
-0.0463063232600688,0.7937474846839905,-0.0996761843562126,-0.8030815124511719,0.0344922393560409,0.0023442455567419,0.0,0.0,0.9077365398406982,-0.2637901306152344
-0.0473801605403423,0.775504469871521,-0.1075305119156837,-0.8108005523681641,0.0346260890364646,0.0026774581056088,0.0,0.0,0.9588702917099,0.50583815574646
-0.0483896248042583,0.7571744322776794,-0.1004639863967895,-0.8146610260009766,0.0341476537287235,-0.0095685431733727,0.0,0.0,0.9032087326049804,0.8589437007904053
-0.049290657043457,0.7389377355575562,-0.0882444083690643,-0.8104761242866516,0.0323146916925907,-0.036659400910139,0.0,0.0,0.847041130065918,0.8680427074432373
-0.0503104217350482,0.7214235663414001,-0.0982993617653846,-0.7783315777778625,0.0286789219826459,-0.0727150738239288,0.0,0.0,0.89216148853302,-0.056589663028717
-0.0515263564884662,0.7045755386352539,-0.1173667162656784,-0.7487304210662842,0.024506015703082,-0.0834582895040512,0.0,0.0,-0.6162528991699219,0.5067852735519409
-0.0527215003967285,0.687046468257904,-0.1144524812698364,-0.7789901494979858,0.0195075515657663,-0.0999692231416702,0.0,0.0,0.7419788837432861,0.8428037166595459
-0.0537119880318641,0.669746458530426,-0.0927253887057304,-0.7688199281692505,0.0132603896781802,-0.1249435096979141,0.0,0.0,0.3695385456085205,-0.5451357960700989
-0.0548226349055767,0.652683436870575,-0.1058158054947853,-0.7583178877830505,0.0080865817144513,-0.1034762412309646,0.0,0.0,0.7422652244567871,0.7253446578979492
-0.055770207196474,0.6356412172317505,-0.0884157046675682,-0.7574127912521362,0.0018275631591677,-0.1251806318759918,0.0,0.0,0.7436800003051758,0.1245388984680175
-0.056731604039669,0.6191811561584473,-0.0898829773068428,-0.7315621972084045,-0.0043517402373254,-0.1235861554741859,0.0,0.0,0.863553524017334,0.3074607849121094
-0.0575376525521278,0.6028642654418945,-0.0751699358224868,-0.7252201437950134,-0.00971136149019,-0.1071923151612281,0.0,0.0,-0.0325971841812133,-0.2289924621582031
-0.0583579055964946,0.5858666300773621,-0.0766215473413467,-0.7554949522018433,-0.0150509225204586,-0.106791004538536,0.0,0.0,0.2229619026184082,-0.2008403539657592
-0.0591132156550884,0.5690714716911316,-0.0704488009214401,-0.7465101480484009,-0.0200709346681833,-0.1004002690315246,0.0,0.0,0.5220401287078857,0.2129559516906738
-0.0597415938973426,0.5525234937667847,-0.0583260767161846,-0.7355327606201172,-0.0245276950299739,-0.0891353785991668,0.0,0.0,0.5960856676101685,-0.0284099578857421
-0.0602900497615337,0.5364847183227539,-0.0506232492625713,-0.7129085063934326,-0.0286978557705879,-0.0834031626582145,0.0,0.0,0.2754086256027221,-0.4418374300003052
-0.0608906745910644,0.5206772089004517,-0.0554923340678215,-0.7026510834693909,-0.0332095324993133,-0.0902336984872818,0.0,0.0,0.5238934755325317,0.7043144702911377
-0.0613821968436241,0.5046895146369934,-0.0431744530797004,-0.7107058763504028,-0.0391151010990142,-0.1181114092469215,0.0,0.0,0.7883570194244385,-0.5805178284645081
-0.0620146766304969,0.4891717731952667,-0.0580092966556549,-0.6898239254951477,-0.0442883968353271,-0.1034659296274185,0.0,0.0,0.5966207981109619,0.1945688724517822
-0.0625133514404296,0.4737143218517303,-0.0450541824102401,-0.6871477961540222,-0.0490437522530555,-0.0951069295406341,0.0,0.0,0.2290422916412353,-0.6521644592285156
-0.0630280524492263,0.45826256275177,-0.0478485599160194,-0.6868689060211182,-0.0526257082819938,-0.0716390162706375,0.0,0.0,0.8607945442199707,-0.1598131656646728
-0.0635154694318771,0.442805528640747,-0.0449833013117313,-0.6871156692504883,-0.0563414804637432,-0.0743153765797615,0.0,0.0,0.7928626537322998,-0.2629519701004028
-0.0641048401594162,0.4276396036148071,-0.0543618686497211,-0.6742196679115295,-0.0608723945915699,-0.0906183123588562,0.0,0.0,0.9205074310302734,-0.1905915737152099
-0.0646116286516189,0.4132802188396454,-0.0459983013570308,-0.6383927464485168,-0.0654999315738678,-0.0925506055355072,0.0,0.0,0.9978079795837402,-0.0183154344558715
-0.0649976730346679,0.3987597227096557,-0.0341647937893867,-0.6455560326576233,-0.0698978155851364,-0.0879575163125991,0.0,0.0,0.8802746534347534,-0.5631240010261536
-0.0653275474905967,0.3850200176239013,-0.0295285992324352,-0.6108176112174988,-0.0733271241188049,-0.0685861408710479,0.0,0.0,0.6003601551055908,0.1143372058868408
-0.065713882446289,0.3712956309318542,-0.034472145140171,-0.6101820468902588,-0.0774400234222412,-0.0822581723332405,0.0,0.0,0.8999974727630615,-0.9532935619354248
-0.0662294402718544,0.3580814301967621,-0.0488362871110439,-0.5874414443969727,-0.0801290273666381,-0.0537801384925842,0.0,0.0,0.4664976596832275,-0.5899714231491089
-0.0667141899466514,0.3450155556201935,-0.0467164143919944,-0.5807995200157166,-0.0818670839071273,-0.0347613133490085,0.0,0.0,0.9557018280029296,-0.6829466819763184
-0.0673294067382812,0.3327978551387787,-0.0604166872799396,-0.5430706143379211,-0.0829608142375946,-0.0218745730817317,0.0,0.0,0.5234270095825195,0.5973176956176758
-0.0677742958068847,0.3206804096698761,-0.0420352891087532,-0.5386927723884583,-0.0853924676775932,-0.0486329533159732,0.0,0.0,0.7176449298858643,-0.2986273169517517
-0.0682125091552734,0.3084943890571594,-0.040871825069189,-0.5417702198028564,-0.0883138254284858,-0.0584272220730781,0.0,0.0,0.6942554712295532,-0.741071879863739
-0.0685961693525314,0.2961156666278839,-0.0367154031991958,-0.5502630472183228,-0.089943379163742,-0.0325910560786724,0.0,0.0,0.123392105102539,-0.5553211569786072
-0.069017693400383,0.2834047079086303,-0.0412382893264293,-0.564988911151886,-0.090857483446598,-0.0182819254696369,0.0,0.0,0.9583561420440674,0.0326608419418334
-0.0693538635969162,0.271418809890747,-0.0322818495333194,-0.5327847599983215,-0.092174656689167,-0.026343559846282,0.0,0.0,0.8758571147918701,-0.7010214924812317
-0.0695506110787391,0.2601368725299835,-0.0196291748434305,-0.5014244318008423,-0.0922234505414962,-0.0009757609223015,0.0,0.0,0.7531135082244873,-0.3017482757568359
-0.0697742477059364,0.2494860738515854,-0.0213782973587512,-0.4734294712543487,-0.0931964889168739,-0.0194608569145202,0.0,0.0,0.221224308013916,-0.4351543188095093
-0.0700575858354568,0.2385336458683014,-0.0265226624906063,-0.4868877828121185,-0.0949924886226654,-0.0359198860824108,0.0,0.0,0.7735996246337891,-0.7639063000679016
-0.0702594742178917,0.2281764596700668,-0.0196268744766712,-0.4603562355041504,-0.0955524072051048,-0.0111983735114336,0.0,0.0,-0.0576140284538269,-0.7716867923736572
-0.070518210530281,0.2171487957239151,-0.0267225988209247,-0.4900652170181274,-0.094708502292633,0.0168781466782093,0.0,0.0,0.5937058925628662,-0.5435362458229065
-0.0707993507385253,0.2064332515001297,-0.0295135416090488,-0.4761564433574676,-0.0933252274990081,0.0276652928441762,0.0,0.0,0.3388618230819702,-0.4097335338592529
-0.0710219368338584,0.195884883403778,-0.023193746805191,-0.4687608182430267,-0.0923906341195106,0.0186917260289192,0.0,0.0,0.1276224851608276,-0.0628105998039245
-0.0711324661970138,0.1852406561374664,-0.0118606090545654,-0.4730252623558044,-0.0915892571210861,0.0160275492817163,0.0,0.0,0.7784044742584229,-0.3023488521575928
-0.0711671859025955,0.17446269094944,-0.0039899218827486,-0.4789877533912658,-0.091082639992237,0.0101324720308184,0.0,0.0,0.8340669870376587,-0.117363691329956
-0.0710415840148925,0.1636577397584915,0.0119833908975124,-0.4801831245422363,-0.0905163586139679,0.0113259926438331,0.0,0.0,0.8566521406173706,-0.5056353807449341
-0.0707058906555175,0.1531124413013458,0.031882144510746,-0.4685786068439483,-0.0888441056013107,0.0334449037909507,0.0,0.0,0.926621675491333,-0.6636916399002075
-0.0701899528503418,0.1425524055957794,0.0485487319529056,-0.4691566824913025,-0.0858287140727043,0.0603080578148365,0.0,0.0,0.897625207901001,-0.5404817461967468
-0.0696309059858322,0.1326117813587188,0.0522222630679607,-0.4415991008281708,-0.0821818262338638,0.0729377344250679,0.0,0.0,0.7175860404968262,-0.6850681900978088
-0.0690072998404502,0.1231772005558013,0.0576562099158763,-0.4190640747547149,-0.0775193944573402,0.0932488590478897,0.0,0.0,0.7324413061141968,-0.8673247694969177
-0.0682342499494552,0.1141028255224227,0.0710314661264419,-0.4029940366744995,-0.0713136345148086,0.1241151839494705,0.0,0.0,0.807903528213501,-0.6441079378128052
-0.0673489570617675,0.1048688739538192,0.0810986906290054,-0.410065621137619,-0.0639654323458671,0.1469641774892807,0.0,0.0,0.8843412399291992,-0.5384984612464905
-0.0665130615234375,0.0958329066634178,0.0757047906517982,-0.4012804925441742,-0.0561654791235923,0.1559989601373672,0.0,0.0,0.9381983280181884,-0.4078603982925415
-0.0655013099312782,0.0876245573163032,0.0932661443948745,-0.364542543888092,-0.048344325274229,0.1564231514930725,0.0,0.0,0.4398281574249267,-0.1384578943252563
-0.0644657164812088,0.0794805884361267,0.0961816236376762,-0.3617314994335174,-0.0410569719970226,0.1457469761371612,0.0,0.0,0.9061073064804076,-0.7845840454101562
-0.0635902434587478,0.0720527991652488,0.0793803632259368,-0.3299251198768616,-0.0329907871782779,0.1613237559795379,0.0,0.0,0.5902140140533447,0.5134773254394531
-0.0625417679548263,0.0649478733539581,0.097911424934864,-0.3156378865242004,-0.0261486265808343,0.1368434280157089,0.0,0.0,0.2381608486175537,-0.3466503620147705
-0.0614981651306152,0.058007251471281,0.0980732664465904,-0.3083761930465698,-0.0199361685663461,0.1242493540048599,0.0,0.0,0.8061009645462036,0.5100939273834229
-0.0604728683829307,0.0516188703477382,0.0979923158884048,-0.2838724255561828,-0.0154622755944728,0.0894776955246925,0.0,0.0,0.3928183317184448,-0.1999359130859375
-0.0594411864876747,0.0451798550784587,0.0991894900798797,-0.2861423194408417,-0.0115317534655332,0.0786106064915657,0.0,0.0,0.5565168857574463,-0.1695495843887329
-0.0584918037056922,0.0389116369187831,0.091928482055664,-0.2785652577877044,-0.0085570141673088,0.059494636952877,0.0,0.0,0.7373993396759033,0.788084864616394
-0.0576278679072856,0.032788261771202,0.085760124027729,-0.272147387266159,-0.0079381894320249,0.0123764649033546,0.0,0.0,0.7460546493530273,0.8657193183898926
-0.0565441139042377,0.0271258689463138,0.109729990363121,-0.2516728639602661,-0.0092748245224356,-0.0267326533794403,0.0,0.0,0.7603974342346191,-0.8167910575866699
-0.0554280281066894,0.0213647708296775,0.1116324812173843,-0.256047248840332,-0.0093002952635288,-0.0005095031810924,0.0,0.0,0.9590559005737304,-0.6348472237586975
-0.0541481003165245,0.0162825919687747,0.1266923695802688,-0.2258652746677398,-0.0080221146345138,0.0255637355148792,0.0,0.0,0.7967456579208374,-0.932941436767578
-0.0529414191842079,0.0117942905053496,0.1180027872323989,-0.1994676142930984,-0.0053841546177864,0.0527590736746788,0.0,0.0,0.6038482189178467,-0.6604020595550537
-0.0516098961234092,0.0078762266784906,0.1292748898267746,-0.1741284281015396,-0.0015547558432444,0.0765879303216934,0.0,0.0,0.3541648387908935,-0.8274554014205933
-0.0502505302429199,0.0039899921976029,0.1307636499404907,-0.1727258414030075,0.003548931563273,0.1020738705992698,0.0,0.0,0.3697407245635986,-0.9490734934806824
-0.0489538200199604,0.0004474735178519,0.1230520606040954,-0.1574742048978805,0.0100823426619172,0.1306679397821426,0.0,0.0,0.2677772045135498,-0.5538609623908997
-0.0477649681270122,-0.0021948956418782,0.1309660822153091,-0.1174141317605972,-0.0018593400018289,-0.2388567179441452,0.0,1.0,0.2319474220275879,-0.0600073337554931
-0.0466545112431049,-0.0038077973295003,0.1236909851431846,-0.0717636048793792,-0.01427289750427,-0.2481782138347625,1.0,1.0,0.8854736089706421,-0.9808582663536072
-0.0458576194941997,-0.0038974904455244,0.0895091369748115,-0.0041255401447415,-0.0239169094711542,-0.1928018778562545,1.0,1.0,-0.0576265454292297,-0.9767041206359864
-0.0451558120548725,-0.0037403129972517,0.069023810327053,0.0069907917641103,-0.0227225571870803,0.0239490158855915,1.0,1.0,-0.2932214736938476,-0.9832538962364196
-0.0446230880916118,-0.0032046579290181,0.0492086336016655,0.0238540843129158,-0.018681026995182,0.0808776766061782,1.0,1.0,-0.7260043025016785,-0.9185227155685424
-0.0442442893981933,-0.0024222040083259,0.0319570451974868,,-0.0128159802407026,0.1173325404524803,1.0,1.0,-0.8869931697845459,-0.104801058769226
-0.0438930504024028,-0.0015815639635547,0.0287159383296966,0.0374020747840404,-0.0064686415717005,0.1269609630107879,1.0,1.0,-0.7585287690162659,0.413806676864624
-0.0435482040047645,-0.0008076929952949,0.0285731442272663,0.0344090089201927,-0.0006086628418415,0.117216095328331,1.0,1.0,-0.7106911540031433,0.54150390625
-0.0432027801871299,-0.000651910318993,0.0333123579621315,0.0069227204658091,0.0005999956629239,0.0241728089749813,1.0,1.0,-0.0909802317619323,-0.3285940885543823
-0.0429173484444618,-0.0006550574325956,0.028542336076498,-0.0001383725029882,0.0005982466391287,-3.3958698622882366e-05,1.0,1.0,-0.558249294757843,-0.3188583850860595
