x_pos,y_pos,x_vel,y_vel,angle,ang_vel,leg_1,leg_2,main_booster,lat_booster
-0.0015010833740234,1.4031412601470947,-0.1524454355239868,-0.3457326591014862,0.0020911246538162,0.0412740185856819,0.0,0.0,-0.6405587196350098,0.910308837890625
-0.0029021264053881,1.3948979377746582,-0.1405216604471206,-0.3663707077503204,0.0025075052399188,0.0083291130140423,0.0,0.0,-0.1797354221343994,0.5556153059005737
-0.0042272568680346,1.3861669301986694,-0.1319130361080169,-0.3880443572998047,0.0019132564775645,-0.0118861179798841,0.0,0.0,-0.490990400314331,0.909769892692566
-0.0054725646041333,1.376949667930603,-0.1228013485670089,-0.4096542596817016,0.0002048662863671,-0.0341712087392807,0.0,0.0,-0.4029507637023926,0.5597591400146484
-0.0066421506926417,1.3672508001327517,-0.1142023429274559,-0.4310577511787414,-0.0025176762137562,-0.0544560141861438,0.0,0.0,0.25616455078125,0.2366225719451904
-0.0076842308044433,1.3576878309249878,-0.1022835150361061,-0.4250278770923614,-0.0044122706167399,-0.0378955975174903,0.0,0.0,-0.5060551166534424,-0.1531136035919189
-0.0087042804807424,1.3476413488388062,-0.1004210487008094,-0.4465154409408569,-0.0059797400608658,-0.0313522890210151,0.0,0.0,-0.3041329979896545,0.390342116355896
-0.0097026824951171,1.337111473083496,-0.0985784381628036,-0.4679957926273346,-0.007220254279673,-0.0248127430677413,0.0,0.0,-0.3357418775558471,-0.4425346851348877
-0.0106795309111475,1.3260984420776367,-0.0967577844858169,-0.489477276802063,-0.0081351343542337,-0.0182993896305561,0.0,0.0,0.3322227001190185,0.4452776908874511
-0.0116310119628906,1.3154805898666382,-0.0945441573858261,-0.4719113707542419,-0.0087286597117781,-0.0118717597797513,0.0,0.0,-0.103708267211914,-0.3510094881057739
-0.0125615121796727,1.304379105567932,-0.0927731990814209,-0.4934006631374359,-0.0089990086853504,-0.0054075457155704,0.0,0.0,0.6618947982788086,0.6225185394287109
-0.0133405681699514,1.293588399887085,-0.0769010037183761,-0.4795949757099151,-0.0099894320592284,-0.0198103841394186,0.0,0.0,-0.9328080415725708,-0.7516544461250305
-0.0141456602141261,1.2823185920715332,-0.0810113102197647,-0.5008739829063416,-0.0094906548038125,0.0099763832986354,0.0,0.0,-0.1905900239944458,0.3577249050140381
-0.0149307250976562,1.2705655097961426,-0.0793328732252121,-0.5223532319068909,-0.0086738169193267,0.0163381900638341,0.0,0.0,-0.8623542785644531,-0.1709305644035339
-0.0156961437314748,1.258329153060913,-0.0776900798082351,-0.5438340306282043,-0.0075397123582661,0.0226844474673271,0.0,0.0,-0.3179192543029785,0.0084445476531982
-0.0164422988891601,1.2456092834472656,-0.0760865956544876,-0.565316379070282,-0.0060903192497789,0.028990551829338,0.0,0.0,-0.4394160509109497,-0.0522782206535339
-0.0171697624027729,1.2324062585830688,-0.0745254606008529,-0.5867988467216492,-0.0043275780044496,0.0352580584585666,0.0,0.0,-0.3758319616317749,-0.4644365906715393
-0.0178788192570209,1.2187198400497437,-0.0730101093649864,-0.6082813739776611,-0.0022535526659339,0.0414841398596763,0.0,0.0,-0.1719768643379211,-0.4630130529403686
-0.0185701362788677,1.2045501470565796,-0.0715442672371864,-0.629764199256897,0.0001294981193495,0.0476656667888164,0.0,0.0,-0.2130563259124755,-0.2454486489295959
-0.0192442890256643,1.1898971796035769,-0.0701318010687828,-0.6512471437454224,0.0028192263562232,0.0537993796169757,0.0,0.0,-0.4470747709274292,-0.2644035816192627
-0.0199017524719238,1.1747610569000244,-0.0687768012285232,-0.6727303266525269,0.0058130370453,0.0598817951977252,0.0,0.0,-0.542137861251831,0.0725836753845214
-0.0205432884395122,1.1591415405273438,-0.0674834698438644,-0.6942138075828552,0.0091081978753209,0.0659089908003807,0.0,0.0,-0.4795624017715454,0.3940125703811645
-0.0211695674806833,1.143038988113403,-0.0662562027573585,-0.7156975269317627,0.0127017209306359,0.0718769580125808,0.0,0.0,-0.0146109461784362,0.8158190250396729
-0.0217090602964162,1.1264455318450928,-0.0560575947165489,-0.7375080585479736,0.0147809637710452,0.0415883921086788,0.0,0.0,-0.4505372643470764,0.1293137073516845
-0.0222347266972064,1.1093688011169434,-0.0549702160060405,-0.7589916586875916,0.0171529129147529,0.0474434420466423,0.0,0.0,0.3880722522735595,-0.3059243559837341
-0.0228797905147075,1.0926713943481443,-0.0666213780641555,-0.7421313524246216,0.0192465279251337,0.0418721176683902,0.0,0.0,0.4481017589569092,0.1561790704727172
-0.0235214233398437,1.0764460563659668,-0.0665948316454887,-0.721167266368866,0.0216404050588607,0.0478777214884758,0.0,0.0,-0.3052446842193603,0.341104507446289
-0.0241518970578908,1.059737205505371,-0.0657510980963707,-0.7426487803459167,0.0243150703608989,0.0534930825233459,0.0,0.0,-0.3120971918106079,0.6133739948272705
-0.0247340202331542,1.0425517559051514,-0.0602375194430351,-0.7638280391693115,0.0263099763542413,0.0398980528116226,0.0,0.0,0.8324325084686279,0.0592873096466064
-0.0253443717956542,1.0256932973861694,-0.0632214024662971,-0.7493082880973816,0.0284685604274272,0.0431716628372669,0.0,0.0,0.4172252416610718,0.7821849584579468
-0.025887394323945,1.0094528198242188,-0.0552111379802227,-0.7218194603919983,0.0293625704944133,0.0178802274167537,0.0,0.0,0.2461564540863037,-0.489334762096405
-0.026491641998291,0.9932219982147216,-0.0613159239292144,-0.7213830947875977,0.030245779082179,0.0176644828170537,0.0,0.0,-0.2430065274238586,-0.1999022960662841
-0.0270897857844829,0.9765082001686096,-0.0609657764434814,-0.7428643107414246,0.0313836522400379,0.0227576307952404,0.0,0.0,0.8556838035583496,-0.1400794386863708
-0.0277672763913869,0.9599151015281676,-0.0688138753175735,-0.7374942898750305,0.0324384570121765,0.0210959743708372,0.0,0.0,0.1217051744461059,-0.5114533305168152
-0.0284831039607524,0.9434769749641418,-0.0739483311772346,-0.7306373119354248,0.0347752124071121,0.0467352867126464,0.0,0.0,-0.8297609686851501,0.3443989753723144
-0.0291962623596191,0.9265557527542114,-0.0739239752292633,-0.7521189451217651,0.03734577819705,0.0514113679528236,0.0,0.0,0.2737655639648437,0.8827095031738281
-0.0298744197934865,0.9096755385398864,-0.06885776668787,-0.7502549290657043,0.0383697189390659,0.0204790849238634,0.0,0.0,-0.5391220450401306,-0.2561029195785522
-0.0305523872375488,0.8923121690750122,-0.0690531283617019,-0.7717361450195312,0.0396111086010932,0.0248276274651289,0.0,0.0,0.3418413400650024,0.2842410802841186
-0.031290341168642,0.8754894733428955,-0.0751088410615921,-0.7477103471755981,0.0409130342304706,0.0260385572910308,0.0,0.0,-0.3744100928306579,0.0587058067321777
-0.0320303924381732,0.8581835627555847,-0.0755197182297706,-0.7691917419433594,0.0424139350652694,0.0300178937613964,0.0,0.0,-0.1538501977920532,0.5682754516601562
-0.0327367782592773,0.8404017686843872,-0.0714103430509567,-0.7903292179107666,0.0431728772819042,0.0151789532974362,0.0,0.0,0.694434404373169,0.7111465930938721
-0.0332765579223632,0.8229522109031677,-0.0537838041782379,-0.7755296230316162,0.0429911464452743,-0.0036347203422337,0.0,0.0,0.1547447443008422,-0.5539623498916626
-0.0337998382747173,0.8053439259529114,-0.0535657778382301,-0.7826297283172607,0.0442161336541175,0.0244994834065437,0.0,0.0,0.1974464654922485,0.893867015838623
-0.034192182123661,0.787834882736206,-0.0388816855847835,-0.7781676650047302,0.0438584201037883,-0.0071541271172463,0.0,0.0,0.541663646697998,0.6315696239471436
-0.0345953926444053,0.7702476382255554,-0.0387342311441898,-0.7816134691238403,0.0422985777258873,-0.0311968121677637,0.0,0.0,0.596889853477478,0.7356140613555908
-0.0349135398864746,0.7526604533195496,-0.0289822109043598,-0.7815740704536438,0.03950160369277,-0.0559395179152488,0.0,0.0,-0.1200058460235595,-0.6713391542434692
-0.0352888107299804,0.7345835566520691,-0.0360280834138393,-0.8033765554428101,0.0380240529775619,-0.0295509286224842,0.0,0.0,0.4654136896133423,-0.5462801456451416
-0.0358535759150981,0.7171292901039124,-0.0559256561100482,-0.7757335305213928,0.0374794900417327,-0.0108911097049713,0.0,0.0,0.2288728952407837,0.9049105644226074
-0.0364945419132709,0.7000760436058044,-0.0617577917873859,-0.7578650116920471,0.0351658463478088,-0.0462730526924133,0.0,0.0,0.505375862121582,0.4560805559158325
-0.0371831879019737,0.6832333207130432,-0.0665099695324897,-0.7485114336013794,0.0328414551913738,-0.0464878231287002,0.0,0.0,0.2766456604003906,0.1096739768981933
-0.0377882942557334,0.6665744185447693,-0.0587491504848003,-0.7403595447540283,0.0310943946242332,-0.0349409990012645,0.0,0.0,0.073792815208435,0.5532697439193726
-0.0384199135005474,0.6501540541648865,-0.0602527037262916,-0.7297419905662537,0.0282291769981384,-0.0573047399520874,0.0,0.0,-0.5724587440490723,0.8382270336151123
-0.0389872565865516,0.6332491040229797,-0.0518782250583171,-0.7512455582618713,0.023431196808815,-0.0959597527980804,0.0,0.0,-0.3403868675231933,0.0502780675888061
-0.0395695678889751,0.6158611178398132,-0.0533934608101844,-0.7727279663085938,0.0186558421701192,-0.0955071523785591,0.0,0.0,0.5758798122406006,0.2751260995864868
-0.0400340072810649,0.5986916422843933,-0.042277056723833,-0.7630428075790405,0.0145465712994337,-0.0821854919195175,0.0,0.0,0.4910829067230224,0.1894698143005371
-0.0406068786978721,0.5816749930381775,-0.0527179539203643,-0.7562565207481384,0.0100331306457519,-0.0902690216898918,0.0,0.0,0.8618593215942383,0.5238403081893921
-0.0410515777766704,0.5655297636985779,-0.0391519404947757,-0.7175423502922058,0.0047862599603831,-0.1049371361732482,0.0,0.0,-0.2656302452087402,0.0527135133743286
-0.0415133461356163,0.5489014983177185,-0.040832482278347,-0.7390251755714417,-0.0004929415881633,-0.1055841445922851,0.0,0.0,0.4839693307876587,-0.1868035197257995
-0.0419252403080463,0.5328995585441589,-0.0361103042960166,-0.7112082242965698,-0.0055072936229407,-0.1002869009971618,0.0,0.0,-0.2221840620040893,0.2155961990356445
-0.0423551574349403,0.5164145827293396,-0.0378543138504028,-0.7326908111572266,-0.0105800768360495,-0.1014555320143699,0.0,0.0,0.8901841640472412,-0.4913100004196167
-0.0427404418587684,0.5000813007354736,-0.0335941724479198,-0.7259698510169983,-0.0154529083520174,-0.0974569320678711,0.0,0.0,0.305037260055542,0.1246765851974487
-0.043215274810791,0.4840977489948272,-0.0420819595456123,-0.7104414105415344,-0.020775293931365,-0.1064480170607566,0.0,0.0,0.2183361053466797,-0.2108950614929199
-0.0436100959777832,0.4682004749774933,-0.0344290025532245,-0.7066248655319214,-0.0257712770253419,-0.0999194979667663,0.0,0.0,0.771432638168335,-0.6500571966171265
-0.0440317168831825,0.4528075456619262,-0.0383649989962577,-0.6842004060745239,-0.0295142345130443,-0.0748592764139175,0.0,0.0,0.8920786380767822,0.2641406059265136
-0.0444504730403423,0.4376193583011627,-0.0380154959857463,-0.6751079559326172,-0.0333328396081924,-0.0763720348477363,0.0,0.0,0.7468684911727905,-0.3945096731185913
-0.0449993126094341,0.4228916764259338,-0.0502772331237793,-0.654675304889679,-0.0378844030201435,-0.091031290590763,0.0,0.0,0.6986287832260132,0.0223573446273803
-0.0455130562186241,0.4089986085891723,-0.0467328615486621,-0.6175940036773682,-0.0424713157117366,-0.0917381048202514,0.0,0.0,-0.006127119064331,-0.1871225237846374
-0.0460474006831646,0.3946226239204407,-0.0486407130956649,-0.6390768885612488,-0.047205064445734,-0.0946749299764633,0.0,0.0,0.9089336395263672,-0.566145658493042
-0.0465672500431537,0.3812489211559295,-0.0482729710638523,-0.5945088863372803,-0.0508733354508876,-0.0733654052019119,0.0,0.0,0.6182868480682373,-0.7753762602806091
-0.0472475066781044,0.3680957853794098,-0.0655233412981033,-0.5846712589263916,-0.0533490888774395,-0.0495152212679386,0.0,0.0,0.6570101976394653,0.7740883827209473
-0.0479527488350868,0.3554832637310028,-0.0660924240946769,-0.5607190728187561,-0.0577284060418605,-0.0875861495733261,0.0,0.0,0.0933949947357177,0.6382570266723633
-0.0485821738839149,0.3429996073246002,-0.0570758357644081,-0.5550669431686401,-0.063528686761856,-0.1160056143999099,0.0,0.0,-0.930660367012024,-0.6246361136436462
-0.0492926612496376,0.3300458192825317,-0.0665229111909866,-0.5759225487709045,-0.0680053457617759,-0.0895329564809799,0.0,0.0,0.9300013780593872,-0.4483804106712341
-0.0498931892216205,0.3176099061965942,-0.0557447783648967,-0.552907407283783,-0.0722791254520416,-0.0854755118489265,0.0,0.0,0.6754739284515381,-0.8752632141113281
-0.0505943298339843,0.3052892684936523,-0.0672942996025085,-0.547723114490509,-0.0750730112195015,-0.0558776445686817,0.0,0.0,0.7607501745223999,-0.2302939891815185
-0.0512192733585834,0.2929956614971161,-0.0597912557423114,-0.5465203523635864,-0.0777381807565689,-0.0533035099506378,0.0,0.0,0.1246943473815918,-0.4790115356445312
-0.0518695823848247,0.2805670797824859,-0.06203094124794,-0.5525386929512024,-0.0807150304317474,-0.0595366582274436,0.0,0.0,0.580049991607666,-0.4863017797470093
-0.0524889007210731,0.2687907516956329,-0.0586686953902244,-0.5235728621482849,-0.0839463397860527,-0.0646261274814605,0.0,0.0,0.9097638130187988,-0.8121641278266907
-0.0530142784118652,0.2579443454742431,-0.0508953630924224,-0.4821548163890838,-0.0855666920542717,-0.0324071161448955,0.0,0.0,-0.5496603846549988,0.153688907623291
-0.0535618774592876,0.2466148883104324,-0.0529009625315666,-0.5036371350288391,-0.0874139368534088,-0.036944955587387,0.0,0.0,0.4289301633834839,-0.8853184580802917
-0.0543037429451942,0.2352471947669983,-0.0737261548638343,-0.5052563548088074,-0.0878699049353599,-0.0091194976121187,0.0,0.0,0.3241416215896606,-0.5355733036994934
-0.0550193786621093,0.2243489176034927,-0.0720222443342208,-0.4843425750732422,-0.0874143689870834,0.0091107506304979,0.0,0.0,-0.0395848751068115,0.5791242122650146
-0.0557196624577045,0.2129624634981155,-0.0692739337682724,-0.5061053037643433,-0.0881574973464012,-0.0148625327274203,0.0,0.0,0.6919279098510742,0.1674048900604248
-0.0564372055232524,0.2021377235651016,-0.0705095157027244,-0.4811772108078003,-0.0894026830792427,-0.0249035079032182,0.0,0.0,-0.1616200804710388,0.0006636381149291
-0.0571775436401367,0.1908298879861831,-0.0725313127040863,-0.5026596784591675,-0.0908933207392692,-0.0298125687986612,0.0,0.0,0.4996688365936279,-0.5440303683280945
-0.057850457727909,0.1798223108053207,-0.066846989095211,-0.4892529547214508,-0.0913390666246414,-0.0089149316772818,0.0,0.0,0.4598966836929321,0.5949397087097168
-0.0584494583308696,0.1687681823968887,-0.0580455437302589,-0.4914088845252991,-0.0931733250617981,-0.036685325205326,0.0,0.0,0.6048984527587891,0.4728350639343261
-0.0589451789855957,0.1578026562929153,-0.0478808134794235,-0.4874620139598846,-0.0948443412780761,-0.0334206111729145,0.0,0.0,0.9692859649658204,0.0895251035690307
-0.0592246055603027,0.1473456919193267,-0.026821156963706,-0.4648263156414032,-0.0959600657224655,-0.0223144926130771,0.0,0.0,0.8539643287658691,-0.6334297060966492
-0.0593674667179584,0.1370447278022766,-0.0146100297570228,-0.4577987790107727,-0.0956415310502052,0.0063708983361721,0.0,0.0,0.9514800310134888,-0.7873848080635071
-0.0595174804329872,0.1276014894247055,-0.0166187696158885,-0.419596254825592,-0.0940277054905891,0.0322763547301292,0.0,0.0,0.7164430618286133,-0.3016895055770874
-0.0595843307673931,0.1188476160168647,-0.0081979585811495,-0.3889646232128143,-0.0925268605351448,0.0300167556852102,0.0,0.0,0.3968625068664551,-0.7979040145874023
-0.0595667846500873,0.1104486584663391,-0.0012625434901565,-0.3731069266796112,-0.0895398631691932,0.0597402527928352,0.0,0.0,0.5618389844894409,-0.701774537563324
-0.0594961158931255,0.1020138561725616,0.0026951276231557,-0.3746223151683807,-0.0852145552635192,0.0865061953663826,0.0,0.0,0.7110927104949951,-0.4674762487411499
-0.0594578757882118,0.0938915610313415,-1.4594865206163377e-05,-0.3607789278030395,-0.0814068242907524,0.0761545747518539,0.0,0.0,0.5995229482650757,-0.2909947633743286
-0.059292983263731,0.0865252092480659,0.0125333946198225,-0.3271832466125488,-0.0774869844317436,0.0783965736627578,0.0,0.0,0.5569324493408203,-0.2278320789337158
-0.0591314323246479,0.079480655491352,0.0125678274780511,-0.3129101097583771,-0.0739367008209228,0.0710060149431228,0.0,0.0,-0.1959030032157898,-0.1637453436851501
-0.058992862701416,0.0719532370567321,0.0105375740677118,-0.3343933224678039,-0.0706550255417823,0.0656333714723587,0.0,0.0,0.7497097253799438,-0.2791768908500671
-0.0587331764400005,0.0650388598442077,0.0224926397204399,-0.307142049074173,-0.0672162994742393,0.0687744840979576,0.0,0.0,0.4251352548599243,-0.0213920474052429
-0.0584991462528705,0.0586148612201213,0.0204220246523618,-0.2853797376155853,-0.0642611011862754,0.0591038055717945,0.0,0.0,0.0433439016342163,0.3618654012680053
-0.0583098419010639,0.0524207465350627,0.0164644159376621,-0.275189459323883,-0.0618179328739643,0.0488634556531906,0.0,0.0,0.2110856771469116,0.4627249240875244
-0.0581390373408794,0.0462917909026145,0.0149615807458758,-0.2723111808300018,-0.0597297102212905,0.0417645387351512,0.0,0.0,0.3244907855987549,0.6398286819458008
-0.0580150596797466,0.0404070951044559,0.012036227621138,-0.2615290880203247,-0.0593715906143188,0.0071622743271291,0.0,0.0,0.2686411142349243,0.3864616155624389
-0.0580055229365825,0.0346517190337181,0.0014096645172685,-0.2558106482028961,-0.0598188117146492,-0.0089445440098643,0.0,0.0,0.7792763710021973,0.9345009326934814
-0.0577716827392578,0.0295596700161695,0.0257894657552242,-0.2264134287834167,-0.0621952675282955,-0.0475289151072502,0.0,0.0,0.2460023164749145,0.3820382356643677
-0.057497214525938,0.0243968814611434,0.029906740412116,-0.229562908411026,-0.0646282956004142,-0.0486602969467639,0.0,0.0,0.4100152254104614,0.6894283294677734
-0.0570121780037879,0.0197125300765037,0.0523778386414051,-0.2083645015954971,-0.0684608742594719,-0.0766515582799911,0.0,0.0,-0.080103576183319,0.0586805343627929
-0.0565499290823936,0.0145453782752156,0.0503700263798236,-0.2298477292060852,-0.0725633352994918,-0.0820491462945938,0.0,0.0,0.8167974948883057,-0.34969162940979
-0.0558857917785644,0.0102840280160307,0.0700982436537742,-0.1895745545625686,-0.076209433376789,-0.072921983897686,0.0,0.0,-0.1539116501808166,-0.3340086936950683
-0.055244255810976,0.005539879668504,0.0680988505482673,-0.2110578864812851,-0.0801242813467979,-0.0782968252897262,1.0,0.0,0.8917937278747559,-0.0283201336860656
-0.0544543266296386,0.0024682856164872,0.0649018883705139,-0.1362055391073227,-0.0649915561079979,0.304176777601242,1.0,0.0,0.7849893569946289,-0.7426262497901917
-0.0534847266972065,0.0007059311610646,0.0652951747179031,-0.0772644355893135,-0.0336330831050872,0.6272422671318054,1.0,0.0,-0.092442512512207,0.0683428049087524
-0.0524765029549598,-0.0012827658792957,0.0623975321650505,-0.0879760161042213,0.0043567554093897,0.7598768472671509,1.0,0.0,0.7772736549377441,0.7426184415817261
-0.0518050193786621,-0.0022044801153242,0.0522064752876758,-0.0410891585052013,0.0190516803413629,0.2938266396522522,1.0,1.0,-0.1985326409339904,0.4400335550308227
-0.0513094887137413,-0.0027661346830427,0.04513506218791,-0.0250353869050741,0.0233750622719526,0.0864190831780433,1.0,1.0,-0.569327712059021,-0.3772334456443786
-0.0509583465754985,-0.0028003954794257,0.0358910523355007,-0.001523669110611,0.0226031765341758,-0.0154602779075503,1.0,1.0,-0.5375164747238159,0.0538094043731689
-0.0507226958870887,-0.0023043297696858,0.0273514036089181,0.0220934376120567,0.0188379306346178,-0.0753359943628311,1.0,1.0,-0.5802156329154968,-0.361740231513977
-0.0505139343440532,-0.0015108251245692,0.0268712453544139,0.035326462239027,0.0128880254924297,-0.1190233379602432,1.0,1.0,-0.6121082901954651,-0.0187060236930847
-0.0503171905875206,-0.0005905056023038,0.0266542080789804,0.0409439429640769,0.0059797121211886,-0.1381860077381134,1.0,1.0,-0.5711064338684082,-0.8221268653869629
-0.0501570701599121,-0.0001437568716937,0.019524848088622,0.0198664683848619,0.0025156198535114,-0.0692816227674484,1.0,1.0,-0.2542535066604614,-0.349746823310852
