x_pos,y_pos,x_vel,y_vel,angle,ang_vel,leg_1,leg_2,main_booster,lat_booster
-0.0015128136146813,1.402945041656494,-0.1534467786550521,-0.3544405698776245,0.0019391656387597,0.0382650047540664,0.0,0.0,-0.2654340267181396,0.6903352737426758
-0.0029519081581383,1.3943108320236206,-0.1444976776838302,-0.3837429881095886,0.0025189099833369,0.0115966144949197,0.0,0.0,0.2037774324417114,0.7587306499481201
-0.0042027472518384,1.3854334354400637,-0.1244511753320694,-0.3945463299751282,0.001903130672872,-0.0123168742284178,0.0,0.0,0.1148675680160522,0.6594345569610596
-0.0054700849577784,1.376380205154419,-0.1248279064893722,-0.4023648798465729,2.2143962269183248e-05,-0.0376232303678989,0.0,0.0,-0.0016130208969116,0.2242189645767212
-0.0067107202485203,1.366647720336914,-0.122331365942955,-0.432557463645935,-0.0016927841352298,-0.0343018248677253,0.0,0.0,-0.0741268992424011,0.8408099412918091
-0.0078398706391453,1.3562345504760742,-0.1092859506607055,,-0.0052869594655931,-0.0718900933861732,0.0,0.0,0.5300800800323486,0.6879465579986572
-0.0089011192321777,1.3459445238113403,-0.1012360826134681,-0.4573639035224914,-0.0101294377818703,-0.0968584269285202,0.0,0.0,0.4344840049743652,0.2283297777175903
-0.0097897527739405,1.3358157873153689,-0.0847556442022323,-0.4501981139183044,-0.0141938040032982,-0.081294760107994,0.0,0.0,-0.1678367257118225,0.4752652645111084
-0.0106379510834813,1.3250079154968262,-0.0808715149760246,-0.4803926348686218,-0.0181014947593212,-0.0781608745455741,0.0,0.0,-0.6309967041015625,-0.9369441866874696
-0.0115164760500192,1.3135287761688232,-0.0859375447034835,-0.5102084875106812,-0.0199945326894521,-0.0378640666604042,0.0,0.0,-0.1337233185768127,-0.7454026937484741
-0.0123989107087254,1.301372528076172,-0.0877627208828926,-0.5402910709381104,-0.0204692110419273,-0.0094946976751089,0.0,0.0,0.0886119604110717,-0.3958384990692138
-0.0131784435361623,1.2890572547912598,-0.0778439939022064,-0.5473423004150391,-0.0205727685242891,-0.0020713750272989,0.0,0.0,0.0138018131256103,-0.3209586143493652
-0.0138172153383493,1.2767038345336914,-0.0643085688352584,-0.5490309000015259,-0.0201497711241245,0.0084610898047685,0.0,0.0,-0.5972044467926025,-0.8591775894165039
-0.0144617082551121,1.2636650800704956,-0.0665504783391952,-0.5794785022735596,-0.0180722847580909,0.0415534749627113,0.0,0.0,-0.4046200513839721,-0.5778027772903442
-0.0150842666625976,1.2499539852142334,-0.0653896182775497,-0.6093478798866272,-0.0149727007374167,0.0619971826672554,0.0,0.0,-0.6774264574050903,-0.8822728395462036
-0.0157049186527729,1.2355546951293943,-0.066783882677555,-0.6399277448654175,-0.0102994749322533,0.0934728160500526,0.0,0.0,-0.6583245396614075,-0.4520865082740783
-0.0162643436342477,1.2204763889312744,-0.0608092136681079,-0.6701192259788513,-0.0054868594743311,0.096261166036129,0.0,0.0,-0.6374402046203613,-0.3200806975364685
-0.0167605392634868,1.204719305038452,-0.0546290203928947,-0.7003108859062195,-0.000536105420906,0.0990240424871444,0.0,0.0,-0.6070473790168762,0.2927191257476806
-0.0171916969120502,1.188283085823059,-0.0482558533549308,-0.7305030226707458,0.0045505133457481,0.1017415970563888,0.0,0.0,-0.1309599876403808,0.4179022312164306
-0.0175559036433696,1.171168088912964,-0.0417012088000774,-0.7606953978538513,0.0097710443660616,0.1044199019670486,0.0,0.0,0.1405980587005615,0.7634298801422119
-0.0176954269409179,1.154160499572754,-0.0179217122495174,-0.7559219598770142,0.0136965913698077,0.0785180330276489,0.0,0.0,0.1256417036056518,0.349867582321167
-0.0177608486264944,1.1369261741638184,-0.0106842601671814,-0.7660173177719116,0.0177899785339832,0.0818750187754631,0.0,0.0,-0.3215599060058594,0.4942858219146728
-0.0177546497434377,1.1190125942230225,-0.0036465818993747,-0.7962093949317932,0.0220115017145872,0.0844378471374511,0.0,0.0,-0.0428921580314636,0.2467440366744995
-0.0176753997802734,1.1004202365875244,0.0035305921919643,-0.8264017701148987,0.0263594835996627,0.0869671404361724,0.0,0.0,0.5814986228942871,0.8417201042175293
-0.0176230426877737,1.082071304321289,0.002639353275299,-0.8155491948127747,0.0289223138242959,0.0512612871825695,0.0,0.0,-0.013379156589508,0.541949987411499
-0.0174622535705566,1.0630260705947876,0.0141872661188244,-0.8464911580085754,0.0307915415614843,0.0373845212161541,0.0,0.0,0.3633270263671875,0.5204217433929443
-0.0171985626220703,1.044205665588379,0.0253888927400112,-0.8364776372909546,0.0317551903426647,0.0192728675901889,0.0,0.0,0.005713939666748,0.3035930395126343
-0.0169525146484375,1.0254557132720947,0.0238753501325845,-0.8333513736724854,0.0324715077877044,0.014326605014503,0.0,0.0,0.5050960779190063,-0.147318959236145
-0.0167695041745901,1.0070786476135254,0.0180166400969028,-0.8167661428451538,0.0327572971582412,0.0057157049886882,0.0,0.0,0.5031821727752686,0.1583411693572998
-0.0165403373539447,0.9886864423751832,0.022589324042201,-0.8174356818199158,0.0330727584660053,0.006309232674539,0.0,0.0,0.3120591640472412,0.5537762641906738
-0.0161931999027729,0.9706323742866516,0.0353636965155601,-0.8023909330368042,0.0324371792376041,-0.012711894698441,0.0,0.0,-0.2174256443977356,-0.5261059999465942
-0.0158117301762104,0.95189368724823,0.0374771766364574,-0.8328434824943542,0.0330989956855773,0.0132363494485616,0.0,0.0,0.6168043613433838,0.5253744125366211
-0.0154192922636866,0.9336546659469604,0.0397462025284767,-0.8106133937835693,0.0325985997915267,-0.0100079476833343,0.0,0.0,-0.461161732673645,0.3888239860534668
-0.0149443624541163,0.9147364497184752,0.0478806570172309,-0.8408019542694092,0.032210785895586,-0.0077561452053487,0.0,0.0,0.598383903503418,0.2395150661468505
-0.0143902776762843,0.8960494995117188,0.0556189008057117,-0.830524742603302,0.0320067964494228,-0.0040797432884573,0.0,0.0,0.3751226663589477,0.2987791299819946
-0.0137575147673487,0.877627968788147,0.063290923833847,-0.8187355399131775,0.0319822505116462,-0.000490792968776,0.0,0.0,-0.1186506748199462,-0.0830050706863403
-0.0130408285185694,0.8585271835327148,0.0715794712305069,-0.8489242196083069,0.0320655666291713,0.0016664465656504,0.0,0.0,0.5841031074523926,0.5119370222091675
-0.0121837612241506,0.8398492932319641,0.086441770195961,-0.8301157355308533,0.0313406474888324,-0.0144985066726803,0.0,0.0,-0.0383386611938476,0.6389386653900146
-0.0111948968842625,0.8205015063285828,0.1007189154624939,-0.8598652482032776,0.0295313000679016,-0.0361870005726814,0.0,0.0,0.1256067752838134,-0.6571754217147827
-0.0101635931059718,0.8010950088500977,0.1035092249512672,-0.8625056147575378,0.0291589088737964,-0.0074475454166531,0.0,0.0,-0.3522353172302246,-0.0373342633247375
-0.0090470314025878,0.7810091972351074,0.111930526793003,-0.8926941156387329,0.0288867391645908,-0.0054434295743703,0.0,0.0,-0.4220039844512939,-0.2855317592620849
-0.0078450199216604,0.7602443099021912,0.1203731745481491,-0.922882616519928,0.0287125296890735,-0.0034843042958527,0.0,0.0,0.3694304227828979,-0.5519869923591614
-0.0065209390595555,0.739185631275177,0.1311769038438797,-0.9359604716300964,0.0299277435988187,0.0243041347712278,0.0,0.0,0.6028183698654175,-0.7128700017929077
-0.0050772665999829,0.7182176113128662,0.1413873136043548,-0.9319744110107422,0.0328656695783138,0.0587588734924793,0.0,0.0,0.1577601432800293,-0.7046014070510864
-0.0036425590515136,0.6968672275543213,0.1390307545661926,-0.9490073919296264,0.0372590906918048,0.0878683254122734,0.0,0.0,0.945469856262207,-0.6986784934997559
-0.0021334649063646,0.6754209995269775,0.1448175609111786,-0.9533313512802124,0.0432746261358261,0.1203105002641677,0.0,0.0,0.995609164237976,-0.781535267829895
-0.0005438804510049,0.6541019678115845,0.1510305106639862,-0.9477587342262268,0.0511128604412078,0.1567647159099578,0.0,0.0,0.9865527153015136,0.2323255538940429
0.0009451865917071,0.6335961222648621,0.1415282487869262,-0.9116418957710266,0.0584062114357948,0.1458669602870941,0.0,0.0,0.870180606842041,0.4270942211151123
0.0023178099654614,0.6137346625328064,0.1305061280727386,-0.8830159306526184,0.0650813803076744,0.1335036754608154,0.0,0.0,0.9734983444213868,0.6370210647583008
0.0037595748435705,0.5941041707992554,0.1387117207050323,-0.8727104663848877,0.0704889819025993,0.1081520095467567,0.0,0.0,0.969973087310791,-0.5141704082489014
0.0053781508468091,0.574828565120697,0.1547463983297348,-0.8570436835289001,0.0775358974933624,0.140938326716423,0.0,0.0,0.9678068161010742,0.6186137199401855
0.0069892881438136,0.5561878681182861,0.1553788036108017,-0.8287827968597412,0.0832135453820228,0.1135529726743698,0.0,0.0,0.5808660984039307,0.4205654859542846
0.0087539674714207,0.5375174283981323,0.1701817959547042,-0.8301601409912109,0.0894335359334945,0.1243998259305954,0.0,0.0,0.820265531539917,0.4829293489456177
0.0105278016999363,0.5194818377494812,0.1710433661937713,-0.801974892616272,0.0957228690385818,0.1257867813110351,0.0,0.0,0.9207297563552856,0.0756675004959106
0.0125037189573049,0.5016388297080994,0.1904054135084152,-0.7934984564781189,0.1028608530759811,0.1427595466375351,0.0,0.0,0.9333457946777344,0.1785260438919067
0.0143953319638967,0.4839228093624115,0.1824509352445602,-0.7878549695014954,0.1095227897167205,0.1332384049892425,0.0,0.0,0.7457351684570312,0.0527925491333007
0.0163766853511333,0.4668002128601074,0.1909281313419342,-0.7615505456924438,0.1166789457201957,0.1431231051683426,0.0,0.0,0.8877546787261963,-0.1444202661514282
0.0185072906315326,0.4501747488975525,0.2051109075546264,-0.739550769329071,0.124592438340187,0.158269852399826,0.0,0.0,0.5226618051528931,0.4377864599227905
0.0206938739866018,0.4340132474899292,0.2103727608919143,-0.719005286693573,0.1328451484441757,0.1650542914867401,0.0,0.0,0.2058897018432617,0.4798328876495361
0.0228307731449604,0.4180150628089905,0.2056504786014557,-0.7117674946784973,0.1408538818359375,0.1601746678352356,0.0,0.0,0.7067341804504395,0.2014942169189453
0.0250469204038381,0.401917815208435,0.2133405953645706,-0.7162384390830994,0.1491126269102096,0.1651747822761535,0.0,0.0,0.6886914968490601,0.1911823749542236
0.0271352771669626,0.3861828148365021,0.2010397911071777,-0.7001333832740784,0.1568944603204727,0.1556367874145507,0.0,0.0,0.6767957210540771,0.191044807434082
0.0293446537107229,0.3705763816833496,0.2125853300094604,-0.694518506526947,0.1652450561523437,0.1670119911432266,0.0,0.0,0.8465756177902222,0.2988231182098388
0.0315458290278911,0.3553117513656616,0.2116701900959015,-0.679386556148529,0.1736978441476822,0.1690558344125747,0.0,0.0,0.6853435039520264,0.3257176876068115
0.0337617881596088,0.3399749994277954,0.2131560146808624,-0.6826422214508057,0.1821591705083847,0.1692266166210174,0.0,0.0,0.9767978191375732,0.0625419616699218
0.0357807166874408,0.3249627947807312,0.1941884160041809,-0.6681762933731079,0.1898981630802154,0.1547798663377761,0.0,0.0,0.965351700782776,0.3898646831512451
0.0377084724605083,0.3107788562774658,0.1850081533193588,-0.6314120888710022,0.1977092325687408,0.1562213748693466,0.0,0.0,0.9888510704040528,0.7691261768341064
0.0398077964782714,0.2964744567871094,0.2035161703824997,-0.6366220116615295,0.2041732370853424,0.1292800605297088,0.0,0.0,0.8741168975830078,-0.1523988246917724
0.0418148040771484,0.2829229831695556,0.1942110508680343,-0.603199303150177,0.2107152938842773,0.1308415830135345,0.0,0.0,0.8359377384185791,-0.5232764482498169
0.0436359420418739,0.2694141864776611,0.1749872416257858,-0.601424515247345,0.2179199457168579,0.1440930515527725,0.0,0.0,0.6511831283569336,-0.2449144124984741
0.0452930442988872,0.2561879456043243,0.1590868085622787,-0.5888275504112244,0.2246190905570984,0.133982703089714,0.0,0.0,0.939530611038208,0.5992906093597412
0.0469415672123432,0.2433807998895645,0.1594182550907135,-0.5700443983078003,0.2301260530948639,0.110139176249504,0.0,0.0,0.8421797752380371,0.0079377889633178
0.0483049377799034,0.2312206625938415,0.1316650360822677,-0.5411911010742188,0.2348712533712387,0.0949039459228515,0.0,0.0,0.8347055912017822,0.8987936973571777
0.0497442260384559,0.219372883439064,0.1409884542226791,-0.5270393490791321,0.2378547042608261,0.059668879956007,0.0,0.0,0.8988015651702881,0.5282506942749023
0.0511460304260253,0.2074970602989196,0.1385077834129333,-0.5280844569206238,0.2395436316728592,0.0337788388133049,0.0,0.0,0.9897866249084472,0.909052848815918
0.0526793487370014,0.1955603659152984,0.1534133106470108,-0.5305065512657166,0.2394581735134124,-0.0017092132475227,0.0,0.0,0.9902362823486328,-0.5451968312263489
0.0541000366210937,0.1835049539804458,0.1413080394268036,-0.535920262336731,0.2402330040931701,0.0154963508248329,0.0,0.0,0.994858980178833,0.1416406631469726
0.0553461089730262,0.1721616387367248,0.1240236386656761,-0.5042426586151123,0.2408286333084106,0.0119124669581651,0.0,0.0,0.9957927465438844,0.6380184888839722
0.0565670020878315,0.1616352945566177,0.1226433962583541,-0.4677441418170929,0.2402687519788742,-0.0111976098269224,0.0,0.0,0.9985859394073486,-0.0979233384132385
0.0574810020625591,0.1518214046955108,0.0927083417773246,-0.4359600245952606,0.2389371395111084,-0.0266323033720254,0.0,0.0,0.9800678491592408,-0.9386075735092164
0.0581233017146587,0.1418100446462631,0.0641132146120071,-0.4449700117111206,0.2390485554933548,0.0022285371087491,0.0,0.0,0.9836316108703612,-0.6065037846565247
0.0586007125675678,0.1325086504220962,0.0464456006884574,-0.4136047959327698,0.24036805331707,0.026389816775918,0.0,0.0,0.9739274978637696,0.534095048904419
0.0588864311575889,0.1234986409544944,0.0288675129413604,-0.400400310754776,0.2400733828544616,-0.0058935089036822,0.0,0.0,0.9526015520095824,-0.2257620692253112
0.0589727386832237,0.1149528324604034,0.0093768835067749,-0.3796895444393158,0.2393176108598709,-0.0151154156774282,0.0,0.0,0.9706038236618042,0.8544009923934937
0.0589633956551551,0.1069655045866966,0.0016937432810664,-0.3545667231082916,0.2366372793912887,-0.0536062009632587,0.0,0.0,0.8984575271606445,0.6526657342910767
0.0590024963021278,0.0993295013904571,0.0077500641345977,-0.3387665748596191,0.2327450364828109,-0.0778447911143302,0.0,0.0,0.9105265140533448,0.9705594778060912
0.0591050162911415,0.0916195511817932,0.016123192384839,-0.341746062040329,0.2267824560403823,-0.1192511767148971,0.0,0.0,0.9665811061859132,0.8215771913528442
0.059328269213438,0.0839876979589462,0.0297655668109655,-0.338071346282959,0.2192517071962356,-0.1506150960922241,0.0,0.0,0.9038984775543212,0.8670177459716797
0.05970249325037,0.0767232030630111,0.0464158207178115,-0.3215528726577759,0.2101579308509826,-0.1818756461143493,0.0,0.0,0.9741898775100708,-0.2412707209587097
0.0601849555969238,0.0695235133171081,0.0566658563911914,-0.3188096582889557,0.2016575336456298,-0.1700075417757034,0.0,0.0,0.9706746339797974,-0.8774926662445068
0.0604537017643451,0.0629450902342796,0.0337620303034782,-0.2914527356624603,0.1947224736213684,-0.1387009471654892,0.0,0.0,0.99379301071167,-0.309754729270935
0.0606221184134483,0.0570455901324749,0.0237437058240175,-0.2613080441951751,0.1877799779176712,-0.1388500034809112,0.0,0.0,0.8361291885375977,-0.2489362955093383
0.0608263984322547,0.051598273217678,0.0268892645835876,-0.2413002103567123,0.1812963634729385,-0.1296723335981369,0.0,0.0,0.9250249862670898,-0.7024617791175842
0.061069868505001,0.0460449568927288,0.0292687807232141,-0.2462225258350372,0.1763516664505005,-0.0988937243819236,0.0,0.0,0.9274158477783204,-0.6953532695770264
0.0611248984932899,0.0406556464731693,0.0093919234350323,-0.2390669286251068,0.1724571734666824,-0.0778899267315864,0.0,0.0,0.8504409790039062,0.0498069524765014
0.0611405372619628,0.0360393151640892,0.0051998682320117,-0.204752579331398,0.1688175052404403,-0.072793573141098,0.0,0.0,0.8983473777770996,-0.2966769933700561
0.0610511787235736,0.0317037217319011,-0.0049947211518883,-0.1922481507062912,0.1648697704076767,-0.0789548307657241,0.0,0.0,0.8629564046859741,0.4789072275161743
0.0607055649161338,0.0279815290123224,-0.0297761112451553,-0.1649079024791717,0.1600885391235351,-0.0956246480345726,0.0,0.0,0.4482271671295166,0.3479290008544922
0.0603654868900775,0.0245040990412235,-0.0293911006301641,-0.1540627628564834,0.1554756462574005,-0.0922576859593391,0.0,0.0,0.5412843227386475,0.613797664642334
0.0599369034171104,0.0213878005743026,-0.036708515137434,-0.1378737986087799,0.1493254154920578,-0.1230045929551124,0.0,0.0,0.1534098386764526,0.7054305076599121
0.0594446174800396,0.0183707810938358,-0.0413935296237468,-0.1333240121603012,0.1415034979581833,-0.156438335776329,0.0,0.0,0.3663465976715088,0.2900347709655761
0.058896254748106,0.0152822351083159,-0.0467036291956901,-0.1365182846784591,0.1334019303321838,-0.1620311439037323,0.0,0.0,0.5630183219909668,0.5157344341278076
0.0581606850028038,0.0128274774178862,-0.0521770231425762,-0.1073268577456474,0.1121307983994484,-0.4254235625267029,0.0,1.0,0.8478323221206665,0.1956188678741455
0.057191751897335,0.0105445953086018,-0.0746637806296348,-0.0999416932463646,0.0900816991925239,-0.4409819543361664,0.0,1.0,0.8491201400756836,0.1400364637374878
0.0562683120369911,0.0088063096627593,-0.0706361383199691,-0.076090283691883,0.068581685423851,-0.4300006031990051,0.0,1.0,0.4204815626144409,0.3335812091827392
0.0553754791617393,0.0068750120699405,-0.0677888244390487,-0.0849878340959549,0.0473263151943683,-0.4251077175140381,0.0,0.0,-0.2234393954277038,-0.1029936671257019
0.0545016303658485,0.0042704083025455,-0.0656811967492103,-0.1152131631970405,0.0258874092251062,-0.4287779927253723,0.0,0.0,0.1800214052200317,-0.5293499827384949
0.0535710342228412,0.0018256640760228,-0.0721875131130218,-0.1084261089563369,0.0052820751443505,-0.4121066927909851,0.0,0.0,0.2497199773788452,-0.4685325622558594
0.0527609810233116,-0.0003223919775336,-0.0604535862803459,-0.0955229699611663,-0.0150069808587431,-0.4057810306549072,0.0,0.0,0.1738718748092651,-0.8010588884353638
0.0521035194396972,-0.001862516393885,-0.0660756230354309,-0.0684765353798866,-0.0145781310275197,0.0086915493011474,1.0,0.0,0.194420576095581,0.4789612293243408
0.0516447052359581,-0.0026633881498128,-0.0643252655863761,-0.035522237420082,0.0036581265740096,0.3647784292697906,1.0,1.0,0.3448644876480102,0.9968494176864624
0.051391314715147,-0.0024774216581135,-0.0417751036584377,0.0079381521791219,0.0192716345191001,0.3114886879920959,1.0,1.0,-0.0701779723167419,0.9998228549957277
0.0511348731815815,-0.0024788165464997,-0.0255323555320501,-7.80974660301581e-05,0.0191697999835014,-0.0020336965098977,1.0,1.0,-0.8431931138038635,0.6919456720352173
0.050999354571104,-0.0022774362005293,-0.0119088785722851,0.0089578386396169,0.0175617262721061,-0.0321558117866516,1.0,1.0,-0.7110286951065063,0.0841473340988159
0.0508817657828331,-0.0019012832781299,-0.0087202098220586,0.0167511645704507,0.0145802563056349,-0.0595946982502937,1.0,1.0,-0.9559496641159058,-0.0651684999465942
0.0507524497807025,-0.0013884091749787,-0.0089453179389238,0.0228198412805795,0.0106575032696127,-0.0784460306167602,1.0,1.0,-0.9965193271636964,-0.3204176425933838
0.0506166443228721,-0.0008039021631702,-0.0090629989281296,0.0259967446327209,0.0061948942020535,-0.0892440527677536,1.0,1.0,-0.883446455001831,-0.0674519538879394
0.0504799857735633,-0.0002137446426786,-0.0090780742466449,0.0262379664927721,0.0016766299959272,-0.0903581008315086,1.0,1.0,-0.966507852077484,-0.2146697044372558
0.0503980629146099,-0.0002070212358376,-0.0081502003595232,0.0002963788865599,0.0016371028032153,-0.0007851392729207,1.0,1.0,-0.9335129261016846,0.2830939292907715
0.0503684058785438,-0.0002100253041135,-0.0030067428015172,-0.0001425931259291,0.0016629670280963,0.0005092470091767,1.0,1.0,-0.9009466767311096,0.1657801866531372
0.0503750815987587,-0.0002100253041135,0.0006979964673519,-3.3779801924538333e-06,0.0016518314369022,-0.0002133740781573,1.0,1.0,-0.8394558429718018,0.2789907455444336
0.0503891929984092,-0.0002098822587868,0.0014408890856429,2.1332887172320625e-06,0.0016290362691506,-0.0004409773682709,1.0,1.0,-0.8170896172523499,0.0139310359954833
