x_pos,y_pos,x_vel,y_vel,angle,ang_vel,leg_1,leg_2,main_booster,lat_booster
-0.0014969825278967,1.4035067558288574,-0.1516993939876556,-0.329481303691864,0.0018013056833297,0.0355351790785789,0.0,0.0,-0.1704675940324247,-0.955405392536042
-0.0030357360374182,1.3959940671920776,-0.1574406325817108,-0.3339018523693084,0.0053304778411984,0.0705908760428428,0.0,0.0,-0.8038079805070844,0.6523897460291487
-0.0044848443940281,1.388359308242798,-0.146939218044281,-0.3393395245075226,0.0073294942267239,0.039984181523323,0.0,0.0,0.7871806102639245,-0.9331488252635088
-0.0061278343200683,1.381411910057068,-0.1679676473140716,-0.3087924122810364,0.0109685426577925,0.0727875679731369,0.0,0.0,-0.0921813936051438,0.0821546533317993
-0.0077437399886548,1.3743468523025513,-0.165322333574295,-0.3140307962894439,0.0146537292748689,0.0737104713916778,0.0,0.0,0.0256921328891239,0.9895348653373948
-0.009156989865005,1.3676726818084717,-0.1430750042200088,-0.2966508567333221,0.0163900144398212,0.0347289219498634,0.0,0.0,-0.2603687816705442,-0.7507010451060266
-0.010604572482407,1.3608791828155518,-0.1481116712093353,-0.3019700646400451,0.0197163335978984,0.0665323436260223,0.0,0.0,0.4135759654669662,-0.8147807504876542
-0.0119565008208155,1.3548033237457275,-0.1404459476470947,-0.2701181173324585,0.0249120816588401,0.1039244383573532,0.0,0.0,0.5728071534522678,-0.2367217794876805
-0.0133129116147756,1.349804162979126,-0.1408834606409073,-0.2222830206155777,0.0300996340811252,0.1037602871656417,0.0,0.0,-0.7109813501140416,0.3512314832468709
-0.0146424295380711,1.3446874618530271,-0.1382444947957992,-0.227522611618042,0.0353350415825843,0.104717805981636,0.0,0.0,0.3656350563947879,-0.9785867685434464
-0.0159572605043649,1.34019136428833,-0.1388497054576873,-0.2000175565481186,0.0426180735230445,0.1456743329763412,0.0,0.0,0.7042177128745932,0.4582981556920285
-0.017195701599121,1.3363995552062988,-0.1316005289554596,-0.1687678843736648,0.0502924844622612,0.1535024642944336,0.0,0.0,0.2633049129522791,-0.1062550209485752
-0.0183347705751657,1.3332993984222412,-0.1221850886940956,-0.1380774676799774,0.0584849193692207,0.1638639718294143,0.0,0.0,0.8187946208974115,0.3431758216890144
-0.0193941108882427,1.330674648284912,-0.114618681371212,-0.1170151531696319,0.0670826882123947,0.1719708144664764,0.0,0.0,0.772032603593455,0.9496014057592678
-0.0202434547245502,1.3292906284332275,-0.0920176431536674,-0.0618409626185894,0.0741105526685714,0.1405702084302902,0.0,0.0,0.5540751719078425,0.3361653320360939
-0.0209838859736919,1.328219294548035,-0.0816701203584671,-0.0480103082954883,0.0816709101200103,0.1512207090854644,0.0,0.0,-0.3043398751765032,0.4893141634734449
-0.021697711199522,1.3270310163497925,-0.0790544301271438,-0.0532454587519168,0.089277409017086,0.1521439850330352,0.0,0.0,-0.7225344510736817,-0.2481252932270466
-0.022385025396943,1.325725793838501,-0.0764422789216041,-0.058481078594923,0.0969307646155357,0.1530807614326477,0.0,0.0,-0.1462063877024577,-0.7054194047307423
-0.0230927467346191,1.3243038654327393,-0.079712726175785,-0.0638025254011154,0.1058059930801391,0.1775209754705429,0.0,0.0,-0.7257827707632356,0.1905579429683764
-0.0237741470336914,1.322765231132507,-0.0771125108003616,-0.069042220711708,0.1147269159555435,0.178434744477272,0.0,0.0,0.6131444665107408,0.7994079048666617
-0.0243139266967773,1.3222440481185913,-0.0616296716034412,-0.0237641371786594,0.1223419457674026,0.1523144990205764,0.0,0.0,-0.2722191489478134,-0.7221380606837053
-0.0248826034367084,1.3215917348861694,-0.0659722089767456,-0.0297626834362745,0.1314174979925155,0.1815274059772491,0.0,0.0,-0.1034372471985385,0.1358130102170679
-0.0254250522702932,0.0,-0.0633898675441742,-0.0349992886185646,0.1405379027128219,0.1824245452880859,0.0,0.0,0.2302282133440103,-0.4295480458748897
-0.025922393426299,1.320293664932251,-0.0591592006385326,-0.0244336128234863,0.1499454826116562,0.1881681680679321,0.0,0.0,-0.6478055516094923,-0.5464045076649845
-0.0264468193054199,1.3196375370025637,-0.0632335841655731,-0.0302794482558965,0.1607476323843002,0.2160620689392089,0.0,0.0,-0.3896708126364394,-0.6509330561300254
-0.0270064361393451,1.3188326358795166,-0.0684092119336128,-0.0371696949005126,0.1732117235660553,0.2492820918560028,0.0,0.0,0.0832251917277844,0.4372300854154111
-0.0276196487247943,1.3186166286468506,-0.0738025531172752,-0.0111068105325102,0.1857334226369857,0.2504335045814514,0.0,0.0,-0.3403033925180547,-0.7138790608275095
-0.0282754898071289,0.0,-0.0798037573695182,-0.0170882306993007,0.2000392824411392,0.2861171364784241,0.0,0.0,-0.7979495058275388,-0.7295842585501944
-0.0289751999080181,1.3178012371063232,-0.0859636217355728,-0.0232405792921781,0.2161701917648315,0.3226179480552673,0.0,0.0,0.531645723100884,0.818879882744239
-0.0297040939331054,1.317887306213379,-0.0872094109654426,0.0016646479489281,0.2306680828332901,0.2899578809738159,0.0,0.0,-0.5706660687457441,-0.4243342018775839
-0.0304076187312603,1.3178585767745972,-0.0846736580133438,-0.0035827606916427,0.2452114224433899,0.2908665537834167,0.0,0.0,-0.8794864416122437,0.995128870010376
-0.0310187339782714,1.3177341222763062,-0.0737077295780181,-0.0076875193044543,0.2580548226833343,0.2568681538105011,0.0,0.0,-0.8903913497924805,0.9602334499359132
-0.0315430648624897,1.3175275325775146,-0.0633963719010353,-0.0111430417746305,0.2692591249942779,0.2240862846374511,0.0,0.0,-0.904803454875946,0.9896683692932128
-0.0319736488163471,1.3172242641448977,-0.052276860922575,-0.0152098834514617,0.2787240445613861,0.1892981827259063,0.0,0.0,-0.8040636777877808,0.9942349195480348
-0.032302189618349,1.316839575767517,-0.0400948338210582,-0.0184981897473335,0.2861603796482086,0.1487271189689636,0.0,0.0,-0.9192814230918884,0.9801712036132812
-0.032531164586544,1.3163785934448242,-0.0281626880168914,-0.0215317420661449,0.2915834784507751,0.1084622740745544,0.0,0.0,-0.8891547322273254,0.9842278957366944
-0.0326635353267192,1.3158273696899414,-0.0166872050613164,-0.0251867566257715,0.2951427698135376,0.0711852610111236,0.0,0.0,-0.96644788980484,0.9846019744873048
-0.032694149762392,1.3152021169662476,-0.0044854441657662,-0.0280787367373704,0.2966095805168152,0.0293366815894842,0.0,0.0,-0.9189079999923706,0.7365607023239136
-0.0326504707336425,1.3144910335540771,0.0042668688111007,-0.0316285006701946,0.296711266040802,0.0020337244495749,0.0,0.0,-0.9854094386100768,0.5926451683044434
-0.032536506652832,1.3136844635009766,0.0124874403700232,-0.0356252081692218,0.2955930531024933,-0.0223641376942396,0.0,0.0,-0.9838306307792664,0.7813563346862793
-0.0323518738150596,1.3127888441085815,0.0207781996577978,-0.0393351577222347,0.2932032346725464,-0.0477964803576469,0.0,0.0,-0.993474006652832,0.8442078828811646
-0.0320671088993549,1.311808943748474,0.0327632091939449,-0.0426999330520629,0.2887892723083496,-0.0882796645164489,0.0,0.0,-0.9703710079193116,0.0372081995010376
-0.0317596420645713,1.3107116222381592,0.0349990241229534,-0.0479318350553512,0.2844161093235016,-0.0874630063772201,0.0,0.0,-0.9435009956359864,0.6786288022994995
-0.0313697829842567,1.3095221519470217,0.0447575077414512,-0.051753781735897,0.278479665517807,-0.1187281459569931,0.0,0.0,-0.9199814796447754,0.4543750286102295
-0.0309581756591796,1.308215618133545,0.0469075702130794,-0.056986890733242,0.2725826501846313,-0.1179399266839027,0.0,0.0,-0.9459891319274902,0.7154867649078369
-0.0304655078798532,1.3068095445632937,0.0565067306160926,-0.061159249395132,0.2651704251766205,-0.1482444554567337,0.0,0.0,-0.722839891910553,0.5522546768188477
-0.0299052242189645,1.3053028583526611,0.0644391328096389,-0.0654679015278816,0.2565673291683197,-0.1720617562532425,0.0,0.0,-0.950099766254425,0.4529162645339966
-0.0293248184025287,1.3036794662475586,0.0664317309856414,-0.0707040354609489,0.248001143336296,-0.1713234037160873,0.0,0.0,-0.8111686706542969,0.5808439254760742
-0.0286913868039846,1.3019577264785769,0.072640523314476,-0.0749828591942787,0.2385515570640564,-0.1889918744564056,0.0,0.0,-0.7016742825508118,0.6845571994781494
-0.0279881469905376,1.3001363277435305,0.0809117034077644,-0.0792718902230262,0.2278057187795639,-0.2149168252944946,0.0,0.0,-0.8380353450775146,0.7185198068618774
-0.027198601514101,1.2982226610183716,0.0913179367780685,-0.0831891149282455,0.2153009474277496,-0.2500961124897003,0.0,0.0,-0.6202253699302673,-0.6316253542900085
-0.0264458656311035,1.296180009841919,0.0862629041075706,-0.0892278030514717,0.2042185068130493,-0.2216492444276809,0.0,0.0,-0.8214116096496582,0.3760348558425903
-0.0256766323000192,1.2940213680267334,0.0878994911909103,-0.0944677665829658,0.1931676864624023,-0.2210163325071334,0.0,0.0,-0.7408257722854614,-0.4034572839736938
-0.0248918533325195,1.291746735572815,0.0894492119550705,-0.0997076481580734,0.182147279381752,-0.2204083502292633,0.0,0.0,-0.673762321472168,-0.9110254645347596
-0.024145221337676,1.2893377542495728,0.0842516273260116,-0.1059198230504989,0.1725333333015442,-0.1922793090343475,0.0,0.0,-0.768317461013794,-0.0916650891304016
-0.0233848579227924,1.2868123054504397,0.0856112912297248,-0.1111572086811065,0.1629470735788345,-0.1917255818843841,0.0,0.0,-0.6639052629470825,-0.0834907293319702
-0.0226118080317974,1.284170627593994,0.0868685692548751,-0.1163945272564888,0.1533870249986648,-0.1912007480859756,0.0,0.0,-0.6750936508178711,-0.7664170861244202
-0.0218735691159963,1.2814044952392578,0.0821891576051712,-0.1220925822854042,0.145031988620758,-0.1671006381511688,0.0,0.0,-0.7202484011650085,-0.0226829648017883
-0.0211249347776174,1.2785218954086304,0.0832267627120018,-0.1273280084133148,0.1367000937461853,-0.1666382849216461,0.0,0.0,-0.7838769555091858,-0.85917729139328
-0.0204433444887399,1.275514006614685,0.0745591074228286,-0.1331063359975814,0.1303199231624603,-0.1276032626628875,0.0,0.0,-0.7880902886390686,-0.5113219618797302
-0.019789982587099,1.2723774909973145,0.070791408419609,-0.1389374583959579,0.1248960047960281,-0.1084782928228378,0.0,0.0,-0.8892267942428589,-0.785487949848175
-0.0192018505185842,1.2691140174865725,0.0624066814780235,-0.1447452157735824,0.1213176175951957,-0.0715677514672279,0.0,0.0,-0.734768271446228,0.7438716888427734
-0.0185376163572073,1.2657443284988403,0.0718088448047638,-0.1493404954671859,0.1159664615988731,-0.107023037970066,0.0,0.0,-0.8260202407836914,-0.7594692707061768
-0.0179264061152935,1.2622482776641846,0.065024122595787,-0.155081570148468,0.112085074186325,-0.0776277780532836,0.0,0.0,-0.8716091513633728,0.8199930191040039
-0.0172465331852436,1.258639931678772,0.0735572502017021,-0.1599652469158172,0.1065608337521553,-0.1104849800467491,0.0,0.0,-0.9235208630561828,-0.3058584332466125
-0.0165648460388183,1.2549145221710205,0.0737172961235046,-0.165197268128395,0.101046435534954,-0.1102877706289291,0.0,0.0,-0.7934796214103699,-0.5366588234901428
-0.0159241668879985,1.251071572303772,0.0685912743210792,-0.1704980731010437,0.0965693071484565,-0.0895427465438842,0.0,0.0,-0.7591462731361389,-0.0456197261810302
-0.0152842523530125,1.247111201286316,0.0684885084629058,-0.1757291406393051,0.0920976027846336,-0.0894339606165885,0.0,0.0,-0.8128968477249146,-0.1259055733680725
-0.0146468160673975,1.2430334091186523,0.0682557970285415,-0.1809602081775665,0.0876290574669838,-0.0893710628151893,0.0,0.0,-0.7477343678474426,0.411340594291687
-0.014013004489243,1.2388384342193604,0.0678949356079101,-0.1861912459135055,0.0831613168120384,-0.0893549546599388,0.0,0.0,-0.9761501550674438,-0.3812884092330932
-0.0133840562775731,1.2345257997512815,0.0674083605408668,-0.1914222538471222,0.0786920040845871,-0.089386448264122,0.0,0.0,-0.8768600225448608,0.4455547332763672
-0.0127613069489598,1.2300959825515747,0.0667990669608116,-0.1966532617807388,0.0742186978459358,-0.0894660800695419,0.0,0.0,-0.8931838870048523,-0.3728857040405273
-0.0121459010988473,1.2255486249923706,0.0660705417394638,-0.201884239912033,0.0697389915585517,-0.089594267308712,0.0,0.0,-0.978549063205719,-0.5099891424179077
-0.011574363335967,1.220880150794983,0.0607914850115776,-0.20732182264328,0.0661419481039047,-0.0719410926103591,0.0,0.0,-0.96820330619812,0.3243570327758789
-0.0110124591737985,1.216094136238098,0.0598366074264049,-0.2125521749258041,0.0625336170196533,-0.0721667408943176,0.0,0.0,-0.9789350628852844,0.087980031967163
-0.0104614254087209,1.211190700531006,0.0587752945721149,-0.2177825570106506,0.0589115768671035,-0.0724408030509948,0.0,0.0,-0.9758887887001038,0.1327751874923706
-0.0099220275878906,1.206169843673706,0.0576123483479023,-0.2230129539966583,0.0552734434604644,-0.0727628618478775,0.0,0.0,-0.9506044387817384,0.0060462951660156
-0.0093955043703317,1.20103120803833,0.0563526861369609,-0.228243350982666,0.0516168363392353,-0.073132149875164,0.0,0.0,-0.8934987783432007,-0.1671153903007507
-0.0088827135041356,1.1957753896713257,0.0550013370811939,-0.2334737628698349,0.0479394532740116,-0.0735478177666664,0.0,0.0,-0.9337011575698853,0.2351133823394775
-0.0083845136687159,1.1904020309448242,0.0535633079707622,-0.2387041747570037,0.0442390106618404,-0.074008785188198,0.0,0.0,-0.8519459962844849,-0.6291959881782532
-0.0079620359465479,1.1849005222320557,0.0444800779223442,-0.2444466948509216,0.0420351326465606,-0.0440776124596595,0.0,0.0,-0.9794451594352722,0.2583017349243164
-0.0075557706877589,1.1792813539505005,0.0428835526108741,-0.249676376581192,0.0398038662970066,-0.0446254275739192,0.0,0.0,-0.8966880440711975,0.2870421409606933
-0.0071664811111986,1.1735446453094482,0.0412150733172893,-0.25490602850914,0.037543136626482,-0.0452144145965576,0.0,0.0,-0.9776882529258728,0.3334561586380005
-0.0067948340438306,1.1676902770996094,0.0394792929291725,-0.2601357102394104,0.0352509729564189,-0.0458430238068103,0.0,0.0,-0.9363921880722046,0.0157912969589233
-0.006441593170166,1.1617183685302734,0.0376806855201721,-0.2653654217720032,0.0329254902899265,-0.0465095899999141,0.0,0.0,-0.8180972337722778,0.5979700088500977
-0.0060530663467943,1.1556316614151,0.0426172129809856,-0.2704411149024963,0.0292031597346067,-0.0744464620947837,0.0,0.0,-0.9571338295936584,0.114574909210205
-0.005684089846909,1.1494275331497192,0.0407056622207164,-0.2756715416908264,0.0254439879208803,-0.075183555483818,0.0,0.0,-0.915604293346405,0.2491415739059448
-0.0053351400420069,1.1431059837341309,0.0387435480952262,-0.2809019982814789,0.0216462966054677,-0.0759536996483802,0.0,0.0,-0.9728648066520692,-0.0346601605415344
-0.005006599240005,1.136666774749756,0.036734540015459,-0.2861324846744537,0.0178085826337337,-0.0767542049288749,0.0,0.0,-0.955588400363922,0.2492941617965698
-0.004699039272964,1.130110263824463,0.0346820838749408,-0.2913629710674286,0.0139293977990746,-0.0775837898254394,0.0,0.0,-0.9676392078399658,-0.3567153811454773
-0.0044129369780421,1.1234362125396729,0.0325894281268119,-0.2965935468673706,0.0100073618814349,-0.0784407034516334,0.0,0.0,-0.9417676329612732,-0.4572511911392212
-0.0041484832763671,1.1166446208953855,0.0304596088826656,-0.301824152469635,0.006041195243597,-0.0793232098221778,0.0,0.0,-0.984908163547516,0.3160140514373779
-0.0039061545394361,1.1097356081008911,0.0282954610884189,-0.3070547878742218,0.0020297109149396,-0.080229714512825,0.0,0.0,-0.9170260429382324,-0.1727485656738281
-0.0036862373817712,1.102709174156189,0.026099631562829,-0.3122854828834533,-0.002028232673183,-0.0811586529016494,0.0,0.0,-0.9830881357192992,-0.2035787105560302
-0.0034892081748694,1.0955653190612793,0.0238745901733636,-0.3175162076950073,-0.0061336522921919,-0.0821084976196289,0.0,0.0,-0.9818882942199708,0.4958654642105102
-0.003315067384392,1.0883039236068726,0.0216226316988468,-0.3227469623088836,-0.010287539102137,-0.0830778181552887,0.0,0.0,-0.9793460369110109,-0.2490180134773254
-0.0031641006935387,1.0809253454208374,0.0193458870053291,-0.3279778063297272,-0.0144908027723431,-0.0840652212500572,0.0,0.0,-0.9838412404060364,0.5361652374267578
-0.0030030249617993,1.073433518409729,0.021274609491229,-0.3330317735671997,-0.0195899847894907,-0.1019836664199829,0.0,0.0,-0.9586033821105956,-0.4767584204673767
-0.0028656958602368,1.065824270248413,0.0189540702849626,-0.3382633626461029,-0.0247401595115661,-0.1030033975839614,0.0,0.0,-0.973150372505188,-0.1885478496551513
-0.0027522086165845,1.0580978393554688,0.0166142601519823,-0.3434950113296509,-0.029942026361823,-0.1040375605225563,0.0,0.0,-0.9708733558654784,-0.4846997261047363
-0.0026628493797034,1.050254225730896,0.0142567632719874,-0.348726749420166,-0.0351962894201278,-0.105085089802742,0.0,0.0,-0.9312496781349182,-0.7029798030853271
-0.0026556968223303,1.0422937870025637,0.0046136295422911,-0.3538921475410461,-0.0390477590262889,-0.0770293325185775,0.0,0.0,-0.9915608167648317,-0.0780621767044067
-0.0026729584205895,1.034216046333313,0.0022251314949244,-0.3591229021549225,-0.0429527983069419,-0.0781007930636406,0.0,0.0,-0.9782246947288512,0.0163400173187255
-0.0027149200905114,1.0260207653045654,-0.0001769313676049,-0.3643537163734436,-0.0469119362533092,-0.0791828259825706,0.0,0.0,-0.9844784140586852,-0.3767690658569336
-0.0027813911437988,1.0177079439163208,-0.0025913750287145,-0.3695845901966095,-0.0509256683290004,-0.0802746564149856,0.0,0.0,-0.924980103969574,-0.010974109172821
-0.0028727531898766,1.0092779397964478,-0.005017097108066,-0.3748154938220978,-0.0549944452941417,-0.0813754945993423,0.0,0.0,-0.9896077513694764,-0.1382478475570678
-0.0029890059959143,1.0007305145263672,-0.0074530653655529,-0.3800464570522308,-0.0591186694800853,-0.0824846848845481,0.0,0.0,-0.9677727222442628,-0.5707441568374634
-0.0031769752968102,0.9920746088027954,-0.0157519001513719,-0.3848351836204529,-0.0621186271309852,-0.0599992051720619,0.0,0.0,-0.993963062763214,0.4687353372573852
-0.0033899308182299,0.9833009839057922,-0.0182054601609706,-0.3900655508041382,-0.065174788236618,-0.0611232593655586,0.0,0.0,-0.9844853281974792,0.0755131244659423
-0.0036279677879065,0.9744099378585817,-0.0206665433943271,-0.3952960073947906,-0.068287469446659,-0.0622538402676582,0.0,0.0,-0.9273192882537842,0.0001552104949951
-0.0038913725875318,0.9654015898704528,-0.0231343396008014,-0.4005265235900879,-0.071456991136074,-0.0633905231952667,0.0,0.0,-0.9833032488822936,-0.4954482316970825
-0.0041800499893724,0.9562756419181824,-0.0256080981343984,-0.4057570695877075,-0.074683628976345,-0.0645327717065811,0.0,0.0,-0.9651772379875184,-0.5634175539016724
-0.004532718565315,0.9470336437225342,-0.0329334549605846,-0.4108711779117584,-0.0769965276122093,-0.0462579019367694,0.0,0.0,-0.9694326519966124,-0.6398941278457642
-0.0049715042114257,0.9376822710037231,-0.0430332385003566,-0.4156608879566192,-0.0778334736824035,-0.0167389102280139,0.0,0.0,-0.914505422115326,-0.2355755567550659
-0.0054357526823878,0.9282134175300598,-0.0455205850303173,-0.4208906590938568,-0.0787282660603523,-0.0178955029696226,0.0,0.0,-0.9893323183059692,0.1647018194198608
-0.0059253694489598,0.9186268448829652,-0.0480111949145793,-0.426120400428772,-0.0796810686588287,-0.0190561208873987,0.0,0.0,-0.9883885979652404,0.5418597459793091
-0.0063961981795728,0.9089164137840272,-0.0449147000908851,-0.4316923320293426,-0.0818182602524757,-0.0427440479397773,0.0,0.0,-0.9944499135017396,0.0826778411865234
-0.0068923952057957,0.8990883231163025,-0.0474100746214389,-0.4369224905967712,-0.0840138643980026,-0.0439118631184101,0.0,0.0,-0.9806807041168212,-0.3826420903205871
-0.0074142455123364,0.8891428709030151,-0.049906950443983,-0.4421526193618774,-0.0862680152058601,-0.0450829230248928,0.0,0.0,-0.9778217077255248,-0.2112540006637573
-0.0079615591093897,0.8790797591209412,-0.0524047724902629,-0.4473828375339508,-0.0885808616876602,-0.0462569557130336,0.0,0.0,-0.9902851581573486,-0.3617758154869079
-0.0085345264524221,0.8688992857933044,-0.0549029931426048,-0.4526130557060241,-0.0909525528550148,-0.0474337860941886,0.0,0.0,-0.9581698775291444,-0.6530554294586182
