x_pos,y_pos,x_vel,y_vel,angle,ang_vel,leg_1,leg_2,main_booster,lat_booster
-0.0015092849498614,1.4031002521514893,-0.1534589827060699,-0.3475412428379059,0.0022696200758218,0.0448077544569969,0.0,0.0,-0.2659521102905273,0.9398844242095948
-0.0029247284401208,1.394775390625,-0.1422507464885711,-0.3699932396411896,0.0029662072192877,0.0139338867738842,0.0,0.0,-0.147304892539978,0.8636825084686279
-0.0042442320846021,1.385920166969299,-0.1310459971427917,-0.3935659825801849,0.0020741510670632,-0.0178427193313837,0.0,0.0,0.104901909828186,0.6175379753112793
-0.0055927275680005,1.377039909362793,-0.1330697685480117,-0.3946773111820221,0.000312554591801,-0.0352353528141975,0.0,0.0,-0.2974907755851745,0.5577487945556641
-0.0068763731978833,1.3676373958587646,-0.1257206499576568,-0.4178935289382934,-0.0022996764164417,-0.0522493720054626,0.0,0.0,0.2557613849639892,0.5008151531219482
-0.0079954145476222,1.3583288192749023,-0.1090260744094848,-0.413719117641449,-0.0051457732915878,-0.0569273605942726,0.0,0.0,-0.0247979164123535,-0.2976501584053039
-0.0091042518615722,1.3484961986541748,-0.1084884777665138,-0.4370152056217193,-0.0075133047066628,-0.0473550409078598,0.0,0.0,-0.0957561731338501,0.3873016834259033
-0.0102035524323582,1.338139533996582,-0.1080177575349807,-0.4603044688701629,-0.0094075910747051,-0.0378891602158546,0.0,0.0,-0.0225257873535156,0.0675524473190307
-0.0112941740080714,1.327258825302124,-0.107612170279026,-0.483594536781311,-0.0108342077583074,-0.028535071760416,0.0,0.0,0.5579661130905151,0.7791271209716797
-0.0123085975646972,1.3168853521347046,-0.0989051535725593,-0.4610612988471985,-0.0133441016077995,-0.0502026863396167,0.0,0.0,-0.3478407859802246,0.2966917753219604
-0.0133156776428222,1.3059877157211304,-0.0986196845769882,-0.4843611121177673,-0.0153976157307624,-0.0410737618803978,0.0,0.0,-0.5156511068344116,-0.8572719097137451
-0.01437549572438,1.2945656776428225,-0.1058777123689651,-0.5076499581336975,-0.0155023802071809,-0.0020958143286406,0.0,0.0,0.3758460283279419,0.4543352127075195
-0.0153116229921579,1.2834906578063965,-0.094477578997612,-0.4922181665897369,-0.0146529031917452,0.016991052776575,0.0,0.0,-0.8558849096298218,-0.5761610269546509
-0.0162826534360647,1.271886944770813,-0.0994226112961769,-0.515705406665802,-0.0123571557924151,0.0459192097187042,0.0,0.0,-0.0201523900032043,0.1137773990631103
-0.0172488205134868,1.2597591876983645,-0.0993706807494163,-0.5389930009841919,-0.0096342898905277,0.0544623211026191,0.0,0.0,-0.4818081855773926,0.0516855716705322
-0.0182108879089355,1.2471075057983398,-0.099369004368782,-0.5622829794883728,-0.0064915791153907,0.062859870493412,0.0,0.0,0.4616768360137939,0.3401079177856445
-0.0190422050654888,1.2350658178329468,-0.0873089134693145,-0.5351706743240356,-0.0023648745846003,0.0825415030121803,0.0,0.0,-0.8276158571243286,0.5705254077911377
-0.0198147781193256,1.2224950790405271,-0.080416515469551,-0.5586987137794495,0.00076450034976,0.0625929683446884,0.0,0.0,-0.8447781205177307,-0.2280146479606628
-0.0205845832824707,1.2094004154205322,-0.0805486142635345,-0.5819863080978394,0.0042895558290183,0.0705072730779647,0.0,0.0,-0.1209937334060669,0.0630402565002441
-0.0213522911071777,1.195781946182251,-0.0807217210531234,-0.6052772998809814,0.0082003008574247,0.0782220512628555,0.0,0.0,-0.021767258644104,0.750219464302063
-0.0220463760197162,1.1816461086273191,-0.0719224885106086,-0.6282777190208435,0.0106819383800029,0.0496370010077953,0.0,0.0,-0.5225127935409546,0.4525949954986572
-0.022739315405488,1.1669862270355225,-0.0721629485487937,-0.6515700817108154,0.0135320369154214,0.0570070259273052,0.0,0.0,-0.8916651010513306,0.6235930919647217
-0.0233712196350097,1.151802897453308,-0.0649169608950614,-0.6748330593109131,0.0152334384620189,0.0340311788022518,0.0,0.0,-0.175564169883728,-0.3831087350845337
-0.0240025520324707,1.136095643043518,-0.065215840935707,-0.6981249451637268,0.0172838158905506,0.041011419147253,0.0,0.0,-0.0716018676757812,0.255817174911499
-0.024633789435029,1.1198643445968628,-0.0655427053570747,-0.7214173078536987,0.0196721442043781,0.0477708056569099,0.0,0.0,-0.7889312505722046,0.1246768236160278
-0.0252649299800395,1.1030876636505127,-0.0658650696277618,-0.7456634044647217,0.0223886091262102,0.0543296709656715,0.0,0.0,0.0244550704956054,0.3087540864944458
-0.0259042736142873,1.0864629745483398,-0.067011721432209,-0.73892742395401,0.0254337396472692,0.0609022304415702,0.0,0.0,0.4414012432098388,0.3632153272628784
-0.0266765598207712,1.070389747619629,-0.0800873190164566,-0.7144162058830261,0.028258342295885,0.0564921684563159,0.0,0.0,-0.4048823714256286,0.8143393993377686
-0.0273994449526071,1.0538017749786377,-0.0741671472787857,-0.7372886538505554,0.0301096513867378,0.0370259508490562,0.0,0.0,0.1268072128295898,0.4405932426452636
-0.0281478874385356,1.037187576293945,-0.0769437924027443,-0.7384466528892517,0.0321797505021095,0.0414019078016281,0.0,0.0,0.8314013481140137,0.5040686130523682
-0.0288662910461425,1.0214654207229614,-0.073260597884655,-0.6987970471382141,0.0335851199924945,0.0281076282262802,0.0,0.0,0.4437010288238525,0.736251711845398
-0.029616355895996,1.0057882070541382,-0.075078971683979,-0.6967650055885315,0.0336638055741786,0.0015735762426629,0.0,0.0,-0.8617455959320068,-0.2001280784606933
-0.0303681381046772,0.9895870685577391,-0.0755143836140632,-0.7200549244880676,0.0339937172830104,0.0065984749235212,0.0,0.0,0.4213321208953857,0.249988317489624
-0.0311871524900198,0.9733244776725768,-0.0822303220629692,-0.722789466381073,0.0343096740543842,0.006319417618215,0.0,0.0,-0.2559224963188171,-0.7524243593215942
-0.0320663452148437,0.9565367102622986,-0.0899373963475227,-0.74617600440979,0.0363099351525306,0.0400049015879631,0.0,0.0,-0.7139714360237122,0.6488852500915527
-0.0328948982059955,0.9392326474189758,-0.0837520286440849,-0.7690895795822144,0.0371964573860168,0.0177307017147541,0.0,0.0,0.7082610130310059,0.690659761428833
-0.0337179191410541,0.9221082925796508,-0.0819542929530143,-0.7610749006271362,0.0368490368127822,-0.0069486396387219,0.0,0.0,0.1722407341003418,-0.2362947463989257
-0.0345362648367881,0.9052709937095642,-0.0817949175834655,-0.7483196258544922,0.0368201807141304,-0.0005769630661234,0.0,0.0,0.0248394012451171,-0.7493948340415955
-0.035463809967041,0.8886968493461609,-0.0944002643227577,-0.7366698980331421,0.0384475328028202,0.0325466319918632,0.0,0.0,-0.9335448741912842,0.7081888914108276
-0.0363349914550781,0.8716031908988953,-0.087450198829174,-0.7597311735153198,0.0387706235051155,0.006461841519922,0.0,0.0,0.5959875583648682,-0.2956517338752746
-0.0373407378792762,0.8551070094108582,-0.1005778163671493,-0.7331684827804565,0.0387760512530803,0.0001087695854948,0.0,0.0,0.3912222385406494,0.2483624219894409
-0.0382619872689247,0.8387535214424133,-0.0927613228559494,-0.7268359065055847,0.0394106097519397,0.0126910898834466,0.0,0.0,-0.5944472551345825,0.3220568895339966
-0.0391853339970111,0.821876049041748,-0.0931177586317062,-0.7501255869865417,0.040182527154684,0.0154385985806584,0.0,0.0,-0.71595698595047,0.0719141960144043
-0.0401106849312782,0.8044747710227966,-0.093453861773014,-0.7734152674674988,0.0410809777677059,0.0179690737277269,0.0,0.0,-0.3154247999191284,0.1815205812454223
-0.0410381332039833,0.7865495681762695,-0.0937675386667251,-0.796704888343811,0.0420952849090099,0.0202862974256277,0.0,0.0,0.7512792348861694,0.6894378662109375
-0.041874598711729,0.7686309814453125,-0.0835274085402488,-0.7963769435882568,0.0419650301337242,-0.0026051762979477,0.0,0.0,0.9743739366531372,0.6856613159179688
-0.0426026359200477,0.7509934902191162,-0.071584440767765,-0.7838569283485413,0.0407654009759426,-0.0239925198256969,0.0,0.0,0.4493467807769775,0.6695799827575684
-0.0434175506234169,0.7339320778846741,-0.0788033306598663,-0.758213460445404,0.0381102189421653,-0.0531038828194141,0.0,0.0,0.388737678527832,0.1883968114852905
-0.0443703643977642,0.7173334360122681,-0.0921514183282852,-0.7376394271850586,0.0350145548582077,-0.0619135499000549,0.0,0.0,-0.2995508909225464,0.6809942722320557
-0.0452723503112793,0.700211763381958,-0.0857985690236091,-0.7608646154403687,0.030678167939186,-0.0867278426885604,0.0,0.0,0.1791952848434448,-0.0215970873832702
-0.0460851676762104,0.6831821203231812,-0.0774320363998413,-0.7567968368530273,0.0268722847104072,-0.076117604970932,0.0,0.0,0.16941499710083,-0.0328760743141174
-0.046953298151493,0.6664090752601624,-0.0828177705407142,-0.7454063296318054,0.0229259524494409,-0.078926607966423,0.0,0.0,0.5536448955535889,-0.2112530469894409
-0.0477284416556358,0.649742603302002,-0.0740449130535125,-0.7406832575798035,0.0194947887212038,-0.0686230883002281,0.0,0.0,-0.4352329969406128,-0.4797834157943725
-0.0485035888850688,0.6325521469116211,-0.074072815477848,-0.7639735341072083,0.0160951633006334,-0.0679924413561821,0.0,0.0,0.6020865440368652,0.341046929359436
-0.0491415970027446,0.6155505180358887,-0.0610500685870647,-0.7556000351905823,0.0133876409381628,-0.0541507005691528,0.0,0.0,0.198032259941101,-0.0878219604492187
-0.0498526580631732,0.5985360741615295,-0.0680569782853126,-0.7561720013618469,0.0103758461773395,-0.0602358765900135,0.0,0.0,0.3355123996734619,0.579617977142334
-0.0504403114318847,0.5819714665412903,-0.0547343678772449,-0.7361810803413391,0.0063919448293745,-0.0796780064702034,0.0,0.0,-0.3554384112358093,0.7779728174209595
-0.0509509071707725,0.5648871064186096,-0.0451015569269657,-0.7592906951904297,0.0005089181358925,-0.1176605224609375,0.0,0.0,0.840380072593689,-0.2371087074279785
-0.0513769164681434,0.5486550331115723,-0.0370284132659435,-0.7214370965957642,-0.0049928883090615,-0.1100362762808799,0.0,0.0,0.4931254386901855,0.2178009748458862
-0.0518660545349121,0.5329650044441223,-0.0430031530559062,-0.697363555431366,-0.0108227962628006,-0.1165980845689773,0.0,0.0,-0.4057005643844604,-0.6308066844940186
-0.0523983016610145,0.5167466998100281,-0.0484625324606895,-0.7208576202392578,-0.0155202923342585,-0.0939499586820602,0.0,0.0,0.6627471446990967,-0.1396516561508178
-0.0530173294246196,0.5010657906532288,-0.0566602535545825,-0.6969926953315735,-0.0207049846649169,-0.1036938577890396,0.0,0.0,0.2658718824386596,0.567575216293335
-0.0534761436283588,0.4854495227336883,-0.039662130177021,-0.6941545605659485,-0.0268373079597949,-0.1226465255022049,0.0,0.0,0.757305383682251,-0.1678065657615661
-0.0538883209228515,0.4702863097190857,-0.0351040549576282,-0.6740410923957825,-0.0328829996287822,-0.1209139376878738,0.0,0.0,0.4202972650527954,-0.5470482707023621
-0.0543210990726947,0.45511394739151,-0.0382298603653907,-0.6744489669799805,-0.0378572531044483,-0.0994851067662239,0.0,0.0,0.6105635166168213,-0.113990843296051
-0.0548477172851562,0.4402883350849151,-0.0470256879925727,-0.6590677499771118,-0.0434264466166496,-0.111383631825447,0.0,0.0,0.8413219451904297,0.0667968988418579
-0.0553036704659462,0.4263669550418854,-0.040038589388132,-0.6188988089561462,-0.0489247515797615,-0.1099658012390136,0.0,0.0,0.174559473991394,0.549625039100647
-0.0556363090872764,0.4122191369533539,-0.0266785025596618,-0.6290217041969299,-0.0554392971098423,-0.1302908509969711,0.0,0.0,0.6285703182220459,-0.7912290096282959
-0.0559489242732524,0.3988198935985565,-0.0262723620980978,-0.5957110524177551,-0.0603694729506969,-0.0986034646630287,0.0,0.0,0.6330058574676514,-0.8116319179534912
-0.0563937202095985,0.3856091201305389,-0.0409011058509349,-0.5872934460639954,-0.0639091804623603,-0.0707943588495254,0.0,0.0,-0.11122328042984,0.1649620532989502
-0.056831456720829,0.3718745708465576,-0.0401396974921226,-0.610584020614624,-0.067496657371521,-0.0717495903372764,0.0,0.0,0.9451606273651124,-0.5376819372177124
-0.0572161674499511,0.35871422290802,-0.0359911024570465,-0.5850196480751038,-0.0699494555592536,-0.0490559861063957,0.0,0.0,0.9420642852783204,-0.4915410280227661
-0.0576744079589843,0.346531331539154,-0.0425891429185867,-0.5416166186332703,-0.0731522515416145,-0.0640559569001197,0.0,0.0,0.4438576698303222,-0.1335973143577575
-0.058023165911436,0.3345724642276764,-0.0318890549242496,-0.5316504836082458,-0.0761075988411903,-0.0591069385409355,0.0,0.0,0.1620885133743286,-0.6057913899421692
-0.0584162697196006,0.3225050270557403,-0.0374554172158241,-0.5364278554916382,-0.0779492780566215,-0.0368333756923675,0.0,0.0,-0.079703152179718,0.007557988166809
-0.0587999336421489,0.3099136054515838,-0.0364566072821617,-0.5597177147865295,-0.079839639365673,-0.0378074683248996,0.0,0.0,0.7978041172027588,-0.7498928904533386
-0.0592411048710346,0.2973546981811523,-0.0435839593410491,-0.5582027435302734,-0.0803669318556785,-0.0105458805337548,0.0,0.0,0.5231733322143555,-0.4614214897155761
-0.0596208572387695,0.2853661775588989,-0.037355113774538,-0.5328585505485535,-0.0809762775897979,-0.0121870515868067,0.0,0.0,0.9601317644119264,0.0679143667221069
-0.0598166473209857,0.274289071559906,-0.0193695724010467,-0.4923243522644043,-0.0811910107731819,-0.004294364247471,0.0,0.0,0.1533010005950927,0.3340743780136108
-0.0600330345332622,0.2635506391525268,-0.021007914096117,-0.4772987067699432,-0.0818105041980743,-0.0123902289196848,0.0,0.0,0.121705412864685,0.4031953811645508
-0.0603068359196186,0.2526352107524872,-0.0262989066541194,-0.4851900041103363,-0.0828762128949165,-0.0213143099099397,0.0,0.0,0.3479132652282715,-0.2283576726913452
-0.0604821220040321,0.2421557754278183,-0.01657610014081,-0.4658046364784241,-0.0838266909122467,-0.0190094150602817,0.0,0.0,-0.2973495125770569,-0.843084454536438
-0.0607225410640239,0.2311621457338333,-0.0250282194465398,-0.4885514676570892,-0.0828486606478691,0.0195605661720037,0.0,0.0,0.7251400947570801,-0.0031054019927978
-0.060948371887207,0.2207096219062805,-0.0232746992260217,-0.4645173251628876,-0.0821655392646789,0.0136624127626419,0.0,0.0,0.3370909690856933,-0.3742279410362243
-0.061124037951231,0.2105803787708282,-0.0181805845350027,-0.4501552581787109,-0.0815533176064491,0.0122446697205305,0.0,0.0,-0.247605562210083,-0.5146496295928955
-0.0613204948604106,0.1999314427375793,-0.0211344920098781,-0.4732032418251037,-0.0800861194729805,0.0293440073728561,0.0,0.0,0.580826997756958,0.3346254825592041
-0.0614541061222553,0.1892455965280532,-0.0149243846535682,-0.4748428165912628,-0.0785311833024025,0.0310985203832387,0.0,0.0,0.4656877517700195,-0.2771704196929931
-0.0614629760384559,0.1785603165626526,-0.0028358218260109,-0.4748023450374603,-0.0766078233718872,0.0384673029184341,0.0,0.0,0.7569396495819092,-0.311334490776062
-0.0612545013427734,0.1682413220405578,0.0181775279343128,-0.4584868848323822,-0.0739677622914314,0.0528014190495014,0.0,0.0,0.4772605895996094,-0.2621833086013794
-0.0608805641531944,0.1579121649265289,0.0341550782322883,-0.4589166343212127,-0.0707525536417961,0.0643039345741272,0.0,0.0,0.8265821933746338,-0.4491375684738159
-0.0604385361075401,0.1483025699853897,0.0409817695617675,-0.4269445836544037,-0.0675620734691619,0.0638095065951347,0.0,0.0,0.2126673460006714,-0.7620224952697754
-0.0599770545959472,0.1390116810798645,0.0413390137255191,-0.4127189815044403,-0.062815636396408,0.0949289500713348,0.0,0.0,0.3499544858932495,-0.8041127324104309
-0.0594140999019146,0.1300113946199417,0.049728937447071,-0.3997514843940735,-0.056311447173357,0.1300836205482483,0.0,0.0,0.0724828243255615,-0.6089769005775452
-0.0587975494563579,0.1207966208457946,0.0537171848118305,-0.4092690348625183,-0.0484733916819095,0.1567611098289489,0.0,0.0,0.6738730669021606,-0.5770266652107239
-0.0582422241568565,0.1118375360965728,0.046556070446968,-0.3979160189628601,-0.0396034941077232,0.17739799618721,0.0,0.0,0.7329671382904053,0.8155195713043213
-0.0574715621769428,0.1037118732929229,0.0695015341043472,-0.3609602153301239,-0.0321349129080772,0.1493719816207885,0.0,0.0,0.2498481273651123,-0.7665034532546997
-0.0567505843937397,0.0957122445106506,0.0629681646823883,-0.3553719222545624,-0.0231199581176042,0.1802989691495895,0.0,0.0,0.6271874904632568,0.4694406986236572
-0.0561166778206825,0.0883687809109687,0.0547801740467548,-0.3262688517570495,-0.0146202510222792,0.1699942350387573,0.0,0.0,-0.0341314077377319,0.8239390850067139
-0.0553906448185443,0.0805045440793037,0.0658345744013786,-0.3494706153869629,-0.0079363547265529,0.1336778700351715,0.0,0.0,0.8325057029724121,-0.0746986269950866
-0.054699707776308,0.0733658671379089,0.0625338703393936,-0.3172565996646881,-0.0014601409202441,0.129524365067482,0.0,0.0,0.392805814743042,0.967968225479126
-0.0539937019348144,0.0666573345661163,0.0659746304154396,-0.298158198595047,0.0031078809406608,0.0913606062531471,0.0,0.0,-0.1070637106895446,0.4403576850891113
-0.0532697662711143,0.0594251714646816,0.0676807612180709,-0.3214491605758667,0.0077588525600731,0.0930193439126014,0.0,0.0,0.8342204093933105,0.882676362991333
-0.0526062026619911,0.0526706539094448,0.0635943412780761,-0.3002172410488128,0.0104862870648503,0.0545486733317375,0.0,0.0,0.8090677261352539,-0.1568532586097717
-0.05209531635046,0.0462498031556606,0.0489983037114143,-0.2853855788707733,0.0125505747273564,0.041285965591669,0.0,0.0,0.8243763446807861,0.921795129776001
-0.051373578608036,0.0405045114457607,0.0716161131858825,-0.2553515136241913,0.013107324950397,0.0111348088830709,0.0,0.0,0.4128170013427734,0.7457085847854614
-0.0505201332271099,0.03470429033041,0.086067721247673,-0.2577820122241974,0.0123885432258248,-0.0143754854798316,0.0,0.0,0.3630115985870361,-0.5931755304336548
-0.0495722778141498,0.0293302871286869,0.093914121389389,-0.2388518750667572,0.0132422782480716,0.0170749239623546,0.0,0.0,0.4843435287475586,-0.4454033374786377
-0.0486361496150493,0.0244776345789432,0.0927177816629409,-0.2156819999217987,0.0141330091282725,0.0178143680095672,0.0,0.0,0.341253399848938,-0.4088957905769348
-0.0475756637752056,0.0201439708471298,0.1044513136148452,-0.1926245987415313,0.0156998336315155,0.0313368588685989,0.0,0.0,-0.0059472918510437,-0.8983905911445618
-0.0465592369437217,0.0152850244194269,0.0983192846179008,-0.2159922420978546,0.0189754702150821,0.0655127763748169,0.0,0.0,0.8399795293807983,-0.3838889598846435
-0.0455501563847065,0.0112657165154814,0.0974720492959022,-0.1786827147006988,0.0223706774413585,0.0679042190313339,0.0,0.0,0.1585942506790161,-0.8138285279273987
-0.0445508956909179,0.0075575448572635,0.0946380123496055,-0.1648919731378555,0.027582349255681,0.1042338460683822,0.0,0.0,0.4437202215194702,-0.7471317052841187
-0.043525792658329,0.0039238668978214,0.0954253226518631,-0.1616446822881698,0.0345801822841167,0.1399565190076828,0.0,0.0,0.5527687072753906,-0.3289610147476196
-0.0427134521305561,0.001351878629066,0.0938580110669136,-0.1140637770295143,0.0221329890191555,-0.2489241361618042,0.0,1.0,0.3488317728042602,0.1566591262817382
-0.0421158783137798,-0.0005480909603647,0.0887948423624038,-0.0842657908797264,-0.0065524028614163,-0.5737330913543701,0.0,1.0,0.185657262802124,-0.5720911622047424
-0.0414830222725868,-0.0016510509885847,0.0719673559069633,-0.0490821972489357,-0.0151108438149094,-0.1711585521697998,1.0,1.0,0.6916452646255493,-0.8971719741821289
-0.0408911705017089,-0.0014903688570484,0.0579408220946788,0.0071505601517856,-0.0138731934130191,0.0247610807418823,1.0,1.0,-0.4649097919464111,-0.8968808054924011
-0.0404254905879497,-0.0008638048311695,0.0417456291615963,0.0278860013931989,-0.0091163367033004,0.0951367542147636,1.0,1.0,-0.6263918876647949,-0.8329427242279053
-0.0400370582938194,6.12354269833304e-05,0.0317218974232673,0.0411489754915237,-0.0020902927499264,0.1404996067285537,1.0,1.0,-0.7494759559631348,0.1576976776123047
-0.0396936424076557,0.0005117392283864,0.0307957716286182,0.0200241599231958,0.0014145089080557,0.0700960233807563,1.0,1.0,-0.4794223308563232,-0.3109103441238403
-0.0393886566162109,0.0005343413213267,0.0303135849535465,0.0010059580672532,0.0015911019872874,0.0035318664740771,0.0,1.0,-0.9494451880455016,-0.1524205207824707
