x_pos,y_pos,x_vel,y_vel,angle,ang_vel,leg_1,leg_2,main_booster,lat_booster
-0.0015807151794433,1.403066873550415,-0.1596852988004684,-0.3490415513515472,0.0014386818511411,0.0283553507179021,0.0,0.0,0.3375378270230835,0.9749549096980468
-0.003091812133789,1.39523446559906,-0.1502382904291153,-0.3481056988239288,0.0005790615687146,-0.0171934179961681,0.0,0.0,-0.1845784394950633,-0.6219502166148005
-0.0046930313110351,1.3868391513824463,-0.1598429232835769,-0.3731272518634796,0.0003082016773987,-0.0054180971346795,0.0,0.0,-0.3548235560034614,-0.8272084452728217
-0.0064210891723632,1.3778831958770752,-0.1741453111171722,-0.398041307926178,0.0016260643023997,0.0263599604368209,0.0,0.0,0.1422763702765599,0.768449216930995
-0.0080333705991506,1.3690487146377563,-0.1607542932033538,-0.3926488161087036,0.0011553334770724,-0.0094153163954615,0.0,0.0,0.1317533549387968,-0.980325178341552
-0.0096542360261082,1.360212802886963,-0.1632127165794372,-0.3927041590213775,0.0022647271398454,0.0221899971365928,0.0,0.0,-0.5691810553876513,0.8317654199398321
-0.0112513545900583,1.3508193492889404,-0.1588523089885711,-0.4174851179122925,0.0014183435123413,-0.0169293563812971,0.0,0.0,-0.4087351564996504,-0.7747207047830706
-0.0129298213869333,1.340870380401611,-0.1677830964326858,-0.4421791136264801,0.0013581530656665,-0.0012038832064718,0.0,0.0,0.0880464690392799,0.8149907877021874
-0.0145857809111475,1.3311991691589355,-0.1635202914476394,-0.4298294484615326,-0.0006919098086655,-0.0410051979124546,0.0,0.0,0.9874733674642058,0.6516867982757983
-0.0162183754146099,1.3222849369049072,-0.1595112532377243,-0.3961947560310364,-0.00440378440544,-0.0742443054914474,0.0,0.0,0.6720773814351231,0.8501675167552359
-0.0177081115543842,1.3137151002883911,-0.1433141529560089,-0.3809106945991516,-0.0099954837933182,-0.1118442043662071,0.0,0.0,-0.6278538325475123,0.7703615479176377
-0.0191492084413766,1.3045854568481443,-0.1363608986139297,-0.4058338701725006,-0.0176608506590127,-0.1533211469650268,0.0,0.0,-0.1473613046417616,-0.8486352143525953
-0.0206576343625783,1.2949045896530151,-0.1440549045801162,-0.430355966091156,-0.0243736132979393,-0.1342674642801284,0.0,0.0,-0.8484645447236245,-0.6296147446837576
-0.0222206115722656,1.2846623659133911,-0.1502639949321746,-0.4553224146366119,-0.0303489807993173,-0.1195181757211685,0.0,0.0,-0.1375744397066571,0.7389595264125008
-0.0237177852541208,1.2738674879074097,-0.141471192240715,-0.4799604713916778,-0.0384990833699703,-0.1630168706178665,0.0,0.0,0.1960496734156238,0.8315163324432827
-0.0250514987856149,1.262819766998291,-0.1231810227036476,-0.4912997484207153,-0.0485917665064334,-0.2018721401691436,0.0,0.0,0.6963660549513608,0.94294280329077
-0.0261064525693655,1.252526044845581,-0.0932921320199966,-0.4579361379146576,-0.0606820695102214,-0.2418278902769088,0.0,0.0,0.3276028769186008,-0.8463056380095091
-0.0270726196467876,1.2421143054962158,-0.085886150598526,-0.4632167518138885,-0.0713149160146713,-0.2126760184764862,0.0,0.0,0.2171465936820578,-0.7776801078588867
-0.0279644019901752,1.2320361137390137,-0.0797309651970863,-0.4483840763568878,-0.0806756615638732,-0.1872317343950271,0.0,0.0,0.3286612527344548,-0.9688629323132972
-0.0289543159306049,1.2221001386642456,-0.0910931900143623,-0.4420488774776459,-0.0885131359100341,-0.156763806939125,0.0,0.0,-0.8134721211958149,-0.9616133031732484
-0.0299829486757516,1.2116222381591797,-0.0961303859949112,-0.4660969972610473,-0.0951959118247032,-0.133667379617691,0.0,0.0,-0.0660424608059426,-0.8890257645978304
-0.0310558322817087,1.200592279434204,-0.1019473299384117,-0.4905681312084198,-0.1004977077245712,-0.1060453280806541,0.0,0.0,0.1367745796170003,0.9710978841164268
-0.0318807587027549,1.1895356178283691,-0.0748553052544593,-0.4919283092021942,-0.1080867201089859,-0.151793897151947,0.0,0.0,-0.814875547359724,0.8621776002697872
-0.0325979217886924,1.1779009103775024,-0.0618141219019889,-0.5178437829017639,-0.1179420053958892,-0.1971232742071151,0.0,0.0,0.727571384073421,0.644708678265827
-0.0333078391849994,1.1667338609695437,-0.0590839982032775,-0.4972875714302063,-0.1298073530197143,-0.2373277693986892,0.0,0.0,0.7245400820172443,-0.890341432619941
-0.034121323376894,1.1561344861984253,-0.0706238225102424,-0.4720558524131775,-0.1405001580715179,-0.2138560563325882,0.0,0.0,-0.2409019476228682,-0.6625791747664151
-0.0349425300955772,1.1449944972991943,-0.0723943561315536,-0.4960662126541137,-0.1502035111188888,-0.1940671354532241,0.0,0.0,-0.2859706986666273,0.9817129590957536
-0.0356557853519916,1.133294939994812,-0.0597588010132312,-0.5211808681488037,-0.1617600470781326,-0.2311307191848755,0.0,0.0,-0.1076327363044571,-0.6562755736369374
-0.0363806709647178,1.121060848236084,-0.0622384920716285,-0.5448963046073914,-0.1720271408557891,-0.2053419053554535,0.0,0.0,-0.0246927499927476,-0.8311859682285607
-0.0371201522648334,1.1082850694656372,-0.0651163607835769,-0.5688610672950745,-0.1808753013610839,-0.1769632995128631,0.0,0.0,0.8561371213591447,-0.7391634123516639
-0.0376667007803916,1.096374273300171,-0.0470876209437847,-0.5303072333335876,-0.1884769648313522,-0.152033194899559,0.0,0.0,-0.5992879223686813,-0.8282562396383509
-0.0382283218204975,1.083923101425171,-0.0501805916428566,-0.5541566014289856,-0.1944857686758041,-0.1201760992407798,0.0,0.0,0.1447710234729464,0.6891529884625192
-0.0386310592293739,1.071742296218872,-0.0325929522514343,-0.5423978567123413,-0.2022175192832946,-0.1546349227428436,0.0,0.0,-0.1684862448779569,0.7143692375245005
-0.0389222130179405,1.0589840412139893,-0.0199260730296373,-0.5683285593986511,-0.2114926129579544,-0.1855022609233856,0.0,0.0,-0.1195489360370791,0.7100508577855219
-0.0390917770564556,1.045653223991394,-0.006086928769946,-0.5940784811973572,-0.22247414290905,-0.2196306884288787,0.0,0.0,-0.1864717357505141,-0.9639216955373852
-0.0392648689448833,1.031798005104065,-0.0081177223473787,-0.617202877998352,-0.2317921817302703,-0.1863609254360199,0.0,0.0,0.2859040480588601,-0.9286392240372828
-0.0393826477229595,1.0179327726364136,-0.0042212861590087,-0.6174437403678894,-0.2394631057977676,-0.153418555855751,0.0,0.0,-0.5747036169753537,0.9240207424995328
-0.0393531806766986,1.0034908056259155,0.0126179726794362,-0.6434774994850159,-0.2493020445108413,-0.1967791467905044,0.0,0.0,-0.6727597274716506,-0.97003131000486
-0.0393284782767295,0.988533079624176,0.0102353245019912,-0.6661255955696106,-0.2572166621685028,-0.1582922935485839,0.0,0.0,-0.2222531308455451,0.8834926181817351
-0.03915910795331,0.9729925990104676,0.0266619175672531,-0.6924333572387695,-0.2671552300453186,-0.1987711638212204,0.0,0.0,-0.9545185474569412,0.9440561651820064
-0.0388538353145122,0.9568794369697572,0.041883684694767,-0.7182503938674927,-0.2787938714027405,-0.232772871851921,0.0,0.0,-0.7242749333381653,-0.9929271340370178
-0.0385319702327251,0.940234124660492,0.042052287608385,-0.7417106032371521,-0.2889476418495178,-0.20307557284832,0.0,0.0,-0.9866411089897156,-0.9978348016738892
-0.0381978042423725,0.9230502843856812,0.0417253859341144,-0.7654015421867371,-0.2975060939788818,-0.171169176697731,0.0,0.0,-0.9323108792304992,-0.9168881773948668
-0.0378426536917686,0.9053344130516052,0.0423591136932373,-0.7887917160987854,-0.3045818507671356,-0.1415160149335861,0.0,0.0,-0.8387430906295776,-0.9907854795455932
-0.0374895110726356,0.8870876431465149,0.0401290282607078,-0.8119840025901794,-0.3095681965351105,-0.0997268483042717,0.0,0.0,-0.318044900894165,-0.9935626983642578
-0.0371264442801475,0.8683068752288818,0.0393446944653987,-0.8353533148765564,-0.3127258419990539,-0.0631530582904815,0.0,0.0,-0.5241164565086365,-0.979936182498932
-0.0367489829659462,0.8489953875541687,0.0390851609408855,-0.8585760593414307,-0.3141035735607147,-0.0275544971227645,0.0,0.0,-0.7250468134880066,-0.9934410452842712
-0.0363748557865619,0.8291792273521423,0.0364031232893466,-0.8805015683174133,-0.3130552768707275,0.0209661610424518,0.0,0.0,-0.6326789855957031,-0.9660435914993286
-0.0360038764774799,0.8088561296463013,0.0337304547429084,-0.9025246500968932,-0.3095632195472717,0.0698419138789177,0.0,0.0,-0.5008456110954285,-0.9608914256095886
-0.0356240272521972,0.7880083918571472,0.0326107218861579,-0.9254240393638612,-0.3039959371089935,0.111345425248146,0.0,0.0,-0.0412119626998901,-0.927095353603363
-0.0352125167846679,0.7666281461715698,0.0343066528439521,-0.9488246440887452,-0.2969202995300293,0.1415130198001861,0.0,0.0,0.6776516437530518,-0.9574168920516968
-0.0346302986145019,0.7458314895629883,0.049464251846075,-0.9225357174873352,-0.2878859341144562,0.1806871443986892,0.0,0.0,-0.0002126693725585,-0.8313607573509216
-0.0340142250061035,0.7244963049888611,0.0513726100325584,-0.9462469220161438,-0.2773667275905609,0.2103835791349411,0.0,0.0,0.6222643852233887,-0.909492254257202
-0.0331608764827251,0.7037704586982727,0.0731314122676849,-0.9188758730888368,-0.2648658752441406,0.250016838312149,0.0,0.0,-0.0086821317672729,-0.5711650252342224
-0.0322534553706646,0.682499885559082,0.0775165185332298,-0.9430219531059264,-0.2513560056686401,0.2701971530914306,0.0,0.0,0.748176097869873,-0.7957366108894348
-0.0313032157719135,0.6614596247673035,0.0802281722426414,-0.9326645731925964,-0.2362974286079406,0.3011718094348907,0.0,0.0,0.5861474275588989,-0.354145348072052
-0.0299978256225585,0.6409481167793274,0.1151059716939926,-0.9092191457748412,-0.2206507921218872,0.3129328489303589,0.0,0.0,0.6366040706634521,-0.7558715343475342
-0.0283684730529785,0.6208330988883972,0.1454654932022094,-0.8914888501167297,-0.203012004494667,0.3527755737304687,0.0,0.0,0.4794201850891113,-0.7236977815628052
-0.0264839176088571,0.6012496948242188,0.1691557168960571,-0.8678455948829651,-0.1835875660181045,0.3884885609149933,0.0,0.0,0.5027956962585449,-0.7416647672653198
-0.024511432275176,0.582210898399353,0.1762976348400116,-0.8437168002128601,-0.1625948846340179,0.4198532700538635,0.0,0.0,0.6265519857406616,-0.455857515335083
-0.0223404876887798,0.5631470084190369,0.1956216841936111,-0.8450735211372375,-0.1411496549844741,0.4289050698280334,0.0,0.0,0.8348040580749512,-0.4164230823516845
-0.020080279558897,0.5447114109992981,0.20477195084095,-0.817487359046936,-0.1199898421764373,0.4231965541839599,0.0,0.0,0.8895869255065918,-0.7498403787612915
-0.0175658222287893,0.5265862345695496,0.2280444353818893,-0.8038473129272461,-0.0967484787106514,0.4648273587226867,0.0,0.0,0.7341861724853516,-0.6899166107177734
-0.0149263385683298,0.5088762044906616,0.2387900352478027,-0.7856704592704773,-0.0718230605125427,0.4985083043575287,0.0,0.0,0.8492027521133423,0.0564663410186767
-0.012155532836914,0.4912869334220886,0.2515832185745239,-0.7807161808013916,-0.0466014295816421,0.5044325590133667,0.0,0.0,0.9500687122344972,0.4973729848861694
-0.009407615289092,0.4742034673690796,0.2496754825115203,-0.7586689591407776,-0.0217924546450376,0.4961797595024109,0.0,0.0,0.9295163154602052,0.781747579574585
-0.0064580915495753,0.4580751061439514,0.2710603177547455,-0.7166391015052795,0.0017931326292455,0.471712052822113,0.0,0.0,0.8216800689697266,-0.4840754270553589
-0.0033281326759606,0.4418805837631225,0.2884040474891662,-0.719967782497406,0.0260740891098976,0.4856190085411072,0.0,0.0,0.9770293235778807,0.235753059387207
-0.0001017570466501,0.4266692996025085,0.2976086735725403,-0.6766727566719055,0.0507871806621551,0.494262158870697,0.0,0.0,0.95257306098938,0.5482312440872192
0.0031121254432946,0.4117382764816284,0.2975691556930542,-0.6645763516426086,0.0743537917733192,0.4713319838047027,0.0,0.0,0.9793192148208618,0.5636451244354248
0.0062843323685228,0.3974646329879761,0.2946052253246307,-0.635662317276001,0.0967526659369468,0.4479777216911316,0.0,0.0,0.9867386817932128,0.6691403388977051
0.0095668788999319,0.3837718963623047,0.3066336512565613,-0.6101035475730896,0.1182180196046829,0.429307222366333,0.0,0.0,0.993905544281006,0.2696542739868164
0.0126653667539358,0.3710185289382934,0.2887073159217834,-0.5686241984367371,0.1392665952444076,0.4209714829921722,0.0,0.0,0.9203625917434692,-0.0713844299316406
0.0158458705991506,0.3587289452552795,0.2962633967399597,-0.5483852028846741,0.161016434431076,0.4349965155124664,0.0,0.0,0.905371904373169,0.7859413623809814
0.0190647132694721,0.3465545773506164,0.3015271127223968,-0.5434154272079468,0.1814143061637878,0.4079571366310119,0.0,0.0,0.7822790145874023,0.1217561960220336
0.0223829261958599,0.3343660533428192,0.3108926117420196,-0.54440838098526,0.2024647891521453,0.4210093021392822,0.0,0.0,0.6934356689453125,0.8769956827163696
0.025755500420928,0.3221386671066284,0.3178907036781311,-0.5462072491645813,0.2220179289579391,0.3910624384880066,0.0,0.0,0.8353006839752197,0.8958226442337036
0.0290822982788085,0.3106761276721954,0.3148822784423828,-0.5122238397598267,0.24006187915802,0.3608793914318084,0.0,0.0,0.6183416843414307,0.6832804679870605
0.0324440002441406,0.2998814284801483,0.3193171918392181,-0.48260298371315,0.2572225034236908,0.3432127237319946,0.0,0.0,0.2311497926712036,-0.2872500419616699
0.0356604568660259,0.2893855571746826,0.3049246966838836,-0.4695061445236206,0.2743211090564728,0.3419719338417053,0.0,0.0,0.3659472465515136,0.6762863397598267
0.0388319008052349,0.2786989212036133,0.3017005324363708,-0.4779397845268249,0.2901821136474609,0.317220389842987,0.0,0.0,0.2245650291442871,0.2535724639892578
0.0419548042118549,0.2683140337467193,0.2964680790901184,-0.4647852480411529,0.3065106272697449,0.3265709280967712,0.0,0.0,0.6505993604660034,0.7114962339401245
0.0449425689876079,0.2581732869148254,0.2843238711357116,-0.45381960272789,0.3214970529079437,0.2997283339500427,0.0,0.0,0.2037724256515503,0.7923188209533691
0.0478796958923339,0.2481926828622818,0.2806151211261749,-0.4465515315532684,0.335158109664917,0.2732215821743011,0.0,0.0,0.8712691068649292,0.3056749105453491
0.0506340041756629,0.2387734055519104,0.2621256113052368,-0.4217843115329742,0.3490913510322571,0.2786649465560913,0.0,0.0,0.7627196311950684,0.169513463973999
0.0533535964787006,0.2297232002019882,0.2579982280731201,-0.4056892395019531,0.363791286945343,0.2939988970756531,0.0,0.0,0.7652533054351807,0.323540449142456
0.0560567863285541,0.2206458151340484,0.2560029625892639,-0.4071458876132965,0.3789461851119995,0.3030985891819,0.0,0.0,0.9239096641540528,0.2733323574066162
0.0587767586112022,0.2117286473512649,0.2569758296012878,-0.4003829658031463,0.3949399888515472,0.3198761940002441,0.0,0.0,0.8369858264923096,0.7387874126434326
0.0615595802664756,0.2032735496759414,0.2641198635101318,-0.3797968327999115,0.4101315438747406,0.3038308918476105,0.0,0.0,0.9122703075408936,0.5766910314559937
0.0644502639770507,0.1950189173221588,0.2753399312496185,-0.3709220290184021,0.4249453842639923,0.2962770760059356,0.0,0.0,0.7313237190246582,0.827580451965332
0.0671570748090744,0.1873282790184021,0.2583396136760711,-0.3455937504768371,0.4383631348609924,0.2683550715446472,0.0,0.0,0.7760238647460938,0.741567850112915
0.0696909874677658,0.1802563220262527,0.2421520948410034,-0.3178689181804657,0.4506468176841736,0.2456734478473663,0.0,0.0,0.411878228187561,0.4386699199676513
0.0721614807844162,0.1734699159860611,0.2351266145706176,-0.3055262565612793,0.4637681245803833,0.2624261975288391,0.0,0.0,0.5394248962402344,0.1268190145492553
0.0746687874197959,0.1666010171175003,0.2381830513477325,-0.3095342218875885,0.4776704311370849,0.2780458033084869,0.0,0.0,0.8003218173980713,0.2310606241226196
0.0769587531685829,0.1598785519599914,0.2164568603038787,-0.3031701147556305,0.4916552603244781,0.2796966433525085,0.0,0.0,0.7669109106063843,0.6255152225494385
0.079027846455574,0.1539329141378402,0.1951292753219604,-0.2685165405273437,0.5048933029174805,0.2647609412670135,0.0,0.0,0.2233351469039917,0.700336217880249
0.0810121521353721,0.1480123102664947,0.1877485662698745,-0.2671243548393249,0.5169793963432312,0.2417218387126922,0.0,0.0,0.6703721284866333,0.9226397275924684
0.0826243385672569,0.1425428241491317,0.1521694958209991,-0.2465520203113556,0.5272707939147949,0.2058279812335968,0.0,0.0,0.1780527830123901,0.7020326852798462
0.0841803550720214,0.1372611671686172,0.1475402265787124,-0.2378938347101211,0.5364895462989807,0.18437559902668,0.0,0.0,0.5668922662734985,0.764418363571167
0.0854609459638595,0.1323497146368026,0.1212486252188682,-0.2210072576999664,0.5443354845046997,0.1569190919399261,0.0,0.0,0.392925500869751,0.845970630645752
0.0864885300397872,0.1276888251304626,0.0972983986139297,-0.2093684524297714,0.5506471395492554,0.1262317299842834,0.0,0.0,-0.0308948159217834,0.9522532224655152
0.0876645073294639,0.1225261092185974,0.1135280728340148,-0.2311284840106964,0.5553695559501648,0.0944487899541854,0.0,0.0,0.5674014091491699,0.9478280544281006
0.0885820388793945,0.1174959242343902,0.0892396718263626,-0.2246137112379074,0.5583003163337708,0.0586146228015422,0.0,0.0,0.3212082386016845,0.9821913242340088
0.0893109291791915,0.112391360104084,0.0718947499990463,-0.2272814810276031,0.5594577789306641,0.0231491886079311,0.0,0.0,0.417345643043518,0.9806084632873536
0.0899487510323524,0.1076640188694,0.0642536357045173,-0.2099099904298782,0.5589159727096558,-0.0108361532911658,0.0,0.0,0.0179089307785034,0.972402572631836
0.0906565636396408,0.1027598679065704,0.0727423354983329,-0.2171444743871688,0.5566277503967285,-0.0457649379968643,0.0,0.0,0.4510267972946167,0.9674515724182128
0.0912789329886436,0.0983352288603782,0.0656118467450141,-0.1952545344829559,0.5527071952819824,-0.0784111246466636,0.0,0.0,-0.1931849718093872,0.9250075817108154
0.092040441930294,0.0934166312217712,0.0808842107653617,-0.2166704535484314,0.5472299456596375,-0.10954450070858,0.0,0.0,0.0203678607940673,0.8983949422836304
0.0927549377083778,0.0887642502784729,0.0776019394397735,-0.2042865753173828,0.5401298999786377,-0.1420014500617981,0.0,0.0,-0.0057774186134338,0.964930295944214
0.0936231613159179,0.0836227759718895,0.0947061032056808,-0.2253838330507278,0.5310710668563843,-0.1811769902706146,0.0,0.0,0.1706960201263427,0.8905975818634033
0.0943299308419227,0.078731283545494,0.0799679011106491,-0.2138025760650634,0.5204604864120483,-0.2122110873460769,0.0,0.0,-0.1883238554000854,0.7129700183868408
0.095166303217411,0.0733368247747421,0.0941590368747711,-0.2357845604419708,0.508531928062439,-0.2385705709457397,0.0,0.0,0.4023863077163696,0.914104700088501
0.0960225090384483,0.068003736436367,0.0975641757249832,-0.2326517403125763,0.495091050863266,-0.2688176333904266,0.0,0.0,0.7822175025939941,0.9022531509399414
0.0965707749128341,0.0629452317953109,0.0684337764978408,-0.2199990451335907,0.4798769950866699,-0.304280936717987,0.0,0.0,0.3440266847610473,0.6935312747955322
0.0969459563493728,0.0578470341861248,0.0523836426436901,-0.2215196788311004,0.4633908867835998,-0.3297222256660461,0.0,0.0,0.693220853805542,0.8421281576156616
0.0971728339791297,0.0529992431402206,0.0390057824552059,-0.2101278305053711,0.44545778632164,-0.3586620092391968,0.0,0.0,0.8394664525985718,0.8905353546142578
0.0973070114850997,0.0484681688249111,0.0312099307775497,-0.1958434730768203,0.4260772168636322,-0.387611448764801,0.0,0.0,0.7282665967941284,0.8720641136169434
0.0975572615861892,0.0440290793776512,0.0440923199057579,-0.1916656494140625,0.4054882228374481,-0.4117805957794189,0.0,0.0,0.6713614463806152,0.4745769500732422
0.0976525321602821,0.0406934842467308,0.0401490293443203,-0.1398380696773529,0.3727907836437225,-0.6539509892463684,0.0,1.0,0.9859473705291748,0.9155595302581788
0.0974866896867752,0.0382342897355556,0.0161777324974536,-0.1011445000767707,0.3382606506347656,-0.6906030774116516,0.0,1.0,0.96559476852417,0.3416907787322998
0.0972656235098838,0.0357949845492839,0.0107251154258847,-0.1010882630944252,0.3040836453437805,-0.6835401654243469,0.0,0.0,-0.9702177047729492,-0.0265400409698486
