x_pos,y_pos,x_vel,y_vel,angle,ang_vel,leg_1,leg_2,main_booster,lat_booster
-0.0015172958374023,1.40312659740448,-0.1536926478147506,-0.3463817238807678,0.0017639298457652,0.0347951352596282,0.0,0.0,0.0067720413208007,0.9150657653808594
-0.0029168128967285,1.3952757120132446,-0.1398579478263855,-0.3489288985729217,0.0016652219928801,-0.0019737491384148,0.0,0.0,-0.0754679441452026,0.35945725440979
-0.0043057440780103,1.3869261741638184,-0.1387866139411926,-0.3710867762565613,0.0015596192097291,-0.0021122053731232,0.0,0.0,-0.315300703048706,-0.1261248588562011
-0.0056820870377123,1.378078818321228,-0.1375175863504409,-0.3932205736637115,0.0014452158939093,-0.0022885887883603,0.0,0.0,0.0393749475479126,0.729154109954834
-0.0068938257172703,1.3693513870239258,-0.1196624189615249,-0.3878847956657409,-4.150871973251924e-05,-0.0297375414520502,0.0,0.0,0.0946449041366577,0.127140998840332
-0.0079981805756688,1.3606655597686768,-0.1093558222055435,-0.3860316574573517,-0.0011043788399547,-0.021259406581521,0.0,0.0,-0.7096903324127197,0.1812437772750854
-0.0090844156220555,1.3514819145202637,-0.1075290292501449,-0.4081650674343109,-0.0021806634031236,-0.021527636796236,0.0,0.0,0.1078814268112182,0.1682761907577514
-0.0100496290251612,1.342450737953186,-0.0958969146013259,-0.401385635137558,-0.0027937137056142,-0.0122621413320302,0.0,0.0,-0.6612534523010254,0.086504578590393
-0.0109933856874704,1.3329215049743652,-0.0937353149056434,-0.4235221743583679,-0.0034230384044349,-0.0125877885147929,0.0,0.0,-0.8249499797821045,0.1018252372741699
-0.0119140623137354,1.32289457321167,-0.0914158299565315,-0.4456517398357391,-0.0040695746429264,-0.0129321916028857,0.0,0.0,-0.4148273468017578,-0.3233296871185303
-0.0128103252500295,1.3123693466186523,-0.0889457613229751,-0.4677825272083282,-0.004734996240586,-0.0133098410442471,0.0,0.0,-0.5957235097885132,0.1820632219314575
-0.0136806489899754,1.3013463020324707,-0.0863318815827369,-0.4899140298366546,-0.0054207826033234,-0.0137170404195785,0.0,0.0,-0.4615392684936523,-0.5425179600715637
-0.0145570756867527,1.2898284196853638,-0.0877871736884117,-0.5119072198867798,-0.0052851368673145,0.0027132015675306,0.0,0.0,-0.2429208755493164,-0.5286800265312195
-0.0154419895261526,1.2778079509735107,-0.0895429328083992,-0.5342416167259216,-0.0042449957691133,0.0208049193024635,0.0,0.0,-0.1517482995986938,0.3250501155853271
-0.0162971504032611,1.2652894258499146,-0.0865449681878089,-0.5563730597496033,-0.003229982452467,0.020302141085267,0.0,0.0,0.156666874885559,-0.7984405159950256
-0.0170955657958984,1.2525758743286133,-0.0825216025114059,-0.5650485157966614,-0.0005841722013428,0.0529209375381469,0.0,0.0,-0.5305783748626709,-0.3354554772377014
-0.0178621299564838,1.2393642663955688,-0.0793027654290199,-0.5871835350990295,0.0020328357350081,0.052345298230648,0.0,0.0,-0.7200231552124023,-0.110464870929718
-0.0185956954956054,1.2256548404693604,-0.0759800970554351,-0.6093160510063171,0.0046210004948079,0.0517681017518043,0.0,0.0,0.1213313341140747,-0.1868635416030883
-0.0192320831120014,1.2122652530670166,-0.0665305033326149,-0.595106840133667,0.0074871242977678,0.0573274567723274,0.0,0.0,-0.5917410254478455,0.2920267581939697
-0.0198335647583007,1.19837749004364,-0.0630216673016548,-0.6172458529472351,0.0103210685774683,0.0566839650273323,0.0,0.0,-0.4832185506820678,-0.2004075646400451
-0.0203994754701852,1.1839921474456787,-0.0594282336533069,-0.6393765211105347,0.0131219625473022,0.0560227707028389,0.0,0.0,-0.785183310508728,-0.0960807204246521
-0.0209289547055959,1.1691088676452637,-0.0557563304901123,-0.6615076065063477,0.0158884394913911,0.0553346052765846,0.0,0.0,-0.5972161889076233,0.2254036664962768
-0.0214214324951171,1.153727650642395,-0.0520116761326789,-0.6836401224136353,0.0186192691326141,0.0546217188239097,0.0,0.0,-0.844456136226654,0.2403618097305297
-0.0218761451542377,1.137848734855652,-0.0482001006603241,-0.7057726979255676,0.0213132854551076,0.053885381668806,0.0,0.0,0.1768044233322143,0.2653326988220215
-0.0224034301936626,1.122156023979187,-0.0549440309405326,-0.6974875330924988,0.0235004257410764,0.0437468811869621,0.0,0.0,-0.4960408210754394,0.1271504163742065
-0.0228915214538574,1.1059439182281494,-0.0509794354438781,-0.7205759286880493,0.0256491415202617,0.0429740324616432,0.0,0.0,-0.7109898328781128,0.358688473701477
-0.0233401302248239,1.0892337560653689,-0.0469925925135612,-0.7427058815956116,0.0277585387229919,0.0421876721084117,0.0,0.0,-0.0809641480445861,0.3572454452514648
-0.023748779669404,1.0720258951187134,-0.0429604686796665,-0.7648358941078186,0.0298278871923685,0.0413870215415954,0.0,0.0,-0.5956790447235107,0.1456012725830078
-0.0241171829402446,1.0543200969696045,-0.0388881042599678,-0.7869659066200256,0.0318565666675567,0.0405735000967979,0.0,0.0,0.1245608329772949,0.3014216423034668
-0.0244697574526071,1.0366132259368896,-0.0371984206140041,-0.7870105504989624,0.0337777994573116,0.0384244918823242,0.0,0.0,0.4861204624176025,0.707046389579773
-0.0247326847165823,1.019562005996704,-0.0268093701452016,-0.7578453421592712,0.0342838130891323,0.0101203192025423,0.0,0.0,0.0496020317077636,0.0836734771728515
-0.0250133518129587,1.002427577972412,-0.0283069610595703,-0.7615327835083008,0.0345188006758689,0.0046997289173305,0.0,0.0,0.4184143543243408,0.2841577529907226
-0.0253471378237009,0.9858232736587524,-0.0332474634051322,-0.7379637956619263,0.0343829840421676,-0.0027163294143974,0.0,0.0,0.427217960357666,-0.4084068536758423
-0.0257051475346088,0.9691854119300842,-0.0353615097701549,-0.7394545078277588,0.0339491330087184,-0.008677139878273,0.0,0.0,0.1010432243347168,-0.2080153226852417
-0.0260248184204101,0.9526765942573548,-0.0315324701368808,-0.7337098717689514,0.0335217155516147,-0.0085483314469456,0.0,0.0,-0.3417468070983886,-0.1453084945678711
-0.0263027194887399,0.9356700778007508,-0.0273107327520847,-0.7558394074440002,0.0330502651631832,-0.0094289863482117,0.0,0.0,0.2677168846130371,-0.4284868240356445
-0.0265704151242971,0.9186883568763732,-0.0261569675058126,-0.7547330856323242,0.0324413143098354,-0.0121791334822773,0.0,0.0,0.3385936021804809,-0.4017708897590637
-0.0267855636775493,0.9021347761154176,-0.0209925975650548,-0.7357046604156494,0.0319304279983043,-0.0102177644148468,0.0,0.0,-0.3276283144950866,-0.2990198135375976
-0.02695894241333,0.8850831985473633,-0.0167726352810859,-0.7578343152999878,0.0313747301697731,-0.0111139863729476,0.0,0.0,0.2538663148880005,0.0147956609725952
-0.027083683758974,0.8682263493537903,-0.011963902041316,-0.7491804957389832,0.030873242765665,-0.0100298840552568,0.0,0.0,-0.2040280699729919,0.2640318870544433
-0.0271668434143066,0.8508716821670532,-0.0077655604109168,-0.7713101506233215,0.0303266365081071,-0.0109320413321256,0.0,0.0,0.2796106338500976,0.5270564556121826
-0.0270751006901264,0.8336322903633118,0.0106007345020771,-0.7661628127098083,0.0289139579981565,-0.0282538048923015,0.0,0.0,-0.5113461017608643,-0.1586056351661682
-0.0269422531127929,0.8158950805664062,0.0147616891190409,-0.7882925868034363,0.0274560246616601,-0.0291584786027669,0.0,0.0,0.1893414258956909,0.004657506942749
-0.0267074592411518,0.7982334494590759,0.0246647112071514,-0.7849374413490295,0.0262834876775741,-0.0234509389847517,0.0,0.0,-0.3502448797225952,0.1484154462814331
-0.0264321323484182,0.7800739407539368,0.0287729259580373,-0.8070671558380127,0.0250657368451356,-0.0243546403944492,0.0,0.0,0.0271848440170288,-0.1492812037467956
-0.0260931011289358,0.7617291808128357,0.0350507535040378,-0.8153055906295776,0.0239350330084562,-0.0226143095642328,0.0,0.0,0.1842864751815796,0.8488060235977173
-0.025603961199522,0.7433664202690125,0.0517793968319892,-0.8160771727561951,0.0211028568446636,-0.0566438138484954,0.0,0.0,0.0258047580718994,-0.336039662361145
-0.025156021118164,0.725280225276947,0.0480398684740066,-0.8037959933280945,0.0179030578583478,-0.0639961510896682,0.0,0.0,-0.6244145631790161,-0.1575533151626587
-0.0246689803898334,0.7066959738731384,0.0519982390105724,-0.8259265422821045,0.0146586913615465,-0.0648875012993812,0.0,0.0,0.2971241474151611,-0.4556732773780823
-0.0241656303405761,0.6882126331329346,0.0537426471710205,-0.821452796459198,0.0112931411713361,-0.0673109591007232,0.0,0.0,0.0699434280395507,-0.5639109015464783
-0.023569393903017,0.6697871088981628,0.0617770738899707,-0.8189026117324829,0.0091675613075494,-0.0425117276608943,0.0,0.0,0.3552244901657104,-0.7820724248886108
-0.0230561252683401,0.6517736315727234,0.0520216822624206,-0.8005951642990112,0.0084834704175591,-0.0136818140745162,0.0,0.0,-0.3454858660697937,-0.0467652678489685
-0.022505760192871,0.6332622766494751,0.0557737946510314,-0.8227247595787048,0.0077561303041875,-0.0145469810813665,0.0,0.0,0.3478643894195556,-0.28340744972229
-0.0219213478267192,0.615229070186615,0.0592119209468364,-0.8014692664146423,0.0069979783147573,-0.0151629792526364,0.0,0.0,-0.1426787376403808,0.3415063619613647
-0.0213010795414447,0.5966981053352356,0.062840960919857,-0.8235989809036255,0.0061974800191819,-0.0160099603235721,0.0,0.0,0.4740855693817138,-0.2976728677749634
-0.02073335647583,0.5782989263534546,0.0580187365412712,-0.8177350163459778,0.004960766993463,-0.0247342716902494,0.0,0.0,0.277158260345459,-0.0034935474395751
-0.0200614929199218,0.5603265762329102,0.0681358501315116,-0.7987689971923828,0.0040189698338508,-0.0188357550650835,0.0,0.0,0.1892493963241577,-0.6276050209999084
-0.0192967411130666,0.5425874590873718,0.0760279595851898,-0.7884076833724976,0.0044579575769603,0.0087798554450273,0.0,0.0,-0.0556852221488952,-0.4244661331176758
-0.0184989925473928,0.5243503451347351,0.0793739929795265,-0.8105374574661255,0.0048569315113127,0.0079796370118856,0.0,0.0,0.7875411510467529,-0.6372307538986206
-0.0178122520446777,0.5068952441215515,0.0672488063573837,-0.7757896184921265,0.0062626143917441,0.0281135831028223,0.0,0.0,0.5311555862426758,-0.0140473246574401
-0.0170486457645893,0.489457368850708,0.0747446492314338,-0.7750214338302612,0.0078491503372788,0.0317309759557247,0.0,0.0,0.7959740161895752,-0.491892397403717
-0.0163694377988576,0.4726641178131103,0.0668636932969093,-0.7463741302490234,0.0088936304673552,0.0208893716335296,0.0,0.0,0.7259616851806641,-0.4487791061401367
-0.0155362132936716,0.4561850428581238,0.0817019566893577,-0.7324134111404419,0.0104979639872908,0.0320865660905838,0.0,0.0,0.4795520305633545,-0.6821227669715881
-0.0147104263305664,0.4400320053100586,0.0795620530843734,-0.7179372906684875,0.0134670250117778,0.0593811981379985,0.0,0.0,0.5080915689468384,-0.2401683330535888
-0.0138545036315917,0.4239300787448883,0.0825923904776573,-0.7156702280044556,0.016433848068118,0.0593363568186759,0.0,0.0,0.666698694229126,-0.2700413465499878
-0.0131060602143406,0.4082214832305908,0.0724625363945961,-0.6981875896453857,0.0187886282801628,0.0470955595374107,0.0,0.0,0.7344815731048584,-0.1937552690505981
-0.0123257637023925,0.3933631181716919,0.0755813121795654,-0.6604040265083313,0.0212143044918775,0.0485133230686187,0.0,0.0,0.1935639381408691,-0.5961230397224426
-0.0115058897063136,0.3783172965049743,0.078244462609291,-0.6687611937522888,0.024906400591135,0.0738420635461807,0.0,0.0,0.3433479070663452,-0.2799760103225708
-0.0106570245698094,0.3638154864311218,0.0810764133930206,-0.6445963978767395,0.0286688469350337,0.0752486214041709,0.0,0.0,-0.1472585797309875,0.1586986780166626
-0.0097847934812307,0.3488158583641052,0.0834425091743469,-0.6667271852493286,0.0324010476469993,0.0746440887451171,0.0,0.0,0.6445052623748779,-0.527866780757904
-0.0090515138581395,0.3343244194984436,0.0687788128852844,-0.644169270992279,0.0368910543620586,0.0898003578186035,0.0,0.0,0.6944179534912109,0.2823164463043213
-0.0082888603210449,0.3202938139438629,0.0715990886092186,-0.6237035989761353,0.0414990410208702,0.0921597480773925,0.0,0.0,0.5839033126831055,0.4104259014129638
-0.0076627731323242,0.3069713115692138,0.0585480444133281,-0.5922300815582275,0.0455089583992958,0.0801981166005134,0.0,0.0,0.5581121444702148,0.564949631690979
-0.0069227218627929,0.2939752638339996,0.0709237456321716,-0.5777000188827515,0.0485526472330093,0.0608736984431743,0.0,0.0,0.6075382232666016,0.0577355623245239
-0.0062155723571777,0.2810491025447845,0.0678190365433693,-0.5745924115180969,0.0514202862977981,0.0573527291417121,0.0,0.0,0.7458118200302124,0.584027886390686
-0.0053853034041821,0.2681430280208587,0.0811241492629051,-0.5736714005470276,0.053305048495531,0.0376952663064003,0.0,0.0,0.8243646621704102,-0.6676489114761353
-0.0046486854553222,0.2552865743637085,0.0705249607563018,-0.5715106725692749,0.0564063303172588,0.0620253980159759,0.0,0.0,0.7952476739883423,0.2837312221527099
-0.0039543150924146,0.2432224303483963,0.0663643330335617,-0.536304771900177,0.0594451427459716,0.0607763528823852,0.0,0.0,0.7333190441131592,0.64552903175354
-0.0031550407875329,0.2319610267877578,0.0779569372534751,-0.5005879402160645,0.0613963119685649,0.0390233248472213,0.0,0.0,0.7365331649780273,-0.2680224180221557
-0.0025127411354333,0.2214770168066024,0.0628288239240646,-0.466013103723526,0.0627842545509338,0.0277588963508605,0.0,0.0,0.846289873123169,0.0656977891921997
-0.0020254135597497,0.2110356390476226,0.0480161905288696,-0.4640911817550659,0.0634871497750282,0.0140579994767904,0.0,0.0,0.6879336833953857,-0.082095980644226
-0.00153675081674,0.2013092339038849,0.0479816570878028,-0.4323212504386902,0.0643659681081771,0.0175763070583343,0.0,0.0,0.5899398326873779,-0.7714877724647522
-0.0012415886158123,0.1918976902961731,0.0272860769182443,-0.4183896481990814,0.0665745884180069,0.0441722348332405,0.0,0.0,0.7136563062667847,-0.0687701106071472
-0.001040267990902,0.1830348074436187,0.0181807540357112,-0.3939932584762573,0.0685083419084549,0.0386749394237995,0.0,0.0,0.8435723781585693,0.2325043678283691
-0.00089693069458,0.1748403459787368,0.012457855977118,-0.3642834722995758,0.0703700259327888,0.0372333265841007,0.0,0.0,0.3989858627319336,-0.0771606564521789
-0.0007065773243084,0.1668930649757385,0.0168114230036735,-0.3533210158348083,0.0725644081830978,0.0438877753913402,0.0,0.0,0.6751747131347656,0.4726071357727051
-0.0005105018499307,0.1589696705341339,0.0172890145331621,-0.3522627651691437,0.0748626515269279,0.0459647662937641,0.0,0.0,0.815932035446167,-0.3893739581108093
-0.0002395629853708,0.1512219458818435,0.0242950450628995,-0.3444865942001343,0.0776267349720001,0.0552818477153778,0.0,0.0,0.5617107152938843,0.2574292421340942
0.0001334190310444,0.1437998861074447,0.0338677614927291,-0.3300537168979645,0.0810298919677734,0.0680628046393394,0.0,0.0,0.6466207504272461,-0.7312551736831665
0.0005737304454669,0.1364736706018448,0.0388165898621082,-0.3259003460407257,0.0861939936876297,0.1032822281122207,0.0,0.0,0.5517038106918335,0.0364181995391845
0.000951862311922,0.1297037005424499,0.0326246358454227,-0.3011961281299591,0.0913322120904922,0.1027643904089927,0.0,0.0,0.0219485759735107,-0.1477609872817993
0.0013092994922772,0.1231396496295929,0.0304758362472057,-0.2920666337013244,0.0965592339634895,0.1045404821634292,0.0,0.0,-0.30298912525177,0.2935969829559326
0.0016692162025719,0.1160780787467956,0.0307185258716344,-0.3141986131668091,0.1017880216240882,0.1045759692788124,0.0,0.0,0.1075820922851562,-0.4348574876785278
0.0020759582985192,0.1088558509945869,0.0350830368697643,-0.3213800489902496,0.1073328331112861,0.1108963042497634,0.0,0.0,0.3056162595748901,-0.6006878614425659
0.0023481368552893,0.1017196774482727,0.0205161459743976,-0.3176597356796264,0.1139935627579689,0.1332145780324936,0.0,0.0,0.462995171546936,0.6048877239227295
0.002662181854248,0.095253974199295,0.0257330033928155,-0.2878089845180511,0.1196275278925895,0.112679086625576,0.0,0.0,0.1197847127914428,0.6300220489501953
0.0029620169661939,0.0888706743717193,0.0256082210689783,-0.2840595543384552,0.1239872127771377,0.0871936604380607,0.0,0.0,0.466922402381897,-0.8047371506690979
0.0029877661727368,0.0830138027667999,-0.0032546415459364,-0.2608027756214142,0.1297801733016967,0.115859530866146,0.0,0.0,0.5820333957672119,0.0910303592681884
0.0030086517799645,0.0776695609092712,-0.0041209300979971,-0.2380752712488174,0.1359690874814987,0.123778261244297,0.0,0.0,-0.0778648853302002,0.8278882503509521
0.0030868530739098,0.0718459486961364,0.0031066501978784,-0.2592673003673553,0.1406595557928085,0.0938092619180679,0.0,0.0,0.5449016094207764,0.7069985866546631
0.0030357360374182,0.0665633529424667,-0.0082374531775712,-0.2350799441337585,0.1437835544347763,0.0624800212681293,0.0,0.0,0.5872730016708374,0.9602680206298828
0.002962875412777,0.0615004859864711,-0.0084800254553556,-0.2251296937465667,0.1449722945690155,0.0237752124667167,0.0,0.0,0.3836019039154053,0.9306821823120116
0.0027770041488111,0.0566799491643905,-0.0178468786180019,-0.2141730487346649,0.1442236900329589,-0.0149721698835492,0.0,0.0,-0.0561398267745971,0.9503248929977416
0.0026444434188306,0.0513716079294681,-0.0110884606838226,-0.2357187718153,0.1420675814151764,-0.043122261762619,0.0,0.0,0.6982709169387817,0.7805185317993164
0.0025837898720055,0.0467054955661296,-0.0025799577124416,-0.2070562839508056,0.1385958045721054,-0.0694359019398689,0.0,0.0,0.4821031093597412,0.5473760366439819
0.0025768280029296,0.0420499667525291,0.0037155866157263,-0.2065076529979705,0.1341944485902786,-0.0880270898342132,0.0,0.0,0.7108210325241089,0.7728137969970703
0.0026844977401196,0.0381225682795047,0.0164061821997165,-0.1740534007549286,0.1285889446735382,-0.1121102124452591,0.0,0.0,0.0878868103027343,0.3615645170211792
0.0027087212074548,0.0344550237059593,0.0081102456897497,-0.1625237464904785,0.1229346618056297,-0.1130857318639755,0.0,0.0,0.365484356880188,0.7406985759735107
0.002831554505974,0.0313850753009319,0.0192458201199769,-0.13588647544384,0.116014689207077,-0.1383996605873108,0.0,0.0,-0.2551448345184326,-0.0489002466201782
0.0029514313209801,0.0278178080916404,0.0189270935952663,-0.1580203622579574,0.1091173887252807,-0.1379458010196685,0.0,0.0,0.1536145210266113,-0.0033440589904785
0.0030013085342943,0.0246025174856185,0.0119329169392585,-0.1424076855182647,0.1022202521562576,-0.137942686676979,0.0,0.0,0.044385552406311,-0.3004944324493408
0.0030357360374182,0.0216387845575809,0.0101931160315871,-0.1312755495309829,0.0955246835947036,-0.1339113563299179,0.0,0.0,-0.0958626270294189,-0.4805940985679626
0.0030675888992846,0.01817780546844,0.0099137835204601,-0.1534091830253601,0.088853970170021,-0.1334143429994583,0.0,0.0,0.6114439964294434,0.1243380308151245
0.002924823667854,0.0151046374812722,-0.0070185596123337,-0.1361686438322067,0.0816567912697792,-0.1439433097839355,0.0,0.0,0.2983143329620361,0.2015299797058105
0.0026463507674634,0.012126812711358,-0.0201278645545244,-0.1319474130868911,0.0740189552307128,-0.1527566760778427,0.0,0.0,0.4841482639312744,0.2915881872177124
0.0023095130454748,0.0094072315841913,-0.0259055495262146,-0.1205049902200698,0.0663180723786354,-0.1540177166461944,0.0,0.0,0.0664343833923339,0.3655558824539184
0.0019651413895189,0.006707570515573,-0.0267499089241027,-0.1196639984846115,0.0587215572595596,-0.1519303619861602,0.0,0.0,0.0648759603500366,0.3357203006744385
0.0016274452209472,0.0043296311050653,-0.0142461778596043,-0.1050347536802291,0.0394125469028949,-0.3861804604530334,0.0,1.0,0.4991188049316406,0.3017265796661377
0.0013534545432776,0.0023937558289617,-0.0082633793354034,-0.0856431871652603,0.0205130632966756,-0.3779894113540649,0.0,1.0,-0.0391396880149841,0.2544425725936889
0.0010793686378747,-3.5288332583149895e-05,-0.0082620047032833,-0.1078027933835983,0.0016140606021508,-0.3779801428318023,0.0,0.0,0.220874547958374,-0.66689133644104
0.0008044242858886,-0.0026194716338068,-0.0098023014143109,-0.1149247586727142,-0.0158534962683916,-0.3493511080741882,1.0,0.0,0.5211434364318848,-0.021453320980072
