x_pos,y_pos,x_vel,y_vel,angle,ang_vel,leg_1,leg_2,main_booster,lat_booster
-0.0015510559314861,1.4032896757125854,-0.1574914455413818,-0.3391271233558655,0.0021338241640478,0.042119450867176,0.0,0.0,-0.1229434013366699,0.80534827709198
-0.0030607222579419,1.3953440189361572,-0.1516655683517456,-0.3531384468078613,0.0028226668946444,0.0137789594009518,0.0,0.0,-0.2466941475868225,0.4230225086212158
-0.0045970915816724,1.3870632648468018,-0.1546653807163238,-0.3680386245250702,0.003843419952318,0.020417096093297,0.0,0.0,0.2065788507461547,0.8518553972244263
-0.0061943056061863,1.3789920806884766,-0.1592876017093658,-0.358720451593399,0.0034202008973807,-0.0084653347730636,0.0,0.0,0.2828047275543213,0.7645325660705566
-0.0076457024551928,1.371348857879639,-0.143662616610527,-0.3396976292133331,0.0019622526597231,-0.0291617363691329,0.0,0.0,-0.121850848197937,0.8133225440979004
-0.0090435026213526,1.3633698225021362,-0.1366363018751144,-0.354617565870285,-0.0011566882021725,-0.0623843595385551,0.0,0.0,0.1234077215194702,0.3123242855072021
-0.0104806898161768,1.3556455373764038,-0.1408117115497589,-0.3433124721050262,-0.00404036603868,-0.0576788373291492,0.0,0.0,-0.1128371357917785,-0.2094202637672424
-0.0119420047849416,1.3475862741470337,-0.1435090452432632,-0.3581945300102234,-0.0066238166764378,-0.0516734048724174,0.0,0.0,-0.0900999307632446,0.6169543266296387
-0.0133788110688328,1.3391988277435305,-0.140165090560913,-0.3727979362010956,-0.0101119447499513,-0.0697688534855842,0.0,0.0,0.0263159275054931,0.4386117458343506
-0.0148344039916992,1.331153392791748,-0.1423154026269912,-0.3575939834117889,-0.0133175048977136,-0.0641170293092727,0.0,0.0,-0.1814306378364563,0.8006260395050049
-0.0162399299442768,1.3227726221084597,-0.1357617527246475,-0.3725315034389496,-0.018061064183712,-0.0948798581957817,0.0,0.0,0.3299531936645508,0.3830585479736328
-0.0176023487001657,1.314693570137024,-0.1319860816001892,-0.3591274917125702,-0.0222682431340217,-0.0841513872146606,0.0,0.0,-0.0778555274009704,-0.0516530275344848
-0.0189855583012104,1.3062796592712402,-0.1343269646167755,-0.3740102648735046,-0.0262201111763715,-0.0790445059537887,0.0,0.0,-0.7093582153320312,0.3780627250671386
-0.0203889850527048,1.297531247138977,-0.1365913301706314,-0.3888862431049347,-0.0299267377704381,-0.0741391777992248,0.0,0.0,-0.6141331195831299,0.6256318092346191
-0.0217508319765329,1.2884522676467896,-0.1311281025409698,-0.4036287367343902,-0.0349304750561714,-0.1000838130712509,0.0,0.0,-0.0045955181121826,0.5693609714508057
-0.0230785366147756,1.2790290117263794,-0.1265884190797805,-0.4189595282077789,-0.0410477332770824,-0.1223562136292457,0.0,0.0,-0.5894456505775452,0.644665002822876
-0.0243616104125976,1.2692755460739136,-0.12074925750494,-0.4337201118469238,-0.0485263690352439,-0.1495857536792755,0.0,0.0,-0.4045227169990539,-0.0184894204139709
-0.0256619453430175,1.2591876983642578,-0.1226804107427597,-0.4486013650894165,-0.0558077134191989,-0.1456400752067566,0.0,0.0,-0.2901169657707214,-0.3354634046554565
-0.0269789695739746,1.2487658262252808,-0.1245288848876953,-0.4634824097156524,-0.0629061535000801,-0.1419817805290222,0.0,0.0,-0.641339123249054,-0.1320637464523315
-0.0283118244260549,1.238009691238403,-0.1262926906347274,-0.478363424539566,-0.0698355212807655,-0.1385999023914337,0.0,0.0,-0.199251651763916,0.0777379274368286
-0.0296599380671978,1.2269190549850464,-0.1279711872339248,-0.4932443797588348,-0.0766104385256767,-0.1355107873678207,0.0,0.0,-0.2594169974327087,0.194571852684021
-0.0310225486755371,1.2154943943023682,-0.1295636892318725,-0.508125364780426,-0.083246000111103,-0.1327231228351593,0.0,0.0,0.0971617698669433,0.6369171142578125
-0.0322219841182231,1.204256534576416,-0.1122259646654129,-0.4999047517776489,-0.0908984318375587,-0.1530621945858001,0.0,0.0,-0.6640999913215637,-0.5906899571418762
-0.0334759727120399,1.192683458328247,-0.1188423037528991,-0.514768660068512,-0.0974041670560836,-0.1301263272762298,0.0,0.0,0.387108564376831,-0.7066835761070251
-0.0348770134150981,1.1816123723983765,-0.1348463594913482,-0.492409735918045,-0.1026297658681869,-0.1045215129852294,0.0,0.0,-0.6135733723640442,0.2176247835159301
-0.0362913124263286,1.170185089111328,-0.1362407207489013,-0.5082414746284485,-0.1077800169587135,-0.1030048727989196,0.0,0.0,-0.2684553861618042,0.2898457050323486
-0.037716768682003,1.158423662185669,-0.1374163478612899,-0.5231181979179382,-0.1128718107938766,-0.1018360704183578,0.0,0.0,0.0360461473464965,-0.1856743693351745
-0.0391757972538471,1.1471127271652222,-0.1404360681772232,-0.503125786781311,-0.1183008477091789,-0.1085805892944336,0.0,0.0,-0.2824263572692871,0.4360452890396118
-0.0406444557011127,1.135467529296875,-0.14143967628479,-0.5180030465126038,-0.1237044855952262,-0.1080729737877845,0.0,0.0,0.3210172653198242,-0.1972579360008239
-0.0420907959342002,1.1240715980529783,-0.1391353905200958,-0.5069568157196045,-0.1291769295930862,-0.1094487756490707,0.0,0.0,0.5756036043167114,0.1343207359313964
-0.0434237495064735,1.1135387420654297,-0.1278806775808334,-0.4686015248298645,-0.1345743089914322,-0.1079474836587905,0.0,0.0,0.5255045890808105,0.6913502216339111
-0.0447346679866313,1.1032742261886597,-0.1240994334220886,-0.4568468928337097,-0.1415323466062545,-0.1391608417034149,0.0,0.0,-0.7003198266029358,-0.0882155895233154
-0.0460524559020996,1.0926756858825684,-0.1247722059488296,-0.4717264771461487,-0.1485297232866287,-0.1399475634098053,0.0,0.0,-0.8524891138076782,0.2634831666946411
-0.0473768226802349,1.0817433595657349,-0.1253660172224044,-0.4866062700748443,-0.155581995844841,-0.1410453915596008,0.0,0.0,-0.7929231524467468,-0.6052936911582947
-0.0487526878714561,1.0704889297485352,-0.1316477954387664,-0.5008268356323242,-0.1615251153707504,-0.1188619956374168,0.0,0.0,-0.9569831490516664,-0.1902080774307251
-0.0501338951289653,1.0589004755020142,-0.132089227437973,-0.515705943107605,-0.1675530523061752,-0.1205584779381752,0.0,0.0,0.942023754119873,-0.3119235634803772
-0.0514607429504394,1.0477774143218994,-0.1264296919107437,-0.4950787723064422,-0.1738228499889373,-0.1253959238529205,0.0,0.0,-0.8172515630722046,0.4166898727416992
-0.0527915954589843,1.036320447921753,-0.1267278790473938,-0.5099586844444275,-0.1802055984735489,-0.1276548206806183,0.0,0.0,0.2703417539596557,-0.5634589791297913
-0.0540855415165424,1.0255126953125,-0.1239718645811081,-0.4810158014297485,-0.1856468468904495,-0.1088251024484634,0.0,0.0,-0.8176562786102295,-0.2654414176940918
-0.0553824417293071,1.0143707990646362,-0.1241366490721702,-0.4958954751491546,-0.1912271380424499,-0.1116060018539428,0.0,0.0,0.6582090854644775,-0.6266807317733765
-0.0566950812935829,1.0040982961654663,-0.1265391111373901,-0.4571732580661773,-0.1959698349237442,-0.0948538780212402,0.0,0.0,-0.8348280787467957,-0.2249805331230163
-0.0580095276236534,0.9934919476509094,-0.1265817433595657,-0.4720527827739715,-0.2008755207061767,-0.0981132909655571,0.0,0.0,0.6108858585357666,-0.7338402271270752
-0.0592205040156841,0.9829791188240052,-0.1177149266004562,-0.4676986336708069,-0.2042861580848693,-0.0682128518819809,0.0,0.0,-0.7283676862716675,-0.1747325658798217
-0.0604326240718364,0.9721322655677797,-0.1176475435495376,-0.48257777094841,-0.2078814804553985,-0.0719064623117446,0.0,0.0,-0.9405918121337892,-0.0971032381057739
-0.0616455078125,0.9609515070915222,-0.1175301894545555,-0.4974572360515594,-0.2116715013980865,-0.0758005380630493,0.0,0.0,-0.8867265582084656,-0.6835798025131226
-0.0629084557294845,0.94944566488266,-0.1235948055982589,-0.5117616653442383,-0.2144006341695785,-0.0545827373862266,0.0,0.0,0.2501112222671509,-0.7110493779182434
-0.0641042739152908,0.938098967075348,-0.1181495934724807,-0.5045073628425598,-0.2158464342355728,-0.0289161894470453,0.0,0.0,-0.9172160625457764,-0.6903702020645142
-0.0653618797659874,0.9264461398124696,-0.1257453262805938,-0.5179028511047363,-0.2158594280481338,-0.0002599525032564,0.0,0.0,-0.982337772846222,-0.4539849758148193
-0.0666189193725586,0.914459466934204,-0.125462457537651,-0.5327820181846619,-0.2161019146442413,-0.0048496625386178,0.0,0.0,-0.7927208542823792,-0.8482154607772827
-0.0679430961608886,0.902158498764038,-0.1337001621723175,-0.546521008014679,-0.214816004037857,0.0257181227207183,0.0,0.0,-0.886299192905426,-0.6848021149635315
-0.069306656718254,0.8895366787910461,-0.1384218037128448,-0.5606722235679626,-0.2127243131399154,0.0418337434530258,0.0,0.0,-0.9854034781455994,-0.189536452293396
-0.0706689804792404,0.8765808343887329,-0.1380541324615478,-0.5755520462989807,-0.2108830213546753,0.0368257239460945,0.0,0.0,-0.970041275024414,-0.1497343182563781
-0.0720298737287521,0.8632910847663879,-0.1376659125089645,-0.5904319286346436,-0.2092982232570648,0.0316961333155632,0.0,0.0,-0.9222002029418944,-0.3540363311767578
-0.073389433324337,0.849667489528656,-0.137261152267456,-0.6053116917610168,-0.2079755365848541,0.0264533162117004,0.0,0.0,-0.966192662715912,-0.7868744134902954
-0.0747936218976974,0.8357214331626892,-0.1426392048597335,-0.6195108294487,-0.2057316601276397,0.0448779426515102,0.0,0.0,-0.9904761910438538,-0.5758695602416992
-0.0762480720877647,0.821455180644989,-0.1487357020378112,-0.6335999965667725,-0.2024204432964325,0.0662242099642753,0.0,0.0,-0.9882466197013856,-0.4194582104682922
-0.0777009949088096,0.8068551421165466,-0.1483060866594314,-0.6484805345535278,-0.1993860453367233,0.0606880970299243,0.0,0.0,-0.8581330180168152,-0.8607680201530457
-0.079203225672245,0.7919403314590454,-0.1542896181344986,-0.6623384952545166,-0.1952971369028091,0.0817783921957016,0.0,0.0,-0.8189048767089844,0.1952896118164062
-0.0807041153311729,0.7766917943954468,-0.1538642048835754,-0.677219569683075,-0.1914930492639541,0.0760818570852279,0.0,0.0,-0.7961914539337158,-0.4399434924125671
-0.0822035819292068,0.7611095309257507,-0.1534470915794372,-0.692100465297699,-0.1879773288965225,0.0703146904706955,0.0,0.0,-0.8740540742874146,0.4675149917602539
-0.0837019905447959,0.745193362236023,-0.1530425697565078,-0.7069811224937439,-0.1847531795501709,0.0644828826189041,0.0,0.0,-0.7247822880744934,-0.1845391988754272
-0.0851993560791015,0.7289432883262634,-0.1526548862457275,-0.7218616008758545,-0.1818235665559768,0.0585921481251716,0.0,0.0,-0.5181965827941895,0.4101467132568359
-0.0866959542036056,0.7123595476150513,-0.1522883921861648,-0.736741840839386,-0.1791911721229553,0.0526478886604309,0.0,0.0,-0.8025362491607666,0.0511010885238647
-0.088192269206047,0.695441722869873,-0.1519473493099212,-0.7516219615936279,-0.1768584102392196,0.0466552786529064,0.0,0.0,-0.3375362157821655,0.353234052658081
-0.0896883010864257,0.6781900525093079,-0.1516360938549041,-0.7665018439292908,-0.174827441573143,0.0406192690134048,0.0,0.0,0.6963824033737183,-0.0743004083633422
-0.0912042632699012,0.6615340113639832,-0.1527320295572281,-0.740136981010437,-0.1736882477998733,0.0227839089930057,0.0,0.0,-0.6962351202964783,0.093765377998352
-0.0927208885550499,0.6445440053939819,-0.1524931639432907,-0.7550165057182312,-0.172854483127594,0.0166750513017177,0.0,0.0,0.6706744432449341,0.3488079309463501
-0.094105914235115,0.6276354789733887,-0.1394158452749252,-0.7513819336891174,-0.171943724155426,0.0182150043547153,0.0,0.0,0.8819601535797119,-0.5938568711280823
-0.0953392013907432,0.6118406653404236,-0.1252056062221527,-0.7017800211906433,-0.1700580716133117,0.0377129092812538,0.0,0.0,-0.4641560316085815,-0.3858347535133362
-0.0965745002031326,0.5957117676734924,-0.1251074820756912,-0.7166597247123718,-0.1684817522764206,0.0315267071127891,0.0,0.0,0.5945215225219727,-0.2131656408309936
-0.097790241241455,0.5802375674247742,-0.1224317327141761,-0.687644898891449,-0.1676256358623504,0.0171223394572734,0.0,0.0,0.3105107545852661,-0.5875146389007568
-0.0989460945129394,0.5651655793190002,-0.1173637732863426,-0.6696693897247314,-0.1658501923084259,0.0355088859796524,0.0,0.0,-0.6350039839744568,0.1211215257644653
-0.1001059561967849,0.549759566783905,-0.1174438744783401,-0.6845489740371704,-0.1643861830234527,0.0292799808084964,0.0,0.0,-0.2170915603637695,-0.5126469731330872
-0.1013054847717285,0.5340283513069153,-0.1220010370016098,-0.6989408135414124,-0.1623326539993286,0.0410706810653209,0.0,0.0,0.8849012851715088,-0.3785967826843261
-0.1024761199951171,0.5186328887939453,-0.118625521659851,-0.6840705871582031,-0.1607691049575805,0.0312710329890251,0.0,0.0,0.8678265810012817,-0.5606976747512817
-0.1035574898123741,0.5034327507019043,-0.1107411012053489,-0.6752809286117554,-0.1581696271896362,0.0519896633923053,0.0,0.0,0.7168680429458618,0.3220372200012207
-0.1046226471662521,0.4884289801120758,-0.1086483150720596,-0.6666103601455688,-0.1560339480638504,0.0427131578326225,0.0,0.0,0.7906568050384521,-0.0205163955688476
-0.1055707931518554,0.4743672013282776,-0.0965955704450607,-0.6247835755348206,-0.1542518883943557,0.0356409102678298,0.0,0.0,-0.3191621899604797,0.014227271080017
-0.1065275222063064,0.4599713087081909,-0.0971376970410347,-0.6396628618240356,-0.152780994772911,0.0294177886098623,0.0,0.0,0.6998143196105957,-0.4614114761352539
-0.1074796691536903,0.4465144872665405,-0.0958453565835952,-0.5980173945426941,-0.1521548479795456,0.0125233232975006,0.0,0.0,-0.6408539414405823,-0.2842318415641784
-0.1084422096610069,0.4327235817909241,-0.0965698361396789,-0.6128963232040405,-0.1518385112285614,0.0063267038203775,0.0,0.0,0.8545193672180176,0.0915120840072631
-0.1092370003461837,0.4199040532112121,-0.0796994417905807,-0.5697358846664429,-0.1516217738389969,0.0043347096070647,0.0,0.0,0.1296581029891967,0.5596828460693359
-0.1100167259573936,0.4073412418365478,-0.0766321048140525,-0.5584846138954163,-0.1529648452997207,-0.0268611907958984,0.0,0.0,0.0193676948547363,-0.4801446199417114
-0.1107794791460037,0.3950721621513366,-0.0744655951857566,-0.5454810261726379,-0.1547711938619613,-0.0361265465617179,0.0,0.0,0.0627895593643188,-0.6762552261352539
-0.1115482300519943,0.3831534385681152,-0.0761116296052932,-0.5297996401786804,-0.1555366814136505,-0.0153098478913307,0.0,0.0,-0.4077990055084228,0.8268823623657227
-0.1122584342956543,0.370883584022522,-0.0680540949106216,-0.5456430315971375,-0.1585004925727844,-0.0592762343585491,0.0,0.0,0.5084257125854492,-0.984269380569458
-0.1129892319440841,0.3587455451488495,-0.0717976838350296,-0.5396036505699158,-0.1597795486450195,-0.0255809687077999,0.0,0.0,0.4995783567428589,-0.6465365290641785
-0.1136394515633583,0.3468002676963806,-0.0649221241474151,-0.5309120416641235,-0.1598777025938034,-0.0019630403257906,0.0,0.0,0.7551846504211426,-0.0429677963256835
-0.1140573471784591,0.3353819847106933,-0.0421176776289939,-0.5074438452720642,-0.1595517545938491,0.0065188058651983,0.0,0.0,0.222341775894165,-0.6884366869926453
-0.1143886595964431,0.3240419626235962,-0.0346956625580787,-0.5038338303565979,-0.1579895615577697,0.031243747100234,0.0,0.0,0.265091061592102,-0.7904059290885925
-0.1147162467241287,0.3132416903972626,-0.0356087014079093,-0.4797126352787018,-0.155142143368721,0.0569484904408454,0.0,0.0,0.4902693033218384,0.3540875911712646
-0.1149326339364051,0.3031150102615356,-0.0243142992258071,-0.4497988522052765,-0.1524581313133239,0.0536803007125854,0.0,0.0,0.0206762552261352,0.3836327791213989
-0.1150334328413009,0.293247789144516,-0.012831749394536,-0.4382655322551727,-0.1497083306312561,0.0549961626529693,0.0,0.0,-0.6401124596595764,-0.1477333903312683
-0.1151584610342979,0.2830464541912079,-0.0149750802665948,-0.4531448483467102,-0.1472460329532623,0.0492459684610366,0.0,0.0,0.3804411888122558,-0.4947750568389892
-0.115290068089962,0.2731521129608154,-0.0151316029950976,-0.4395554363727569,-0.1452716737985611,0.0394869334995746,0.0,0.0,-0.5460966229438782,-0.5336647033691406
-0.1154833808541297,0.2629379034042358,-0.0219558868557214,-0.4537140429019928,-0.1426589488983154,0.0522548370063304,0.0,0.0,-0.1243748068809509,0.0247817039489746
-0.1157045364379882,0.252389520406723,-0.0244522653520107,-0.468593031167984,-0.1403251886367797,0.0466749332845211,0.0,0.0,0.3455100059509277,-0.1050841808319091
-0.1159642189741134,0.2424905151128769,-0.027566734701395,-0.4398046731948852,-0.1387361735105514,0.0317804478108882,0.0,0.0,-0.8551492691040039,-0.0441455245018005
-0.1162540465593338,0.2322573512792587,-0.0302965436130762,-0.4546831250190735,-0.1374197602272033,0.0263285525143146,0.0,0.0,-0.7334908246994019,-0.029727816581726
-0.1165749579668045,0.2216900885105133,-0.0331418365240097,-0.4695613980293274,-0.1363725066184997,0.0209450796246528,0.0,0.0,-0.1682150363922119,-0.2993021011352539
-0.1169281005859375,0.2107885181903839,-0.0361014790832996,-0.4844395518302917,-0.1355908364057541,0.0156330801546573,0.0,0.0,0.3281228542327881,0.2709220647811889
-0.1172803863883018,0.2001518160104751,-0.0356499329209327,-0.4727034866809845,-0.1351635903120041,0.0085449796169996,0.0,0.0,0.5747429132461548,-0.615837037563324
-0.1177574172616005,0.190067708492279,-0.0488380827009677,-0.4480796754360199,-0.1340396702289581,0.0224783327430486,0.0,0.0,0.0281147956848144,0.0777469873428344
-0.1183192282915115,0.1801526844501495,-0.0566205792129039,-0.4406289458274841,-0.1336029171943664,0.0087350402027368,0.0,0.0,-0.3413227796554565,-0.2470276951789856
-0.1189176589250564,0.169903352856636,-0.0600222423672676,-0.4555068016052246,-0.1334159523248672,0.0037392042577266,0.0,0.0,0.6226270198822021,0.7603557109832764
-0.1193805709481239,0.1598268300294876,-0.0448283702135086,-0.4479801058769226,-0.1348728090524673,-0.0291370190680027,0.0,0.0,0.8149757385253906,0.3246927261352539
-0.1196113601326942,0.1506295800209045,-0.0221164468675851,-0.4088526964187622,-0.135833591222763,-0.0192152168601751,0.0,0.0,0.4353494644165039,-0.7164812088012695
-0.119867704808712,0.1421220451593399,-0.025837367400527,-0.3780980706214905,-0.1356337815523147,0.0039962837472558,0.0,0.0,0.4094587564468384,0.149218201637268
-0.1199453324079513,0.134338840842247,-0.0082924980670213,-0.3458690345287323,-0.1351024359464645,0.0106269139796495,0.0,0.0,-0.3908555507659912,-0.4467486143112182
-0.1200642585754394,0.126221477985382,-0.0121993627399206,-0.3607467114925384,-0.134797602891922,0.0060967528261244,0.0,0.0,0.2760419845581054,0.1972543001174926
-0.1201461777091026,0.1187082156538963,-0.0082487668842077,-0.3339174389839172,-0.1347399353981018,0.0011532612843438,0.0,0.0,0.4652531147003174,-0.4400739073753357
-0.1201239600777626,0.1118880361318588,0.0021272937301546,-0.3031108677387237,-0.1346495300531387,0.0018081991001963,0.0,0.0,-0.186528205871582,-0.7175715565681458
-0.1201948150992393,0.104739986360073,-0.0081997197121381,-0.3175935447216034,-0.1335296034812927,0.0223981514573097,0.0,0.0,0.5575718879699707,-0.3235610723495483
-0.1203468292951583,0.0981471166014671,-0.0155941750854253,-0.2929803431034088,-0.1331482082605362,0.0076278210617601,0.0,0.0,0.6246167421340942,0.5133762359619141
-0.1205708533525466,0.0919899046421051,-0.0211787912994623,-0.2737602591514587,-0.1343577206134796,-0.0241902619600296,0.0,0.0,0.5766239166259766,0.7606385946273804
-0.1207318305969238,0.0862901806831359,-0.0131225557997822,-0.2535917460918426,-0.1373213529586792,-0.059272713959217,0.0,0.0,0.3577274084091186,0.2206437587738037
-0.1208584755659103,0.0809032320976257,-0.009606092236936,-0.2397046685218811,-0.1403736621141433,-0.0610458739101886,0.0,0.0,0.3217685222625732,-0.5662676692008972
-0.1209241896867752,0.0755896642804145,-0.004701739642769,-0.2363377064466476,-0.1422400325536728,-0.0373274907469749,0.0,0.0,0.1399853229522705,0.4497064352035522
-0.1209046393632888,0.0706280097365379,0.0036897368263453,-0.2206847518682479,-0.1439701914787292,-0.0346033200621604,0.0,0.0,-0.0120458602905273,0.2119101285934448
-0.1209338158369064,0.0653321146965026,-0.0010213224450126,-0.2355620712041854,-0.1458687633275985,-0.0379714332520961,0.0,0.0,0.3049026727676391,0.7851719856262207
