x_pos,y_pos,x_vel,y_vel,angle,ang_vel,leg_1,leg_2,main_booster,lat_booster
-0.0014734268188476,1.402957558631897,-0.1495971977710724,-0.3538908362388611,0.0020160195417702,0.0397870577871799,0.0,0.0,-0.6847895979881287,0.6875061988830566
-0.0028330802451819,1.3943480253219604,-0.1367374956607818,-0.3826428353786468,0.0027741873636841,0.0151655673980712,0.0,0.0,-0.2832117080688476,0.6011514663696289
-0.0040752412751317,1.3850669860839844,-0.1237770542502403,-0.4124874472618103,0.0023412646260112,-0.008659403771162,0.0,0.0,0.4182174205780029,0.1847448348999023
-0.0053565027192234,1.375762104988098,-0.1274429261684417,-0.4135534465312958,0.0016705727903172,-0.0134150283411145,0.0,0.0,0.4925976991653442,0.3616732358932495
-0.0064538000151515,1.3666740655899048,-0.1098614931106567,-0.4039107263088226,0.0018015950918197,0.0026205230969935,0.0,0.0,-0.2624603509902954,0.698077917098999
-0.0074113844893872,1.356918215751648,-0.0944153219461441,-0.4335900545120239,0.0004709555360022,-0.0266152527183294,0.0,0.0,-0.4067347049713135,0.1769382953643798
-0.0082929609343409,1.3464956283569336,-0.0870379656553268,-0.4632269740104675,-0.0006335724610835,-0.0220926720649003,0.0,0.0,-0.3471131324768066,-0.2307900190353393
-0.0090950010344386,1.3354061841964722,-0.0792985409498214,-0.4928668141365051,-0.001523369573988,-0.0177978258579969,0.0,0.0,-0.7281736135482788,-0.7821753621101379
-0.0098769189789891,1.323658466339111,-0.0790963396430015,-0.5221213698387146,-0.0006285174749791,0.0178987961262464,0.0,0.0,0.063797116279602,-0.2648621797561645
-0.0105731012299656,1.3119454383850098,-0.0707117915153503,-0.5205808281898499,0.0004565042327158,0.0217022038996219,0.0,0.0,-0.2648926973342895,-0.5581690669059753
-0.0112178800627589,1.2995655536651611,-0.0667311027646064,-0.5502113103866577,0.0026716734282672,0.0443076528608799,0.0,0.0,-0.4647923707962036,-0.6645412445068359
-0.0118173602968454,1.28651762008667,-0.0635356456041336,-0.5799208879470825,0.0062188752926886,0.0709505975246429,0.0,0.0,-0.5134444832801819,-0.6812652945518494
-0.0123647693544626,1.2728060483932495,-0.0595554336905479,-0.6094295382499695,0.0109816519543528,0.0952642932534217,0.0,0.0,0.2492051124572754,-0.254798948764801
-0.0127662662416696,1.2588316202163696,-0.0453603751957416,-0.6211346387863159,0.0161346103996038,0.1030687466263771,0.0,0.0,-0.806300163269043,-0.1080980896949768
-0.0130688669160008,1.2441904544830322,-0.0356040820479393,-0.650780975818634,0.0214181542396545,0.1056806296110153,0.0,0.0,-0.7291900515556335,-0.1208764314651489
-0.0132704731076955,1.2288830280303955,-0.0256230384111404,-0.6804240345954895,0.0268184579908847,0.1080157533288002,0.0,0.0,-0.694640040397644,0.5479874610900879
-0.0133161544799804,1.2129173278808594,-0.0087781073525547,-0.7096646428108215,0.0309840869158506,0.0833201333880424,0.0,0.0,-0.4641050100326538,-0.0715965628623962
-0.0132571216672658,1.1962851285934448,0.0016140511725097,-0.7393074631690979,0.0352378375828266,0.0850825607776641,0.0,0.0,-0.72700035572052,0.4265927076339721
-0.0130914691835641,1.1789861917495728,0.0121892066672444,-0.7689502239227295,0.0395635068416595,0.0865210965275764,0.0,0.0,-0.6279857158660889,0.1683156490325927
-0.0128178596496582,1.1610205173492432,0.022935401648283,-0.7985928654670715,0.0439455024898052,0.0876477509737014,0.0,0.0,-0.2531225085258484,0.2036950588226318
-0.0124348644167184,1.1423884630203247,0.0338405296206474,-0.8282358050346375,0.0483674928545951,0.0884477496147155,0.0,0.0,0.4926525354385376,0.0349471569061279
-0.0119497301056981,1.1236891746520996,0.0439691767096519,-0.8312276005744934,0.0528619065880775,0.0898966640233993,0.0,0.0,-0.0555221438407897,0.5507769584655762
-0.0112998010590672,1.1043267250061035,0.0617940016090869,-0.860675036907196,0.0560309365391731,0.0633862391114234,0.0,0.0,0.3286042213439941,0.1254726648330688
-0.0104947090148925,1.084678053855896,0.077054738998413,-0.8734055161476135,0.0594498142600059,0.0683832913637161,0.0,0.0,0.1432173252105713,0.0578573942184448
-0.0097001073881983,1.0650206804275513,0.0764939337968826,-0.873784065246582,0.0623828507959842,0.0586660131812095,0.0,0.0,0.6011186838150024,0.1134676933288574
-0.008973216637969,1.0456831455230713,0.0704386979341507,-0.8595372438430786,0.0646149665117263,0.0446425601840019,0.0,0.0,0.5065062046051025,0.3772642612457275
-0.0081696510314941,1.0266708135604858,0.0781449228525161,-0.8450927138328552,0.0667975321412086,0.0436515137553215,0.0,0.0,0.4248288869857788,0.3084917068481445
-0.0074095726013183,1.0080454349517822,0.0744179338216781,-0.827865481376648,0.0683749094605445,0.031547226011753,0.0,0.0,0.3314465284347534,-0.2062455415725708
-0.0066799162887036,0.9896764755249025,0.071975253522396,-0.8164414763450623,0.069363385438919,0.0197691489011049,0.0,0.0,0.1898016929626464,0.2936804294586181
-0.0058718682266771,0.9711645245552064,0.0799983665347099,-0.8227935433387756,0.0701606646180152,0.0159457065165042,0.0,0.0,0.485865831375122,0.3859671354293823
-0.004982185550034,0.9531266093254088,0.088222324848175,-0.8017194271087646,0.0708955526351928,0.01469780318439,0.0,0.0,0.1186428070068359,0.5576493740081787
-0.004009055905044,0.93486088514328,0.0979563146829605,-0.8117788434028625,0.0702613145112991,-0.0126847922801971,0.0,0.0,-0.5264657735824585,0.203776478767395
-0.0029170990455895,0.9159281849861144,0.1100252717733383,-0.8414165377616882,0.0694484934210777,-0.0162567533552646,0.0,0.0,0.3938515186309814,0.2885118722915649
-0.001780605292879,0.8967782258987427,0.1149143800139427,-0.8510543704032898,0.0681888982653617,-0.0251919217407703,0.0,0.0,0.2362545728683471,-0.1233826279640197
-0.0005447387811727,0.8776645660400391,0.1250265836715698,-0.8494229912757874,0.0667682439088821,-0.0284130871295928,0.0,0.0,-0.6903967261314392,-0.3129410147666931
0.0008106231689453,0.8578841686248779,0.1372091174125671,-0.8790606260299683,0.065110944211483,-0.0331462994217872,0.0,0.0,0.0338301658630371,-0.9050266146659852
0.0021760941017419,0.8378494381904602,0.1366638243198394,-0.8904248476028442,0.0650029629468917,-0.002159668598324,0.0,0.0,-0.1995923519134521,-0.8095833659172058
0.00360107421875,0.8171480894088745,0.141349047422409,-0.9201118350028992,0.0661282017827034,0.0225047171115875,0.0,0.0,0.1375789642333984,-0.5765035152435303
0.005031204316765,0.7966468334197998,0.1410668045282364,-0.911253809928894,0.0680552124977111,0.0385401397943496,0.0,0.0,-0.1887391209602356,-0.8429657816886902
0.0065171243622899,0.7754729986190796,0.1453498154878616,-0.9412052035331726,0.0712687820196151,0.0642713904380798,0.0,0.0,0.3710319995880127,-0.2688397169113159
0.0079878810793161,0.7545894980430603,0.1445747166872024,-0.9282768368721008,0.0737413018941879,0.0494506508111953,0.0,0.0,0.5949568748474121,-0.6935696601867676
0.0096157072111964,0.7338019013404846,0.1589696556329727,-0.9240940809249878,0.0775142684578895,0.0754593983292579,0.0,0.0,0.4445972442626953,-0.7125897407531738
0.0113789560273289,0.7127536535263062,0.1712774485349655,-0.9357427954673768,0.0825057849287986,0.0998304039239883,0.0,0.0,0.4790573120117187,-0.7713943123817444
0.0132593158632516,0.6917491555213928,0.1816735565662384,-0.9338945746421814,0.0888080820441246,0.1260459125041961,0.0,0.0,0.9407522678375244,-0.7640953063964844
0.0151155469939112,0.6705710291862488,0.1782558262348175,-0.9417111873626708,0.0961167365312576,0.1461732536554336,0.0,0.0,0.9675263166427612,-0.4753743410110473
0.0171055793762207,0.6493281722068787,0.1917984783649444,-0.944610357284546,0.1032611355185508,0.1428879350423813,0.0,0.0,0.9742699861526488,-0.8241299390792847
0.0191720966249704,0.628213107585907,0.1980592310428619,-0.939064919948578,0.1117881312966346,0.1705399453639984,0.0,0.0,0.969609260559082,-0.1147662997245788
0.0211109165102243,0.6078905463218689,0.1863810718059539,-0.9038021564483644,0.1192467734217643,0.1491729319095611,0.0,0.0,0.8914998769760132,-0.0683085918426513
0.0229075439274311,0.5882179141044617,0.1733291447162628,-0.8748607039451599,0.125539556145668,0.1258558183908462,0.0,0.0,0.9979665279388428,0.1850358247756958
0.0247169490903615,0.5687885880470276,0.1752140074968338,-0.8640168905258179,0.1312366127967834,0.1139411926269531,0.0,0.0,0.9926798343658448,0.6542398929595947
0.0267857555299997,0.5497625470161438,0.2024780958890915,-0.8459979295730591,0.1356249451637268,0.0877664685249328,0.0,0.0,0.9582234621047974,-0.7942637801170349
0.0287140849977731,0.5313442349433899,0.1875076591968536,-0.819086492061615,0.1409297585487365,0.1060963049530983,0.0,0.0,0.9399693012237548,0.5497782230377197
0.0308603290468454,0.5130684971809387,0.2105267792940139,-0.8126497268676758,0.1450151056051254,0.0817069336771965,0.0,0.0,0.7794456481933594,-0.5182058215141296
0.0329571738839149,0.4953969419002533,0.2050753086805343,-0.7858584523200989,0.1496163755655288,0.0920253247022628,0.0,0.0,0.7349085807800293,-0.3422298431396484
0.0352437011897563,0.4778521358966827,0.223860502243042,-0.7802581191062927,0.1544020920991897,0.0957142040133476,0.0,0.0,0.6940426826477051,-0.8146703839302063
0.0373960509896278,0.4603124260902405,0.2095617055892944,-0.7801426649093628,0.160075381398201,0.1134659051895141,0.0,0.0,0.8085505962371826,0.000407338142395
0.0396203026175498,0.4434216022491455,0.2168343514204025,-0.7513144016265869,0.1656647473573684,0.1117873191833496,0.0,0.0,0.7946255207061768,-0.1545720696449279
0.0419797897338867,0.4269840717315674,0.2302422821521759,-0.7312048077583313,0.1713781505823135,0.1142681613564491,0.0,0.0,0.7579615116119385,-0.643878698348999
0.0443306937813758,0.4111892282962799,0.228467971086502,-0.7027731537818909,0.1780070513486862,0.1325783878564834,0.0,0.0,0.6779875755310059,-0.6497423648834229
0.0465123169124126,0.3958746194839477,0.2110421657562255,-0.6815217733383179,0.1851554661989212,0.1429679840803146,0.0,0.0,0.8736979961395264,0.0296236276626586
0.0487782470881938,0.3805274963378906,0.2198144197463989,-0.6829566359519958,0.1919781416654586,0.1364533603191375,0.0,0.0,0.7159261703491211,0.3102829456329345
0.0509064681828022,0.3655554056167602,0.2071122229099273,-0.6661768555641174,0.1977174580097198,0.1147864684462547,0.0,0.0,0.7529486417770386,-0.4641584157943725
0.0531573295593261,0.3507609367370605,0.2193921506404876,-0.6583029627799988,0.2034547477960586,0.1147454977035522,0.0,0.0,0.8997337818145752,-0.8215955495834351
0.0553316101431846,0.3363244831562042,0.210660845041275,-0.6425709128379822,0.2102887332439422,0.1366794854402542,0.0,0.0,0.9509081840515136,-0.089396595954895
0.0575153343379497,0.321917176246643,0.2121727764606475,-0.6412189602851868,0.2165451645851135,0.1251286119222641,0.0,0.0,0.5926854610443115,-0.5315655469894409
0.0595081336796283,0.3076219260692596,0.1929834336042404,-0.6362807750701904,0.2229135632514953,0.1273685991764068,0.0,0.0,0.969048261642456,0.7409793138504028
0.0614541061222553,0.2941874265670776,0.1903474181890487,-0.597737729549408,0.2272173464298248,0.0860753804445266,0.0,0.0,0.6910359859466553,-0.4075519442558288
0.0635087937116622,0.2805502116680145,0.2014671862125396,-0.6067208647727966,0.2312748730182647,0.0811504051089286,0.0,0.0,0.9683868885040284,0.1247248649597168
0.0654541999101638,0.2677404880523681,0.1910341084003448,-0.569878339767456,0.234842374920845,0.0713496133685112,0.0,0.0,0.9026708602905272,-0.1039225459098815
0.0672582611441612,0.2550194263458252,0.1780172437429428,-0.5657627582550049,0.2372658103704452,0.0484684407711029,0.0,0.0,0.953361749649048,-0.6110275387763977
0.0688031166791915,0.2427414208650589,0.1518352925777435,-0.546119749546051,0.2399595826864242,0.0538755655288696,0.0,0.0,0.7461148500442505,0.2498528957366943
0.0703102126717567,0.2307644635438919,0.1485551446676254,-0.5326610207557678,0.2421547025442123,0.0439022593200206,0.0,0.0,0.9625558853149414,-0.3138222098350525
0.0715132728219032,0.2195245772600174,0.119485929608345,-0.4996887445449829,0.2429901510477066,0.016708854585886,0.0,0.0,0.9972878694534302,0.3250550031661987
0.0727175697684288,0.208664134144783,0.1198509931564331,-0.4827822744846344,0.2435823380947113,0.0118436906486749,0.0,0.0,0.9918864965438844,0.2450538873672485
0.0738496780395507,0.1978064179420471,0.1134541258215904,-0.4825240671634674,0.2433302253484726,-0.0050420854240655,0.0,0.0,0.9963552951812744,0.233617901802063
0.0750456824898719,0.1868812441825866,0.1201129555702209,-0.4854765832424164,0.2428001761436462,-0.0106009906157851,0.0,0.0,0.9931321144104004,-0.293184757232666
0.0761826485395431,0.1758695244789123,0.1150430664420127,-0.4891858696937561,0.2414342164993286,-0.0273196008056402,0.0,0.0,0.9466023445129396,-0.0942683219909668
0.077160932123661,0.1655466705560684,0.0998646467924118,-0.4584633708000183,0.2393617033958435,-0.0414503142237663,0.0,0.0,0.9779996871948242,0.6052688360214233
0.0781242400407791,0.1560373455286026,0.0999549105763435,-0.422052264213562,0.2356815487146377,-0.0736030936241149,0.0,0.0,0.9991884231567384,-0.1890966892242431
0.0787940993905067,0.1472542881965637,0.0718912854790687,-0.3895811736583709,0.2307104468345642,-0.0994222164154052,0.0,0.0,0.8486433029174805,0.8874914646148682
0.0793604850769043,0.1383044272661209,0.0642348602414131,-0.3966003656387329,0.2230087369680404,-0.1540337800979614,0.0,0.0,0.9972710609436036,-0.0389931201934814
0.0798276886343956,0.130100667476654,0.0547685921192169,-0.3634145557880401,0.2148687243461609,-0.1628002524375915,0.0,0.0,0.9965472221374512,-0.269976794719696
0.0800890922546386,0.1222092509269714,0.0354255847632885,-0.349406361579895,0.2054981589317321,-0.1874113976955413,0.0,0.0,0.7796897888183594,-0.9569095969200134
0.0801221877336502,0.1146829724311828,0.0114516597241163,-0.3333894312381744,0.1972861737012863,-0.1642393767833709,0.0,0.0,0.911534547805786,-0.2199381589889526
0.0800402611494064,0.1076750382781028,0.0006879921420477,-0.3103037774562835,0.1883461475372314,-0.1788004338741302,0.0,0.0,0.922576665878296,0.0359928607940673
0.0799857154488563,0.1010257303714752,0.003646106692031,-0.2943934798240661,0.1792117953300476,-0.1826871782541275,0.0,0.0,0.9355428218841552,-0.6444266438484192
0.0798916816711425,0.0942889526486396,-0.0009954883717,-0.2984163463115692,0.1707880198955536,-0.1684752404689788,0.0,0.0,0.8428182601928711,-0.8853289484977722
0.0798152908682823,0.0875535309314727,-0.0005463318084366,-0.2985553443431854,0.1636848300695419,-0.1420634239912033,0.0,0.0,0.8931045532226562,-0.9195804595947266
0.0797914490103721,0.0811462700366973,0.0032011822331696,-0.2841647267341614,0.1580912619829177,-0.1118714660406112,0.0,0.0,0.8009598255157471,-0.9355034232139589
0.0798389464616775,0.0747232064604759,0.0088636931031942,-0.2850376963615417,0.1539826989173889,-0.0821711644530296,0.0,0.0,0.8725583553314209,-0.9759409427642822
0.079713724553585,0.0688818544149398,-0.0096936002373695,-0.2593252062797546,0.1511517167091369,-0.056619506329298,0.0,0.0,0.8969684839248657,0.1574900150299072
0.0795316696166992,0.0636720061302185,-0.0148702878504991,-0.2312140613794326,0.1478264331817627,-0.0665059983730316,0.0,0.0,0.8508734703063965,-0.6861053109169006
0.0793715491890907,0.0589267127215862,-0.0137595338746905,-0.2106796652078628,0.1455761492252349,-0.0450056120753288,0.0,0.0,0.7268366813659668,-0.9181091785430908
0.0792416557669639,0.0540199130773544,-0.01210477668792,-0.2179921418428421,0.1446910202503204,-0.0177025757730007,0.0,0.0,0.6997795104980469,-0.8458770513534546
0.0789426788687706,0.049192938953638,-0.0299421194940805,-0.2145393788814544,0.1447415947914123,0.0010114250471815,0.0,0.0,0.8288509845733643,0.511365532875061
0.0786729827523231,0.0451516732573509,-0.0256233401596546,-0.1794799715280532,0.1434035003185272,-0.0267621222883462,0.0,0.0,0.3674088716506958,0.0872387886047363
0.0783438682556152,0.041137658059597,-0.0308367516845464,-0.1782051175832748,0.1413252651691436,-0.0415648259222507,0.0,0.0,0.2009531259536743,-0.8590392470359802
0.0777861624956131,0.0372855030000209,-0.0546819046139717,-0.1711008697748184,0.1402475982904434,-0.0215536225587129,0.0,0.0,0.5466216802597046,0.5881302356719971
0.0772925391793251,0.0337669476866722,-0.0466671846807003,-0.1561302691698074,0.1375527679920196,-0.0538965389132499,0.0,0.0,-0.1592441797256469,0.5589790344238281
0.076858140528202,0.0295927859842777,-0.0390613004565238,-0.1851216703653335,0.133193239569664,-0.0871907249093055,0.0,0.0,0.4054231643676758,-0.2194929718971252
0.0762870758771896,0.0256839133799076,-0.0517584905028343,-0.1732594966888427,0.1278653740882873,-0.1065572351217269,0.0,0.0,0.7695727348327637,0.7942255735397339
0.0756969451904296,0.0219050031155347,-0.05136489123106,-0.1673156321048736,0.1202543228864669,-0.1522208154201507,0.0,0.0,0.633969783782959,-0.6594269275665283
0.0748723000288009,0.0183132737874984,-0.0752041861414909,-0.1590619385242462,0.1130424588918685,-0.1442372947931289,0.0,0.0,0.4492095708847046,0.8602067232131958
0.0739268288016319,0.0147239062935113,-0.0847324207425117,-0.1588160693645477,0.1032977476716041,-0.1948943883180618,0.0,0.0,0.7269172668457031,0.6964461803436279
0.0730874091386795,0.0116201974451541,-0.0723432749509811,-0.1371812522411346,0.0917975828051567,-0.2300033271312713,0.0,0.0,-0.0116034746170043,-0.0883280634880065
0.072255328297615,0.0078506926074624,-0.0709603503346443,-0.1668262183666229,0.0796673148870468,-0.2426056861877441,0.0,0.0,0.7424671649932861,-0.5389034748077393
0.0714264884591102,0.0050900196656584,-0.0598921664059162,-0.1216509267687797,0.0568548627197742,-0.4563392102718353,0.0,1.0,0.9476584196090698,0.1881265640258789
0.0705179199576377,0.0030365919228643,-0.0676530227065086,-0.0905411690473556,0.0339140594005584,-0.4588166773319244,0.0,1.0,0.4915961027145386,0.5608639717102051
0.0697664245963096,0.0014960026601329,-0.0511214509606361,-0.068099670112133,0.0101894633844494,-0.4744919240474701,0.0,1.0,0.4635257720947265,0.12558114528656
0.0690772980451583,6.702900282107294e-05,-0.0451999641954898,-0.0635140612721443,-0.013221401721239,-0.468217521905899,0.0,0.0,0.1183602809906005,-0.7806564569473267
0.0685584098100662,-0.0006161475321277,-0.0490811206400394,-0.0303958971053361,-0.0159537103027105,-0.0546151585876941,1.0,0.0,-0.8050709962844849,0.5000903606414795
0.0682315826416015,-0.0014025354757905,-0.0461299754679203,-0.0348754972219467,-0.0026346964295953,0.2664361596107483,1.0,0.0,-0.4835743308067322,0.4214295148849487
0.06791353225708,-0.0019286418100818,-0.03598003834486,-0.0233836844563484,0.0015030142385512,0.08277328312397,1.0,1.0,-0.2487744688987732,0.9455122947692872
0.067707821726799,-0.0020794176962226,-0.0187975410372018,-0.0067086559720337,-0.0002294365840498,-0.0346199944615364,1.0,1.0,-0.920959174633026,0.1407521963119506
0.0675939545035362,-0.0017766857054084,-0.0088202208280563,0.013451718725264,-0.0027324471157044,-0.0500262156128883,1.0,1.0,-0.964713215827942,-0.1079528927803039
0.0674830451607704,-0.0011012697359547,-0.0087769757956266,0.0300089791417121,-0.0050035878084599,-0.0454084202647209,1.0,1.0,-0.972527265548706,0.0017096996307373
0.0674675926566124,-0.0003683829272631,-0.0071620969101786,0.0325805656611919,0.0005416477797552,0.1109123975038528,1.0,1.0,-0.7344934940338135,0.7972507476806641
0.0674925819039344,-0.0002691769623197,0.0017207979690283,0.0044102715328335,0.0013137682108208,0.0154424412176013,1.0,1.0,-0.8767121434211731,0.1325665712356567
0.0674984902143478,-0.0002727532410062,0.0006011595833115,-0.0001593115885043,0.0013053638394922,-0.0001630867336643,1.0,1.0,-0.7516435384750366,0.0182288885116577
0.0674975365400314,-0.0002735400339588,-9.324507846031338e-05,-3.359092079335824e-05,0.0013069896958768,3.1637551728636026e-05,1.0,1.0,-0.8980602622032166,0.1390988826751709
0.0674949660897255,-0.0002735400339588,-0.0002579985302872,4.679821472564072e-07,0.0013109621359035,7.736858970019966e-05,1.0,1.0,-0.8512898087501526,0.1127586364746093
