x_pos,y_pos,x_vel,y_vel,angle,ang_vel,leg_1,leg_2,main_booster,lat_booster
-0.0014963150024414,1.4032530784606934,-0.1514844596385955,-0.3407628834247589,0.0016561440424993,0.0326615050435066,0.0,0.0,-0.5910064578056335,0.6392889022827148
-0.002910804701969,1.39523446559906,-0.1416042149066925,-0.3563788533210754,0.0018083942122757,0.0030458059627562,0.0,0.0,-0.3786062002182007,0.3370043039321899
-0.0042978287674486,1.3868439197540283,-0.1387749761343002,-0.3729149103164673,0.0018803868442773,0.0014400933869183,0.0,0.0,0.0402554273605346,0.3599287271499634
-0.0057330131530761,1.3785533905029297,-0.1431559920310974,-0.3684671521186828,0.001521228114143,-0.0071839182637631,0.0,0.0,0.2214999198913574,0.3971799612045288
-0.0070462226867675,1.3706146478652954,-0.1313486397266388,-0.3528321385383606,0.0015573494601994,0.0007222400745376,0.0,0.0,0.1756956577301025,0.6962594985961914
-0.0081676486879587,1.362883448600769,-0.1108894124627113,-0.3436089754104614,0.0003167165559716,-0.0248151142150163,0.0,0.0,0.0197422504425048,0.4348082542419433
-0.0092759132385253,1.355315327644348,-0.1094493418931961,-0.3363612294197082,-0.0010317631531506,-0.0269722137600183,0.0,0.0,-0.7142921090126038,0.1207920312881469
-0.010356712155044,1.3473756313323977,-0.1066890582442283,-0.3528761267662048,-0.0024120777379721,-0.027608785778284,0.0,0.0,-0.3295662403106689,-0.0822265744209289
-0.0114104272797703,1.339064359664917,-0.1039473041892051,-0.3693874776363373,-0.0038138241507112,-0.0280375927686691,0.0,0.0,-0.8719222545623779,0.6691951751708984
-0.0123843196779489,1.330385684967041,-0.0946200117468833,-0.3857315480709076,-0.0065504438243806,-0.0547377355396747,0.0,0.0,-0.776765763759613,-0.1851357221603393
-0.0133312223479151,1.3213354349136353,-0.0919159501791,-0.4022447466850281,-0.0092867473140358,-0.0547307319939136,0.0,0.0,-0.4204291105270386,0.4515872001647949
-0.0142511371523141,1.3119137287139893,-0.0892357379198074,-0.4187581241130829,-0.0120129380375146,-0.0545290596783161,0.0,0.0,-0.861783504486084,0.4162197113037109
-0.0151442531496286,1.302120804786682,-0.0865809693932533,-0.4352715611457824,-0.0147181674838066,-0.0541097596287727,0.0,0.0,-0.9045432209968568,0.0705007314682006
-0.0160108562558889,1.2919563055038452,-0.083953820168972,-0.451784998178482,-0.0173918977379798,-0.0534791946411132,0.0,0.0,-0.7452093958854675,0.1549783945083618
-0.0168511383235454,1.2814202308654783,-0.0813565179705619,-0.468298465013504,-0.0200235731899738,-0.0526385679841041,0.0,0.0,-0.9391498565673828,-0.303951621055603
-0.0176651962101459,1.270512938499451,-0.0787914395332336,-0.484811931848526,-0.0226028393954038,-0.0515903308987617,0.0,0.0,-0.8149715065956116,-0.4216886758804321
-0.0184533111751079,1.2592339515686035,-0.0762610882520675,-0.5013254284858704,-0.0251194760203361,-0.0503375008702278,0.0,0.0,-0.3763000965118408,-0.7237368822097778
-0.0192594528198242,1.2475789785385132,-0.0792518407106399,-0.5180204510688782,-0.0264667402952909,-0.0269478950649499,0.0,0.0,-0.8555294275283813,-0.8231209516525269
-0.0200946815311908,1.2355623245239258,-0.0836280658841133,-0.5340677499771118,-0.0263603217899799,0.002128698863089,0.0,0.0,-0.6303066611289978,-0.4198163747787475
-0.0209049228578805,1.2231740951538086,-0.081225998699665,-0.5505807399749756,-0.0261625163257122,0.0039565949700772,0.0,0.0,-0.7325420379638672,-0.4822157025337219
-0.0216905586421489,1.2104144096374512,-0.0788699612021446,-0.5670937299728394,-0.0258634202182292,0.0059824967756867,0.0,0.0,-0.8693011403083801,-0.1592305898666381
-0.0224520675837993,1.197283148765564,-0.0765638351440429,-0.5836066007614136,-0.0254543200135231,0.0081827659159898,0.0,0.0,-0.4798544645309448,-0.2825617790222168
-0.0231898315250873,1.183780312538147,-0.0743109732866287,-0.6001195311546326,-0.0249265413731336,0.0105566699057817,0.0,0.0,-0.6148209571838379,-0.4439055919647217
-0.0239043235778808,1.1699057817459106,-0.0721150487661361,-0.6166324615478516,-0.0242717079818248,0.0130978841334581,0.0,0.0,-0.7700249552726746,-0.4043124318122864
-0.0245961192995309,1.1556596755981443,-0.0699798315763473,-0.6331453919410706,-0.0234818030148744,0.0157995373010635,0.0,0.0,-0.313675045967102,-0.6558620929718018
-0.0253305435180664,1.141026496887207,-0.0760232731699943,-0.6503306031227112,-0.0209286380559206,0.0510630831122398,0.0,0.0,-0.6173012852668762,0.1162378787994384
-0.0260433200746774,1.1260216236114502,-0.074018657207489,-0.6668418049812317,-0.0182250197976827,0.0540723502635955,0.0,0.0,-0.7769391536712646,-0.028964340686798
-0.0267352107912302,1.1106455326080322,-0.072086289525032,-0.6833531856536865,-0.0153637509793043,0.0572253167629241,0.0,0.0,-0.7679768800735474,0.0400636196136474
-0.027406882494688,1.094897985458374,-0.0702303349971771,-0.6998646259307861,-0.0123379873111844,0.06051517277956,0.0,0.0,-0.0118038058280944,0.5058990716934204
-0.0280203819274902,1.0787763595581057,-0.0636086910963058,-0.7165006995201111,-0.0101122893393039,0.04451410099864,0.0,0.0,-0.2281906008720398,0.1433919668197631
-0.0286152847111225,1.062283277511597,-0.0619182176887989,-0.7330119609832764,-0.0077093974687159,0.0480577051639556,0.0,0.0,-0.4540046453475952,0.1515654325485229
-0.0291922576725482,1.045418620109558,-0.0603167936205863,-0.7495232224464417,-0.0051234699785709,0.0517183914780616,0.0,0.0,0.1946082115173339,-0.0036078691482543
-0.0298089981079101,1.0290526151657104,-0.064200147986412,-0.7273738384246826,-0.0026251340750604,0.049966849386692,0.0,0.0,0.1915005445480346,0.444042444229126
-0.0304548256099224,1.0127055644989014,-0.06710185110569,-0.7265368103981018,-0.000145629470353,0.0495899841189384,0.0,0.0,0.0941054821014404,-0.0093022584915161
-0.0310748107731342,0.9966100454330444,-0.0647577196359634,-0.7153570055961609,0.0025825030170381,0.0545627549290657,0.0,0.0,0.3487386703491211,0.3126070499420166
-0.0316673293709754,0.9810693860054016,-0.0622948706150054,-0.6907031536102295,0.0055827726610004,0.0600054077804088,0.0,0.0,-0.0868181586265564,0.4496984481811523
-0.0322467796504497,0.9651575088500975,-0.0611974969506263,-0.7072150111198425,0.0087909717112779,0.0641641542315483,0.0,0.0,-0.3693751096725464,0.9190220832824708
-0.0327369682490825,0.9488821625709534,-0.0505130887031555,-0.7233557105064392,0.010267955251038,0.0295395907014608,0.0,0.0,0.1554241180419922,-0.0391932725906372
-0.0332497581839561,0.9331189393997192,-0.0528667084872722,-0.7006019949913025,0.0118337143212556,0.0313151441514492,0.0,0.0,-0.2565726637840271,0.0633038282394409
-0.0337527282536029,0.9169843196868896,-0.0521103851497173,-0.7171133756637573,0.0136193037033081,0.0357119999825954,0.0,0.0,-0.5068095922470093,0.797044038772583
-0.0341952331364154,0.9004859328269958,-0.0449674576520919,-0.7332671880722046,0.0143239013850688,0.0140919741243124,0.0,0.0,-0.0175361037254333,0.3576384782791137
-0.0346303954720497,0.8836160898208618,-0.0444487258791923,-0.7497785091400146,0.0152552286162972,0.018626544624567,0.0,0.0,0.303626537322998,0.3096357583999634
-0.0349862091243267,0.8667477965354919,-0.0371210314333438,-0.74972003698349,0.0167710557579994,0.030316675081849,0.0,0.0,-0.5672893524169922,0.9440348148345948
-0.0352498069405555,0.8495082259178162,-0.0259237047284841,-0.7661952972412109,0.0163329020142555,-0.0087627517059445,0.0,0.0,0.0543564558029174,0.0818244218826294
-0.0355384834110736,0.8321784734725952,-0.0285459160804748,-0.7702058553695679,0.0160104501992464,-0.0064489180222153,0.0,0.0,0.0371685028076171,0.7041648626327515
-0.0357389450073242,0.8147870302200317,-0.0185647848993539,-0.7729434967041016,0.0145529983565211,-0.0291493684053421,0.0,0.0,0.1458168029785156,0.0301873683929443
-0.0359000191092491,0.7974897027015686,-0.0150667633861303,-0.7687558531761169,0.0135320844128727,-0.0204179901629686,0.0,0.0,0.1462670564651489,-0.3197808265686035
-0.0361462607979774,0.7806872129440308,-0.0234820488840341,-0.7467721104621887,0.0123936338350176,-0.0227690748870372,0.0,0.0,-0.5487503409385681,-0.3537241220474243
-0.0363933555781841,0.7635132074356079,-0.0238009262830019,-0.7632834911346436,0.0115006240084767,-0.0178602132946252,0.0,0.0,-0.0512416362762451,0.1385785341262817
-0.0366422645747661,0.7459676861763,-0.0242340601980686,-0.7797947525978088,0.0108551485463976,-0.0129093248397111,0.0,0.0,-0.0422460436820983,-0.6257930994033813
-0.0369318015873432,0.7280499339103699,-0.0295119471848011,-0.7963476777076721,0.0114072002470493,0.011040742509067,0.0,0.0,-0.2837142944335937,0.3658263683319092
-0.0372253432869911,0.7097607254981995,-0.0301655586808919,-0.8128589987754822,0.0122106028720736,0.0160682331770658,0.0,0.0,0.4261032342910766,0.3934717178344726
-0.037434197962284,0.6916773319244385,-0.022398455068469,-0.803715705871582,0.0137036526575684,0.0298607293516397,0.0,0.0,0.2379971742630005,0.904061198234558
-0.0375830642879009,0.6741289496421814,-0.014832267537713,-0.7799266576766968,0.0136546473950147,-0.0009801134001463,0.0,0.0,0.3830857276916504,0.7752134799957275
-0.0375431068241596,0.6568225026130676,0.0051439851522445,-0.7691632509231567,0.0125159919261932,-0.0227731075137853,0.0,0.0,-0.185563325881958,-0.2285141348838806
-0.03751115873456,0.6391446590423584,0.0040890327654778,-0.7856746912002563,0.0116350529715418,-0.0176186524331569,0.0,0.0,0.3786406517028808,0.1981843709945678
-0.0374173149466514,0.6220942735671997,0.009648747742176,-0.7577937841415405,0.0113760996609926,-0.0051789423450827,0.0,0.0,-0.1495418548583984,0.4027955532073974
-0.037333108484745,0.6046722531318665,0.00841567479074,-0.7743050456047058,0.0113774789497256,2.7340447559254244e-05,0.0,0.0,-0.2227972745895385,0.2054269313812255
-0.0372594818472862,0.5868790149688721,0.0070994673296809,-0.7908161878585815,0.0116403251886367,0.0052569326944649,0.0,0.0,0.3429737091064453,0.4021005630493164
-0.037266444414854,0.5696711540222168,-0.0009377971291542,-0.7647930979728699,0.0118793519213795,0.004780625924468,0.0,0.0,0.3079409599304199,0.1031465530395507
-0.03724842146039,0.5525323748588562,0.0011069453321397,-0.7617307901382446,0.0125694321468472,0.0138015178963541,0.0,0.0,0.803062915802002,-0.4777501821517944
-0.0373620986938476,0.5361681580543518,-0.0118246208876371,-0.7272997498512268,0.0130177289247512,0.0089660491794347,0.0,0.0,0.4996811151504516,0.6617929935455322
-0.0373201370239257,0.5201384425163269,0.0045615108683705,-0.7124298214912415,0.0126640833914279,-0.0070731691084802,0.0,0.0,-0.3886321783065796,0.375654935836792
-0.0372921004891395,0.5037372708320618,0.0028882676269859,-0.728941023349762,0.0125765642151236,-0.0017503245035186,0.0,0.0,0.3002423048019409,0.3590922355651855
-0.037276554852724,0.4874379336833954,0.0013458397006615,-0.7244174480438232,0.0127843851223587,0.004156588576734,0.0,0.0,0.786056637763977,0.5544613599777222
-0.0373832695186138,0.4717238247394562,-0.0096402037888765,-0.6983941793441772,0.0117646530270576,-0.0203947108238935,0.0,0.0,0.5812294483184814,0.969249963760376
-0.0374154075980186,0.45687997341156,-0.0005279108299873,-0.6597082018852234,0.009111363440752,-0.0530658662319183,0.0,0.0,0.2167140245437622,0.2288527488708496
-0.0374053008854389,0.4419886469841003,0.0031450118403881,-0.6618275046348572,0.0070063760504126,-0.0420996397733688,0.0,0.0,-0.0852601528167724,0.23611581325531
-0.037411879748106,0.4267258048057556,0.001204939209856,-0.6783390641212463,0.0051705627702176,-0.0367163941264152,0.0,0.0,0.7127442359924316,0.6004648208618164
-0.0374955162405967,0.4118246734142303,-0.0052983700297772,-0.6622673273086548,0.0021455779206007,-0.0604995414614677,0.0,0.0,0.898024320602417,0.6047292947769165
-0.0376632697880268,0.3977213203907013,-0.0124537590891122,-0.6268142461776733,-0.0021166549995541,-0.0852447673678398,0.0,0.0,0.6437473297119141,0.3652037382125854
-0.0378169044852256,0.3841753900051117,-0.0114664742723107,-0.6020513772964478,-0.0059670144692063,-0.0770071521401405,0.0,0.0,0.1645036935806274,0.1595594882965088
-0.0380760207772254,0.371151864528656,-0.0218623392283916,-0.5788452625274658,-0.0099668381735682,-0.0799962505698204,0.0,0.0,-0.9712184071540833,-0.1407662630081176
-0.0383537299931049,0.3577569723129272,-0.02399418130517,-0.5953572988510132,-0.0136958202347159,-0.0745796114206314,0.0,0.0,-0.9326085448265076,-0.0758633017539978
-0.0386503227055072,0.3439908027648926,-0.0261567924171686,-0.6118691563606262,-0.0171537771821022,-0.0691593140363693,0.0,0.0,0.7090862989425659,0.1907210350036621
-0.0388899818062782,0.3303556144237518,-0.0210659857839345,-0.6060426831245422,-0.0200151782482862,-0.0572282001376152,0.0,0.0,0.9742327928543092,0.7514275312423706
-0.0391223914921283,0.3169493675231933,-0.0190102066844701,-0.5958983898162842,-0.0241965893656015,-0.0836280733346939,0.0,0.0,0.926931858062744,0.134927749633789
-0.0393618568778038,0.3045593500137329,-0.0199407171458005,-0.5507384538650513,-0.0281518418341875,-0.0791049674153328,0.0,0.0,-0.1062039732933044,0.0828406810760498
-0.0396211631596088,0.2917978763580322,-0.0222050156444311,-0.5672500729560852,-0.0318357944488525,-0.0736792236566543,0.0,0.0,0.8260412216186523,-0.1938912272453308
-0.0399958603084087,0.2800253629684448,-0.0334273315966129,-0.5233166813850403,-0.0358222723007202,-0.0797293707728385,0.0,0.0,-0.4657862186431885,-0.3018373250961303
-0.0403907783329486,0.26788130402565,-0.0357310585677623,-0.5398282408714294,-0.039537601172924,-0.0743066221475601,0.0,0.0,0.8281314373016357,-0.6034954190254211
-0.0407713875174522,0.256682276725769,-0.0359124355018138,-0.4977969527244568,-0.0416546314954757,-0.0423407927155494,0.0,0.0,0.7059394121170044,-0.3537592887878418
-0.0412523262202739,0.2460087090730667,-0.0457361452281475,-0.4744482338428497,-0.0439848788082599,-0.046605110168457,0.0,0.0,0.119319200515747,0.7513474225997925
-0.0417168624699115,0.235653817653656,-0.0428180359303951,-0.4603284001350403,-0.0475747250020504,-0.0717969015240669,0.0,0.0,-0.1072419881820678,0.2619212865829468
-0.0422022826969623,0.2249274104833603,-0.0451811514794826,-0.4768394231796264,-0.0508943423628807,-0.0663923919200897,0.0,0.0,-0.445999801158905,0.0103818178176879
-0.0427087768912315,0.2138293534517288,-0.047555461525917,-0.4933501780033111,-0.0539440996944904,-0.0609952397644519,0.0,0.0,0.9072264432907104,-0.8454355001449585
-0.0432520881295204,0.2029463201761245,-0.0532858073711395,-0.4837290942668915,-0.0549833141267299,-0.0207839086651802,0.0,0.0,0.924304723739624,-0.027555227279663
-0.0436830520629882,0.1923851370811462,-0.0428165644407272,-0.4693984985351562,-0.0552537590265274,-0.0054090344347059,0.0,0.0,0.0369199514389038,0.469132661819458
-0.0440231338143348,0.1819813102483749,-0.0344480648636817,-0.4623753130435943,-0.0548286885023117,0.0085014179348945,0.0,0.0,0.2288452386856079,0.207426905632019
-0.044265080243349,0.1716366410255432,-0.0253776311874389,-0.4597192108631134,-0.0536562241613864,0.0234493091702461,0.0,0.0,0.6412851810455322,0.6365716457366943
-0.0444439873099327,0.1620392650365829,-0.0180503632873296,-0.4265443086624145,-0.0534967854619026,0.0031885758507996,0.0,0.0,0.031603455543518,-0.3077949285507202
-0.0445997230708599,0.1527781337499618,-0.0160920713096857,-0.4115887284278869,-0.0529817305505275,0.0103011038154363,0.0,0.0,0.009215235710144,-0.153035283088684
-0.0446792617440223,0.1437496095895767,-0.0091092828661203,-0.4012272655963897,-0.0518494136631488,0.022646527737379,0.0,0.0,-0.1474578976631164,-0.5084556341171265
-0.044814109802246,0.1343467086553573,-0.0157441310584545,-0.4178294241428375,-0.0496113710105419,0.0447609946131706,0.0,0.0,0.6900811195373535,0.3077245950698852
-0.0449982658028602,0.1253566592931747,-0.0206956826150417,-0.3994842171669006,-0.0473586656153202,0.0450539477169513,0.0,0.0,0.6269805431365967,0.485145092010498
-0.0450804717838764,0.1172621101140976,-0.011154050938785,-0.3596657812595367,-0.0444582886993885,0.0580074973404407,0.0,0.0,-0.0014570355415344,-0.3571928739547729
-0.0451842322945594,0.108796127140522,-0.0135713387280702,-0.376176506280899,-0.0412971004843711,0.0632237344980239,0.0,0.0,0.4683542251586914,0.9276785850524902
-0.0453322418034076,0.1010298132896423,-0.016271699219942,-0.3451279401779175,-0.0398511812090873,0.0289184711873531,0.0,0.0,0.4145349264144897,0.8388955593109131
-0.0453274734318256,0.0937826931476593,0.0003351669583935,-0.3220914304256439,-0.0397122837603092,0.0027779710944741,0.0,0.0,-0.0795456171035766,0.3527379035949707
-0.0453442558646202,0.0861639380455017,-0.002070861402899,-0.3386015892028808,-0.0393173582851886,0.0078983381390571,0.0,0.0,0.5968725681304932,-0.0006272196769714
-0.0454338081181049,0.0792630016803741,-0.0092395357787609,-0.3066995739936828,-0.0390382893383502,0.0055813984945416,0.0,0.0,-0.0053887367248535,0.5485472679138184
-0.0455032363533973,0.0719862803816795,-0.00641955062747,-0.323426753282547,-0.0395536907017231,-0.0103080328553915,0.0,0.0,0.8156085014343262,0.1677381992340088
-0.0456958785653114,0.0653360486030578,-0.0183997377753257,-0.2955887019634247,-0.0404125228524208,-0.017176242545247,0.0,0.0,0.7068712711334229,0.9303953647613524
-0.0459880828857421,0.0591292008757591,-0.0264751315116882,-0.2759353816509247,-0.0431321486830711,-0.0543924942612648,0.0,0.0,0.0346691608428955,0.9619784355163574
-0.0461262688040733,0.053220972418785,-0.0093440441414713,-0.262723296880722,-0.0475502423942089,-0.0883619785308837,0.0,0.0,0.1371932029724121,-0.3869431018829345
-0.0462313666939735,0.0473187528550624,-0.0064710229635238,-0.2624501585960388,-0.0515316873788833,-0.0796290189027786,0.0,0.0,0.2050046920776367,0.6021151542663574
-0.0461637489497661,0.0418707951903343,0.0115498332306742,-0.2423076629638672,-0.0562716871500015,-0.0948000624775886,0.0,0.0,0.290441632270813,-0.2634265422821045
-0.0461009033024311,0.0369606353342533,0.0109306555241346,-0.2184107452630996,-0.0608599931001663,-0.0917661041021347,0.0,0.0,-0.5223678350448608,-0.0721191763877868
-0.0460588447749614,0.0316790454089641,0.0086155552417039,-0.2349223345518112,-0.0652178674936294,-0.0871578529477119,0.0,0.0,0.3456233739852905,0.0511810779571533
-0.0459446907043457,0.0267265420407056,0.0153044937178492,-0.220286026597023,-0.069062240421772,-0.076887309551239,0.0,0.0,0.5724725723266602,0.1335148811340332
-0.045804213732481,0.0225661136209964,0.0177346263080835,-0.1850834339857101,-0.0727169811725616,-0.073094792664051,0.0,0.0,-0.1718100905418396,-0.1919271945953369
-0.045684240758419,0.0180341098457574,0.0154702235013246,-0.201594203710556,-0.0761554241180419,-0.0687689334154129,0.0,0.0,0.1260008811950683,0.3987138271331787
-0.0455060973763465,0.013591656461358,0.0208225864917039,-0.1975990980863571,-0.0791290923953056,-0.0594733729958534,0.0,0.0,0.5612474679946899,0.5142496824264526
-0.04538469389081,0.0096621131524443,0.016297360882163,-0.1748734265565872,-0.0832487344741821,-0.0823927596211433,0.0,0.0,0.4286096096038818,-0.1190229654312133
-0.0452695861458778,0.0067805624566972,-0.0029649827629327,-0.1273233294486999,-0.0689457431435585,0.2860320508480072,1.0,0.0,0.3168030977249145,0.6720201969146729
-0.0449885353446006,0.0047931168228387,-0.001162567990832,-0.0872431024909019,-0.0399893969297409,0.5791503190994263,1.0,0.0,0.0937848091125488,0.1884287595748901
-0.0446905121207237,0.0029516553040593,0.0012594368308782,-0.0813235267996788,-0.0118075124919414,0.5636381506919861,1.0,0.0,0.0848376750946044,0.4611845016479492
-0.0443039909005165,0.0011020398233085,0.0097090611234307,-0.0822252258658409,0.0167695265263319,0.5715411305427551,0.0,0.0,0.2112824916839599,0.9467724561691284
-0.0439561828970909,0.0002776360488496,0.0272200964391231,-0.0367509052157402,0.0242157708853483,0.1488989740610122,0.0,1.0,-0.8059166669845581,0.6817760467529297
-0.0436905845999717,-0.0003059053560718,0.0384873822331428,-0.025789026170969,0.0124239875003695,-0.2358510196208953,0.0,1.0,-0.3336682915687561,-0.0965002179145813
