x_pos,y_pos,x_vel,y_vel,angle,ang_vel,leg_1,leg_2,main_booster,lat_booster
-0.0014940261607989,1.4032493829727173,-0.1513120085000991,-0.3409195840358734,0.0017058815574273,0.0336460322141647,0.0,0.0,-0.2927037477493286,0.847015380859375
-0.0028864860069006,1.3952229022979736,-0.13904570043087,-0.3567341864109039,0.0015043366001918,-0.0040305173024535,0.0,0.0,-0.3339583873748779,0.5657230615615845
-0.0041954992339015,1.3868167400360107,-0.1292713731527328,-0.3736025094985962,-0.0001073484745575,-0.0322367586195468,0.0,0.0,-0.0987688899040222,-0.019843578338623
-0.0054757120087742,1.378035545349121,-0.126343548297882,-0.3902751207351684,-0.0017616633558645,-0.0330891422927379,0.0,0.0,-0.2224552035331726,-0.0981767773628234
-0.0067274095490574,1.368879318237305,-0.1234574913978576,-0.4069449007511139,-0.0034579390194267,-0.0339287742972373,0.0,0.0,-0.2949125170707702,0.2488338947296142
-0.0079511646181344,1.3593480587005615,-0.1206156834959983,-0.423613965511322,-0.005194654688239,-0.0347373634576797,0.0,0.0,0.529447078704834,0.2794592380523681
-0.00916547793895,1.3502439260482788,-0.1195321083068847,-0.404636949300766,-0.0070703402161598,-0.0375172533094882,0.0,0.0,0.1460436582565307,0.5841656923294067
-0.0101884845644235,1.341437816619873,-0.0994041487574577,-0.3913996815681457,-0.0099329128861427,-0.057256706058979,0.0,0.0,-0.4152120351791382,0.0622605085372924
-0.0111848833039402,1.3322566747665403,-0.0967086628079414,-0.4080718159675598,-0.012831687927246,-0.0579811222851276,0.0,0.0,-0.7677163481712341,-0.3165079355239868
-0.0121552469208836,1.3227007389068604,-0.0940684527158737,-0.4247395694255829,-0.0157656800001859,-0.0586851425468921,0.0,0.0,-0.8397528529167175,0.3366568088531494
-0.0131000522524118,1.312769651412964,-0.0914859548211097,-0.4414087235927582,-0.0187333952635526,-0.059359710663557,0.0,0.0,-0.6399520039558411,0.0450010299682617
-0.0140200611203908,1.3024637699127195,-0.0889636874198913,-0.4580785930156708,-0.0217334814369678,-0.0600071065127849,0.0,0.0,-0.1743940114974975,0.2747834920883178
-0.0149156572297215,1.2917828559875488,-0.0865039974451065,-0.4747486412525177,-0.024764534085989,-0.0606266371905803,0.0,0.0,-0.6125881671905518,-0.7814850211143494
-0.0158424377441406,1.28072190284729,-0.0909656658768653,-0.4916293025016784,-0.0264534000307321,-0.0337799377739429,0.0,0.0,-0.5598717331886292,-0.690268874168396
-0.0167878158390522,1.2692947387695312,-0.0938610062003135,-0.5078893899917603,-0.0271215364336967,-0.0133640421554446,0.0,0.0,-0.4488537311553955,-0.4543195962905884
-0.0177109725773334,1.2574924230575562,-0.091609202325344,-0.524558961391449,-0.0278169810771942,-0.0139100570231676,0.0,0.0,0.0282524824142456,-0.1212323904037475
-0.0185118671506643,1.2461098432540894,-0.0797793418169021,-0.5058996677398682,-0.0281352531164884,-0.0063658370636403,0.0,0.0,-0.7909788489341736,-0.3946352005004883
-0.019292164593935,1.2343519926071167,-0.0776727050542831,-0.5225751996040344,-0.0284782145172357,-0.0068600652739405,0.0,0.0,-0.6545365452766418,-0.591141939163208
-0.0200912468135356,1.22222638130188,-0.0805406421422958,-0.5389003753662109,-0.0278587415814399,0.0123905781656503,0.0,0.0,-0.9153217673301696,-0.0208237171173095
-0.0208710674196481,1.2097257375717163,-0.0785869807004928,-0.5555701851844788,-0.0272614173591136,0.0119477855041623,0.0,0.0,-0.4537887573242187,-0.3555835485458374
-0.0216322895139455,1.1968501806259155,-0.0767104029655456,-0.5722396969795227,-0.0266841948032379,0.0115455454215407,0.0,0.0,-0.5623757839202881,-0.5697576403617859
-0.0224200244992971,1.1835980415344238,-0.0804567411541938,-0.5889537930488586,-0.0250160321593284,0.0333661250770092,0.0,0.0,-0.4552938938140869,-0.5877068042755127
-0.0232272148132324,1.1699714660644531,-0.0833156704902648,-0.6055833101272583,-0.0224497728049755,0.0513300523161888,0.0,0.0,-0.6737209558486938,0.3865596055984497
-0.0240181926637887,1.1559699773788452,-0.0816836804151535,-0.6222534775733948,-0.0199001990258693,0.0509959943592548,0.0,0.0,-0.3940000534057617,0.0881615877151489
-0.0247939117252826,1.1415934562683103,-0.0801328793168068,-0.6389235258102417,-0.0173656344413757,0.0506956204771995,0.0,0.0,-0.6042435765266418,0.3842159509658813
-0.0255552288144826,1.12682044506073,-0.0786882489919662,-0.6565470099449158,-0.0148447528481483,0.0504178628325462,0.0,0.0,-0.59260493516922,0.5069929361343384
-0.0262622833251953,1.1116749048233032,-0.0722255483269691,-0.673124372959137,-0.0133505398407578,0.0298844072967767,0.0,0.0,-0.5094746351242065,-0.076547622680664
-0.0269564632326364,1.0961543321609497,-0.0709142684936523,-0.6897919178009033,-0.0118671637028455,0.0296674259006977,0.0,0.0,-0.8658561110496521,-0.4600049257278442
-0.0276383403688669,1.0802587270736694,-0.0696856305003166,-0.706459641456604,-0.0103933634236454,0.0294761303812265,0.0,0.0,-0.2847532033920288,0.0297893285751342
-0.0283088684082031,1.063988208770752,-0.06853948533535,-0.7231272459030151,-0.0089278640225529,0.0293098203837871,0.0,0.0,-0.5564038157463074,0.0708836317062377
-0.0289688110351562,1.0473426580429075,-0.0674755126237869,-0.7397947907447815,-0.0074695060029625,0.0291672013700008,0.0,0.0,-0.2775173187255859,-0.0993411540985107
-0.02961902692914,1.0303221940994265,-0.0664932280778884,-0.7564623355865479,-0.0060171391814947,0.0290473699569702,0.0,0.0,0.5453671216964722,-0.1033039689064025
-0.0303329471498727,1.014051914215088,-0.0724995657801628,-0.7231134176254272,-0.0049269683659076,0.0218034498393535,0.0,0.0,0.1171036958694458,0.1814311742782592
-0.0310806278139352,0.997773051261902,-0.0756657123565673,-0.7235094904899597,-0.004040079191327,0.0177378896623849,0.0,0.0,0.6202923059463501,-0.2346839904785156
-0.0318024642765522,0.9820415377616882,-0.0731526762247085,-0.69917231798172,-0.0030823326669633,0.0191548559814691,0.0,0.0,-0.5154629349708557,-0.4768809080123901
-0.0325177200138568,0.9659351706504822,-0.0724884644150734,-0.7158399224281311,-0.00212660478428,0.0191145855933427,0.0,0.0,-0.4258362054824829,0.3125090599060058
-0.0332270637154579,0.9494537711143494,-0.0719007402658462,-0.7325073480606079,-0.0011720430338755,0.0190910845994949,0.0,0.0,-0.5618950128555298,-0.5872978568077087
-0.0339747443795204,0.9326019287109376,-0.0768502503633499,-0.7489694952964783,0.000876096135471,0.0409631021320819,0.0,0.0,-0.1766235828399658,0.4761964082717895
-0.0347180366516113,0.9153751730918884,-0.0764106139540672,-0.7656373381614685,0.002924553817138,0.040969144552946,0.0,0.0,-0.0199834704399108,-0.3083399534225464
-0.0354578010737896,0.8977734446525574,-0.0760422646999359,-0.7823050618171692,0.004973956849426,0.0409878715872764,0.0,0.0,0.1769746541976928,0.2344946861267089
-0.0362731926143169,0.8806281685829163,-0.0832673534750938,-0.762018084526062,0.0066729639656841,0.0339801833033561,0.0,0.0,0.3973608016967773,0.4280498027801513
-0.0369848236441612,0.8637731671333313,-0.0733797252178192,-0.7491239309310913,0.0088568264618515,0.0436775647103786,0.0,0.0,-0.0959689617156982,0.4955999851226806
-0.0376948341727256,0.8465430736541748,-0.0732123255729675,-0.7657917141914368,0.0110431173816323,0.0437256954610347,0.0,0.0,0.146907091140747,0.7108058929443359
-0.038273237645626,0.8294892311096191,-0.0587197132408618,-0.7579519748687744,0.0119044426828622,0.017226580530405,0.0,0.0,0.7002944946289062,0.4800534248352051
-0.038896657526493,0.8125143647193909,-0.0630205795168876,-0.7544472813606262,0.0125752827152609,0.0134167475625872,0.0,0.0,-0.3279205560684204,0.273128867149353
-0.0395201668143272,0.7951644062995911,-0.0630317702889442,-0.771114706993103,0.0132493171840906,0.01348059438169,0.0,0.0,0.2790582180023193,-0.3766180872917175
-0.0401015281677246,0.7779592275619507,-0.0590530149638652,-0.7646792531013489,0.0141450818628072,0.0179155170917511,0.0,0.0,0.3558539152145386,0.27011239528656
-0.0407859794795513,0.761403501033783,-0.0689255148172378,-0.7358170747756958,0.0146174915134906,0.0094481762498617,0.0,0.0,-0.1695913672447204,0.185239553451538
-0.0414721481502056,0.7444726824760437,-0.0690894648432731,-0.7524844408035278,0.0150931803509593,0.0095135467126965,0.0,0.0,-0.1281655430793762,-0.0305849313735961
-0.0421602241694927,0.7271668910980225,-0.0692980736494064,-0.7691518664360046,0.0155719891190528,0.0095762144774198,0.0,0.0,-0.2545901536941528,0.7802151441574097
-0.0427743904292583,0.7094874978065491,-0.0599562339484691,-0.7857291102409363,0.0141325136646628,-0.028789585456252,0.0,0.0,0.5689210891723633,-0.4465601444244385
-0.0434558875858783,0.6924814581871033,-0.0664416551589965,-0.7558108568191528,0.0124426698312163,-0.033796701580286,0.0,0.0,-0.3559601306915283,0.0736881494522094
-0.0441407188773155,0.6751004457473755,-0.0667640417814254,-0.7724784016609192,0.010755063034594,-0.0337520949542522,0.0,0.0,-0.4524469375610351,0.023653507232666
-0.0448289886116981,0.6573443412780762,-0.0671173632144928,-0.7891461253166199,0.0090692369267344,-0.0337168276309967,0.0,0.0,0.4996917247772217,0.1452847719192505
-0.045389749109745,0.6398789286613464,-0.0550066344439983,-0.7762315273284912,0.0080102598294615,-0.0211793612688779,0.0,0.0,0.6904585361480713,0.4899779558181762
-0.0460562705993652,0.6227605938911438,-0.0651138946413993,-0.7608078718185425,0.0064996052533388,-0.0302132628858089,0.0,0.0,0.2733813524246216,0.8953790664672852
-0.0465764999389648,0.6061984896659851,-0.0487531162798404,-0.7360838055610657,0.0032652397640049,-0.0646871775388717,0.0,0.0,-0.2288247346878051,0.1195104122161865
-0.0471012108027935,0.5892614722251892,-0.0491931065917015,-0.7527520656585693,2.9964014174765907e-05,-0.0647054612636566,0.0,0.0,0.7007173299789429,0.4214046001434326
-0.047553539276123,0.5732209086418152,-0.042313627898693,-0.712917149066925,-0.0028513274155557,-0.0576257929205894,0.0,0.0,0.1717312335968017,0.8161307573318481
-0.0480064377188682,0.5576485991477966,-0.0406810604035854,-0.6921190023422241,-0.0074029103852808,-0.0910315066576004,0.0,0.0,-0.051777958869934,0.0718613862991333
-0.048464011400938,0.54170161485672,-0.041145522147417,-0.7087881565093994,-0.0119582442566752,-0.0911068171262741,0.0,0.0,0.5143952369689941,-0.057238757610321
-0.0490105636417865,0.5263457894325256,-0.0495994165539741,-0.6825273036956787,-0.0169436857104301,-0.0997084975242614,0.0,0.0,0.2244906425476074,0.2510759830474853
-0.049463652074337,0.5111878514289856,-0.0406855419278144,-0.6737452149391174,-0.0215117298066616,-0.0913607627153396,0.0,0.0,-0.3321681022644043,0.6622748374938965
-0.0498668663203716,0.4956544935703277,-0.0343048758804798,-0.6904686689376831,-0.0274557117372751,-0.1188796013593673,0.0,0.0,-0.6181316375732422,-0.8111836314201355
-0.050338078290224,0.4797430634498596,-0.042703378945589,-0.7072603106498718,-0.0318165495991706,-0.0872165337204933,0.0,0.0,0.6989352703094482,-0.4560327529907226
-0.0509215369820594,0.4643742144107818,-0.0533197708427906,-0.6831750273704529,-0.0367763042449951,-0.0991952046751976,0.0,0.0,0.3988782167434692,0.1300146579742431
-0.0514642708003521,0.4497159123420715,-0.0493257902562618,-0.651611864566803,-0.0416635386645793,-0.097744807600975,0.0,0.0,0.2447361946105957,0.5265593528747559
-0.0518927574157714,0.4350000321865082,-0.0369785502552986,-0.6542131900787354,-0.047469075769186,-0.1161107569932937,0.0,0.0,0.3190597295761108,-0.2400783896446228
-0.0522709861397743,0.4209292232990265,-0.0320382341742515,-0.6255614161491394,-0.0531894527375698,-0.1144075244665145,0.0,0.0,0.703385591506958,0.0032345056533813
-0.052723504602909,0.407222718000412,-0.0389948934316635,-0.6094138026237488,-0.0593749955296516,-0.1237110346555709,0.0,0.0,0.5372153520584106,-0.6511333584785461
-0.0532859787344932,0.394100546836853,-0.0510917231440544,-0.5834196209907532,-0.0644796937704086,-0.102093830704689,0.0,0.0,0.3988449573516845,-0.5142871737480164
-0.0538295730948448,0.381394624710083,-0.0502880625426769,-0.5648887157440186,-0.0685120448470115,-0.0806469544768333,0.0,0.0,0.1483992338180542,0.5696197748184204
-0.0543888099491596,0.369204431772232,-0.0505110025405883,-0.5420445799827576,-0.0738702043890953,-0.1071634143590927,0.0,0.0,-0.8047102689743042,-0.8561796545982361
-0.0550089851021766,0.3566460609436035,-0.0580991134047508,-0.5583472847938538,-0.0777549818158149,-0.0776953771710395,0.0,0.0,0.0689082145690918,0.1371982097625732
-0.0556324943900108,0.3440938889980316,-0.0582963116466999,-0.5580905675888062,-0.0817660763859748,-0.0802220553159713,0.0,0.0,0.7066388130187988,0.6986908912658691
-0.05609817430377,0.3316455781459808,-0.0412566550076007,-0.5535608530044556,-0.0870308056473732,-0.1052944883704185,0.0,0.0,0.6018238067626953,-0.9215632677078248
-0.0566428191959857,0.3193190693855285,-0.0509229227900505,-0.548054039478302,-0.0905369967222213,-0.0701240673661232,0.0,0.0,0.560343861579895,-0.9475820064544678
-0.057202149182558,0.3077566623687744,-0.0542522594332695,-0.5139862298965454,-0.0921938419342041,-0.0331371203064918,0.0,0.0,0.2736434936523437,-0.5328904390335083
-0.0576767921447753,0.2967604100704193,-0.0469758287072181,-0.4887504577636719,-0.0926761329174041,-0.0096459966152906,0.0,0.0,-0.4295333623886108,-0.1728370189666748
-0.0581494346261024,0.2853891849517822,-0.04673782736063,-0.5054181218147278,-0.0931939706206321,-0.0103569701313972,0.0,0.0,-0.1788910031318664,0.1448345184326172
-0.0586192123591899,0.2736430466175079,-0.0464226305484771,-0.5220857858657837,-0.0937494784593582,-0.0111101325601339,0.0,0.0,0.5528254508972168,-0.5214986205101013
-0.0590162277221679,0.2626361846923828,-0.0402521304786205,-0.4891571998596191,-0.0931980460882186,0.0110284620895981,0.0,0.0,0.4627077579498291,0.4792417287826538
-0.0594507232308387,0.2520279586315155,-0.0435418374836444,-0.4714737236499786,-0.0931035578250885,0.001889725215733,0.0,0.0,-0.5583315491676331,-0.3494071960449219
-0.059879969805479,0.2410447001457214,-0.0429737120866775,-0.4881414473056793,-0.0930531471967697,0.0010081263026222,0.0,0.0,-0.0932866930961608,-0.4740101099014282
-0.0603030212223529,0.2296865135431289,-0.042314562946558,-0.5048092007637024,-0.093048982322216,8.330851414939389e-05,0.0,0.0,0.6558740139007568,-0.7134010791778564
-0.0606258399784565,0.2188189178705215,-0.0338783077895641,-0.4829057157039642,-0.0914729908108711,0.0315199717879295,0.0,0.0,0.2454533576965332,-0.5135740637779236
-0.0609386451542377,0.2079596817493438,-0.0338830910623073,-0.4824721217155456,-0.0888833776116371,0.0517923235893249,0.0,0.0,0.1422610282897949,0.7424709796905518
-0.0610865578055381,0.1971185505390167,-0.0159286074340343,-0.4817610085010528,-0.0877589806914329,0.0224876087158918,0.0,0.0,0.4883406162261963,-0.7585949301719666
-0.0610925666987896,0.1866595149040222,-0.003452209290117,-0.4646801054477691,-0.0849342569708824,0.0564946308732032,0.0,0.0,0.5082032680511475,0.321965217590332
-0.0609301552176475,0.1763475984334945,0.0128468321636319,-0.4581189155578613,-0.0815778970718383,0.0671272799372673,0.0,0.0,0.6635162830352783,0.1888003349304199
-0.0606998428702354,0.1667924225330352,0.0197361875325441,-0.424496591091156,-0.078307069838047,0.0654163360595703,0.0,0.0,0.0347795486450195,-0.5743080973625183
-0.0604425445199012,0.1575802117586136,0.0212997440248727,-0.4092101156711578,-0.0739215910434722,0.0877092629671096,0.0,0.0,-0.0484424829483032,-0.5043066143989563
-0.0602025017142295,0.14799864590168,0.0188332665711641,-0.4256000518798828,-0.0688024386763572,0.1023831963539123,0.0,0.0,0.5723164081573486,0.1656391620635986
-0.0598299987614154,0.1384975463151931,0.0316947624087333,-0.4220272302627563,-0.0633046999573707,0.1099544987082481,0.0,0.0,0.5279667377471924,-0.3242182731628418
-0.0594596862792968,0.1293314844369888,0.0317649133503437,-0.407167375087738,-0.0580992698669433,0.1041087731719017,0.0,0.0,0.4243998527526855,-0.2441531419754028
-0.0589557662606239,0.1208983957767486,0.0448571182787418,-0.3746000230312347,-0.0526257529854774,0.1094703897833824,0.0,0.0,-0.0935060977935791,-0.8196724057197571
-0.0585003867745399,0.1120958924293518,0.0383568778634071,-0.3909865021705627,-0.0455294996500015,0.1419249325990677,0.0,0.0,0.910637378692627,0.0842142105102539
-0.0581269264221191,0.1043073236942291,0.0309041943401098,-0.3459740281105041,-0.0391724072396755,0.127141922712326,0.0,0.0,0.2068415880203247,0.8523156642913818
-0.0575717911124229,0.0969043597579002,0.0508247539401054,-0.3289074003696441,-0.0345365740358829,0.092716671526432,0.0,0.0,-0.3001537322998047,-0.7691774964332581
-0.0570605285465717,0.0891358256340026,0.0448199473321437,-0.3451380133628845,-0.0283112488687038,0.1245065703988075,0.0,0.0,0.5387024879455566,0.3570902347564697
-0.0565832145512104,0.0820416286587715,0.0418659970164299,-0.3151966631412506,-0.0225213430821895,0.1157981157302856,0.0,0.0,-0.0365552902221679,0.4669640064239502
-0.0560814850032329,0.0745729282498359,0.0443933084607124,-0.3318670094013214,-0.0168122164905071,0.1141825541853904,0.0,0.0,0.4630610942840576,0.9094669818878174
-0.0555904395878315,0.0675303786993026,0.0453693568706512,-0.312967836856842,-0.0131217716261744,0.0738087594509124,0.0,0.0,0.5168299674987793,0.9725048542022704
-0.0551466941833496,0.0608335100114345,0.0428347326815128,-0.2976274490356445,-0.011605474166572,0.0303261540830135,0.0,0.0,0.2025856971740722,0.1390964984893798
-0.0545919425785541,0.0545448400080204,0.0536647513508796,-0.2794824242591858,-0.0098183341324329,0.0357426330447196,0.0,0.0,0.3653651475906372,0.2445250749588012
-0.0539546012878418,0.0483378507196903,0.0617827996611595,-0.2758540511131286,-0.0078841047361493,0.0386845953762531,0.0,0.0,0.240230917930603,0.3643410205841064
-0.0531736388802528,0.0426137298345565,0.0757114812731742,-0.2543966770172119,-0.0055351420305669,0.0469791106879711,0.0,0.0,-0.1490545868873596,-0.0403929948806762
-0.0523615851998329,0.0365146026015281,0.0789180248975753,-0.2710645794868469,-0.0032766063231974,0.0451706983149051,0.0,0.0,0.6639852523803711,0.0524582862854003
-0.0513707175850868,0.0313307158648967,0.0962149798870086,-0.2303871661424636,-0.000445203797426,0.0566279366612434,0.0,0.0,0.357569932937622,-0.3379178047180176
-0.0502838119864463,0.0264864303171634,0.1056332737207412,-0.2153056114912033,0.0025829200167208,0.0605623200535774,0.0,0.0,0.4525163173675537,-0.6557431221008301
-0.0492232330143451,0.0223503205925226,0.1017798781394958,-0.1838394701480865,0.0068065477535128,0.084472432732582,0.0,0.0,0.0605390071868896,0.4388983249664306
-0.0480917915701866,0.0185982324182987,0.1087742447853088,-0.1667883843183517,0.0111144138500094,0.0861573964357376,0.0,0.0,-0.3276067972183227,-0.6987432837486267
-0.0469720847904682,0.0144670577719807,0.1064914911985397,-0.183656632900238,0.0165289137512445,0.108289822936058,0.0,0.0,0.3465732336044311,-0.9024286270141602
-0.0460090637207031,0.0107141826301813,0.0891989916563034,-0.1668890118598938,0.0235429797321558,0.1402814537286758,0.0,0.0,0.5167100429534912,0.4600182771682739
-0.0451368317008018,0.0072913621552288,0.0807730108499527,-0.1522408127784729,0.0299125481396913,0.1273914724588394,0.0,0.0,0.2703900337219238,0.6352293491363525
-0.0442066192626953,0.0041448809206485,0.0879853218793869,-0.1399526894092559,0.034886822104454,0.0994852408766746,0.0,0.0,0.112259030342102,0.4779380559921264
-0.0432315841317176,0.0011629438959062,0.0924919545650482,-0.1326556056737899,0.0398405417799949,0.0990743115544319,0.0,1.0,0.6789525747299194,0.8152426481246948
-0.0420974716544151,-0.001304438104853,0.1179643422365188,-0.1097754314541816,0.0344489216804504,-0.1089826673269271,0.0,1.0,0.1437916755676269,0.1460521221160888
-0.0410660728812217,-0.0030988717917352,0.1204450130462646,-0.0794544443488121,0.0173340942710638,-0.3423356413841247,0.0,1.0,0.2140591144561767,-0.2848399877548218
-0.0400550849735736,-0.0034028554800897,0.1102291718125343,-0.0134328044950962,0.0082993553951382,-0.1807163059711456,1.0,1.0,0.0466991662979126,-0.9916742444038392
