x_pos,y_pos,x_vel,y_vel,angle,ang_vel,leg_1,leg_2,main_booster,lat_booster
-0.0015131949912756,1.403172254562378,-0.1530343741178512,-0.3443512618541717,0.0015373352216556,0.030308861285448,0.0,0.0,0.0324734449386596,0.4270617961883545
-0.0029837607871741,1.395427703857422,-0.148510605096817,-0.3442032933235168,0.0029613813385367,0.0284845232963562,0.0,0.0,-0.6946219801902771,0.8268828392028809
-0.0043644905090332,1.387224793434143,-0.1372507661581039,-0.3645788133144378,0.0021554254926741,-0.0161208361387252,0.0,0.0,-0.1325447559356689,0.4667990207672119
-0.0057343482039868,1.378569483757019,-0.1359325945377349,-0.3846811056137085,0.0011157366679981,-0.0207958798855543,0.0,0.0,0.0369173288345336,0.3472532033920288
-0.0070128440856933,1.3700759410858154,-0.1269479990005493,-0.3774910569190979,0.000226259639021,-0.0177910700440406,0.0,0.0,-0.0896193981170654,0.0899214744567871
-0.008280468173325,1.3611299991607666,-0.1256151497364044,-0.3975970149040222,-0.0009024930768646,-0.0225773956626653,0.0,0.0,-0.4201470613479614,0.4300198554992676
-0.0095370290800929,1.351731777191162,-0.1242749243974685,-0.4176961183547973,-0.0022719509433954,-0.02739161811769,0.0,0.0,0.2753105163574219,0.8171508312225342
-0.0105858799070119,1.342632293701172,-0.1017656475305557,-0.40442955493927,-0.0053528025746345,-0.0616229586303234,0.0,0.0,-0.4094479084014892,0.292351484298706
-0.0116235734894871,1.3330806493759155,-0.100408136844635,-0.42453733086586,-0.0086769945919513,-0.0664897859096527,0.0,0.0,-0.4920073747634887,0.537212610244751
-0.012607860378921,1.3230795860290527,-0.0937417075037956,-0.4445179104804992,-0.0133092869073152,-0.0926544070243835,0.0,0.0,-0.0685624480247497,0.1317839622497558
-0.0135808940976858,1.3126267194747925,-0.0923707038164138,-0.4646206498146057,-0.0181872695684433,-0.0975685268640518,0.0,0.0,0.1007149219512939,-0.0922068357467651
-0.0144891738891601,1.30224871635437,-0.0858689993619918,-0.4613191783428192,-0.0230896137654781,-0.0980560332536697,0.0,0.0,-0.8082691431045532,0.2337011098861694
-0.0153861995786428,1.2914185523986816,-0.0844910591840744,-0.4814267754554748,-0.0282402522861957,-0.1030223965644836,0.0,0.0,-0.9195643663406372,-0.0007319450378417
-0.0162718780338764,1.2801367044448853,-0.0831097215414047,-0.5015290975570679,-0.0336396992206573,-0.1079989895224571,0.0,0.0,-0.2632949352264404,-0.9273854494094848
-0.0172019954770803,1.2684153318405151,-0.0887315943837165,-0.5210496187210083,-0.0378780327737331,-0.0847741663455963,0.0,0.0,-0.5003384351730347,-0.8395887017250061
-0.0181753151118755,1.2562352418899536,-0.0941708087921142,-0.5414207577705383,-0.0410052090883255,-0.0625489801168441,0.0,0.0,-0.3000344038009643,-0.7681586146354675
-0.0191838257014751,1.2436150312423706,-0.098630666732788,-0.5609655976295471,-0.0432057753205299,-0.0440148897469043,0.0,0.0,-0.6443617343902588,-0.740387499332428
-0.0202260017395019,1.230539083480835,-0.1028681844472885,-0.581187903881073,-0.0445358864963054,-0.0266049150377511,0.0,0.0,-0.6341049075126648,-0.6362680792808533
-0.0212989803403615,1.217020034790039,-0.1067605391144752,-0.6008653044700623,-0.0450566411018371,-0.010416081175208,0.0,0.0,-0.2097865939140319,-0.2499244213104248
-0.0223607067018747,1.2030487060546875,-0.1053910106420517,-0.6209675669670105,-0.0458293221890926,-0.0154549982398748,0.0,0.0,0.2515535354614258,-0.8308167457580566
-0.0233400352299213,1.1894818544387815,-0.0986794382333755,-0.6029509902000427,-0.0450999699532985,0.0145883951336145,0.0,0.0,-0.5564963817596436,-0.373670756816864
-0.0243084914982318,1.1754626035690308,-0.097318522632122,-0.6230595111846924,-0.0446231476962566,0.0095370169728994,0.0,0.0,-0.6970173120498657,-0.2249336838722229
-0.0252657886594533,1.1609914302825928,-0.0959585756063461,-0.643159806728363,-0.0443971641361713,0.0045198732987046,0.0,0.0,0.471925139427185,-0.0940885543823242
-0.0261375419795513,1.146480679512024,-0.0874408632516861,-0.6449147462844849,-0.0441330336034297,0.0052831172943115,0.0,0.0,-0.2639327049255371,-0.5168916583061218
-0.0270486827939748,1.131522536277771,-0.0924199894070625,-0.6647701859474182,-0.0428484790027141,0.0256935004144907,0.0,0.0,-0.364163875579834,-0.4489998817443847
-0.0279496200382709,1.1160908937454224,-0.0911373347043991,-0.6858237981796265,-0.0418137088418006,0.020695436745882,0.0,0.0,0.4481403827667236,-0.2830856442451477
-0.0288095474243164,1.1011611223220823,-0.0868140906095504,-0.6635196805000305,-0.0410122349858284,0.0160296373069286,0.0,0.0,-0.7235140800476074,0.4303851127624511
-0.0296587944030761,1.0857794284820557,-0.0854804739356041,-0.6836197972297668,-0.0404585413634777,0.0110738817602396,0.0,0.0,-0.3675832748413086,-0.7719946503639221
-0.0305713657289743,1.0699565410614014,-0.0934565737843513,-0.7031852602958679,-0.0382820777595043,0.0435291901230812,0.0,0.0,0.0578346252441406,0.1367435455322265
-0.0314745903015136,1.054150104522705,-0.0922250002622604,-0.7024556398391724,-0.0364133492112159,0.0373748242855072,0.0,0.0,0.4051401615142822,0.1673412322998047
-0.0323251709342002,1.0389702320098877,-0.0867788046598434,-0.6746203303337097,-0.0347151383757591,0.0339641757309436,0.0,0.0,-0.5804318189620972,0.0348963737487793
-0.0331652648746967,1.0233380794525146,-0.0854827761650085,-0.6947205066680908,-0.0332596339285373,0.0291100498288869,0.0,0.0,-0.18479984998703,0.0196809768676757
-0.0339950546622276,1.0072540044784546,-0.0841985270380973,-0.7148205041885376,-0.0320452451705932,0.0242874547839164,0.0,0.0,0.6842011213302612,0.6008316278457642
-0.0348251350224018,0.9912647604942322,-0.0826183408498764,-0.7106456756591797,-0.0324401706457138,-0.0078985011205077,0.0,0.0,0.2897708415985107,0.2096165418624878
-0.0356165878474712,0.9755567908287048,-0.0785614103078842,-0.6981452703475952,-0.0330139398574829,-0.0114754401147365,0.0,0.0,-0.6231470108032227,-0.4830739498138428
-0.0363979339599609,0.9593965411186218,-0.0773189738392829,-0.7182451486587524,-0.0338233597576618,-0.0161883123219013,0.0,0.0,0.3932621479034424,-0.5522959232330322
-0.0372241958975791,0.9433605074882508,-0.0826272293925285,-0.7127111554145813,-0.0338226035237312,1.4985174857429229e-05,0.0,0.0,0.0992873907089233,-0.0048193335533142
-0.0379982963204383,0.9276304841041564,-0.0772915333509445,-0.6991193294525146,-0.0339359901845455,-0.0022680985275655,0.0,0.0,0.3891979455947876,-0.5819944739341736
-0.038820743560791,0.9125210046768188,-0.0829858630895614,-0.6715152263641357,-0.0331973545253276,0.0147727485746145,0.0,0.0,-0.8907238841056824,-0.1506356596946716
-0.0396336540579795,0.8969593048095703,-0.0818165093660354,-0.6916150450706482,-0.0326851867139339,0.0102433944121003,0.0,0.0,-0.5345775485038757,0.1458265781402588
-0.0404375083744525,0.88094562292099,-0.0806689411401748,-0.7117148637771606,-0.0323968306183815,0.0057667372748255,0.0,0.0,-0.4081570506095886,0.2420635223388672
-0.0412322990596294,0.8644798398017883,-0.0795447304844856,-0.7318146824836731,-0.0323295481503009,0.0013456952292472,0.0,0.0,-0.2171995043754577,-0.7922980189323425
-0.0420710556209087,0.8475555777549744,-0.0850585550069809,-0.75216144323349,-0.0311597567051649,0.0233956854790449,0.0,0.0,0.4326509237289428,0.0081157684326171
-0.0428009033203125,0.8308625221252441,-0.0743541195988655,-0.7418868541717529,-0.0298067815601825,0.0270595196634531,0.0,0.0,0.1523261070251464,0.2337836027145385
-0.0435446724295616,0.8140265345573425,-0.0753980800509452,-0.7482455968856812,-0.0287967976182699,0.0201995000243186,0.0,0.0,0.1834447383880615,0.3012250661849975
-0.0442405715584754,0.7970958948135376,-0.0705590099096298,-0.7524550557136536,-0.0278430934995412,0.0190738961100578,0.0,0.0,0.2096573114395141,-0.696872353553772
-0.0449246391654014,0.7802001237869263,-0.0706329494714737,-0.7508829236030579,-0.0256425943225622,0.0440101996064186,0.0,0.0,0.0430151224136352,0.067126989364624
-0.0456585884094238,0.7636442184448242,-0.0750952437520027,-0.7357872128486633,-0.0239717178046703,0.0334177613258361,0.0,0.0,-0.5855053067207336,0.2457673549652099
-0.0463855750858783,0.7466363310813904,-0.0741842165589332,-0.7558871507644653,-0.0224983990192413,0.0294660683721303,0.0,0.0,0.26453697681427,-0.4619587659835815
-0.0471131317317485,0.7297605872154236,-0.073977991938591,-0.750016450881958,-0.021293681114912,0.024094408378005,0.0,0.0,-0.043385624885559,0.0006592273712158
-0.0478342995047569,0.7124326229095459,-0.0731459110975265,-0.7701161503791809,-0.0202785413712263,0.0203027091920375,0.0,0.0,0.4661047458648681,0.2531659603118896
-0.0485872253775596,0.6956344246864319,-0.0758979544043541,-0.7465759515762329,-0.0196851342916488,0.0118682784959673,0.0,0.0,0.2620327472686767,-0.0502467155456543
-0.0492444038391113,0.6788910031318665,-0.0665260404348373,-0.7441443800926208,-0.0188864581286907,0.0159734971821308,0.0,0.0,-0.0997732281684875,0.197772741317749
-0.0498964302241802,0.6616952419281006,-0.0658289343118667,-0.7642439603805542,-0.0182643216103315,0.0124425608664751,0.0,0.0,0.3963500261306762,0.0804260969161987
-0.0504101738333702,0.6446620225906372,-0.0524258911609649,-0.7570218443870544,-0.0172315705567598,0.020655196160078,0.0,0.0,0.2775765657424927,0.6185071468353271
-0.0509462356567382,0.6277211904525757,-0.053079318255186,-0.752934455871582,-0.0177428573369979,-0.0102258995175361,0.0,0.0,0.5947105884552002,0.2062563896179199
-0.0513740554451942,0.6114795804023743,-0.0425214059650898,-0.7218583226203918,-0.0179967209696769,-0.0050775459967553,0.0,0.0,0.2427119016647339,0.4178757667541504
-0.0516855232417583,0.5955436825752258,-0.0312280096113681,-0.7082615494728088,-0.0179278291761875,0.001378018525429,0.0,0.0,-0.5444048643112183,0.2882698774337768
-0.0519944205880165,0.5791555047035217,-0.030799850821495,-0.7283610105514526,-0.0180112477391958,-0.0016684429720044,0.0,0.0,0.0924963951110839,0.2576025724411011
-0.0523420348763465,0.5630958676338196,-0.0342935994267463,-0.7137673497200012,-0.0184747818857431,-0.0092707471922039,0.0,0.0,0.2956587076187134,0.6061216592788696
-0.0525905601680278,0.5470117926597595,-0.0231009498238563,-0.7148706912994385,-0.0202027466148138,-0.0345591530203819,0.0,0.0,0.0749659538269043,0.002876877784729
-0.0528940185904502,0.5311620235443115,-0.0281517412513494,-0.7044671177864075,-0.0223690923303365,-0.043327011168003,0.0,0.0,0.421892762184143,0.3411324024200439
-0.0530808456242084,0.5155240297317505,-0.0168470311909914,-0.6950521469116211,-0.0241748783737421,-0.0361157953739166,0.0,0.0,0.4190654754638672,0.0806386470794677
-0.0532347671687603,0.5002225637435913,-0.0135315041989088,-0.6800947189331055,-0.0260127671062946,-0.036757580935955,0.0,0.0,-0.1814391613006591,-0.2945594787597656
-0.0533894523978233,0.4844690561294555,-0.013486124575138,-0.7001944184303284,-0.0279708486050367,-0.0391614288091659,0.0,0.0,-0.2037526369094848,0.1342551708221435
-0.0535454750061035,0.4682632684707641,-0.0135085508227348,-0.720294177532196,-0.0300435572862625,-0.0414543524384498,0.0,0.0,0.8473916053771973,-0.7575604319572449
-0.0537083633244037,0.4530504941940307,-0.0156674124300479,-0.676134467124939,-0.0306603275239467,-0.0123353851959109,0.0,0.0,0.7730581760406494,0.829941987991333
-0.0537018775939941,0.4378387928009033,0.0028688986785709,-0.6761239171028137,-0.0328499861061573,-0.0437930449843406,0.0,0.0,0.7052356004714966,-0.0452404618263244
-0.0536417961120605,0.4234945774078369,0.0081956787034869,-0.6375724673271179,-0.0350084789097309,-0.0431699082255363,0.0,0.0,0.8196916580200195,0.0669780969619751
-0.0536708831787109,0.4094852209091186,-0.0001474193268222,-0.6227055191993713,-0.0377387963235378,-0.0546062290668487,0.0,0.0,0.5095465183258057,-0.2029644250869751
-0.0537650100886821,0.3959558606147766,-0.0061662695370614,-0.6013883352279663,-0.0409440137445926,-0.0641044229269027,0.0,0.0,0.4776068925857544,-0.484420895576477
-0.0538139343261718,0.3828070163726806,-0.001696515479125,-0.5844842195510864,-0.0441032163798809,-0.0631840303540229,0.0,0.0,0.1616080999374389,-0.3823907375335693
-0.0539329536259174,0.3701019287109375,-0.0081975404173135,-0.5647836327552795,-0.047757189720869,-0.0730797052383422,0.0,0.0,-0.7182390689849854,-0.2364155054092407
-0.0540581718087196,0.3569447994232178,-0.0087583241984248,-0.5848841071128845,-0.0514815934002399,-0.0744879245758056,0.0,0.0,0.9388813972473145,-0.2726931571960449
-0.0542062744498252,0.3440262973308563,-0.0107851205393671,-0.574298083782196,-0.0554541088640689,-0.0794503390789032,0.0,0.0,0.5474075078964233,-0.8501515984535217
-0.0543412193655967,0.3311024010181427,-0.0112297823652625,-0.574479341506958,-0.0576928071677684,-0.0447742007672786,0.0,0.0,0.6261382102966309,-0.6130390763282776
-0.0545472130179405,0.3182276487350464,-0.0194249972701072,-0.5722548961639404,-0.0588472634553909,-0.0230891499668359,0.0,0.0,0.3500499725341797,0.3220167160034179
-0.0547303184866905,0.3058719635009765,-0.0170622952282428,-0.5491929650306702,-0.06008305773139,-0.0247155670076608,0.0,0.0,0.8401949405670166,0.0048868656158447
-0.0547788627445697,0.2944165170192718,-0.0039769764989614,-0.5091666579246521,-0.0609512329101562,-0.0173634700477123,0.0,0.0,0.7416338920593262,-0.342052698135376
-0.0549024567008018,0.2838096916675567,-0.0108886081725358,-0.4714743494987488,-0.0624066032469272,-0.0291073862463235,0.0,0.0,-0.1767265796661377,0.0907092094421386
-0.0550359711050987,0.2727507054805755,-0.0118472296744585,-0.4915738999843597,-0.0638972893357276,-0.0298136714845895,0.0,0.0,0.4006509780883789,0.2541220188140869
-0.0551030151546001,0.2622395157814026,-0.0053190165199339,-0.4672255218029022,-0.0652605444192886,-0.0272653009742498,0.0,0.0,0.0498113632202148,0.1505639553070068
-0.0552210807800293,0.2518297433853149,-0.0101087400689721,-0.4627305269241333,-0.0669480934739112,-0.0337509848177433,0.0,0.0,-0.2413284182548523,-0.6004769206047058
-0.0554019920527935,0.2409755289554596,-0.0176830291748046,-0.4824280440807342,-0.0673530176281929,-0.0080985408276319,0.0,0.0,0.443711519241333,-0.3382536172866821
-0.0555637367069721,0.2305846512317657,-0.0156979858875274,-0.4618381857872009,-0.0678244829177856,-0.0094294976443052,0.0,0.0,0.1102855205535888,0.2429225444793701
-0.0556524284183979,0.2203207314014434,-0.0086480062454938,-0.4561838805675506,-0.0680392086505889,-0.00429457006976,0.0,0.0,0.0845305919647216,-0.0998262763023376
-0.055722426623106,0.2099393010139465,-0.0068497010506689,-0.4614048898220062,-0.0681926012039184,-0.0030677332542836,0.0,0.0,0.2037166357040405,-0.3515571355819702
-0.0557175651192665,0.199537768959999,0.00033394395723,-0.4622849822044372,-0.0680404528975486,0.0030429656617343,0.0,0.0,0.6782928705215454,-0.6199403405189514
-0.0555738434195518,0.1895404905080795,0.0125755267217755,-0.444243460893631,-0.0662680864334106,0.0354472920298576,0.0,0.0,-0.0290104746818542,-0.8389578461647034
-0.0554944984614849,0.179089680314064,0.0048548243939876,-0.4643458127975464,-0.0632143467664718,0.0610747039318084,0.0,0.0,0.6826293468475342,-0.0864644646644592
-0.0553856864571571,0.1693327277898788,0.0078096450306475,-0.4335158467292785,-0.0601849965751171,0.0605870075523853,0.0,0.0,0.0658067464828491,0.5691845417022705
-0.0551937110722065,0.1598545908927917,0.0172450020909309,-0.4211747050285339,-0.058248471468687,0.0387305840849876,0.0,0.0,0.3244428634643554,-0.4739857912063598
-0.0548846237361431,0.1507163345813751,0.028478380292654,-0.4060534238815307,-0.0558424517512321,0.0481202602386474,0.0,0.0,0.1201705932617187,-0.4503998756408691
-0.0545087829232215,0.1414516270160675,0.0348183996975421,-0.4116633832454681,-0.0531100966036319,0.0546471700072288,0.0,0.0,0.4193927049636841,-0.8354421854019165
-0.0542408004403114,0.1323971301317215,0.0224065445363521,-0.4022722542285919,-0.0487672574818134,0.0868565216660499,0.0,0.0,0.3079040050506592,0.2627948522567749
-0.0538868904113769,0.1239091232419014,0.0306740049272775,-0.3771002888679504,-0.0441002957522869,0.0933391079306602,0.0,0.0,0.4340527057647705,-0.9287074208259584
-0.053622055798769,0.1157156527042388,0.0198956113308668,-0.3639756143093109,-0.0375918596982955,0.1301687955856323,0.0,0.0,0.2167251110076904,0.410747766494751
-0.0534414276480674,0.1079537719488143,0.0118935909122228,-0.3448299765586853,-0.0314898081123828,0.1220410093665123,0.0,0.0,0.22749924659729,0.4606649875640869
-0.0531944260001182,0.1005144715309143,0.018196664750576,-0.3305131196975708,-0.0250697005540132,0.1284019947052002,0.0,0.0,0.0453007221221923,0.8373510837554932
-0.0529237762093544,0.0933402404189109,0.0222382806241512,-0.3187826871871948,-0.0203030258417129,0.0953334048390388,0.0,0.0,-0.1598817110061645,0.3786115646362304
-0.052667997777462,0.085714042186737,0.0207198280841112,-0.3388837575912475,-0.0155152725055813,0.095755323767662,0.0,0.0,0.8029152154922485,0.6131563186645508
-0.0523996353149414,0.07844839990139,0.0232818685472011,-0.3228856027126312,-0.0120003139600157,0.0702991709113121,0.0,0.0,0.7003660202026367,0.9725269079208374
-0.052196979522705,0.0716609060764312,0.0188286341726779,-0.3016522526741028,-0.0105776395648717,0.0284534487873315,0.0,0.0,0.4437768459320068,0.8241808414459229
-0.0520872101187706,0.0651072338223457,0.0113674784079194,-0.2912774085998535,-0.0109699591994285,-0.0078461859375238,0.0,0.0,0.1865566968917846,0.1737200021743774
-0.0519111640751361,0.05887421220541,0.0176259633153677,-0.2770246267318725,-0.0109872724860906,-0.0003464114561211,0.0,0.0,0.4620330333709717,0.8728125095367432
-0.0516165718436241,0.0526689402759075,0.0311350729316473,-0.2758039236068725,-0.0126432031393051,-0.0331184566020965,0.0,0.0,0.3420101404190063,0.2377532720565796
-0.0512119308114051,0.046938668936491,0.0415740460157394,-0.2546871304512024,-0.0137311918660998,-0.0217599514871835,0.0,0.0,-0.2803076505661011,-0.2204113602638244
-0.0508228316903114,0.0407562814652919,0.039990909397602,-0.2747864127159118,-0.0147966723889112,-0.0213095732033252,0.0,0.0,0.6187757253646851,0.2607420682907104
-0.050297163426876,0.0353741981089115,0.0529670938849449,-0.2392066270112991,-0.0151934744790196,-0.0079360082745552,0.0,0.0,-0.0010083317756652,-0.5823040008544922
-0.0498274788260459,0.0295408591628074,0.0463230274617672,-0.2592523694038391,-0.0145577983930706,0.0127132562920451,0.0,0.0,0.6733148097991943,0.2455517053604126
-0.0493688583374023,0.024495730176568,0.0452327951788902,-0.2242212146520614,-0.013935605995357,0.0124437576159834,0.0,0.0,0.1023415327072143,0.7058887481689453
-0.0488166809082031,0.0197906345129013,0.0559393689036369,-0.2091228663921356,-0.0146519029513001,-0.0143258702009916,0.0,0.0,0.1139479875564575,0.2559089660644531
-0.0482216849923133,0.0150957675650715,0.0599608831107616,-0.2086661905050277,-0.01509899366647,-0.0089419335126876,0.0,0.0,0.1806836128234863,0.6800363063812256
-0.047680377960205,0.010613546706736,0.0560665056109428,-0.199229434132576,-0.0170116648077964,-0.0382534451782703,0.0,0.0,0.5386956930160522,-0.0504335165023803
-0.0472664833068847,0.0064012263901531,0.0438726581633091,-0.187243178486824,-0.0194625630974769,-0.049018021672964,0.0,0.0,0.5021520853042603,0.7678655385971069
-0.0468196868896484,0.0025039769243448,0.0487350821495056,-0.1732702255249023,-0.0234635695815086,-0.0800202116370201,0.0,0.0,0.4801070690155029,0.287459135055542
-0.0463545806705951,-0.0011295223375782,0.050450824201107,-0.1615540534257888,-0.027345884591341,-0.0776465311646461,1.0,0.0,0.8283467292785645,0.1269953250885009
-0.0457008369266986,-0.0042261504568159,0.0594539456069469,-0.1378978788852691,-0.0202673487365245,0.1431449353694915,1.0,0.0,0.9049907922744752,-0.6778044104576111
-0.0450688377022743,-0.005523195490241,0.0582277588546276,-0.0575979091227054,-0.0153227094560861,0.098937839269638,1.0,1.0,-0.5727514624595642,-0.9582198858261108
-0.0446236617863178,-0.0061433222144842,0.0389483571052551,-0.0275261215865612,-0.0098214643076062,0.1100396066904068,1.0,1.0,-0.4601947069168091,-0.6072936654090881
