x_pos,y_pos,x_vel,y_vel,angle,ang_vel,leg_1,leg_2,main_booster,lat_booster
-0.0015855788951739,1.403327226638794,-0.1614974290132522,-0.3374686241149902,0.002632993273437,0.0520026311278343,0.0,0.0,-0.2667732238769531,0.9347317218780518
-0.0031503676436841,1.395455837249756,-0.1578717082738876,-0.3498444855213165,0.0040107765235006,0.0275592561811208,0.0,0.0,-0.1383665800094604,0.9666213989257812
-0.0046774866059422,1.387279987335205,-0.1525708138942718,-0.3633676469326019,0.0038696452975273,-0.0028229695744812,0.0,0.0,0.5240590572357178,0.8088119029998779
-0.0063167572952806,1.3794950246810913,-0.1627730131149292,-0.3459907174110412,0.0027322934474796,-0.0227493532001972,0.0,0.0,-0.3848075866699219,0.4323233366012573
-0.0080037117004394,1.3714126348495483,-0.1683675348758697,-0.3592149615287781,0.0024093170650303,-0.0064602391794323,0.0,0.0,0.0931850671768188,0.8273727893829346
-0.0095646856352686,1.3635714054107666,-0.1550053060054779,-0.3484959900379181,0.0013229044852778,-0.0217301435768604,0.0,0.0,0.0610535144805908,0.764784574508667
-0.0111228944733738,1.3559890985488892,-0.153994470834732,-0.3369884788990021,-0.000478239468066,-0.0360260866582393,0.0,0.0,0.1905478239059448,0.6430621147155762
-0.012546157464385,1.3488105535507202,-0.1402339935302734,-0.3190507888793945,-0.0025446380022913,-0.0413322672247886,0.0,0.0,-0.3626205325126648,0.7269082069396973
-0.0139454845339059,1.3413420915603638,-0.1372347921133041,-0.3319334983825683,-0.0052140294574201,-0.0533928871154785,0.0,0.0,-0.1520389318466186,0.0646299123764038
-0.0153731349855661,1.3335764408111572,-0.1408744007349014,-0.345149427652359,-0.0070771132595837,-0.0372650064527988,0.0,0.0,-0.4638431668281555,0.3076765537261963
-0.016825009137392,1.3255133628845217,-0.1441167145967483,-0.3583672642707824,-0.0081371506676077,-0.0212026555091142,0.0,0.0,-0.2544674873352051,0.430113673210144
-0.0182972904294729,1.317152738571167,-0.1469601690769195,-0.3715853691101074,-0.0083965798839926,-0.0051890853792428,0.0,0.0,0.2873541116714477,0.9478988647460938
-0.0195889472961425,1.3093147277832031,-0.1278748661279678,-0.348371148109436,-0.0096636330708861,-0.0253435280174016,0.0,0.0,-0.664760172367096,0.8742556571960449
-0.0208161361515522,1.301169514656067,-0.1202830821275711,-0.3620196878910064,-0.0120678171515464,-0.0480883345007896,0.0,0.0,-0.7393531799316406,0.3621009588241577
-0.0220517162233591,1.29272723197937,-0.1219256371259689,-0.3752346336841583,-0.0136798396706581,-0.0322435982525348,0.0,0.0,-0.5163800120353699,0.9046485424041748
-0.0232074744999408,1.2839747667312622,-0.1126039773225784,-0.3890211284160614,-0.0166259724646806,-0.0589281134307384,0.0,0.0,-0.8114089965820312,0.8726599216461182
-0.0242791175842285,1.2749332189559937,-0.1028354540467262,-0.4019047617912292,-0.0209138598293066,-0.0857650265097618,0.0,0.0,-0.5029200911521912,0.0147622823715209
-0.0253477096557617,1.2655941247940063,-0.1033069938421249,-0.4151236116886139,-0.0244204271584749,-0.0701377913355827,0.0,0.0,-0.4855836033821106,0.016304612159729
-0.0264094360172748,1.2559576034545898,-0.1034040004014968,-0.4283418953418731,-0.0271508358418941,-0.0546128749847412,0.0,0.0,0.2244198322296142,0.5745580196380615
-0.027469540014863,1.2466529607772827,-0.1027563363313674,-0.4136046171188354,-0.0303770098835229,-0.0645295158028602,0.0,0.0,-0.8908081650733948,-0.216713011264801
-0.028515625745058,1.2370505332946775,-0.1021219938993454,-0.42682746052742,-0.0328347794711589,-0.0491596385836601,0.0,0.0,-0.9511969089508056,0.1532968282699585
-0.0295441634953022,1.2271504402160645,-0.1011367589235305,-0.4400431215763092,-0.034529972821474,-0.0339069552719593,0.0,0.0,-0.5917256474494934,0.2945443391799927
-0.030551815405488,1.216952562332153,-0.0998094007372856,-0.4532593786716461,-0.0354673080146312,-0.0187484808266162,0.0,0.0,-0.9533273577690125,-0.2647132873535156
-0.0315351486206054,1.2064568996429443,-0.0981496721506118,-0.4664762914180755,-0.0356520414352417,-0.0036952216178178,0.0,0.0,-0.4146617650985718,-0.1463233232498169
-0.0324912071228027,1.195663571357727,-0.0961678624153137,-0.479693055152893,-0.0350896678864955,0.0112482933327555,0.0,0.0,-0.9758948683738708,0.6619970798492432
-0.0333774574100971,1.1845523118972778,-0.088936373591423,-0.493823379278183,-0.0347834378480911,0.006124666891992,0.0,0.0,-0.8366580009460449,-0.1953994631767273
-0.0342303290963172,1.1731433868408203,-0.0863378271460533,-0.5070378184318542,-0.0337411761283874,0.0208455100655555,0.0,0.0,-0.9416458606719972,-0.1688000559806823
-0.0350467674434185,1.1614367961883545,-0.0834468454122543,-0.5202524662017822,-0.0319685749709606,0.0354519039392471,0.0,0.0,-0.5084139704704285,0.1143237352371215
-0.0358242020010948,1.14943265914917,-0.0802748128771781,-0.5334674119949341,-0.0294715948402881,0.0499396920204162,0.0,0.0,-0.9800134897232056,0.7208418846130371
-0.0365050323307514,1.1371257305145264,-0.0699334293603897,-0.5469390749931335,-0.0276404749602079,0.0366224870085716,0.0,0.0,-0.7729665637016296,0.1767281293869018
-0.0371416099369525,1.124521255493164,-0.0662339702248573,-0.5601543188095093,-0.0250975452363491,0.0508584566414356,0.0,0.0,-0.836175262928009,0.4469068050384521
-0.0377315506339073,1.111619234085083,-0.0622882731258869,-0.5733700394630432,-0.0218495186418294,0.0649607330560684,0.0,0.0,-0.8594563007354736,0.6584553718566895
-0.038227654993534,1.0984245538711548,-0.0524583533406257,-0.5863935947418213,-0.019032871350646,0.0563329085707664,0.0,0.0,-0.7913590669631958,0.6097146272659302
-0.0386295318603515,1.0849255323410034,-0.0426494590938091,-0.5999246835708618,-0.0166099332273006,0.0484587512910366,0.0,0.0,-0.967595100402832,0.361169695854187
-0.038978386670351,1.0711290836334229,-0.0380344055593013,-0.6131408214569092,-0.0135036837309598,0.062124915421009,0.0,0.0,-0.85438072681427,0.5428562164306641
-0.0392280593514442,1.0570385456085205,-0.0276626981794834,-0.6262266039848328,-0.0108340289443731,0.0533929876983165,0.0,0.0,-0.8378611207008362,0.3722472190856933
-0.0394207946956157,1.042650580406189,-0.0226583275943994,-0.6394431591033936,-0.0074972906149923,0.0667348504066467,0.0,0.0,-0.7682470679283142,0.5608725547790527
-0.0395078659057617,1.0279691219329834,-0.0115525359287858,-0.6524980664253235,-0.0046879048459231,0.0561879277229309,0.0,0.0,-0.6156678795814514,0.4696723222732544
-0.039534855633974,1.0129903554916382,-0.0062029948458075,-0.6657150983810425,-0.0012291818857192,0.0691744685173034,0.0,0.0,-0.6986272931098938,0.7262282371520996
-0.0394400581717491,0.9977152347564696,0.0068528079427778,-0.6788976192474365,0.0013573996257036,0.0517317466437816,0.0,0.0,-0.8351301550865173,0.6746289730072021
-0.0392384529113769,0.9821484088897704,0.0180156268179416,-0.6918571591377258,0.0034700667019933,0.0422534607350826,0.0,0.0,-0.8048787117004395,0.4497393369674682
-0.03897275775671,0.966284453868866,0.0238034762442111,-0.7050743103027344,0.0062021221965551,0.0546409673988819,0.0,0.0,-0.8841680884361267,0.7990431785583496
-0.0385682098567485,0.9501151442527772,0.0389347821474075,-0.7186464071273804,0.0076974728144705,0.0299072209745645,0.0,0.0,-0.598615825176239,-0.1203343868255615
-0.0380973815917968,0.9336485266685486,0.0449643060564994,-0.7318635582923889,0.009789771400392,0.0418460443615913,0.0,0.0,-0.4707462787628174,0.8172140121459961
-0.0374989509582519,0.9168757796287536,0.0586730353534221,-0.7454623579978943,0.0109519120305776,0.0232426226139068,0.0,0.0,-0.5262879729270935,0.5990853309631348
-0.0367812141776084,0.8998005986213684,0.0713123753666877,-0.7589042782783508,0.0114043708890676,0.0090493168681859,0.0,0.0,-0.4387913942337036,0.2638705968856811
-0.0359946265816688,0.8824280500411987,0.0776328891515731,-0.7721214294433594,0.0124160107225179,0.0202326197177171,0.0,0.0,-0.5011666417121887,0.2241215705871582
-0.0351386070251464,0.8647581934928894,0.0840321704745292,-0.7853386402130127,0.0139730470255017,0.031140599399805,0.0,0.0,-0.4935071468353271,0.4711320400238037
-0.0342123992741107,0.84679114818573,0.0905014351010322,-0.7985560894012451,0.0160611104220151,0.041761253029108,0.0,0.0,-0.6399241089820862,0.8762669563293457
-0.0331487655639648,0.828525960445404,0.1054290384054184,-0.8117961883544922,0.016983937472105,0.0184569247066974,0.0,0.0,-0.7199530005455017,0.3651052713394165
-0.0320142731070518,0.8099636435508728,0.1120126843452453,-0.8250135183334351,0.0184072218835353,0.0284655150026083,0.0,0.0,-0.3757897615432739,0.6169874668121338
-0.0307643897831439,0.7911092042922974,0.1241759434342384,-0.8379802107810974,0.019204681739211,0.0159490015357732,0.0,0.0,-0.7535133361816406,0.6889100074768066
-0.0293787010014057,0.7719557881355286,0.1389268338680267,-0.8512645959854126,0.0188509076833724,-0.0070750610902905,0.0,0.0,-0.6209561824798584,-0.8684477806091309
-0.0279899593442678,0.7525109648704529,0.1370350420475006,-0.8642337322235107,0.0206642895936965,0.0362675003707408,0.0,0.0,-0.6869542002677917,0.0699802637100219
-0.0265297889709472,0.7327691912651062,0.1437497586011886,-0.8774513006210327,0.0229093935340642,0.0449020378291606,0.0,0.0,-0.4391456246376037,-0.3322180509567261
-0.0249979980289936,0.7127300500869751,0.1504778265953064,-0.8906691074371338,0.0255675129592418,0.053162544965744,0.0,0.0,-0.063461422920227,-0.2185173034667968
-0.0233949664980173,0.6923938989639282,0.1572117507457733,-0.9038870930671692,0.0286193788051605,0.0610374882817268,0.0,0.0,0.7020156383514404,-0.5403993725776672
-0.0216316226869821,0.6728093028068542,0.171365350484848,-0.8705269694328308,0.0335309766232967,0.0982318669557571,0.0,0.0,0.1807292699813842,-0.5352826118469238
-0.0198009498417377,0.6538165807723999,0.1765403002500534,-0.8442866206169128,0.0399749167263507,0.1288791298866272,0.0,0.0,-0.2075718641281128,0.0199828147888183
-0.0178998000919818,0.6345271468162537,0.1832481622695922,-0.8575078248977661,0.0467515923082828,0.135533332824707,0.0,0.0,0.0946743488311767,-0.4094536900520324
-0.0159064289182424,0.6153112053871155,0.1920167505741119,-0.8542891144752502,0.0539965480566024,0.1448992043733596,0.0,0.0,0.5251657962799072,-0.2044423818588256
-0.0139708518981933,0.5967610478401184,0.1863690912723541,-0.8247235417366028,0.0611029081046581,0.1421272009611129,0.0,0.0,0.3062711954116821,0.1650605201721191
-0.0118939401581883,0.5785357356071472,0.199782520532608,-0.8103572130203247,0.0689285844564437,0.1565138548612594,0.0,0.0,0.5419116020202637,-0.0935792326927185
-0.0097661968320608,0.560872495174408,0.2045110017061233,-0.7854375839233398,0.0771011933684349,0.1634523570537567,0.0,0.0,0.1170077323913574,-0.1678297519683838
-0.0075865746475756,0.5433189272880554,0.2094521224498748,-0.7806212306022644,0.0855209082365036,0.1683945059776306,0.0,0.0,0.2826851606369018,-0.0837827920913696
-0.0054753301665186,0.5261425375938416,0.2028757333755493,-0.7638880014419556,0.0936958566308021,0.1634990721940994,0.0,0.0,0.2514264583587646,0.1999613046646118
-0.003342819167301,0.5096403360366821,0.2047618180513382,-0.7339884042739868,0.1021228805184364,0.1685406863689422,0.0,0.0,-0.1841974854469299,0.1116482019424438
-0.0011452675098553,0.4928418397903442,0.2110981047153473,-0.7472122311592102,0.1107038930058479,0.1716202199459076,0.0,0.0,0.4940308332443237,0.2571876049041748
0.0010551452869549,0.4769020676612854,0.2111482620239257,-0.7091136574745178,0.1195287927985191,0.1764982789754867,0.0,0.0,-0.2806617021560669,0.7432297468185425
0.0033677101600915,0.4606717824935913,0.2235358953475952,-0.7219857573509216,0.1272114068269729,0.1536524593830108,0.0,0.0,-0.0450913310050964,0.42052161693573
0.0057419775985181,0.4441450834274292,0.2296268492937088,-0.7352081537246704,0.1349792331457138,0.1553563773632049,0.0,0.0,-0.4167141914367676,-0.191161572933197
0.0081768035888671,0.4273218214511871,0.235624074935913,-0.7484304308891296,0.142809584736824,0.1566070914268493,0.0,0.0,0.8409318923950195,-0.6612910628318787
0.0103314397856593,0.4115625321865082,0.2066289484500885,-0.7012838125228882,0.1516168862581253,0.1761460602283477,0.0,0.0,0.7146414518356323,0.7743113040924072
0.0125967981293797,0.3964282870292663,0.2190861254930496,-0.6734098196029663,0.1590567082166671,0.1487967371940612,0.0,0.0,-0.2797199487686157,0.6856727600097656
0.0149699207395315,0.3810041546821594,0.2311712056398391,-0.6861873269081116,0.1652000844478607,0.1228676214814186,0.0,0.0,0.7672379016876221,-0.7359152436256409
0.0173629764467477,0.3657953143119812,0.2315480709075927,-0.6768333315849304,0.172966718673706,0.155332550406456,0.0,0.0,0.810333251953125,-0.4055348038673401
0.0197117812931537,0.3508303165435791,0.2273413836956024,-0.6660073399543762,0.180527001619339,0.1512055993080139,0.0,0.0,0.8935762643814087,-0.0312578678131103
0.0219404213130474,0.3369075059890747,0.2154401242733001,-0.6197143197059631,0.1879762262105941,0.1489844024181366,0.0,0.0,0.5377421379089355,0.6064679622650146
0.0242037773132324,0.3238485753536224,0.2200450599193573,-0.5812069773674011,0.1943004876375198,0.1264851093292236,0.0,0.0,-0.2710099220275879,0.2075073719024658
0.0265164375305175,0.3104925155639648,0.2250955998897552,-0.5944252014160156,0.2005189359188079,0.1243690401315689,0.0,0.0,0.4482771158218384,-0.2956186532974243
0.0287080761045217,0.2972321808338165,0.2136295139789581,-0.5901089906692505,0.2060881108045578,0.1113834232091903,0.0,0.0,0.7980990409851074,-0.3207485675811767
0.0308127403259277,0.2849511802196502,0.2048890888690948,-0.5466123819351196,0.2117175757884979,0.112588882446289,0.0,0.0,-0.2176723480224609,-0.6243237853050232
0.032905675470829,0.2723546624183655,0.2024247348308563,-0.5608459711074829,0.2186541855335235,0.1387318521738052,0.0,0.0,0.4375631809234619,0.0735738277435302
0.0348668098449707,0.2603089809417724,0.1896609663963318,-0.5363376140594482,0.225192978978157,0.1307758241891861,0.0,0.0,0.0465463399887084,0.897782564163208
0.0368298515677452,0.2486384958028793,0.1918301880359649,-0.5193769931793213,0.2297268360853195,0.0906775444746017,0.0,0.0,-0.110476553440094,0.0824872255325317
0.0388323776423931,0.2366702705621719,0.1959814429283142,-0.5325913429260254,0.2340520173311233,0.0865037590265274,0.0,0.0,-0.091456115245819,0.5562605857849121
0.0409176833927631,0.2244147211313247,0.2056419402360916,-0.5451542735099792,0.2369921654462814,0.0588026568293571,0.0,0.0,0.7953088283538818,-0.8207033276557922
0.0429820045828819,0.2125095725059509,0.2019265592098236,-0.5298482179641724,0.2415665686130523,0.091488316655159,0.0,0.0,0.6627562046051025,-0.5366774201393127
0.0450556762516498,0.2011852115392685,0.2016348391771316,-0.5042569637298584,0.2473935931921005,0.1165406480431556,0.0,0.0,0.1885805130004882,-0.578203022480011
0.0471560470759868,0.1899954676628112,0.203241229057312,-0.4984823763370514,0.2543222308158874,0.1385722905397415,0.0,0.0,0.4203773736953735,-0.6400778889656067
0.049069594591856,0.1794292032718658,0.1835793256759643,-0.4709769487380981,0.2622545957565307,0.1586471796035766,0.0,0.0,0.5415122509002686,0.0550516843795776
0.0508560165762901,0.1696018725633621,0.1710444688796997,-0.4381457269191742,0.2700333297252655,0.1555747389793396,0.0,0.0,0.7110310792922974,0.3435873985290527
0.0526092536747455,0.1605273634195327,0.1674489676952362,-0.4047862589359283,0.2781108915805816,0.1615510731935501,0.0,0.0,0.8870453834533691,0.3927303552627563
0.0543958656489849,0.1517403721809387,0.170583963394165,-0.3920895457267761,0.2864135205745697,0.1660528630018234,0.0,0.0,0.6919922828674316,0.1471947431564331
0.056006621569395,0.1433833241462707,0.1535726338624954,-0.3729180693626404,0.2941501140594482,0.1547320783138275,0.0,0.0,0.8920637369155884,-0.0734078884124755
0.0574451461434364,0.1361889988183975,0.1362403780221939,-0.3213025331497192,0.3020091950893402,0.1571817845106125,0.0,0.0,0.6335549354553223,0.3879295587539673
0.0587139129638671,0.1294923424720764,0.119705930352211,-0.2991333603858948,0.3094277679920196,0.1483708769083023,0.0,0.0,0.4352781772613525,0.4072895050048828
0.0596871376037597,0.1234356984496116,0.0909792482852935,-0.2705524265766144,0.3160049021244049,0.1315425336360931,0.0,0.0,0.5610134601593018,-0.5044038891792297
0.0605169311165809,0.1180457472801208,0.0757760852575302,-0.2411389499902725,0.3234914541244507,0.1497313976287841,0.0,0.0,0.0946336984634399,0.4085001945495605
0.061169434338808,0.1130477488040924,0.0585677921772003,-0.2236457765102386,0.3304595053195953,0.1393609046936035,0.0,0.0,-0.4341623783111572,0.689502477645874
0.0618778243660926,0.107778675854206,0.0656855553388595,-0.2353696674108505,0.3358462452888489,0.1077348440885543,0.0,0.0,0.24839448928833,0.9002505540847778
0.0625204071402549,0.1027652323246002,0.0612291879951953,-0.2235294729471206,0.3390185236930847,0.0634463280439376,0.0,0.0,-0.4041972160339355,0.9078059196472168
0.0632266998291015,0.0974823534488678,0.0693824142217636,-0.2350857555866241,0.3403218984603882,0.0260670818388462,0.0,0.0,-0.5746482610702515,0.7632167339324951
0.0639838203787803,0.0919214561581611,0.0759425014257431,-0.2470980435609817,0.3400813043117523,-0.0048121158033609,0.0,0.0,-0.3790590167045593,0.7733697891235352
0.064813807606697,0.0861016362905502,0.0853694453835487,-0.2581026554107666,0.3375963568687439,-0.0496988035738468,0.0,0.0,-0.173655092716217,0.7604672908782959
0.0657123550772667,0.0800093710422515,0.0942343398928642,-0.2697493433952331,0.3330237865447998,-0.0914516672492027,0.0,0.0,0.7147090435028076,0.7122635841369629
0.0665623694658279,0.0748540982604026,0.0908143445849418,-0.2277950942516327,0.3269508779048919,-0.1214580163359642,0.0,0.0,0.4007542133331299,-0.3838680982589721
0.067184641957283,0.0703255981206893,0.0685195922851562,-0.1998600661754608,0.320402979850769,-0.1309577077627182,0.0,0.0,0.0251147747039794,0.9897623062133788
0.0678136795759201,0.0663518533110618,0.0715904235839843,-0.1747104674577713,0.3113667964935303,-0.1807235330343246,0.0,0.0,0.2651251554489136,0.8673121929168701
0.0684346184134483,0.062776505947113,0.0728629380464553,-0.156633123755455,0.30022132396698,-0.2229099720716476,0.0,0.0,-0.3273993730545044,-0.6128700971603394
0.069005586206913,0.0588879436254501,0.0670636743307113,-0.1708041280508041,0.2899428009986877,-0.2055712938308715,0.0,0.0,0.5726583003997803,0.4323663711547851
0.0694145187735557,0.0558042638003826,0.0509977638721466,-0.1350774765014648,0.2795423567295074,-0.2080087661743164,0.0,0.0,0.130223274230957,-0.0526641607284545
0.0697855949401855,0.0528981052339077,0.0473756082355976,-0.1272290647029876,0.2690081298351288,-0.2106843739748001,0.0,0.0,-0.1269403100013733,0.1054102182388305
0.0701513290405273,0.0496948324143886,0.0472532398998737,-0.1404459625482559,0.2580857872962951,-0.2184466123580932,0.0,0.0,0.1625223159790039,0.244584321975708
0.0703309029340744,0.0466851815581321,0.0294666048139333,-0.1317809224128723,0.2463584989309311,-0.2345459759235382,0.0,0.0,0.2679693698883056,0.0261403322219848
0.0703818351030349,0.0440021120011806,0.0170804411172866,-0.1172845885157585,0.2341689765453338,-0.243790715932846,0.0,0.0,-0.2128301262855529,0.5626752376556396
0.0704697594046592,0.0410377345979213,0.0223758816719055,-0.1296487748622894,0.2204125970602035,-0.2751279473304748,0.0,0.0,-0.1496890783309936,-0.2442349195480346
0.0705488175153732,0.0377773866057395,0.0219091214239597,-0.1428738087415695,0.206274539232254,-0.2827615141868591,0.0,0.0,0.1566879749298095,-0.4789751172065735
0.070587158203125,0.0349450446665287,0.0179364345967769,-0.1239736750721931,0.1920728981494903,-0.2840328216552734,0.0,0.0,-0.2522636651992798,-0.3754600286483764
0.0706154853105545,0.0318170897662639,0.0173392537981271,-0.1372007876634597,0.1774950623512268,-0.2915568947792053,0.0,0.0,-0.1301232576370239,-0.744027853012085
0.0705823898315429,0.0283714868128299,0.0102808307856321,-0.1515694558620453,0.1638835072517395,-0.2722311317920685,0.0,0.0,0.2748701572418213,-0.3481180667877197
