x_pos,y_pos,x_vel,y_vel,angle,ang_vel,leg_1,leg_2,main_booster,lat_booster
-0.0015915870899334,1.4034727811813354,-0.1611044257879257,-0.3309961259365082,0.001737305894494,0.0342681370675563,0.0,0.0,0.9309281478455508,-0.7580947541746977
-0.0032502175308763,1.3967019319534302,-0.169166088104248,-0.3009380102157593,0.0050123762339353,0.0655083805322647,0.0,0.0,0.92178946125195,-0.6778039297591881
-0.0048728943802416,1.390479564666748,-0.1673124432563781,-0.2765726447105407,0.0099954549223184,0.0996710360050201,0.0,0.0,-0.1026038936621216,-0.7847804611497047
-0.00664863595739,1.38410222530365,-0.1844150424003601,-0.2835012972354889,0.016755448654294,0.1352125853300094,0.0,0.0,-0.5065233099937403,0.8621513728202159
-0.0084247589111328,1.3775782585144043,-0.182270735502243,-0.2900118231773376,0.0213631689548492,0.0921629518270492,0.0,0.0,0.275761804866635,-0.7778788442275199
-0.0102368351072072,1.371532678604126,-0.1875015199184417,-0.2687971293926239,0.0275875646620988,0.1244994550943374,0.0,0.0,0.5438365767308382,-0.8033269768449854
-0.01223926525563,1.3661413192749023,-0.208026647567749,-0.2397776544094085,0.0352788195013999,0.153839036822319,0.0,0.0,-0.3619453976959756,-0.7626064032491884
-0.0143788335844874,1.3605988025665283,-0.2228014916181564,-0.2465663105249405,0.0440252088010311,0.174944132566452,0.0,0.0,0.6489846999532078,-0.6785319096187532
-0.0167166702449321,1.3561601638793943,-0.2438681423664093,-0.1975931972265243,0.0540035106241703,0.1995846927165985,0.0,0.0,0.236279464328073,0.7272180996512891
-0.0191250797361135,1.3523939847946167,-0.2493751943111419,-0.1677148342132568,0.0624574460089206,0.1690941601991653,0.0,0.0,0.242907429434974,-0.6943190253715141
-0.0216435436159372,1.349148511886597,-0.261799693107605,-0.1446770131587982,0.0723204836249351,0.197278618812561,0.0,0.0,0.8117704940881807,-0.7518192369146466
-0.0242813117802143,1.346620798110962,-0.2753322124481201,-0.1129432991147041,0.0837880000472068,0.2293713539838791,0.0,0.0,0.8279019265155096,0.9997032370924108
-0.0268499366939067,1.3451344966888428,-0.2665873169898987,-0.066628411412239,0.0934415310621261,0.1930882781744003,0.0,0.0,-0.9720206887197878,0.8844547603084976
-0.0294478423893451,1.3434998989105225,-0.2674570679664612,-0.0731459483504295,0.1010619699954986,0.1524228453636169,0.0,0.0,-0.6377444372954657,-0.947974831138528
-0.0322124473750591,1.3417153358459473,-0.2855121791362762,-0.0799420773983001,0.1100473850965499,0.1797246187925338,0.0,0.0,0.9422538224048448,0.7810875462266519
-0.0349256508052349,1.3403249979019165,-0.2790398001670837,-0.0623759143054485,0.1177287697792053,0.1536419689655304,0.0,0.0,0.0867191485110971,-0.9913870347810808
-0.0377888679504394,1.3396387100219729,-0.2959109544754028,-0.0312858708202838,0.1272803843021392,0.1910494714975357,0.0,0.0,0.1214344753882594,-0.9801277461922158
-0.0407612808048725,1.3391790390014648,-0.3086978793144226,-0.0214422866702079,0.13870669901371,0.2285467088222503,0.0,0.0,-0.5312366915400888,-0.6511521650564898
-0.0438937172293663,1.3385666608810425,-0.3256987929344177,-0.0284284893423318,0.1511468887329101,0.2488265037536621,0.0,0.0,0.3211815523087054,-0.9256978224265456
-0.0473582260310649,1.338442087173462,-0.3606137931346893,-0.007038983516395,0.1653115153312683,0.2833177745342254,0.0,0.0,0.8907515194167259,-0.9311801235774188
-0.0509984008967876,1.3394699096679688,-0.3801974654197693,0.0438003465533256,0.1815510839223861,0.3248206079006195,0.0,0.0,0.0072756878372353,0.7124657460661606
-0.0547448173165321,1.3407599925994873,-0.3893014788627624,0.0554835125803947,0.1963008195161819,0.2950212955474853,0.0,0.0,-0.6581686026756042,-0.7627584544184592
-0.0586602203547954,1.3418864011764526,-0.4072785377502441,0.0478996783494949,0.2121862471103668,0.3177370131015777,0.0,0.0,-0.3797813514353569,-0.6720244956891321
-0.0627445206046104,1.3428423404693604,-0.4252312779426574,0.0399770103394985,0.22920523583889,0.3404102921485901,0.0,0.0,-0.2474182011632613,0.8303579303602633
-0.0669056922197341,1.3436686992645264,-0.431537926197052,0.0342555195093154,0.24487866461277,0.3134966194629669,0.0,0.0,-0.1090267009550423,-0.711032962907667
-0.0712578743696212,1.344304084777832,-0.4522728323936462,0.0253033768385648,0.2622716724872589,0.3478601574897766,0.0,0.0,0.5850782153034946,0.8225399566348072
-0.0758519172668457,1.3458328247070312,-0.4747173190116882,0.0651142820715904,0.277942031621933,0.3134070634841919,0.0,0.0,-0.3466768922728571,-0.9252573583015627
-0.0806612968444824,1.3471856117248535,-0.4983108043670654,0.0567163825035095,0.2958284318447113,0.3577283918857574,0.0,0.0,0.0908303388464888,-0.9981737082021948
-0.085924245417118,1.349053144454956,-0.5455214381217957,0.0789721831679344,0.3157196640968323,0.3978240489959717,0.0,0.0,0.1907705632377598,-0.8346736080460635
-0.0915048569440841,1.351233720779419,-0.5787206888198853,0.0922601297497749,0.3372489809989929,0.43058642745018,0.0,0.0,-0.1920518872017822,-0.9187679694125364
-0.0972850769758224,1.3532432317733765,-0.6001907587051392,0.0839644446969032,0.3605323433876037,0.4656672477722168,0.0,0.0,-0.9453654010311624,0.7680127283865907
-0.1031469330191612,1.3551311492919922,-0.6068278551101685,0.0785559639334678,0.3823925852775574,0.437204897403717,0.0,0.0,0.8088053204262353,-0.9077880702029032
-0.1096302047371864,1.358006477355957,-0.6703241467475891,0.1217168495059013,0.4058989286422729,0.4701262414455414,0.0,0.0,-0.4720286832956972,-0.9095062517585504
-0.116317369043827,1.3606829643249512,-0.6923757791519165,0.1119623929262161,0.4314464330673218,0.5109507441520691,0.0,0.0,-0.3828226745133736,-0.6417647376435016
-0.1231840103864669,1.3631861209869385,-0.7111834287643433,0.1034936159849166,0.4582402110099792,0.5358754396438599,0.0,0.0,0.592730171337227,-0.9454664699547846
-0.1305596381425857,1.3664977550506592,-0.76349937915802,0.1383797377347946,0.4869726598262787,0.5746492147445679,0.0,0.0,0.366634271868332,-0.8633601009174054
-0.1383281648159027,1.3700987100601196,-0.8039482831954956,0.1501514762639999,0.5174580216407776,0.6097076535224915,0.0,0.0,-0.1263026490367367,0.6950101794892142
-0.1461857855319976,1.3736048936843872,-0.810987114906311,0.1459719091653823,0.5463228225708008,0.5772968530654907,0.0,0.0,-0.8441406176469826,0.6931120719050206
-0.1541406661272049,1.3770140409469604,-0.819039523601532,0.1416947394609451,0.573749303817749,0.548529863357544,0.0,0.0,0.0324793555042839,-0.6642338146231355
-0.1624664366245269,1.3807333707809448,-0.8568965792655945,0.1545313894748687,0.6025694608688354,0.5764026641845703,0.0,0.0,-0.6079733440444235,0.7043465369169246
-0.1708960533142089,1.384352445602417,-0.865726113319397,0.150128036737442,0.6300871968269348,0.5503562688827515,0.0,0.0,-0.9977318048477172,0.9999785423278807
-0.1793875694274902,1.3879077434539795,-0.8693374395370483,0.1479634940624237,0.6549530029296875,0.4973155856132507,0.0,0.0,-0.9988096356391908,0.9997851848602296
-0.1879412680864334,1.391390085220337,-0.8731483221054077,0.1454826444387436,0.6772655844688416,0.4462510943412781,0.0,0.0,-0.9823062419891356,0.9999163150787354
-0.1965614259243011,1.394808650016785,-0.8774814605712891,0.1434812545776367,0.6969907879829407,0.3945037722587585,0.0,0.0,-0.9747812747955322,0.999969244003296
-0.2052586078643798,1.3981387615203855,-0.8833400011062622,0.1402818262577057,0.7146498560905457,0.3531808257102966,0.0,0.0,-0.996646285057068,0.99059796333313
-0.2140261679887771,1.401393175125122,-0.8883873224258423,0.1378180682659149,0.7299385666847229,0.3057736754417419,0.0,0.0,-0.9980823397636414,0.9994478225708008
-0.2228648215532302,1.4045783281326294,-0.8935030102729797,0.1357522308826446,0.7427671551704407,0.2565715610980987,0.0,0.0,-0.999853253364563,0.999563694000244
-0.2317989319562912,1.407684326171875,-0.90156489610672,0.1330029219388961,0.75374436378479,0.2195445299148559,0.0,0.0,-0.9999024271965028,0.9998927116394044
-0.2408298552036285,1.4107072353363037,-0.9098612666130066,0.1300825029611587,0.7629480361938477,0.184073120355606,0.0,0.0,-0.9892523288726808,0.9999959468841552
-0.2499419152736663,1.41365385055542,-0.9163487553596495,0.1276690512895584,0.7699853181838989,0.1407460719347,0.0,0.0,-0.9998756647109984,0.9998117685317992
-0.2591215968132019,1.4165483713150024,-0.921056628227234,0.1266371458768844,0.774240255355835,0.0850991979241371,0.0,0.0,-0.9574702382087708,0.9963877201080322
-0.26839080452919,1.4193685054779053,-0.9285257458686828,0.1242885366082191,0.7764595150947571,0.0443846955895423,0.0,0.0,-0.9999864101409912,0.9997069835662842
-0.2777283787727356,1.4221285581588743,-0.9334504008293152,0.1228642538189888,0.7760406136512756,-0.0083785094320774,0.0,0.0,-0.9956729412078856,0.9830656051635742
-0.2871517241001129,1.4248230457305908,-0.940421223640442,0.1210060343146324,0.7733967900276184,-0.0528758391737937,0.0,0.0,-0.99838387966156,0.9991471767425536
-0.296640396118164,1.4274638891220093,-0.9449305534362792,0.1199230253696441,0.7679798603057861,-0.1083383187651634,0.0,0.0,-0.9996691942214966,0.9999971389770508
-0.3062160611152649,1.4300180673599243,-0.9522539973258972,0.1169144958257675,0.760709822177887,-0.1454001367092132,0.0,0.0,-0.9970052242279052,0.9994386434555054
-0.3158673644065857,1.432519793510437,-0.9578810930252076,0.1157527491450309,0.7508691549301147,-0.1968127936124801,0.0,0.0,-0.9810563325881958,0.9888265132904052
-0.325588047504425,1.4349699020385742,-0.9627370834350586,0.1146382614970207,0.7383469343185425,-0.2504438459873199,0.0,0.0,-0.9807339906692504,0.9999947547912598
-0.3353852331638336,1.4373658895492554,-0.9684197306632996,0.1132453009486198,0.7233512997627258,-0.2999127507209778,0.0,0.0,-0.9999608993530272,0.9999279975891112
-0.3452719151973724,1.439686298370361,-0.9757586717605592,0.1106144115328788,0.7064583897590637,-0.3378583192825317,0.0,0.0,-0.9854536056518556,0.9998245239257812
-0.3552272319793701,1.4419339895248413,-0.9806145429611206,0.1082294210791587,0.6872486472129822,-0.384195864200592,0.0,0.0,-0.9975538849830629,0.9990799427032472
-0.3652710914611816,1.4440999031066897,-0.9878373146057128,0.1051432788372039,0.6662715673446655,-0.419541448354721,0.0,0.0,-0.9998445510864258,0.776233434677124
-0.3753934502601623,1.4461853504180908,-0.9938130378723145,0.1021346673369407,0.6433330774307251,-0.4587701857089996,0.0,0.0,-0.9985347390174866,0.4220669269561767
-0.3856515288352966,1.448125243186951,-1.0071494579315186,0.0953510329127311,0.6204872131347656,-0.4569168984889984,0.0,0.0,-0.9956603050231934,0.7774766683578491
-0.3959930837154388,1.4499690532684326,-1.013849139213562,0.0913965255022049,0.5960467457771301,-0.4888098835945129,0.0,0.0,-0.9952118396759032,0.7123441696166992
-0.406433492898941,1.451706051826477,-1.0224549770355225,0.0867286920547485,0.5704975128173828,-0.510985255241394,0.0,0.0,-0.9994463324546814,0.8054995536804199
-0.4169574677944183,1.4533605575561523,-1.0290062427520752,0.0832740291953086,0.5432662963867188,-0.5446240305900574,0.0,0.0,-0.9981738924980164,0.913433074951172
-0.4275429248809814,1.45492684841156,-1.0329368114471436,0.0796141177415847,0.5139726400375366,-0.5858734846115112,0.0,0.0,-0.9999518990516664,0.9999954700469972
-0.4381953775882721,1.456423044204712,-1.0373433828353882,0.0766573026776313,0.4825898706912994,-0.6276562809944153,0.0,0.0,-0.9654266834259032,0.9998598098754884
-0.4489215910434723,1.4578226804733276,-1.042787790298462,0.0722585171461105,0.4495896100997925,-0.6600057482719421,0.0,0.0,-0.9541817903518676,0.9219405651092528
-0.459726870059967,1.4591286182403564,-1.0488386154174805,0.0678324252367019,0.415111094713211,-0.6895708441734314,0.0,0.0,-0.9988102316856384,0.9994834661483764
-0.4705894589424133,1.4603503942489624,-1.0521906614303589,0.0638766810297966,0.3786190450191498,-0.7298418283462524,0.0,0.0,-0.9998643398284912,0.9968712329864502
-0.4815289080142975,1.4614832401275637,-1.0579979419708252,0.0594047829508781,0.3406757116317749,-0.7588670253753662,0.0,0.0,-0.9999074339866638,-0.0657873153686523
-0.492598295211792,1.4624826908111572,-1.070677638053894,0.0525425933301448,0.3029187619686126,-0.7551398277282715,0.0,0.0,-0.9991976618766784,0.9998495578765868
-0.5037236213684082,1.46337628364563,-1.0741573572158811,0.0472139902412891,0.2634431719779968,-0.7895123362541199,0.0,0.0,-0.9949911236763,0.9898018836975098
-0.5148902535438538,1.4641636610031128,-1.0758872032165527,0.0417905561625957,0.2219502180814743,-0.8298602104187012,0.0,0.0,-0.9998883008956908,0.99698805809021
-0.5261082053184509,1.4648382663726809,-1.0789473056793213,0.0358483418822288,0.1787735968828201,-0.8635334968566895,0.0,0.0,-0.9805305004119872,0.9998985528945924
-0.5373742580413818,1.4654167890548706,-1.0816491842269895,0.0305042490363121,0.133833110332489,-0.8988107442855835,0.0,0.0,-0.9925805330276488,0.9976094961166382
-0.5486742258071899,1.4658995866775513,-1.082709550857544,0.0250276960432529,0.0868562906980514,-0.9395378232002258,0.0,0.0,-0.914785623550415,0.9999221563339232
-0.5600298643112183,1.46627938747406,-1.0866680145263672,0.0190101917833089,0.0384889915585517,-0.9673475027084352,0.0,0.0,0.0446890592575073,0.9592792987823486
-0.5715318918228149,1.4668426513671875,-1.0995594263076782,0.0255741458386182,-0.0115132108330726,-1.0000455379486084,0.0,0.0,-0.3805137872695923,0.8376154899597168
-0.5830766558647156,1.467294692993164,-1.102302312850952,0.0188845787197351,-0.0630459412932396,-1.0306565761566162,0.0,0.0,-0.7309115529060364,0.8402409553527832
-0.5946763753890991,1.467625379562378,-1.1068161725997925,0.0116243278607726,-0.115717813372612,-1.0534391403198242,0.0,0.0,-0.1010651588439941,0.4007121324539184
-0.6063827872276306,1.4678406715393066,-1.1180585622787476,0.0046504777856171,-0.1681325882673263,-1.0482971668243408,0.0,0.0,0.2199687957763672,0.1028997898101806
-0.6181145906448364,1.4687052965164185,-1.1212714910507202,0.0317132584750652,-0.2203277051448822,-1.0439038276672363,0.0,0.0,-0.594188928604126,-0.1871237754821777
-0.629945695400238,1.4694526195526123,-1.1320602893829346,0.0247491020709276,-0.2722591757774353,-1.0386308431625366,0.0,0.0,-0.5101886987686157,-0.5631953477859497
-0.6419145464897156,1.4700924158096311,-1.1478674411773682,0.0185167137533426,-0.322833240032196,-1.0114827156066897,0.0,0.0,-0.3386561274528503,-0.627402126789093
-0.6540160179138184,1.4706265926361084,-1.1632121801376345,0.0124953705817461,-0.3720612525939941,-0.984561324119568,0.0,0.0,-0.6376782655715942,-0.3880590200424194
-0.6662054657936096,1.4710372686386108,-1.1731488704681396,0.0055674887262284,-0.4210208356380462,-0.9791927337646484,0.0,0.0,-0.4283255934715271,-0.7185101509094238
-0.6785199046134949,1.471344828605652,-1.1879146099090576,-8.195688860723749e-05,-0.4685717225074768,-0.9510188102722168,0.0,0.0,0.3441189527511596,-0.4177783727645874
-0.690642237663269,1.4723466634750366,-1.1699464321136477,0.0294986646622419,-0.5158745646476746,-0.9460576176643372,0.0,0.0,-0.420816421508789,-0.896618127822876
-0.7028955221176147,1.4732745885849,-1.185943365097046,0.0256449412554502,-0.5610965490341187,-0.9044410586357116,0.0,0.0,-0.4332137703895569,-0.7136985659599304
-0.7152565121650696,1.4741086959838867,-1.199055552482605,0.0208636689931154,-0.604835033416748,-0.8747698664665222,0.0,0.0,-0.4532091021537781,-0.6486133933067322
-0.7277216911315918,1.4748395681381226,-1.211723566055298,0.0157847069203853,-0.6471510529518127,-0.8463209271430969,0.0,0.0,-0.2093541622161865,-0.8641846776008606
-0.7403085827827454,1.4754981994628906,-1.226797342300415,0.0126032466068863,-0.6871557831764221,-0.8000959157943726,0.0,0.0,-0.3158562183380127,-0.9004616737365723
-0.7529951333999634,1.476083517074585,-1.2393012046813965,0.0093967299908399,-0.725172758102417,-0.7603394985198975,0.0,0.0,-0.0887662768363952,-0.8996503949165344
-0.7657891511917114,1.476599931716919,-1.252741456031799,0.0066794208250939,-0.7608511447906494,-0.7135686874389648,0.0,0.0,-0.4668420553207397,-0.7502928972244263
-0.7786790132522583,1.477050542831421,-1.264850378036499,0.004238701891154,-0.7942274808883667,-0.6675261855125427,0.0,0.0,-0.3003240823745727,-0.761180579662323
-0.7916455268859863,1.4774129390716553,-1.2745095491409302,0.0006487363716587,-0.8258662819862366,-0.6327773332595825,0.0,0.0,-0.5562659502029419,-0.9286959767341614
-0.804699182510376,1.4777191877365112,-1.2856881618499756,-0.0009947859216481,-0.8549346327781677,-0.5813673138618469,0.0,0.0,-0.3317972421646118,-0.9251673817634584
-0.8178348541259766,1.4779729843139648,-1.2962656021118164,-0.0022992298472672,-0.8813251256942749,-0.5278104543685913,0.0,0.0,-0.256465196609497,-0.8313751220703125
-0.8310409784317017,1.4781527519226074,-1.3052552938461304,-0.0047033741138875,-0.9054712653160096,-0.4829224646091461,0.0,0.0,-0.1376992464065551,0.5283164978027344
-0.8442471027374268,1.4781451225280762,-1.3052756786346436,-0.0136748347431421,-0.9303473830223083,-0.4975226521492004,0.0,0.0,-0.265654444694519,-0.6409819722175598
-0.8575040698051453,1.478060007095337,-1.3121105432510376,-0.0162007734179496,-0.9531078934669496,-0.4552103579044342,0.0,0.0,-0.371431291103363,-0.4895735383033752
-0.8707680702209473,0.0,-1.3133790493011477,-0.0229532681405544,-0.9756160378456116,-0.4501634240150451,0.0,0.0,-0.1979373693466186,-0.7015789151191711
-0.8840624094009399,1.4774937629699707,-1.3177955150604248,-0.0263874605298042,-0.9964029788970948,-0.4157385230064392,0.0,0.0,-0.4356728792190552,0.1332952976226806
-0.8973500728607178,1.477011799812317,-1.3176229000091553,-0.0331340059638023,-1.0169401168823242,-0.4107430577278137,0.0,0.0,-0.0528059005737304,0.098305344581604
-0.9106239080429076,1.4763782024383545,-1.3167288303375244,-0.039879310876131,-1.0372285842895508,-0.4057702422142029,0.0,0.0,-0.6754898428916931,-0.2765495777130127
-0.923876702785492,1.475592851638794,-1.3151155710220337,-0.0466234050691127,-1.05726957321167,-0.4008186757564544,0.0,0.0,-0.6682025790214539,-0.5922688245773315
-0.9371209740638732,1.474706530570984,-1.3153231143951416,-0.0503673292696476,-1.0758285522460938,-0.3711827397346496,0.0,0.0,-0.4608993530273437,0.4614717960357666
-0.95033061504364,1.473667860031128,-1.3122897148132324,-0.0571072250604629,-1.0941420793533323,-0.3662699460983276,0.0,0.0,-0.6830855011940002,0.2017394304275512
-0.9634990096092224,1.472476363182068,-1.308568000793457,-0.0638461783528328,-1.112210750579834,-0.3613725304603576,0.0,0.0,-0.7703972458839417,-0.5181357264518738
-0.9766360521316528,1.4711761474609375,-1.306313157081604,-0.0679565742611885,-1.1289564371109009,-0.3349137604236603,0.0,0.0,-0.4484561085700989,-0.5789448618888855
-0.9897411465644836,1.469794511795044,-1.3041796684265137,-0.0704819709062576,-1.1437724828720093,-0.2963200211524963,0.0,0.0,-0.6654393672943115,-0.0361596941947937
-1.00278639793396,1.4682592153549194,-1.2984973192214966,-0.0772151798009872,-1.1583454608917236,-0.2914596796035766,0.0,0.0,-0.6654393672943115,-0.0361596941947937
