x_pos,y_pos,x_vel,y_vel,angle,ang_vel,leg_1,leg_2,main_booster,lat_booster
-0.0015196800231933,1.4035260677337646,-0.1540212482213974,-0.3286254703998565,0.0018345977878198,0.0361944548785686,0.0,0.0,0.7997934610871227,-0.9390201734968192
-0.0030470849014818,1.3968058824539185,-0.1566068977117538,-0.298679381608963,0.0056599886156618,0.076516106724739,0.0,0.0,-0.235809471566901,-0.6291444762652694
-0.0046084402129054,1.3899822235107422,-0.1610597074031829,-0.3033065795898437,0.010523373261094,0.0972767695784568,0.0,0.0,-0.6740034962689543,-0.6166898318995266
-0.0062232017517089,1.3830573558807373,-0.1679438203573227,-0.3078239262104034,0.0169205609709024,0.1279558837413787,0.0,0.0,-0.1861171839386983,-0.9983217349538542
-0.0078948019072413,1.3760366439819336,-0.1752828657627105,-0.3121503591537475,0.0249462891370058,0.160529151558876,0.0,0.0,-0.1826024990689698,0.7711380679060219
-0.0094870571047067,1.3689196109771729,-0.1655233353376388,-0.3164238333702087,0.0311763770878314,0.1246135234832763,0.0,0.0,-0.1706256498842142,-0.9540807383718224
-0.0111519815400242,1.361701488494873,-0.1748552173376083,-0.3210046887397766,0.0394481532275676,0.1654507666826248,0.0,0.0,-0.2426757197592524,0.8188803653846923
-0.0127314571291208,1.3543927669525146,-0.1643445044755935,-0.3250139951705932,0.0457774102687835,0.1265968978404998,0.0,0.0,-0.3618806942728616,0.6492822577901997
-0.014255809597671,1.346996545791626,-0.1576411724090576,-0.3288874924182892,0.0509310998022556,0.1030831933021545,0.0,0.0,0.8712492856410545,0.8171868379358949
-0.0157535560429096,1.3407447338104248,-0.1534290164709091,-0.2779905200004577,0.0545491948723793,0.0723684653639793,0.0,0.0,0.624150034322773,-0.9535117083876696
-0.0172575004398822,1.335272192955017,-0.1561788618564605,-0.2434455007314682,0.0602797493338584,0.114621378481388,0.0,0.0,0.3360271991270638,-0.949336597426094
-0.0187907218933105,1.3303385972976685,-0.1611483991146087,-0.2196002304553985,0.0680337101221084,0.1550934165716171,0.0,0.0,0.9665025023583812,0.8352968679452031
-0.0201410297304391,1.3265817165374756,-0.1416537761688232,-0.167291447520256,0.0745953768491745,0.1312455534934997,0.0,0.0,-0.972411327259458,0.8251245255273265
-0.0214137081056833,1.3227272033691406,-0.1321413666009903,-0.171567291021347,0.0794277116656303,0.0966554209589958,0.0,0.0,-0.6819469169470813,-0.8147867420143804
-0.0227312091737985,1.3187772035598757,-0.137959823012352,-0.1758938133716583,0.0855941027402877,0.1233389973640441,0.0,0.0,0.2012318976827802,-0.682831202648867
-0.024026583880186,1.3150490522384644,-0.1373528838157653,-0.1661550253629684,0.0933443531394004,0.1550190895795822,0.0,0.0,0.4584823498107191,0.6964499966147277
-0.0252003669738769,1.3123856782913208,-0.1241423711180687,-0.1188075169920921,0.1000583916902542,0.1342931240797042,0.0,0.0,-0.6233671703221129,0.8825924468654165
-0.0262840278446674,1.3096296787261963,-0.1130427122116088,-0.12280785292387,0.104703240096569,0.0929053500294685,0.0,0.0,-0.1023633334231437,0.8452261443795887
-0.027287483215332,1.3067958354949951,-0.1031631454825401,-0.1261517852544784,0.1074919700622558,0.0557800233364105,0.0,0.0,-0.0211887102884122,-0.7246871974813298
-0.0283522605895996,1.3038530349731443,-0.1110311299562454,-0.1311273425817489,0.1120194420218467,0.0905574485659599,0.0,0.0,0.4265730514955108,-0.9892738139891496
-0.0294391624629497,1.3017950057983398,-0.115415334701538,-0.0919699445366859,0.1187129020690918,0.1338813304901123,0.0,0.0,0.9072974697381913,0.9873878292485998
-0.0304914470762014,1.300411343574524,-0.1101019829511642,-0.0619013309478759,0.1235659569501876,0.0970698148012161,0.0,0.0,-0.3967959476998461,-0.9162228163395926
-0.0315982811152935,1.2989177703857422,-0.1170913204550743,-0.0669249221682548,0.129958376288414,0.1278597712516784,0.0,0.0,0.0930651070771335,0.9252979290785204
-0.0326029770076274,1.2976481914520264,-0.1051342114806175,-0.0568382628262043,0.1346109807491302,0.093060478568077,0.0,0.0,-0.4742656097488487,0.9349447129228096
-0.033551312983036,1.2962944507598877,-0.0981671661138534,-0.060471523553133,0.1379402428865432,0.0665909424424171,0.0,0.0,0.1783447571691647,-0.6811741273006193
-0.034736156463623,1.2955358028411863,-0.1231428533792495,-0.0341526791453361,0.1425826847553253,0.0928491353988647,0.0,0.0,-0.1829063085207578,0.6688797795227106
-0.0358693115413188,1.2946946620941162,-0.1167233362793922,-0.0377120189368724,0.1459828913211822,0.0680044367909431,0.0,0.0,-0.5609384659211285,0.8908522505068575
-0.0369500145316123,1.2937766313552856,-0.1101880669593811,-0.0410089157521724,0.148089200258255,0.0421257838606834,0.0,0.0,-0.2264292810232802,0.8556086335320461
-0.037981130182743,1.2927792072296145,-0.1039781421422958,-0.044418454170227,0.148957222700119,0.0173601824790239,0.0,0.0,-0.754602119965585,0.7602752451318883
-0.0389573089778423,1.2916936874389648,-0.0971259698271751,-0.0481980517506599,0.1484650373458862,-0.0098433690145611,0.0,0.0,-0.8607568372417524,-0.7343032230906597
-0.0399934761226177,1.2905057668685913,-0.1046586036682128,-0.0529054030776023,0.1494972705841064,0.0206450913101434,0.0,0.0,0.5209540526312797,0.8913893658935117
-0.0411038398742675,1.2898105382919312,-0.1102906689047813,-0.0308249928057193,0.1487540602684021,-0.0148642007261514,0.0,0.0,-0.0309265423803652,-0.7905765645039281
-0.0422905907034873,1.289008617401123,-0.1198285371065139,-0.0357553474605083,0.1499103754758834,0.0231261812150478,0.0,0.0,-0.1585125392517177,0.6389271436097558
-0.0434382446110248,1.2881128787994385,-0.1148881912231445,-0.0398202985525131,0.1500322371721267,0.0024372180923819,0.0,0.0,0.522885303627608,-0.6689580144547828
-0.0447155945003032,1.2879698276519775,-0.1293405592441558,-0.0065245362929999,0.1516293883323669,0.0319431126117706,0.0,0.0,0.2982028116326056,-0.6580783114525599
-0.0461272224783897,1.2886064052581787,-0.1442006230354309,0.0279827415943145,0.1546710133552551,0.0608323402702808,0.0,0.0,0.2153926782502244,-0.7518073215138857
-0.0476794242858886,1.289618968963623,-0.1598521918058395,0.0445122048258781,0.1592991352081298,0.0925623252987861,0.0,0.0,0.2386814325048711,-0.7715224498510194
-0.049361228942871,1.2913779020309448,-0.1744826436042785,0.0774905756115913,0.165605753660202,0.1261322349309921,0.0,0.0,-0.5285028844044843,0.7675053623769992
-0.050999354571104,1.29306161403656,-0.1687675714492797,0.0742694213986396,0.1705729812383651,0.0993443056941032,0.0,0.0,-0.7970852571679925,-0.8956435324577218
-0.052716352045536,1.2946316003799438,-0.1784588992595672,0.0689832046627998,0.1773514747619629,0.1355696618556976,0.0,0.0,0.4712176826371441,-0.6515519974940402
-0.0547229759395122,1.297092080116272,-0.2086028754711151,0.1083821207284927,0.1853252351284027,0.1594751477241516,0.0,0.0,-0.9689211845397948,0.9472494125366212
-0.0566551201045513,1.2994778156280518,-0.1989729404449463,0.1053010523319244,0.191110074520111,0.1156964302062988,0.0,0.0,-0.983108401298523,0.8121861219406128
-0.0585284233093261,1.3017780780792236,-0.1913108676671981,0.1017177999019622,0.1951061934232711,0.0799223035573959,0.0,0.0,-0.9765865206718444,0.0563513040542602
-0.0604185089468956,1.3039804697036743,-0.193070188164711,0.0973415821790695,0.1991999894380569,0.081876017153263,0.0,0.0,-0.9289008378982544,0.9275991916656494
-0.0622578635811805,1.3060942888259888,-0.1863752007484436,0.0936193764209747,0.2016601115465164,0.0492025353014469,0.0,0.0,-0.9879378080368042,0.8298240900039673
-0.0640458092093467,1.3081231117248535,-0.1795545518398285,0.0900600031018257,0.2024266421794891,0.0153302373364567,0.0,0.0,-0.9703159928321838,0.5657129287719727
-0.0658051520586013,1.3100652694702148,-0.1755466014146804,0.0863796547055244,0.2020371407270431,-0.0077900835312902,0.0,0.0,-0.9736881256103516,0.1587575674057006
-0.0675856620073318,1.3119094371795654,-0.1777538210153579,0.0820047780871391,0.2017401903867721,-0.0059389141388237,0.0,0.0,-0.978529155254364,0.480313777923584
-0.0693883895874023,1.3136556148529053,-0.1800731420516967,0.0776299312710762,0.2015343308448791,-0.0041167642921209,0.0,0.0,-0.984326183795929,0.4963397979736328
-0.0712145790457725,1.3153033256530762,-0.1825041323900222,0.0732551142573356,0.2014180868864059,-0.0023249418009072,0.0,0.0,-0.9894830584526062,0.1601554155349731
-0.0730652809143066,1.316853165626526,-0.1850461959838867,0.0688803195953369,0.2013898491859436,-0.0005647203652188,0.0,0.0,-0.9747093319892884,0.7470989227294922
-0.07489013671875,1.3183256387710571,-0.1811890304088592,0.0656176507472992,0.2000865787267685,-0.0260655786842107,0.0,0.0,-0.9944446682929992,0.6698205471038818
-0.076679989695549,1.319714903831482,-0.1761975735425949,0.0621218308806419,0.1972803622484207,-0.0561241880059242,0.0,0.0,-0.9904775023460388,0.7111456394195557
-0.078443244099617,1.3210293054580688,-0.1721887290477752,0.0589604787528514,0.1931163370609283,-0.0832801610231399,0.0,0.0,-0.9778735637664796,0.6826267242431641
-0.0801692008972168,1.3222626447677612,-0.1668311506509781,0.0555543676018714,0.1873254179954528,-0.1158187612891197,0.0,0.0,-0.9528380632400512,-0.1951803565025329
-0.0819251090288162,1.323398232460022,-0.1699109822511673,0.0511770620942115,0.181613802909851,-0.1142324060201644,0.0,0.0,-0.9658456444740297,-0.0456211566925048
-0.0837121978402137,1.3244359493255615,-0.1730938404798507,0.0467998832464218,0.1759796440601349,-0.1126835346221923,0.0,0.0,-0.9624121189117432,0.3641653060913086
-0.0855315178632736,1.325376033782959,-0.1763777583837509,0.0424228385090827,0.1704210042953491,-0.1111729368567466,0.0,0.0,-0.9688271284103394,0.3740845918655395
-0.0873838439583778,1.3262180089950562,-0.179760605096817,0.0380459353327751,0.1649359315633773,-0.1097013130784034,0.0,0.0,-0.9944744110107422,0.471595287322998
-0.0892703980207443,1.3269623517990112,-0.18324014544487,0.0336691550910472,0.1595224738121032,-0.1082692965865135,0.0,0.0,-0.910144865512848,0.5738294124603271
-0.0911428481340408,1.327615737915039,-0.1806567013263702,0.0297286938875913,0.1529350578784942,-0.1317480653524398,0.0,0.0,-0.8811315894126892,0.3156813383102417
-0.0930514335632324,1.3281712532043457,-0.1843220442533493,0.0253509245812892,0.1464152336120605,-0.1303963959217071,0.0,0.0,-0.8833985924720764,0.5282764434814453
-0.0949470549821853,1.328639030456543,-0.1818089932203292,0.0215295348316431,0.1386885493993759,-0.1545336544513702,0.0,0.0,-0.9759769439697266,-0.1342679858207702
-0.0968804359436035,1.3290092945098877,-0.1856498718261718,0.0171505343168973,0.1310253888368606,-0.1532633602619171,0.0,0.0,-0.9510998129844666,-0.4308029413223266
-0.0988525375723838,0.0,-0.189574658870697,0.0127716725692152,0.1234236732125282,-0.1520340740680694,0.0,0.0,-0.9493789076805116,-0.137749433517456
-0.1008642166852951,1.32945716381073,-0.1935805827379226,0.0083929440006613,0.1158813759684562,-0.1508457362651825,0.0,0.0,-0.9770588874816896,0.0753055810928344
-0.1029162406921386,1.329534649848938,-0.1976647824048996,0.0040143439546227,0.1083964630961418,-0.1496982872486114,0.0,0.0,-0.9529787302017212,-0.2553516626358032
-0.1050093621015548,1.329514741897583,-0.2018244564533233,-0.0003641336224973,0.1009668931365013,-0.148591548204422,0.0,0.0,-0.9857894778251648,-0.2697240710258484
-0.1071443557739257,1.329397201538086,-0.2060567587614059,-0.0047424952499568,0.0935906395316124,-0.1475251764059066,0.0,0.0,-0.8742019534111023,0.0701841115951538
-0.1093218773603439,1.3291819095611572,-0.2103587687015533,-0.0091207474470138,0.0862657129764556,-0.146498754620552,0.0,0.0,-0.7309405207633972,-0.3585268259048462
-0.1115426048636436,1.328869104385376,-0.2147276401519775,-0.0134988939389586,0.0789901241660118,-0.1455117166042328,0.0,0.0,-0.7744734287261963,0.1580176353454589
-0.113807201385498,1.328458547592163,-0.2191605120897293,-0.0178769398480653,0.0717619657516479,-0.1445633769035339,0.0,0.0,-0.9245821833610536,0.1027179956436157
-0.116116426885128,1.327950358390808,-0.2236545383930206,-0.0222548898309469,0.0645793303847312,-0.1436530500650406,0.0,0.0,-0.5445865392684937,0.076981782913208
-0.1184706687927246,1.327344536781311,-0.2282068729400634,-0.0266327504068613,0.0574403330683708,-0.1427798420190811,0.0,0.0,-0.8650218844413757,0.0839631557464599
-0.1208704933524131,1.3266408443450928,-0.2328147441148758,-0.0310105290263891,0.0503431893885135,-0.1419428139925003,0.0,0.0,-0.5365471243858337,-0.0362982153892517
-0.1233166679739952,1.325839638710022,-0.2374754250049591,-0.0353882238268852,0.0432861484587192,-0.1411408483982086,0.0,0.0,-0.8603554368019104,-0.6736679673194885
-0.1258654594421386,1.324930191040039,-0.2492004930973053,-0.0402673743665218,0.0376791395246982,-0.1121402382850647,0.0,0.0,-0.8287604451179504,0.0486093759536743
-0.1284614503383636,1.323922634124756,-0.2539586424827575,-0.0446434393525123,0.0321088805794715,-0.1114051789045333,0.0,0.0,-0.7620368003845215,-0.4059445858001709
-0.1311050355434417,1.322817325592041,-0.2587615847587585,-0.0490194410085678,0.0265738070011138,-0.1107014641165733,0.0,0.0,-0.6923600435256958,0.1530683040618896
-0.1337968856096267,1.321613907814026,-0.2636066079139709,-0.0533953979611396,0.0210724249482154,-0.1100276932120323,0.0,0.0,-0.721527099609375,0.5210113525390625
-0.1365047395229339,1.3203083276748655,-0.2644226551055908,-0.0579531267285347,0.0147901708260178,-0.1256453096866607,0.0,0.0,-0.961627960205078,-0.5098624229431152
-0.1392991095781326,1.318908452987671,-0.2740715742111206,-0.0621741376817226,0.009484545327723,-0.1061121821403503,0.0,0.0,-0.9830100536346436,0.0228594541549682
-0.1421428620815277,1.3174107074737549,-0.2790278792381286,-0.0665498301386833,0.004208608996123,-0.1055187359452247,0.0,0.0,-0.939761519432068,0.0627772808074951
-0.1450361311435699,1.3158146142959597,-0.2840164005756378,-0.0709254816174507,-0.0010388187365606,-0.1049486622214317,0.0,0.0,-0.968934953212738,-0.3800879716873169
-0.1479793488979339,1.3141206502914429,-0.2890347242355346,-0.0753010883927345,-0.0062588360160589,-0.1044002324342727,0.0,0.0,-0.9294351935386658,-0.1142336726188659
-0.150972843170166,1.312328577041626,-0.2940805554389953,-0.0796766728162765,-0.0114524085074663,-0.103871501982212,0.0,0.0,-0.9934424757957458,-0.3045752048492431
-0.1540165841579437,1.3104385137557983,-0.299151599407196,-0.0840522199869155,-0.0166204310953617,-0.1033605486154556,0.0,0.0,-0.8791868090629578,-0.1562357544898986
-0.1571111679077148,1.30845046043396,-0.30424565076828,-0.0884277373552322,-0.0217636991292238,-0.1028653606772422,0.0,0.0,-0.9761400818824768,-0.2155885100364685
-0.1602565795183181,1.3063642978668213,-0.3093603849411011,-0.0928032249212265,-0.0268828943371772,-0.1023839488625526,0.0,0.0,-0.972487449645996,-0.6103750467300415
-0.1634902954101562,1.3041768074035645,-0.3191579580307007,-0.0973033085465431,-0.0310461409389972,-0.0832646489143371,0.0,0.0,-0.97613924741745,0.3242958784103393
-0.1667753159999847,1.3018910884857178,-0.3243075907230377,-0.1016780138015747,-0.035186368972063,-0.0828045457601547,0.0,0.0,-0.9954320788383484,-0.3257884383201599
-0.170111745595932,1.2995072603225708,-0.3294714093208313,-0.1060527041554451,-0.0393039509654045,-0.0823517888784408,0.0,0.0,-0.9673893451690674,-0.6396799683570862
-0.1735398322343826,1.2970298528671265,-0.3396750390529632,-0.1101887747645378,-0.0423894971609115,-0.0617108717560768,0.0,0.0,-0.9642610549926758,-0.8024575710296631
-0.177072525024414,1.2944490909576416,-0.3515120148658752,-0.1147503033280372,-0.0441250279545784,-0.0347106978297233,0.0,0.0,-0.997001051902771,0.4091205596923828
-0.1806569099426269,1.2917698621749878,-0.3567054271697998,-0.1191237866878509,-0.0458383709192276,-0.0342666879296302,0.0,0.0,-0.8640515208244324,0.6562045812606812
-0.1842335760593414,1.2889962196350098,-0.3544564843177795,-0.1233759596943855,-0.0490173026919364,-0.0635783672332763,0.0,0.0,-0.8780636191368103,0.7202426195144653
-0.1878073662519455,1.2861201763153076,-0.3527930378913879,-0.1279857605695724,-0.053551472723484,-0.0906833782792091,0.0,0.0,-0.7781807780265808,0.1382935047149658
-0.1914329528808593,1.2831459045410156,-0.3579970002174377,-0.1323606818914413,-0.0580628365278244,-0.0902272686362266,0.0,0.0,-0.4040894508361816,0.8149466514587402
-0.1950365006923675,1.280071258544922,-0.3539377748966217,-0.1369114816188812,-0.0644065886735916,-0.1268752515316009,0.0,0.0,-0.9028417468070984,-0.3191553950309753
-0.1986917555332183,1.276898741722107,-0.3591379821300506,-0.1412880271673202,-0.0707265734672546,-0.1263994723558426,0.0,0.0,-0.4057254791259765,0.4806408882141113
-0.2023986876010894,1.2736284732818604,-0.3643328547477722,-0.1456645280122757,-0.0770220980048179,-0.1259105056524276,0.0,0.0,-0.9004095792770386,0.879443883895874
-0.2060907781124115,1.2702497243881226,-0.3611874878406524,-0.1506002694368362,-0.084972470998764,-0.1590072810649871,0.0,0.0,-0.3978999853134155,-0.0877518653869628
-0.2098343819379806,1.2667734622955322,-0.3663650155067444,-0.1549786776304245,-0.0928967073559761,-0.1584846973419189,0.0,0.0,-0.8024346232414246,-0.6373485922813416
-0.2136921882629394,1.2632066011428833,-0.3794150948524475,-0.1589313894510269,-0.0992066338658332,-0.1261985599994659,0.0,0.0,-0.1083518266677856,0.022901177406311
-0.2176011055707931,1.2595418691635132,-0.3845651745796203,-0.1633077561855316,-0.1054883152246475,-0.1256338059902191,0.0,0.0,-0.0829190015792846,0.7458164691925049
-0.2214968651533126,1.255762815475464,-0.3816277086734772,-0.1685449331998825,-0.1133819967508316,-0.1578735411167144,0.0,0.0,-0.2213969230651855,0.478116512298584
-0.2254433631896972,1.2518861293792725,-0.3867404162883758,-0.1729231476783752,-0.1212448328733444,-0.1572568714618683,0.0,0.0,-0.2560281753540039,-0.4490363597869873
-0.2294404059648513,1.24791157245636,-0.3918302357196808,-0.1773013025522232,-0.1290753930807113,-0.1566111147403717,0.0,0.0,-0.3360286951065063,0.520227313041687
-0.2334366291761398,1.2438359260559082,-0.3905054032802582,-0.1819615215063095,-0.1381545662879943,-0.1815836131572723,0.0,0.0,-0.1728433966636657,0.4877281188964844
-0.2374826967716217,1.2396626472473145,-0.3955409824848175,-0.1863412708044052,-0.1471982151269912,-0.1808730065822601,0.0,0.0,-0.6467981338500977,0.4088310003280639
-0.2415783405303955,1.2353920936584473,-0.4005447030067444,-0.1907209306955337,-0.1562045812606811,-0.1801270544528961,0.0,0.0,-0.0370118021965026,0.5728343725204468
-0.2456733286380767,1.231017827987671,-0.3992751240730285,-0.1955284625291824,-0.1664309054613113,-0.2045263797044754,0.0,0.0,-0.2702963352203369,-0.4708031415939331
-0.2498170435428619,1.2265461683273315,-0.404205322265625,-0.1999098509550094,-0.1766160726547241,-0.2037034779787063,0.0,0.0,0.2760096788406372,-0.3742655515670776
-0.2540181577205658,1.2227076292037964,-0.4095654487609863,-0.1718955487012863,-0.1871950626373291,-0.2115797698497772,0.0,0.0,0.1126503944396972,0.9056282043457032
-0.2582323551177978,1.2192891836166382,-0.4091258645057678,-0.1535294950008392,-0.1995602250099182,-0.2473035305738449,0.0,0.0,-0.2042720317840576,-0.0464425683021545
-0.2624936997890472,1.2157740592956543,-0.4139186441898346,-0.1579145938158035,-0.2118778079748153,-0.2463516443967819,0.0,0.0,0.2946919202804565,0.3743672370910644
-0.2666937708854675,1.2127691507339478,-0.4079684317111969,-0.1353258192539215,-0.2240514308214187,-0.2434720247983932,0.0,0.0,-0.4199342727661133,0.7066171169281006
-0.2708746492862701,1.209639072418213,-0.4044154584407806,-0.1412550061941146,-0.2379100769758224,-0.2771730124950409,0.0,0.0,-0.0381723046302795,0.2467505931854248
-0.2751006484031677,1.206412672996521,-0.4090328216552734,-0.1456429213285446,-0.2517140209674835,-0.2760787904262543,0.0,0.0,0.6940670013427734,0.7511947154998779
-0.2790791094303131,1.2042665481567385,-0.3829596638679504,-0.0980146899819374,-0.2669171988964081,-0.3040637373924255,0.0,0.0,-0.1739769577980041,-0.5499460697174072
