x_pos,y_pos,x_vel,y_vel,angle,ang_vel,leg_1,leg_2,main_booster,lat_booster
-0.0016219138633459,1.4033875465393066,-0.1643103212118148,-0.3347832262516022,0.0018909450154751,0.037310492247343,0.0,0.0,-0.6103350894600044,-0.636088915953068
-0.0033851624466478,1.3956378698349,-0.1793966740369796,-0.3444331884384155,0.0049328049644827,0.0608436577022075,0.0,0.0,0.546460430495255,-0.6688928607425331
-0.0051577566191554,1.388214111328125,-0.1820315569639206,-0.3299729228019714,0.0096485521644353,0.0943236649036407,0.0,0.0,0.2798938529820498,0.771032662148511
-0.0070654870942234,1.3811306953430176,-0.1938894093036651,-0.3148410618305206,0.0127358892932534,0.0617522969841957,0.0,0.0,-0.6371184948230348,0.8963493479014938
-0.0089710233733057,1.373814821243286,-0.1915389597415924,-0.3251608610153198,0.0137064205482602,0.0194125175476074,0.0,0.0,-0.2077959350792542,0.6127380812671167
-0.01089649181813,1.3662623167037964,-0.192046970129013,-0.3356624543666839,0.013218373991549,-0.0097618596628308,0.0,0.0,-0.2597463666415465,-0.7182864872355934
-0.0129549978300929,1.3584716320037842,-0.2068665474653244,-0.3462595045566559,0.0142292696982622,0.0202194843441247,0.0,0.0,0.0503318603420905,0.8932398047783805
-0.0149063114076852,1.3510674238204956,-0.1943933665752411,-0.3290688097476959,0.0135022792965173,-0.0145412627607584,0.0,0.0,-0.5777435942237323,0.7834142329788973
-0.0168619155883789,1.3434360027313232,-0.1932965517044067,-0.3391598463058471,0.0112660927698016,-0.0447276905179023,0.0,0.0,-0.844044923466571,-0.6436833453587928
-0.0189278610050678,1.3355706930160522,-0.2056262493133545,-0.3495597541332245,0.0103112617507576,-0.0190982930362224,0.0,0.0,0.2931364950219832,-0.9874701430010338
-0.0210520736873149,1.328167200088501,-0.2134762555360794,-0.3290566802024841,0.0113495020195841,0.0207667089998722,0.0,0.0,0.6931090489862481,-0.6747468573253246
-0.0232058521360158,1.3213375806808472,-0.2179640829563141,-0.3035613000392914,0.0138998879119753,0.0510124787688255,0.0,0.0,-0.5805678286541043,-0.6649422742060416
-0.0254444126039743,1.3142735958099363,-0.2274541556835174,-0.3139947652816772,0.0174644123762846,0.0712970942258834,0.0,0.0,-0.8422725424374158,0.6938390944071003
-0.0276597030460834,1.3069677352905271,-0.2235607355833053,-0.324723333120346,0.0194686111062765,0.0400878340005874,0.0,0.0,0.7381779738024583,0.9398556812548348
-0.0296842567622661,1.3007426261901855,-0.2028296440839767,-0.2766806781291961,0.0198363699018955,0.0073560858145356,0.0,0.0,-0.6513426495098624,0.7236587354822528
-0.0316676124930381,1.2942737340927124,-0.1969423741102218,-0.2874894440174103,0.0184643939137458,-0.0274422410875558,0.0,0.0,0.3189272171493655,0.6138407560258428
-0.0335144996643066,1.288603901863098,-0.1822601854801178,-0.2519582509994507,0.0160601995885372,-0.0480883345007896,0.0,0.0,0.8409201977079321,-0.7142346309656807
-0.0352670662105083,1.2833199501037598,-0.1746073216199875,-0.2348353713750839,0.015422211959958,-0.0127610368654131,0.0,0.0,-0.7287257652262087,0.7297679599002442
-0.0369616523385047,1.2778074741363523,-0.1670341044664383,-0.2449767142534256,0.0130299273878335,-0.0478500202298164,0.0,0.0,-0.5374642318499889,-0.8202480956210889
-0.0387326255440712,1.2720563411712646,-0.1764722317457199,-0.2556052505970001,0.0124067077413201,-0.0124655114486813,0.0,0.0,0.5717967234385999,-0.9123362291094146
-0.0404454246163368,1.2671489715576172,-0.1725725978612899,-0.2181203961372375,0.0136881032958626,0.0256300661712884,0.0,0.0,0.1106174679551803,-0.9079272351566764
-0.0422165878117084,1.262444019317627,-0.1801263988018036,-0.2091362923383712,0.0166761856526136,0.0597670376300811,0.0,0.0,-0.2407319424245051,0.8546216457122884
-0.0438916198909282,1.2575031518936155,-0.1683337837457656,-0.2196071892976761,0.0174914561212062,0.0163070783019065,0.0,0.0,-0.2609531623789207,-0.985947966278911
-0.0456162467598915,1.2523125410079956,-0.1749191731214523,-0.2307264059782028,0.0199241042137146,0.0486569367349147,0.0,0.0,0.2805824129591536,-0.8044825345282232
-0.0475149154663085,1.2476297616958618,-0.1936864256858825,-0.2081808596849441,0.0236950814723968,0.0754266232252121,0.0,0.0,-0.5980348449351998,-0.672891603198646
-0.0494497306644916,1.2426897287368774,-0.1988416761159896,-0.2196438163518905,0.0289919581264257,0.1059375628829002,0.0,0.0,0.206650440156678,-0.960010976382509
-0.0514377579092979,1.238311767578125,-0.205956295132637,-0.1947318017482757,0.0360532850027084,0.141226515173912,0.0,0.0,-0.5080897131507085,-0.7207653311186302
-0.0534555427730083,1.233701467514038,-0.210546612739563,-0.2051432132720947,0.0447045005857944,0.1730241328477859,0.0,0.0,0.0914853118730631,-0.7425080601630283
-0.055609606206417,1.229617476463318,-0.2254099547863006,-0.1818376332521438,0.0545904859900474,0.1977197825908661,0.0,0.0,0.4555404513553867,-0.6460434117655773
-0.0578094497323036,1.225933074951172,-0.2310621440410614,-0.1641947776079177,0.0655505359172821,0.2192010432481765,0.0,0.0,0.2444606560048141,-0.8708491968439845
-0.0600507743656635,1.2229722738265991,-0.2367863357067108,-0.1321826875209808,0.0780734792351722,0.2504589259624481,0.0,0.0,-0.847917481890814,0.8589130464823264
-0.0621754638850688,1.2197784185409546,-0.2234187424182891,-0.1425611972808838,0.0889202952384948,0.2169363498687744,0.0,0.0,0.944730978876014,0.6794360003151145
-0.06437349319458,1.217758059501648,-0.2289198637008667,-0.0903638452291488,0.0979514867067337,0.1806237697601318,0.0,0.0,0.2748499569402491,-0.945527588530662
-0.0666644126176834,1.2158894538879397,-0.2398586720228195,-0.0837973281741142,0.1086394190788269,0.2137586176395416,0.0,0.0,0.5965019507044274,0.8641437610939001
-0.0688669234514236,1.2147042751312256,-0.2290989160537719,-0.0533419623970985,0.117418386042118,0.1755794137716293,0.0,0.0,0.1868329745621031,0.8616669047748102
-0.0709789246320724,1.2141129970550537,-0.218082383275032,-0.0268335305154323,0.1242656782269477,0.1369461715221405,0.0,0.0,0.436304608394354,-0.8646859628694359
-0.0731576904654502,1.2138525247573853,-0.2262331247329712,-0.012296374887228,0.1325865238904953,0.1664169132709503,0.0,0.0,0.9076171853392352,0.7435775186062283
-0.0752691254019737,1.214689016342163,-0.217886283993721,0.0365630276501178,0.1392973810434341,0.1342167109251022,0.0,0.0,0.7567013224697821,0.7363544480326071
-0.0774121284484863,1.2166301012039185,-0.2192077189683914,0.0858053267002105,0.144197478890419,0.0980020612478256,0.0,0.0,0.3036787869163309,0.9857172786189584
-0.0794373527169227,1.2190697193145752,-0.2052177488803863,0.108162023127079,0.1468931883573532,0.0539137423038482,0.0,0.0,0.8478655053638253,-0.973241411703795
-0.0817119628190994,1.2225263118743896,-0.2316501885652542,0.1532061696052551,0.1510740369558334,0.0836174115538597,0.0,0.0,-0.9287079572677612,0.103201150894165
-0.083897590637207,1.225745439529419,-0.2224989384412765,0.1426771730184555,0.1550000458955764,0.0785201117396354,0.0,0.0,-0.9804169535636902,0.4551050662994385
-0.0859921425580978,1.2287275791168213,-0.2131187617778778,0.1321485042572021,0.1586659401655197,0.073317602276802,0.0,0.0,-0.946115493774414,0.1213911771774292
-0.0879933387041091,1.2314722537994385,-0.2035242617130279,0.1216201409697532,0.1620666980743408,0.0680152997374534,0.0,0.0,-0.9542709589004515,0.8293318748474121
-0.0898379310965538,1.2339844703674316,-0.1860444247722625,0.111486867070198,0.1636548489332199,0.0317629016935825,0.0,0.0,-0.9872607588768004,0.0230610370635986
-0.0915854424238205,1.2362594604492188,-0.1760626286268234,0.1009596362709999,0.1649686992168426,0.0262770988047122,0.0,0.0,-0.991140842437744,0.2569108009338379
-0.0932342559099197,1.2382967472076416,-0.1659065037965774,0.0904325544834137,0.1660040915012359,0.020707469433546,0.0,0.0,-0.98726624250412,0.4826276302337646
-0.0947826355695724,1.2400965690612793,-0.1555881798267364,,0.1667570620775222,0.015059420838952,0.0,0.0,-0.969019055366516,0.6959763765335083
-0.0961875915527343,1.2416754961013794,-0.1398720443248748,0.0702445060014724,0.1661333292722702,-0.012474350631237,0.0,0.0,-0.9652153253555298,0.5828707218170166
-0.0974453911185264,1.2430263757705688,-0.1237365454435348,0.0602597929537296,0.1640947163105011,-0.0407723858952522,0.0,0.0,-0.9839295744895936,0.5735158920288086
-0.0985432639718055,1.2441531419754028,-0.1060392409563064,0.050494011491537,0.1603414714336395,-0.0750646963715553,0.0,0.0,-0.9494552612304688,0.4028147459030151
-0.099535658955574,1.2450428009033203,-0.0951821953058242,0.0399660393595695,0.1562927663326263,-0.0809741839766502,0.0,0.0,-0.9233938455581664,0.5956830978393555
-0.1003660187125206,1.2457046508789062,-0.0772767215967178,0.0300175044685602,0.150539219379425,-0.1150705814361572,0.0,0.0,-0.9265772700309752,0.5644339323043823
-0.1010450348258018,1.2461450099945068,-0.0606894083321094,0.0202801264822483,0.1433473229408264,-0.1438379734754562,0.0,0.0,-0.7745223641395569,-0.3514789342880249
-0.1016155257821083,1.2463483810424805,-0.0495299324393272,0.0097486972808837,0.1358528733253479,-0.1498890072107315,0.0,0.0,-0.748763382434845,0.2177176475524902
-0.1020767241716384,1.2463152408599854,-0.0382869727909565,-0.0007832739502191,0.1280540525913238,-0.1559767425060272,0.0,0.0,-0.9411671161651612,0.3924140930175781
-0.1024279594421386,1.246045470237732,-0.0269684977829456,-0.0113158170133829,0.1199492737650871,-0.1620957404375076,0.0,0.0,-0.9686630368232728,-0.4389227628707886
-0.1026683822274208,1.2455390691757202,-0.0155821368098258,-0.0218489598482847,0.1115372478961944,-0.1682405024766922,0.0,0.0,-0.9741775989532472,-0.660455584526062
-0.1028435677289962,1.2447952032089231,-0.0098941382020711,-0.0325084924697876,0.1039683371782302,-0.1513781249523162,0.0,0.0,-0.996199071407318,-0.566936731338501
-0.1029575318098068,0.0,-0.0047353035770356,-0.0432613603770732,0.0973621159791946,-0.1321243941783905,0.0,0.0,-0.9911320805549622,-0.6696761250495911
-0.1030070334672927,1.2425787448883057,0.0007930497522465,-0.0544447749853134,0.0916699916124343,-0.1138424128293991,0.0,0.0,-0.9953300356864928,-0.547433078289032
-0.1029942482709884,1.2411044836044312,0.0060480390675365,-0.0652370378375053,0.0869399830698967,-0.0946002304553985,0.0,0.0,-0.9968231916427612,-0.2864238023757934
-0.1028684601187706,1.2393932342529297,0.0176682751625776,-0.0757674202322959,0.0819005519151687,-0.1007888317108154,0.0,0.0,-0.9988390207290648,-0.8420550227165222
-0.1026930809020996,1.2374383211135864,0.0213022343814373,-0.0866809710860252,0.0781634598970413,-0.0747416466474533,0.0,0.0,-0.9991134405136108,-0.3035483956336975
-0.102404311299324,1.2352464199066162,0.032971553504467,-0.0972108840942382,0.0741181224584579,-0.0809068009257316,0.0,0.0,-0.9955393075942992,-0.0999448895454406
-0.102001667022705,1.232817530632019,0.044656615704298,-0.1077411100268364,0.0697655603289604,-0.0870512500405311,0.0,0.0,-0.9976146817207336,-0.3971233367919922
-0.1014852523803711,1.230151653289795,0.0563516840338707,-0.1182716637849807,0.0651070997118949,-0.093169018626213,0.0,0.0,-0.9869802594184875,-0.7005621194839478
-0.1009022742509841,1.2272357940673828,0.0620917901396751,-0.1294343322515487,0.0613508895039558,-0.0751241073012352,0.0,0.0,-0.9696089625358582,0.2159774303436279
-0.1002054214477539,1.2240828275680542,0.0737899392843246,-0.1399647295475006,0.0572923794388771,-0.0811701640486717,0.0,0.0,-0.9733730554580688,0.1046940088272094
-0.0993947982788086,1.2206931114196775,0.0854814052581787,-0.1504954248666763,0.0529338493943214,-0.0871708616614341,0.0,0.0,-0.9885430932044984,0.0473129749298095
-0.0984703078866005,1.2170662879943848,0.0971607714891433,-0.1610264480113983,0.0482778623700141,-0.093119777739048,0.0,0.0,-0.953189730644226,-0.0648327469825744
-0.0974321365356445,1.213202714920044,0.1088226065039634,-0.1715578287839889,0.0433273576200008,-0.0990103408694267,0.0,0.0,-0.9978485703468324,0.8762989044189453
-0.0962264090776443,1.209115982055664,0.1272674351930618,-0.1814566105604171,0.0367134660482406,-0.1322776973247528,0.0,0.0,-0.9911887049674988,-0.5178349018096924
-0.0949435234069824,1.2047905921936035,0.1343669593334198,-0.1921006739139557,0.0307162944227457,-0.1199436038732528,0.0,0.0,-0.9808878302574158,-0.4407448768615722
-0.0935477241873741,1.200228571891785,0.1459441035985946,-0.2026337236166,0.0244353991001844,-0.1256182938814163,0.0,0.0,-0.9738733172416688,-0.8563432097434998
-0.0920992866158485,1.1954189538955688,0.1499564200639724,-0.2136925905942917,0.0193866435438394,-0.1009751409292221,0.0,0.0,-0.9316170811653136,-0.3707619309425354
-0.0905386954545974,1.190372347831726,0.1614501625299453,-0.2242250591516494,0.0140631198883056,-0.1064704805612564,0.0,0.0,-0.9102588295936584,-0.2918640375137329
-0.0888664275407791,1.1850894689559937,0.172894075512886,-0.2347579002380371,0.0084698777645826,-0.1118648648262023,0.0,0.0,-0.8974670767784119,-0.8959493041038513
-0.0871444717049598,1.1795780658721924,0.1765644401311874,-0.2449371069669723,0.004156841430813,-0.0862607136368751,0.0,0.0,-0.7546594142913818,-0.9137651324272156
-0.085397720336914,1.1738383769989014,0.1771261990070343,-0.2550910711288452,0.0017407651757821,-0.0483214929699897,0.0,0.0,-0.7498200535774231,-0.7251391410827637
-0.0836105346679687,1.167854070663452,0.1796412169933319,-0.265965074300766,0.0008242115145549,-0.0183308497071266,0.0,0.0,-0.6940980553627014,-0.6901668906211853
-0.0817649811506271,1.1616389751434326,0.1844365149736404,-0.2762256562709808,0.0009424109593965,0.0023640219587832,0.0,0.0,-0.829684853553772,-0.2908182144165039
-0.0798107162117958,1.155186891555786,0.1955479979515075,-0.2867563962936401,0.0008219793089665,-0.0024086881894618,0.0,0.0,-0.3455814123153686,-0.268632173538208
-0.077748492360115,1.1484980583190918,0.206575870513916,-0.297287106513977,0.0004703485174104,-0.007032535970211,0.0,0.0,-0.69349205493927,-0.5566438436508179
-0.0756240859627723,1.1415748596191406,0.2118774950504303,-0.3076934218406677,0.001024225493893,0.0110775381326675,0.0,0.0,-0.7239564657211304,-0.3982228636741638
-0.0733934417366981,1.1344149112701416,0.2227205485105514,-0.3182242214679718,0.0013630519388243,0.0067764110863208,0.0,0.0,-0.493796169757843,0.0215890407562255
-0.0710575133562088,1.127017855644226,0.2334621846675872,-0.3287549614906311,0.0014955274527892,0.0026494706980884,0.0,0.0,-0.372631311416626,-0.3691558241844177
-0.0686172470450401,1.1193839311599731,0.2440963238477707,-0.339285671710968,0.001430790987797,-0.0012948226649314,0.0,0.0,-0.694024920463562,-0.508281409740448
-0.0661040320992469,1.1115128993988037,0.2508030533790588,-0.3498261868953705,0.0019421697361394,0.0102276084944605,0.0,0.0,-0.3791826963424682,-0.0165170431137084
-0.0634885802865028,1.103404879570007,0.2612036764621734,-0.3603569269180298,0.0022759062703698,0.0066747209057211,0.0,0.0,-0.426539659500122,-0.0714669823646545
-0.0607721321284771,1.095059871673584,0.2714780569076538,-0.3708876371383667,0.0024423995055258,0.0033301480580121,0.0,0.0,-0.6217907071113586,-0.5095492005348206
-0.0579939857125282,1.0864815711975098,0.2768199741840362,-0.3812543749809265,0.0034136287868022,0.0194246806204319,0.0,0.0,-0.6524980068206787,-0.5454939603805542
-0.0551516525447368,1.0776684284210205,0.2825265228748321,-0.3917039632797241,0.0051000672392547,0.0337286964058876,0.0,0.0,-0.755024790763855,0.0762207508087158
-0.0522120483219623,1.0686182975769043,0.2923843264579773,-0.4022349417209625,0.006653013639152,0.0310591123998165,0.0,0.0,-0.4293448328971863,-0.2925942540168762
-0.0491766929626464,1.0593311786651611,0.3020904958248138,-0.4127658307552337,0.0080845430493354,0.0286305248737335,0.0,0.0,-0.6551420092582703,-0.4684553146362304
-0.0460469238460063,1.0498071908950806,0.3116386830806732,-0.4232966601848602,0.0094070555642247,0.0264504048973321,0.0,0.0,-0.6333406567573547,-0.2013692259788513
-0.0428241714835166,1.0400463342666626,0.321022480726242,-0.4338274896144867,0.0106333708390593,0.0245260428637266,0.0,0.0,-0.7126613259315491,-0.7184193730354309
-0.0395789146423339,1.030053973197937,0.3216241598129272,-0.4441276788711548,0.013500103726983,0.0573348216712474,0.0,0.0,-0.7609477043151855,-0.6860944628715515
-0.03629045560956,1.019827365875244,0.3248301446437835,-0.4545577764511108,0.0174641348421573,0.0792806670069694,0.0,0.0,-0.7503648996353149,-0.768770158290863
-0.0329803451895713,1.0093679428100586,0.3253662288188934,-0.4649392664432525,0.0230365730822086,0.1114487871527671,0.0,0.0,-0.9148820042610168,-0.8645586967468262
-0.0296619422733783,0.998675525188446,0.3242596685886383,-0.4753468632698059,0.0305221397429704,0.1497111916542053,0.0,0.0,-0.8733948469161987,-0.8571920394897461
-0.0263297073543071,0.9877412915229796,0.3238757848739624,-0.48618945479393,0.0397556312382221,0.1846697926521301,0.0,0.0,-0.9359548687934875,-0.7422382831573486
-0.0229849815368652,0.9765678644180298,0.3233515918254852,-0.4969275295734405,0.0507382676005363,0.2196528613567352,0.0,0.0,-0.9167628288269044,-0.8060176968574524
-0.0196393970400095,0.9651514887809752,0.321429967880249,-0.5078872442245483,0.0637270957231521,0.2597766518592834,0.0,0.0,-0.7431437969207764,-0.6132813692092896
-0.0162551887333393,0.9535005688667296,0.324258029460907,-0.5184844732284546,0.0777370631694793,0.2801993489265442,0.0,0.0,-0.7937324643135071,-0.9240304827690125
-0.0128596303984522,0.9415997266769408,0.3237192034721374,-0.5298163294792175,0.0934329181909561,0.3139168322086334,0.0,0.0,-0.7308887839317322,-0.8809285759925842
-0.0094428062438964,0.929465115070343,0.3244805335998535,-0.5404781103134155,0.1105048209428787,0.3414378762245178,0.0,0.0,-0.5554304122924805,-0.9088063836097716
-0.0060284612700343,0.91709303855896,0.3223053812980652,-0.5513884425163269,0.1295159310102462,0.3802222609519958,0.0,0.0,-0.1631332635879516,-0.9644344449043274
-0.0026030540466308,0.9044893980026244,0.3219251036643982,-0.5620858669281006,0.1500668078660965,0.4110175967216491,0.0,0.0,-0.4450768828392029,-0.8365647196769714
0.0008327484247274,0.8916417956352234,0.3214809596538543,-0.5733726620674133,0.1721689105033874,0.4420422911643982,0.0,0.0,0.2046738862991333,-0.8458142876625061
0.0041589736938476,0.8794341087341309,0.3088146150112152,-0.5454996824264526,0.1960612684488296,0.4778472781181335,0.0,0.0,0.0848300457000732,-0.0543501377105712
0.0074861524626612,0.8677698969841003,0.3087250888347626,-0.5217707753181458,0.2202568799257278,0.4839125275611877,0.0,0.0,-0.8047610521316528,-0.2837370634078979
0.0108735086396336,0.8558764457702637,0.31474369764328,-0.5323519706726074,0.2445859760046005,0.4865823686122894,0.0,0.0,0.4200654029846191,-0.0738705396652221
0.0140879629179835,0.844489574432373,0.297929435968399,-0.5101755261421204,0.2685765027999878,0.4798112511634826,0.0,0.0,0.4814813137054443,0.8359259366989136
0.0171747207641601,0.8335135579109192,0.2869743108749389,-0.4919658005237579,0.2908661365509033,0.4457927346229553,0.0,0.0,0.1640887260437011,0.9425129890441896
0.0202550888061523,0.8229016065597534,0.2881425023078918,-0.4757462441921234,0.3114152252674103,0.4109819829463959,0.0,0.0,0.7997903823852539,0.8273744583129883
0.0233002658933401,0.8129310607910156,0.2861327826976776,-0.4471993446350097,0.330527126789093,0.382238507270813,0.0,0.0,0.4141031503677368,0.9850300550460817
0.0264910701662302,0.8032571077346802,0.3024666905403137,-0.4338521063327789,0.3479185104370117,0.3478274047374725,0.0,0.0,0.5017852783203125,0.9442238807678224
0.0296798702329397,0.7943205237388611,0.3039059340953827,-0.4008852243423462,0.36368128657341,0.3152555227279663,0.0,0.0,0.2153084278106689,0.9531687498092652
0.0327897071838378,0.7860424518585205,0.2977370619773865,-0.3713346421718597,0.3777053654193878,0.2804815173149109,0.0,0.0,0.6238057613372803,0.9549062252044678
0.0359663963317871,0.7780290246009827,0.3060294985771179,-0.3592801988124847,0.3900963366031647,0.2478198558092117,0.0,0.0,0.7378649711608887,0.9501173496246338
