x_pos,y_pos,x_vel,y_vel,angle,ang_vel,leg_1,leg_2,main_booster,lat_booster
-0.0014787673717364,1.4029713869094849,-0.1504361480474472,-0.3532750308513641,0.002283789915964,0.0450890995562076,0.0,0.0,-0.4236959218978882,0.928325891494751
-0.0028382302261888,1.3943886756896973,-0.1367262303829193,-0.3814577460289001,0.0030595769640058,0.015517733991146,0.0,0.0,-0.1829358339309692,0.673423171043396
-0.0040973662398755,1.3851476907730105,-0.1255975663661956,-0.410706877708435,0.0027530083898454,-0.0061320778913795,0.0,0.0,0.3688910007476806,0.5855793952941895
-0.0053884508088231,1.3758724927902222,-0.1279334872961044,-0.4122299253940582,0.0015896674012765,-0.0232687704265117,0.0,0.0,0.5592756271362305,0.8071588277816772
-0.0064557073637843,1.366870403289795,-0.1047358363866806,-0.4000947177410126,-0.0003795988450292,-0.0393891967833042,0.0,0.0,-0.4888181090354919,0.4196494817733764
-0.0075019835494458,1.357215166091919,-0.1031844466924667,-0.4291244447231293,-0.0017971826018765,-0.0283543970435857,0.0,0.0,-0.3634918928146362,0.1612340211868286
-0.0085320472717285,1.3469069004058838,-0.1021316275000572,-0.4581457376480102,-0.0026607892941683,-0.0172736030071973,0.0,0.0,0.1711272001266479,-0.3785644173622131
-0.0094437599182128,1.3366332054138184,-0.0913710296154022,-0.456614077091217,-0.0024630131665617,0.0039558401331305,0.0,0.0,-0.3116676807403564,-0.1372893452644348
-0.010349178686738,1.3257062435150146,-0.0913126245141029,-0.4856442213058471,-0.0017064554849639,0.01513263117522,0.0,0.0,0.4088674783706665,0.4299354553222656
-0.0112529750913381,1.3150553703308103,-0.0917018502950668,-0.4733702838420868,-0.0003912787069566,0.0263056959956884,0.0,0.0,-0.2063042521476745,0.6537790298461914
-0.0121011734008789,1.3037517070770264,-0.0852317214012146,-0.5023836493492126,7.505224857595749e-06,0.0079768132418394,0.0,0.0,0.4162007570266723,0.8441481590270996
-0.0128226280212402,1.2924726009368896,-0.0715204924345016,-0.5012943744659424,-0.0006085210479795,-0.0123216155916452,0.0,0.0,-0.7548345923423767,-0.2897684574127197
-0.0135567663237452,1.2805402278900146,-0.0733702629804611,-0.5303241610527039,-0.0006547516095452,-0.0009246313711628,0.0,0.0,-0.8675667643547058,0.112052321434021
-0.0143081666901707,1.2679548263549805,-0.0756760537624359,-0.5593476891517639,-0.0001293835957767,0.0105084748938679,0.0,0.0,-0.1692171096801757,-0.5080990195274353
-0.0151119232177734,1.254721760749817,-0.0822773650288581,-0.5881382822990417,0.0017421710072085,0.0374346375465393,0.0,0.0,0.0103708505630493,-0.1362556219100952
-0.0158750526607036,1.2411086559295654,-0.0791048035025596,-0.6050363183021545,0.0045049819163978,0.0552610866725444,0.0,0.0,-0.0819957852363586,-0.127186894416809
-0.016668414697051,1.2268424034118652,-0.0827039331197738,-0.6340644359588623,0.0078459968790411,0.0668265298008918,0.0,0.0,-0.4191877841949463,-0.1740844249725341
-0.017495822161436,1.2119234800338743,-0.0867045074701309,-0.6630904078483582,0.0117674898356199,0.0784366652369499,0.0,0.0,-0.1838457584381103,0.4727728366851806
-0.0183612816035747,1.1963517665863037,-0.0910914167761802,-0.6921167969703674,0.0162711944431066,0.0900820270180702,0.0,0.0,-0.4428731203079223,0.5013420581817627
-0.0192339904606342,1.1801278591156006,-0.0915447771549224,-0.7211082577705383,0.0204964485019445,0.0845126062631607,0.0,0.0,-0.0560036301612854,0.8210526704788208
-0.0200733188539743,1.1632598638534546,-0.086799718439579,-0.7497342824935913,0.023330844938755,0.0566929504275321,0.0,0.0,0.4083127975463867,0.7436165809631348
-0.0208998676389455,1.1463029384613037,-0.0846458598971366,-0.7536792159080505,0.0252937730401754,0.0392620489001274,0.0,0.0,0.2560923099517822,0.6715073585510254
-0.0216254238039255,1.1293189525604248,-0.0739530548453331,-0.7548677921295166,0.0266825389117002,0.0277777202427387,0.0,0.0,-0.0065390467643737,0.1035826206207275
-0.0224055293947458,1.1116820573806765,-0.0800163224339485,-0.7838966250419617,0.0286616217344999,0.0395853966474533,0.0,0.0,0.7312114238739014,0.2178341150283813
-0.0234112739562988,1.0943973064422607,-0.1024819388985633,-0.7682508230209351,0.0305418744683265,0.0376083441078662,0.0,0.0,0.8824626207351685,0.6849266290664673
-0.024626350030303,1.077638864517212,-0.1221888884902,-0.7448328137397766,0.0312135312706232,0.0134332235902547,0.0,0.0,0.4254660606384277,0.9110454320907592
-0.025848101824522,1.0611767768859863,-0.121621273458004,-0.7316432595252991,0.0306687988340854,-0.010894663631916,0.0,0.0,0.2637495994567871,-0.8470990657806396
-0.0273360256105661,1.045008659362793,-0.1504503637552261,-0.7186154127120972,0.0323038138449192,0.0327004343271255,0.0,0.0,-0.7621932029724121,0.6383252143859863
-0.028852080926299,1.028195023536682,-0.1528508812189102,-0.7472988963127136,0.0335361175239086,0.0246460977941751,0.0,0.0,-0.3785340785980224,0.738933801651001
-0.0303812976926565,1.0107287168502808,-0.1533339619636535,-0.7762888669967651,0.0339421220123767,0.0081202443689107,0.0,0.0,0.2593171596527099,0.5888767242431641
-0.0319420807063579,0.9935869574546814,-0.1559212654829025,-0.7618535757064819,0.0337965711951255,-0.0029111679177731,0.0,0.0,-0.3834746479988098,0.5618581771850586
-0.0335375778377056,0.9757910966873168,-0.1590162515640258,-0.7909142374992371,0.0332682393491268,-0.0105667570605874,0.0,0.0,0.1989870071411132,0.2158495187759399
-0.0352876670658588,0.9582118391990662,-0.1747926175594329,-0.7813032865524292,0.033051311969757,-0.0043383496813476,0.0,0.0,-0.6294981837272644,0.6388821601867676
-0.0370695106685161,0.9399760961532592,-0.1774110496044159,-0.81046062707901,0.0322857722640037,-0.0153107671067118,0.0,0.0,0.4060163497924804,0.1361033916473388
-0.0389333739876747,0.921888530254364,-0.1862684190273285,-0.8038894534111023,0.0321691818535327,-0.0023318142630159,0.0,0.0,0.1352367401123047,0.2961208820343017
-0.0408816337585449,0.9039279222488404,-0.1953463852405548,-0.7982589602470398,0.032692939043045,0.0104750739410519,0.0,0.0,-0.5649459958076477,0.235064148902893
-0.0429112426936626,0.8853146433830261,-0.2040783464908599,-0.8272832632064819,0.0337965674698352,0.0220725461840629,0.0,0.0,0.2563610076904297,0.9102797508239746
-0.0449377074837684,0.86692875623703,-0.2025415450334549,-0.8171495795249939,0.0336847491562366,-0.0022365390323102,0.0,0.0,0.7618310451507568,0.8560612201690674
-0.0470572486519813,0.8492476344108582,-0.2106132954359054,-0.7857938408851624,0.0323591530323028,-0.0265116654336452,0.0,0.0,-0.6491075754165649,0.7180049419403076
-0.0492023453116416,0.8309177756309509,-0.2122314274311065,-0.8146166205406189,0.0301075503230094,-0.0450321398675441,0.0,0.0,0.0709507465362548,0.6040778160095215
-0.0514785759150981,0.8126956224441528,-0.2245947867631912,-0.8098155856132507,0.0271115619689226,-0.0599195957183837,0.0,0.0,-0.2366455793380737,0.8708665370941162
-0.0537588112056255,0.7938222885131836,-0.2234390676021576,-0.8387395739555359,0.0225887224078178,-0.0904568955302238,0.0,0.0,0.4862079620361328,0.9232319593429564
-0.0559608452022075,0.7747151255607605,-0.2144339829683303,-0.849129855632782,0.0168932732194662,-0.1139089688658714,0.0,0.0,-0.2972568273544311,0.571558952331543
-0.05819883197546,0.7549557089805603,-0.2172431051731109,-0.8781337141990662,0.0104226060211658,-0.1294135302305221,0.0,0.0,0.9842691421508788,0.9581328630447388
-0.0605078712105751,0.7350637316703796,-0.2228725254535675,-0.8840576410293579,0.0024920315481722,-0.1586113721132278,0.0,0.0,0.989854097366333,0.8526787757873535
-0.0627800971269607,0.7151151299476624,-0.2181332111358642,-0.8866178393363953,-0.0064722774550318,-0.1792865693569183,0.0,0.0,0.9823875427246094,0.8449370861053467
-0.0649925246834755,0.6953128576278687,-0.2111746370792389,-0.8801752924919128,-0.0164211522787809,-0.1989774107933044,0.0,0.0,0.9574114084243774,0.6881184577941895
-0.0673687905073165,0.6763501167297363,-0.2263284176588058,-0.8429519534111023,-0.0275797080248594,-0.2231711894273758,0.0,0.0,0.8074479103088379,0.3800234794616699
-0.0699581131339073,0.6580348610877991,-0.2474736720323562,-0.8142692446708679,-0.0388998202979564,-0.226401999592781,0.0,0.0,-0.9049977660179138,0.8582890033721924
-0.0725742354989051,0.6390618681907654,-0.2489969432353973,-0.8436242938041687,-0.0513676516711711,-0.2493564635515213,0.0,0.0,0.743877649307251,0.9760115146636964
-0.0750053375959396,0.6203212738037109,-0.2292699366807937,-0.8334434628486633,-0.0650506243109703,-0.2736596763134002,0.0,0.0,0.64444899559021,0.2229049205780029
-0.0775389671325683,0.6020330786705017,-0.2397445887327194,-0.8134613633155823,-0.0785207971930503,-0.2694033086299896,0.0,0.0,-0.0536459684371948,0.6466503143310547
-0.080105684697628,0.5830831527709961,-0.2420136034488678,-0.8430525660514832,-0.0930481553077697,-0.2905471920967102,0.0,0.0,0.988903284072876,0.577601432800293
-0.0826269164681434,0.564915120601654,-0.2367792874574661,-0.8084913492202759,-0.1082609370350837,-0.3042558133602142,0.0,0.0,0.8847572803497314,0.3532203435897827
-0.0850127190351486,0.5468981862068176,-0.2245028018951416,-0.8018323183059692,-0.1222490966320037,-0.2797632813453674,0.0,0.0,0.9280253648757936,-0.5381949543952942
-0.0875852555036544,0.5290756225585938,-0.2443585693836212,-0.7932202219963074,-0.1350859850645065,-0.2567378878593445,0.0,0.0,0.7873420715332031,0.085120677947998
-0.0900350585579872,0.5118623375892639,-0.2329873293638229,-0.7661654949188232,-0.1470451205968856,-0.2391827404499054,0.0,0.0,0.4314725399017334,0.7612168788909912
-0.0923018455505371,0.4948249459266662,-0.2137739360332489,-0.7585433125495911,-0.1599303036928177,-0.2577033042907715,0.0,0.0,-0.5211654305458069,-0.5619511008262634
-0.0947007164359092,0.4771507680416107,-0.2283780127763748,-0.7868018746376038,-0.1714540123939514,-0.2304743975400924,0.0,0.0,0.922623872756958,-0.5774658918380737
-0.0971755012869834,0.4602165818214416,-0.2372322380542755,-0.753845751285553,-0.1817271113395691,-0.2054621428251266,0.0,0.0,0.7471003532409668,-0.185062289237976
-0.0996209159493446,0.4431929290294647,-0.234887883067131,-0.7578173875808716,-0.1914151459932327,-0.1937609016895294,0.0,0.0,0.8912720680236816,0.6447470188140869
-0.1020785346627235,0.4267232418060303,-0.2348557263612747,-0.7334336042404175,-0.2023965418338775,-0.2196278125047683,0.0,0.0,-0.0095317959785461,-0.6442198157310486
-0.1046705245971679,0.4096116721630096,-0.2496220767498016,-0.7618507146835327,-0.2120565772056579,-0.1932006329298019,0.0,0.0,0.9363253116607666,0.3045738935470581
-0.1071787849068641,0.3928922712802887,-0.2416578233242035,-0.7444267272949219,-0.2213173806667328,-0.1852161735296249,0.0,0.0,0.9789025783538818,0.0666230916976928
-0.1096668243408203,0.3762197494506836,-0.2399419099092483,-0.7423546314239502,-0.2302857935428619,-0.179368644952774,0.0,0.0,0.9898068904876708,-0.2352213859558105
-0.1122316345572471,0.3599852323532104,-0.2471846342086792,-0.7230157852172852,-0.2397178411483764,-0.188641220331192,0.0,0.0,0.9759156703948976,-0.2579413652420044
-0.1146223992109298,0.3445803225040436,-0.2301161587238311,-0.6861460208892822,-0.2488286942243576,-0.1822171211242675,0.0,0.0,0.9823378324508668,-0.5275416374206543
-0.116960808634758,0.3290036916732788,-0.2264293134212494,-0.6935693025588989,-0.2563902139663696,-0.1512311846017837,0.0,0.0,0.9802197217941284,0.0713682174682617
-0.1191019043326377,0.3142466247081756,-0.2070024013519287,-0.657132089138031,-0.263647586107254,-0.1451473534107208,0.0,0.0,0.9893796443939208,-0.1728772521018982
-0.1212969794869422,0.2997063398361206,-0.2120275050401687,-0.6475943326950073,-0.2712991833686828,-0.1530317068099975,0.0,0.0,0.990149974822998,-0.4606249332427978
-0.1234726905822753,0.2857367396354675,-0.2097152769565582,-0.6223482489585876,-0.2793570160865783,-0.1611573249101638,0.0,0.0,0.967501163482666,-0.5111512541770935
-0.1255376785993576,0.2721847295761108,-0.199858546257019,-0.6035955548286438,-0.286179780960083,-0.1364553272724151,0.0,0.0,0.9819545745849608,-0.8920841813087463
-0.1276366263628006,0.259548932313919,-0.2047721594572067,-0.5626039505004883,-0.2914525270462036,-0.1054549664258956,0.0,0.0,0.935276746749878,-0.8244986534118652
-0.1296047270298004,0.2472195774316787,-0.1935380399227142,-0.5486284494400024,-0.2948241531848907,-0.0674318820238113,0.0,0.0,0.9756031036376952,-0.9409672617912292
-0.1316426247358322,0.2349531501531601,-0.2023045569658279,-0.5454760789871216,-0.296361356973648,-0.0307438764721155,0.0,0.0,0.9820144176483154,-0.3947771787643432
-0.1335787773132324,0.2225575596094131,-0.1924833953380584,-0.5511488318443298,-0.2975363731384277,-0.0235004127025604,0.0,0.0,0.9980015754699708,-0.3935843706130981
-0.1355207413434982,0.2101146131753921,-0.1928445398807525,-0.5532976984977722,-0.2989263832569122,-0.027800178155303,0.0,0.0,0.9987246990203856,-0.1472809314727783
-0.1372784674167633,0.1983988583087921,-0.1743218004703521,-0.5209974646568298,-0.3004240393638611,-0.0299531631171703,0.0,0.0,0.9980576038360596,-0.600364089012146
-0.1387775391340255,0.1874249726533889,-0.1498488932847976,-0.4877423644065857,-0.300491452217102,-0.0013479931512847,0.0,0.0,0.9964275360107422,0.2716124057769775
-0.1402008980512619,0.1772738546133041,-0.141567051410675,-0.4513243436813354,-0.3012900352478027,-0.0159719288349151,0.0,0.0,0.9834001064300536,-0.8419540524482727
-0.141819566488266,0.1671363860368728,-0.1622767150402069,-0.4504649341106415,-0.3008591830730438,0.0086172558367252,0.0,0.0,0.9874835014343262,0.1717432737350464
-0.1431951522827148,0.1576873660087585,-0.1380554735660553,-0.4198566377162933,-0.3003482520580292,0.010218720883131,0.0,0.0,0.9854516983032228,-0.3403961062431335
-0.1445666253566742,0.1486309319734573,-0.1369362920522689,-0.402550995349884,-0.3005640208721161,-0.0043153329752385,0.0,0.0,0.9982011318206788,-0.7695062756538391
-0.1459042578935623,0.1401586681604385,-0.1347328871488571,-0.3763448596000671,-0.2995568215847015,0.0201439149677753,0.0,0.0,0.9737354516983032,-0.6409921646118164
-0.1471393555402755,0.1322636753320694,-0.1255185306072235,-0.3504762053489685,-0.297481894493103,0.0414984747767448,0.0,0.0,0.8188762664794922,-0.360284686088562
-0.1481756269931793,0.1245929077267646,-0.1058532446622848,-0.340467244386673,-0.295179009437561,0.0460578687489032,0.0,0.0,0.9738531112670898,-0.7672653794288635
-0.1492021530866623,0.1168628558516502,-0.1062404662370681,-0.3428365588188171,-0.2914863228797912,0.0738537460565567,0.0,0.0,0.948448657989502,0.1154053211212158
-0.1500655114650726,0.1091160625219345,-0.0901727825403213,-0.3435425460338592,-0.2875348031520843,0.0790303796529769,0.0,0.0,0.9866209030151368,-0.522833526134491
-0.1506710052490234,0.1016429960727691,-0.0657087713479995,-0.331127256155014,-0.2822244465351105,0.1062068939208984,0.0,0.0,0.977107048034668,-0.5753567218780518
-0.1510942429304123,0.0941390395164489,-0.0488487407565116,-0.3322643935680389,-0.2755248546600342,0.1339917927980423,0.0,0.0,0.9790003299713136,-0.370233416557312
-0.1513527929782867,0.0872853100299835,-0.032080490142107,-0.3034500777721405,-0.2691451907157898,0.1275935024023056,0.0,0.0,0.9410468339920044,-0.7893204689025879
-0.1514670401811599,0.0810836851596832,-0.0190300270915031,-0.2742480337619781,-0.2613758742809295,0.1553864479064941,0.0,0.0,0.8741838932037354,-0.6722778081893921
-0.1513600349426269,0.0752915441989898,0.0017081890255212,-0.2558470070362091,-0.2521840929985046,0.183835819363594,0.0,0.0,0.9703755378723145,-0.8322943449020386
-0.1511624306440353,0.0693813189864158,0.0091387843713164,-0.2608892321586609,-0.2413664013147354,0.2163532227277755,0.0,0.0,0.6826837062835693,-0.624535858631134
-0.1510119438171386,0.0636129230260849,0.0036107797641307,-0.2545433342456817,-0.2297609448432922,0.2321090251207351,0.0,0.0,0.9761791229248048,-0.4427447915077209
-0.1505930870771408,0.0586669296026229,0.030302146449685,-0.2180568277835846,-0.2180308997631073,0.2346007525920868,0.0,0.0,0.9606623649597168,-0.6569816470146179
-0.150171086192131,0.054086361080408,0.0296963937580585,-0.2017879784107208,-0.2054081857204437,0.2524542212486267,0.0,0.0,0.945671319961548,-0.3128206729888916
-0.1497630178928375,0.050276193767786,0.0293039139360189,-0.1677876114845276,-0.1938250809907913,0.2316621541976928,0.0,0.0,0.723128080368042,-0.1679189205169677
-0.149185374379158,0.0468607768416404,0.0461831204593181,-0.1503250300884246,-0.1821920275688171,0.2326613366603851,0.0,0.0,0.5773953199386597,-0.1786537766456604
-0.1485860794782638,0.0438654981553554,0.0489389263093471,-0.1318115293979644,-0.1711731404066085,0.2203781306743621,0.0,0.0,0.1762796640396118,-0.1376016736030578
-0.1480099707841873,0.0410227142274379,0.0472571700811386,-0.125190332531929,-0.1608117371797561,0.2072277069091797,0.0,0.0,0.1604790687561035,0.5218663215637207
-0.1474103927612304,0.0380397401750087,0.051072783768177,-0.1316383332014084,-0.1519258022308349,0.1777184456586837,0.0,0.0,0.3819000720977783,0.2800512313842773
-0.1468831002712249,0.0351735688745975,0.0446706637740135,-0.1265852004289627,-0.1438897848129272,0.1607204526662826,0.0,0.0,0.2530372142791748,0.5893576145172119
-0.1464275419712066,0.0322612635791301,0.0393187329173088,-0.1288480013608932,-0.137670949101448,0.1243765950202941,0.0,0.0,0.665686845779419,0.7135635614395142
-0.1457488089799881,0.0297420602291822,0.0632309764623642,-0.111543096601963,-0.133043497800827,0.0925491526722908,0.0,0.0,0.2270967960357666,-0.3823550343513489
-0.1450347900390625,0.0269691571593284,0.0669717565178871,-0.1228478103876113,-0.1286212056875229,0.088445596396923,0.0,0.0,0.4997029304504394,0.0437813997268676
-0.1441452950239181,0.0245492309331893,0.0843113511800766,-0.1071626916527748,-0.1240110397338867,0.0922033637762069,0.0,0.0,-0.0139136314392089,-0.1994181871414184
-0.1432979553937912,0.0214772075414657,0.0805272012948989,-0.1361916214227676,-0.1198267713189125,0.0836854130029678,0.0,0.0,0.4923363924026489,0.1014175415039062
-0.1422704756259918,0.0188793987035751,0.0983761623501777,-0.1151114627718925,-0.1154768541455268,0.0869981870055198,0.0,0.0,0.388217568397522,0.0278542041778564
-0.1411611586809158,0.016344103962183,0.1066876500844955,-0.1123575121164321,-0.1112651377916336,0.0842342749238014,0.0,0.0,0.3251359462738037,-0.4178351163864136
-0.1400210410356521,0.014133820310235,0.1102465838193893,-0.0979568734765052,-0.1075188666582107,0.0749255642294883,0.0,0.0,0.2791122198104858,-0.4479155540466308
-0.1388028115034103,0.0121731618419289,0.1182783618569374,-0.08688984811306,-0.1039977222681045,0.0704227536916732,0.0,0.0,0.1028754711151123,-0.6094300746917725
-0.1375218331813812,0.0104253627359867,0.1132425516843795,-0.07671420276165,-0.0892676264047622,0.2946019768714905,1.0,0.0,0.0992680788040161,-0.5450698137283325
-0.1363367140293121,0.0086609339341521,0.1027023196220398,-0.07754847407341,-0.0736071541905403,0.31320920586586,1.0,0.0,0.3645391464233398,-0.4268057346343994
-0.1352259665727615,0.0068944310769438,0.095749981701374,-0.077829472720623,-0.0584374070167541,0.3033949732780456,1.0,0.0,0.5114502906799316,0.0265061855316162
-0.1341047286987304,0.0052519179880619,0.0968870967626571,-0.0724756494164466,-0.0433590821921825,0.3015662431716919,0.0,0.0,0.3358364105224609,0.928741693496704
-0.1328971832990646,0.003597495611757,0.1077947989106178,-0.0732033252716064,-0.0305604934692382,0.2559715509414673,0.0,0.0,0.0528020858764648,0.8146669864654541
-0.1316350996494293,0.0022684789728373,0.13323375582695,-0.0592692568898201,-0.0376060642302036,-0.1410471349954605,0.0,1.0,-0.1798352003097534,-0.0926021337509155
-0.130349725484848,0.0014344906667247,0.1307103484869003,-0.0371838919818401,-0.0397642664611339,-0.0431751534342765,1.0,1.0,-0.3252557516098022,-0.9914762377738952
-0.1291155815124511,0.0011347270337864,0.1209308132529258,-0.0133032826706767,-0.0373221188783645,0.0488264858722686,1.0,1.0,-0.7183340787887573,-0.9655511379241944
