x_pos,y_pos,x_vel,y_vel,angle,ang_vel,leg_1,leg_2,main_booster,lat_booster
-0.0016708374023437,1.4030979871749878,-0.1694477945566177,-0.3476542532444,0.0021156643051654,0.0417595766484737,0.0,0.0,-0.7044791738412746,-0.6105941904953684
-0.003533458802849,1.394769310951233,-0.1897249519824981,-0.3701707720756531,0.005541009362787,0.0685144588351249,0.0,0.0,-0.6062106487168677,-0.762741454744624
-0.005590152926743,1.3859078884124756,-0.2105928659439087,-0.3938666880130768,0.0104124946519732,0.0974387899041175,0.0,0.0,0.4542253926611566,0.7420267945719935
-0.0078564640134572,1.3771764039993286,-0.2301408350467682,-0.3880942761898041,0.013887858018279,0.0695136189460754,0.0,0.0,0.1577174045876621,-0.8446550185425286
-0.0102374078705906,1.3686074018478394,-0.2436833083629608,-0.3809071779251098,0.0194095987826585,0.1104448661208152,0.0,0.0,0.6615009790622755,0.8205664841329234
-0.0125579833984375,1.3603363037109375,-0.2365951836109161,-0.3676649332046509,0.023906547576189,0.0899470299482345,0.0,0.0,0.4592051804972201,-0.9308594190610702
-0.0151321412995457,1.3523005247116089,-0.2641274929046631,-0.3572634160518646,0.0305425263941288,0.1327318847179412,0.0,0.0,-0.3318604463177659,-0.6436538650743341
-0.0178896896541118,1.3437392711639404,-0.2837631106376648,-0.3806882798671722,0.0384686961770057,0.1585379093885421,0.0,0.0,-0.7140463042155953,-0.7849482369962852
-0.020855139940977,1.3346574306488037,-0.3064975440502167,-0.4039186239242553,0.0483220145106315,0.1970842331647873,0.0,0.0,-0.208309843917396,0.9371459678485496
-0.0238911621272563,1.325061559677124,-0.3120433688163757,-0.4267736971378326,0.0566699244081974,0.1669733077287674,0.0,0.0,0.5476824194460035,0.8280723046514865
-0.0269472114741802,1.3157880306243896,-0.3128875494003296,-0.4124486148357391,0.0638854801654815,0.1443245708942413,0.0,0.0,0.2925172563007443,-0.828282431428745
-0.0301746372133493,1.3066056966781616,-0.3321191668510437,-0.4085296392440796,0.0731835141777992,0.1859779208898544,0.0,0.0,0.64382817675166,0.9680985608781936
-0.0333733558654785,1.2979686260223389,-0.3278901875019073,-0.3842822313308716,0.0811315700411796,0.158975750207901,0.0,0.0,-0.600626132109837,0.8867803863793784
-0.0366352088749408,1.2888071537017822,-0.3326093256473541,-0.4075376689434051,0.0875042900443077,0.1274658143520355,0.0,0.0,0.8887335494275057,-0.9252503600137072
-0.040015410631895,1.2805519104003906,-0.3470158576965332,-0.3674440681934356,0.0964346677064895,0.1786241829395294,0.0,0.0,-0.1380603103597812,-0.920698686104389
-0.0435935966670513,1.2717524766921997,-0.3687231540679931,-0.3918270766735077,0.1072630956768989,0.2165881842374801,0.0,0.0,-0.1182507910936159,-0.7076831541308692
-0.0473541244864463,1.2624300718307495,-0.3884258270263672,-0.415261298418045,0.1195782274007797,0.2463248670101165,0.0,0.0,0.0358869368342182,0.8052540372449695
-0.0511131286621093,1.2529566287994385,-0.3871064484119415,-0.4219742715358734,0.1307398229837417,0.2232518196105957,0.0,0.0,-0.7310569756136638,0.5591742899371935
-0.0549584403634071,1.2429741621017456,-0.3948336541652679,-0.4446057379245758,0.1410183906555175,0.2055899649858474,0.0,0.0,0.9092501748640612,-0.9347452094762368
-0.059206198900938,1.2334011793136597,-0.4371584355831146,-0.4266890287399292,0.1533960103988647,0.2475748062133789,0.0,0.0,-0.9748979014891856,-0.5832627283323203
-0.0636244788765907,1.2233003377914429,-0.4555270075798034,-0.4503986537456512,0.167111650109291,0.2743374109268188,0.0,0.0,-0.917309585370927,-0.6903454059561529
-0.0682278648018837,1.2126593589782717,-0.4757917821407318,-0.4747397303581238,0.1826099157333374,0.3099930882453918,0.0,0.0,0.0524964963525724,-0.5771958374043284
-0.0729796439409256,1.2020200490951538,-0.4922902584075928,-0.4750597178936004,0.1998291313648224,0.3444156050682068,0.0,0.0,-0.8263487099373392,-0.7849811984312625
-0.0779143348336219,1.190834403038025,-0.5123096704483032,-0.4997971355915069,0.2188789099454879,0.3810296058654785,0.0,0.0,-0.4264782777978293,-0.8748027416638252
-0.0830612182617187,1.1791033744812012,-0.5360351800918579,-0.5246928334236145,0.2405360490083694,0.4331815242767334,0.0,0.0,-0.6729316148781725,-0.5024334982057885
-0.0883798599243164,1.1668179035186768,-0.5547834634780884,-0.5499486923217773,0.2638867497444153,0.4670142531394958,0.0,0.0,0.6246166741919257,-0.6391024666494491
-0.09405517578125,1.1550348997116089,-0.5919886827468872,-0.5282928347587585,0.2889746129512787,0.501757025718689,0.0,0.0,-0.6039036820045016,0.8812232594352177
-0.0998030677437782,1.1427667140960691,-0.5981278419494629,-0.5500637292861938,0.3130897283554077,0.4823023378849029,0.0,0.0,0.5143396588413078,-0.5179420273260843
-0.1060521155595779,1.130920648574829,-0.649185836315155,-0.5319370031356812,0.3383693993091583,0.5055935978889465,0.0,0.0,0.7378683918367681,0.6651172495908103
-0.1125624626874923,1.1192951202392578,-0.6741682291030884,-0.5223079323768616,0.3626731336116791,0.4860754013061523,0.0,0.0,0.914544902478642,-0.5432863607065319
-0.1195565238595008,1.108524203300476,-0.7238484621047974,-0.4851099848747253,0.3885878622531891,0.5182944536209106,0.0,0.0,-0.9786776900291444,0.97387433052063
-0.1266007423400879,1.0972694158554075,-0.727382242679596,-0.5066831111907959,0.4131943881511688,0.4921305775642395,0.0,0.0,-0.9365819096565248,0.998202919960022
-0.1336956918239593,1.085546374320984,-0.7309576272964478,-0.5274723768234253,0.4364362061023712,0.4648365974426269,0.0,0.0,-0.979781448841095,0.9985721111297609
-0.1408312767744064,1.0733414888381958,-0.733496904373169,-0.5487952828407288,0.4582633078098297,0.4365422129631042,0.0,0.0,-0.92976313829422,0.9919513463974
-0.1479988098144531,1.0606727600097656,-0.7349608540534973,-0.569179356098175,0.4783869683742523,0.4024732708930969,0.0,0.0,-0.9748556017875672,0.9941892623901368
-0.1551968604326248,1.0475462675094604,-0.7362629175186157,-0.5892080664634705,0.4967768490314483,0.3677977621555328,0.0,0.0,-0.9846105575561525,0.9884746074676514
-0.1624232232570648,1.0339479446411133,-0.7375602126121521,-0.6098629832267761,0.5136073231697083,0.3366096317768097,0.0,0.0,-0.9832850098609924,0.9917242527008056
-0.1696710586547851,1.0198959112167358,-0.7379815578460693,-0.6295721530914307,0.528618574142456,0.3002244830131531,0.0,0.0,-0.9673452973365784,0.9772779941558838
-0.1769472062587738,1.0053857564926147,-0.7393680214881897,-0.6495361924171448,0.5420945286750793,0.2695189118385315,0.0,0.0,-0.9890047311782836,0.981576442718506
-0.1842366158962249,0.9904166460037231,-0.7390621900558472,-0.6694056391716003,0.553798496723175,0.2340799123048782,0.0,0.0,-0.9699028134346008,0.9934310913085938
-0.1915512084960937,0.9749825596809388,-0.7403649687767029,-0.689667820930481,0.5641590356826782,0.2072104960680008,0.0,0.0,-0.975929856300354,0.9935702085494996
-0.1988575011491775,0.959098756313324,-0.7376424670219421,-0.7089347243309021,0.5723733305931091,0.1642852425575256,0.0,0.0,-0.981694519519806,0.9019291400909424
-0.2061573565006256,0.9427496790885924,-0.7354227900505066,-0.7289704084396362,0.5787667632102966,0.1278684437274933,0.0,0.0,-0.9699840545654296,0.9910728931427002
-0.2134416103363037,0.9259495139122008,-0.7320890426635742,-0.7482807636260986,0.5830895304679871,0.0864550322294235,0.0,0.0,-0.9795483946800232,0.8642833232879639
-0.22072434425354,0.9086691737174988,-0.7308154702186584,-0.7691400647163391,0.5860975384712219,0.0601613037288188,0.0,0.0,-0.9645982980728148,0.9210431575775146
-0.2279881983995437,0.8909212946891785,-0.7274705171585083,-0.7892724275588989,0.5873857140541077,0.0257633961737155,0.0,0.0,-0.9212822318077089,0.9199340343475342
-0.2352275401353836,0.8727111220359802,-0.7235193252563477,-0.8091548681259155,0.5868948101997375,-0.0098184999078512,0.0,0.0,-0.8895329236984253,0.8187463283538818
-0.2424641102552414,0.854027509689331,-0.7223453521728516,-0.8298024535179138,0.5853437185287476,-0.0310216881334781,0.0,0.0,-0.9076749086380004,0.6372896432876587
-0.2497014552354812,0.8348569273948669,-0.721836268901825,-0.8511925339698792,0.5830968618392944,-0.0449374839663505,0.0,0.0,-0.8125582933425903,0.3712548017501831
-0.2569634914398193,0.8151623606681824,-0.72461998462677,-0.8746123909950256,0.5812265872955322,-0.0374059006571769,0.0,0.0,-0.7247132658958435,0.3287742137908935
-0.2642439305782318,0.7949442267417908,-0.7267767190933228,-0.8980318307876587,0.5797277092933655,-0.0299778133630752,0.0,0.0,-0.6923499703407288,0.2734957933425903
-0.2715365886688232,0.7742021083831787,-0.7283040285110474,-0.9214508533477784,0.5785948634147644,-0.0226569660007953,0.0,0.0,-0.6941773295402527,0.1159383058547973
-0.2788351476192474,0.7529361248016357,-0.7292019128799438,-0.944869577884674,0.5778225660324097,-0.0154463928192853,0.0,0.0,-0.8301460146903992,-0.2847845554351806
-0.2861334383487701,0.7311461567878723,-0.7294730544090271,-0.9682878851890564,0.5774050951004028,-0.008349516429007,0.0,0.0,-0.869776725769043,-0.3650867938995361
-0.2934252321720123,0.7088322043418884,-0.729122519493103,-0.9917059540748596,0.5773366689682007,-0.0013690339401364,0.0,0.0,-0.906322419643402,-0.3223065137863159
-0.3007045388221741,0.6859942078590393,-0.728157639503479,-1.015123724937439,0.5776112675666809,0.0054924003779888,0.0,0.0,-0.9142405986785888,-0.5046361684799194
-0.3079946935176849,0.662608802318573,-0.730305552482605,-1.0399103164672852,0.5791288018226624,0.0303504355251789,0.0,0.0,-0.9462183713912964,-0.0986375212669372
-0.3152604699134826,0.6386993527412415,-0.728143036365509,-1.0633277893066406,0.580977201461792,0.0369675047695636,0.0,0.0,-0.9615333080291748,-0.4991492033004761
-0.322496086359024,0.6142657995223999,-0.7254010438919067,-1.086745023727417,0.5831502079963684,0.0434597171843051,0.0,0.0,-0.9842384457588196,-0.4898193478584289
-0.3296959996223449,0.5893080234527588,-0.7220948934555054,-1.1101622581481934,0.5856413841247559,0.049824696034193,0.0,0.0,-0.9814099073410034,-0.7637827396392822
-0.3368975222110748,0.5637755990028381,-0.7237926721572876,-1.136387586593628,0.589957594871521,0.0863236635923385,0.0,0.0,-0.9923524856567384,-0.7912089824676514
-0.3441139161586761,0.5376627445220947,-0.727191150188446,-1.1630592346191406,0.5965578556060791,0.1320056617259979,0.0,0.0,-0.9872450828552246,-0.4521759748458862
-0.3512791693210602,0.51102614402771,-0.7222946882247925,-1.1864782571792605,0.6034570336341858,0.13798388838768,0.0,0.0,-0.9968931674957277,-0.6103366017341614
-0.3584262728691101,0.4838277399539947,-0.7217458486557007,-1.2120718955993652,0.6119126081466675,0.1691112220287323,0.0,0.0,-0.9959434866905212,-0.2589945197105407
-0.3655128479003906,0.4561059474945068,-0.7158852815628052,-1.2354925870895386,0.6206539869308472,0.1748270094394683,0.0,0.0,-0.9982152581214904,-0.1526287198066711
-0.3725344538688659,0.4278605580329895,-0.7095738649368286,-1.258913516998291,0.62967449426651,0.1804107278585434,0.0,0.0,-0.9972707033157348,-0.0733946561813354
-0.3794869780540466,0.3990916013717651,-0.7028321027755737,-1.2823346853256226,0.6389675736427307,0.1858613491058349,0.0,0.0,-0.9983800649642944,0.0435109138488769
-0.3863663673400879,0.3697991669178009,-0.6956808567047119,-1.3057557344436646,0.6485264897346497,0.1911779344081878,0.0,0.0,-0.9985296726226808,0.0527122020721435
-0.3931687772274017,0.3399833738803863,-0.6881405711174011,-1.3291771411895752,0.6583444476127625,0.1963595002889633,0.0,0.0,-0.9987536668777466,0.1663672924041748
-0.3998907506465912,0.3096440136432647,-0.6802313923835754,-1.3525984287261963,0.6684147119522095,0.2014049589633941,0.0,0.0,-0.9989525079727172,0.4468739032745361
-0.4065288007259369,0.2787812948226928,-0.6719731092453003,-1.376020073890686,0.6787303686141968,0.2063132524490356,0.0,0.0,-0.9987935423851012,0.6367390155792236
-0.4130399227142334,0.2474445849657058,-0.6582485437393188,-1.3966110944747925,0.6878127455711365,0.181645855307579,0.0,0.0,-0.99821537733078,0.6539090871810913
-0.4194332063198089,0.2156275063753128,-0.645706057548523,-1.4176126718521118,0.6959822773933411,0.1633905917406082,0.0,0.0,-0.9964483976364136,0.7231612205505371
-0.4256851077079773,0.1833465248346328,-0.6303185224533081,-1.437577724456787,0.7025871276855469,0.1320966929197311,0.0,1.0,0.8600444793701172,0.9999306201934814
-0.4279637932777405,0.1749888956546783,-0.3729661107063293,-0.5262847542762756,0.8547185659408569,2.659623861312866,0.0,1.0,-0.9996378421783448,-0.9265525937080384
-0.4308837056159973,0.1644058972597122,-0.3755089342594147,-0.5548070669174194,0.9907914400100708,2.70202374458313,0.0,1.0,-0.9988628029823304,-0.8156720995903015
-0.4337596893310547,0.1547590345144271,-0.3770061135292053,-0.5842523574829102,1.150653600692749,2.741177082061768,0.0,1.0,-0.9987423419952391,-0.4942169189453125
-0.4370416700839996,0.1433533579111099,-0.3738003671169281,-0.6084597706794739,1.2891342639923096,2.7369980812072754,0.0,1.0,-0.9980919361114502,-0.3676842451095581
-0.4401317238807678,0.1344123631715774,-0.3404565453529358,-0.538705587387085,1.458328366279602,3.2832512855529785,0.0,1.0,-0.999620795249939,-0.8614863157272339
-0.4426499307155609,0.1284732371568679,-0.0725487619638443,0.0450765527784824,1.6028176546096802,0.2978717982769012,0.0,1.0,-0.999620795249939,-0.8614863157272339
