x_pos,y_pos,x_vel,y_vel,angle,ang_vel,leg_1,leg_2,main_booster,lat_booster
-0.0015204430092126,1.4030262231826782,-0.1538818180561065,-0.3508454263210296,0.0016452181152999,0.0324445255100727,0.0,0.0,-0.0072103335002975,0.8996893309433182
-0.0029611587524414,1.3945527076721191,-0.143611341714859,-0.3765966296195984,0.0011914520291611,-0.0090755484998226,0.0,0.0,0.2081960648078413,0.8000865759275619
-0.0042246817611157,1.3859180212020874,-0.1242864727973938,-0.3837622106075287,-0.0008507916354574,-0.0408486500382423,0.0,0.0,-0.4389783635072217,0.8724153798789667
-0.0054302215576171,1.3766820430755615,-0.1169562712311744,-0.4104951322078705,-0.0044044195674359,-0.0710790902376174,0.0,0.0,0.7220533627486243,0.6249357343265152
-0.0064357756637036,1.3678680658340454,-0.0959704965353012,-0.3917483687400818,-0.0089410822838544,-0.0907414928078651,0.0,0.0,0.1975102377302937,0.8844459083393763
-0.0072503089904785,1.3590428829193115,-0.0750492960214614,-0.3922872841358185,-0.0152774816378951,-0.1267394423484802,0.0,0.0,0.5796015646225865,0.7966550630213058
-0.0080152507871389,1.350447177886963,-0.0683200657367706,-0.3821378648281097,-0.0233615394681692,-0.1616962850093841,0.0,0.0,-0.6881144259606515,-0.650906545963901
-0.0088165281340479,1.3412569761276243,-0.072807177901268,-0.4085824191570282,-0.0306020118296146,-0.1448226571083068,0.0,0.0,0.0080755608930038,0.9122384778229288
-0.009537125006318,1.3322420120239258,-0.0627852827310562,-0.4008793830871582,-0.0397757031023502,-0.1834907382726669,0.0,0.0,0.8112506821571013,-0.5085723188572409
-0.0102653503417968,1.3238288164138794,-0.0644366890192031,-0.3741631209850311,-0.0480700694024562,-0.1659028530120849,0.0,0.0,0.0489100698562348,0.9375367101286334
-0.0108352657407522,1.315374493598938,-0.0465932488441467,-0.3761152029037475,-0.0583576336503028,-0.2057705819606781,0.0,0.0,-0.4615914667207359,0.5177140506549265
-0.0113587379455566,1.3063181638717651,-0.0406798422336578,-0.4029889106750488,-0.0699192807078361,-0.2312541007995605,0.0,0.0,0.7148638045533646,-0.9526998136209645
-0.0117546077817678,1.297748565673828,-0.0299378894269466,-0.3813486993312835,-0.0794848427176475,-0.1913286745548248,0.0,0.0,-0.1864637219776082,0.8495825978338708
-0.0120764728635549,1.2885652780532837,-0.0205275323241949,-0.4088079631328583,-0.0910622403025627,-0.2315686196088791,0.0,0.0,-0.1697699611006702,0.8341028801248758
-0.0123174665495753,1.2787835597991943,-0.0102597093209624,-0.4356469511985779,-0.104808397591114,-0.2749483585357666,0.0,0.0,0.5313241305697158,0.8938449788498104
-0.0123473163694143,1.2687779664993286,0.0125999674201011,-0.4458605647087097,-0.1203084737062454,-0.3100301325321197,0.0,0.0,-0.5610803582214481,-0.7059167415237605
-0.0124203683808445,1.2581928968429563,0.007281650789082,-0.471686989068985,-0.1348461657762527,-0.2907802164554596,0.0,0.0,0.2393392174605539,0.9850820684086514
-0.0122571941465139,1.247381567955017,0.0329384058713912,-0.4820963740348816,-0.1514425724744796,-0.3319583535194397,0.0,0.0,-0.0485882353893005,0.9878687469857704
-0.0120058059692382,1.2359647750854492,0.0441214777529239,-0.5094555020332336,-0.1704495847225189,-0.3801750838756561,0.0,0.0,0.2774977832277852,0.7431115638742722
-0.011694336310029,1.2246044874191284,0.0517676062881946,-0.5073967576026917,-0.1911600977182388,-0.4142481386661529,0.0,0.0,0.066786667311792,-0.923789207007072
-0.0112682338804006,1.21336567401886,0.0614221319556236,-0.5020480155944824,-0.2101449072360992,-0.379730075597763,0.0,0.0,-0.8378090227173356,-0.8901632511619652
-0.0109143257141113,1.201549410820007,0.0525366142392158,-0.5276989340782166,-0.2275043278932571,-0.347219169139862,0.0,0.0,0.5056863088810131,0.943292902413524
-0.0102499965578317,1.1897926330566406,0.0853583216667175,-0.52555912733078,-0.2467478960752487,-0.3849065899848938,0.0,0.0,0.6455395421561361,0.8306939784419729
-0.0093782423064112,1.177833914756775,0.1076645851135253,-0.535077691078186,-0.2676703035831451,-0.4184848666191101,0.0,0.0,0.6934657204220829,-0.9238592679002732
-0.0085642812773585,1.1663322448730469,0.1002729535102844,-0.5147525668144226,-0.2870747447013855,-0.3881236612796783,0.0,0.0,0.9341548529527964,0.7879160233327983
-0.007645511534065,1.1554596424102783,0.1127289161086082,-0.4874772131443023,-0.3086011409759521,-0.4305270612239837,0.0,0.0,-0.9152167422703056,-0.7091867093267465
-0.0067864418961107,1.1440242528915403,0.1053605452179908,-0.5125055909156799,-0.3288113474845886,-0.4042039513587951,0.0,0.0,-0.8965161278702776,-0.5349798673160886
-0.0059832572005689,1.1320257186889648,0.0984890237450599,-0.5375081896781921,-0.3478085398674011,-0.3799436092376709,0.0,0.0,0.0954514512847435,-0.5688498585907655
-0.0051456452347338,1.120234489440918,0.1009326726198196,-0.5283111929893494,-0.3659049868583679,-0.361929714679718,0.0,0.0,-0.6619142919769232,0.6283473276723919
-0.0042745592072606,1.107822299003601,0.1054699197411537,-0.5564699172973633,-0.3853736817836761,-0.3893745541572571,0.0,0.0,-0.5511450283450277,-0.9550688268987534
-0.0034789084456861,1.09486722946167,0.0960918515920639,-0.5803478360176086,-0.4030418992042541,-0.3533636629581451,0.0,0.0,-0.6629869937896729,-0.9864594340324402
-0.0027772902976721,1.0813641548156738,0.0845488682389259,-0.6043100357055664,-0.418533980846405,-0.3098414838314056,0.0,0.0,-0.5319645404815674,-0.9901445508003236
-0.0021669387351721,1.0673279762268066,0.0732797384262085,-0.6275155544281006,-0.4317978918552398,-0.2652784287929535,0.0,0.0,-0.7933639287948608,-0.9817553162574768
-0.0016507148975506,1.052741289138794,0.061850182712078,-0.6514759063720703,-0.4429356455802917,-0.2227551043033599,0.0,0.0,-0.7514368295669556,-0.9910922646522522
-0.0012173652648925,1.0376087427139282,0.051780454814434,-0.6752607822418213,-0.4521797001361847,-0.184880331158638,0.0,0.0,-0.8761308193206787,-0.986674964427948
-0.00086536409799,1.0219351053237915,0.0418830327689647,-0.6987979412078857,-0.4595336019992828,-0.147078275680542,0.0,0.0,-0.5395138263702393,-0.979863166809082
-0.0006039619329385,1.0057129859924316,0.030980709940195,-0.7225936651229858,-0.4648741483688354,-0.1068106293678283,0.0,0.0,-0.8382704257965088,-0.9892095923423768
-0.0004233360232319,0.9889487624168396,0.0212401691824197,-0.7461370229721069,-0.468380868434906,-0.0701342299580574,0.0,0.0,-0.6416659355163574,-0.9858815670013428
-0.0003316879156045,0.9716524481773376,0.0104300882667303,-0.7691579461097717,-0.4697876274585724,-0.0281353630125522,0.0,0.0,-0.80218505859375,-0.992031991481781
-0.0003257751523051,0.9538098573684692,0.0001774367410689,-0.7928686141967773,-0.469326913356781,0.0092140035703778,0.0,0.0,-0.8510785102844238,-0.98126220703125
-0.0004187583981547,0.9354380965232848,-0.0118155749514698,-0.8156746625900269,-0.4665481746196747,0.0555747263133525,0.0,0.0,-0.8834059238433838,-0.991926610469818
-0.000589370727539,0.9165085554122924,-0.0209702998399734,-0.8400108218193054,-0.4622353017330169,0.086257517337799,0.0,0.0,-0.8213882446289062,-0.983817219734192
-0.0008438110235147,0.8970150947570801,-0.0308066308498382,-0.8646041750907898,-0.456324964761734,0.1182068735361099,0.0,0.0,-0.8870886564254761,-0.9890546202659608
-0.0011801719665527,0.8769654631614685,-0.0404961183667182,-0.8888728022575378,-0.4488036036491394,0.1504271030426025,0.0,0.0,-0.8647328019142151,-0.9453831315040588
-0.0016154289478436,0.8563603758811951,-0.0522022917866706,-0.9130217432975768,-0.4393033385276794,0.1900050938129425,0.0,0.0,-0.8823609352111816,-0.859851062297821
-0.0021342276595532,0.8351907134056091,-0.0620244443416595,-0.9377401471138,-0.4282713532447815,0.220640018582344,0.0,0.0,-0.9312241673469543,-0.8920841813087463
-0.0027371407486498,0.8134595155715942,-0.0719203352928161,-0.9623377323150636,-0.4156890511512756,0.2516458630561828,0.0,0.0,-0.6649149060249329,-0.8343580365180969
-0.0034348487388342,0.7911881804466248,-0.0832768231630325,-0.9859326481819152,-0.4011499881744385,0.2907811105251312,0.0,0.0,-0.1005594134330749,-0.3347936272621155
-0.0041593550704419,0.7683215737342834,-0.0859501287341117,-1.012545824050903,-0.38671875,0.2886239886283874,0.0,0.0,0.7180631160736084,-0.1728883981704712
-0.0047325133346021,0.7456068992614746,-0.0706913247704505,-1.0059735774993896,-0.3724960088729858,0.2844545841217041,0.0,0.0,0.5340393781661987,-0.5979964137077332
-0.0050504682585597,0.7229846715927124,-0.046611126512289,-1.0016502141952517,-0.3568252623081207,0.3134149014949798,0.0,0.0,0.6592642068862915,-0.0988302826881408
-0.0051932334899902,0.7008377909660339,-0.0288254376500844,-0.9807648062705994,-0.3415262103080749,0.3059808611869812,0.0,0.0,0.7795232534408569,-0.5254273414611816
-0.0051267622038722,0.6787282228469849,-0.0092673692852258,-0.9789746403694152,-0.3249081969261169,0.3323596119880676,0.0,0.0,0.9391145706176758,-0.5996283292770386
-0.0048315050080418,0.6573811173439026,0.012428262270987,-0.9450241327285768,-0.3071503639221191,0.3551565408706665,0.0,0.0,0.8717620372772217,-0.1095449328422546
-0.0042392732575535,0.6361533403396606,0.0413674749433994,-0.9397863745689392,-0.2887119054794311,0.3687695860862732,0.0,0.0,0.7018382549285889,-0.8561620116233826
-0.0037104606162756,0.615102231502533,0.0335115417838096,-0.9319018721580504,-0.268816202878952,0.3979141116142273,0.0,0.0,0.9305933713912964,-0.5662638545036316
-0.0028957366012036,0.5947813391685486,0.0606335401535034,-0.8994619846343994,-0.2475367933511734,0.4255881309509277,0.0,0.0,0.8726828098297119,-0.5905100703239441
-0.001809024834074,0.5749386548995972,0.0861914157867431,-0.8782764077186584,-0.2247079908847808,0.456576257944107,0.0,0.0,0.8580734729766846,-0.0951868295669555
-0.0004672050417866,0.5558306574821472,0.1112914681434631,-0.8459253311157227,-0.2015845477581024,0.4624689221382141,0.0,0.0,0.3967413902282715,-0.8369643092155457
0.0008389473077841,0.5371570587158203,0.1061075925827026,-0.8267859816551208,-0.1769512891769409,0.4926655888557434,0.0,0.0,0.803942084312439,-0.1927345395088195
0.002237033797428,0.5184755921363831,0.1150221079587936,-0.827521026134491,-0.1521499752998352,0.4960265755653381,0.0,0.0,0.8430293798446655,0.5042130947113037
0.003641128540039,0.5003842115402222,0.1170002445578575,-0.8018335103988647,-0.1287939101457595,0.4671216011047363,0.0,0.0,0.8926553726196289,0.0121930837631225
0.005226326175034,0.4825561642646789,0.1344446539878845,-0.7904574871063232,-0.1048696413636207,0.4784855246543884,0.0,0.0,0.8818600177764893,0.8871091604232788
0.0069478033110499,0.4651639461517334,0.1498273909091949,-0.7715690732002258,-0.082743301987648,0.4425269961357116,0.0,0.0,0.8517975807189941,0.5538156032562256
0.0087224962189793,0.4478406608104706,0.1562783867120742,-0.7688878178596497,-0.0617768354713916,0.4193294942378998,0.0,0.0,0.6990156173706055,0.4126653671264648
0.0103703495115041,0.4308464527130127,0.1442564874887466,-0.7545768022537231,-0.0414781011641025,0.4059746265411377,0.0,0.0,0.574134349822998,0.5157516002655029
0.0120772365480661,0.4144833385944366,0.1512013375759124,-0.7268251180648804,-0.0222229436039924,0.3851035833358764,0.0,0.0,0.8118287324905396,0.4685966968536377
0.0138433454558253,0.3980047702789306,0.1567543298006057,-0.7322012186050415,-0.0026249724905937,0.3919591009616852,0.0,0.0,0.9001152515411377,0.8616737127304077
0.0156760215759277,0.382414847612381,0.1651481837034225,-0.6929501295089722,0.0152556030079722,0.3576116561889648,0.0,0.0,0.9097561836242676,0.8350000381469727
0.0174085609614849,0.3670462965965271,0.157142162322998,-0.6832927465438843,0.0311645548790693,0.3181794285774231,0.0,0.0,0.6362817287445068,0.0868961811065673
0.0189902298152446,0.3520837128162384,0.1425555646419525,-0.6654006838798523,0.0465885773301124,0.3084806501865387,0.0,0.0,0.4003297090530395,0.5514063835144043
0.0205798149108886,0.3373222053050995,0.1444655954837799,-0.6565834879875183,0.060918815433979,0.2866048812866211,0.0,0.0,0.6935610771179199,0.7756924629211426
0.0219931602478027,0.3232617080211639,0.1287537068128585,-0.6254666447639465,0.0733651518821716,0.248926967382431,0.0,0.0,0.7605868577957153,0.8287481069564819
0.0234731677919626,0.3095418810844421,0.1369816809892654,-0.6103416681289673,0.0842681154608726,0.2180593460798263,0.0,0.0,0.8574135303497314,0.37165367603302
0.0248383525758981,0.2958776950836181,0.1257429420948028,-0.6079390048980713,0.094945952296257,0.2135568857192993,0.0,0.0,0.921013355255127,0.8645775318145752
0.0262825973331928,0.2821937799453735,0.1352721154689788,-0.6087813973426819,0.1040288135409355,0.1816571205854416,0.0,0.0,0.9303152561187744,0.6361643075942993
0.0276565551757812,0.2684994339942932,0.1296715587377548,-0.6091950535774231,0.1116995960474014,0.1534155905246734,0.0,0.0,0.7509887218475342,0.5468075275421143
0.0289295203983783,0.2554710507392883,0.1207493096590042,-0.5795449614524841,0.1182143613696098,0.1302953064441681,0.0,0.0,0.9338822364807128,0.5031999349594116
0.0301868431270122,0.2432966083288192,0.1199246793985366,-0.5415571331977844,0.1239897012710571,0.1155068054795265,0.0,0.0,0.6578779220581055,0.3506562709808349
0.0311903953552246,0.231724202632904,0.0951021015644073,-0.5147791504859924,0.1292162388563156,0.1045306548476219,0.0,0.0,0.917933464050293,0.5402406454086304
0.0319885239005088,0.2200974375009536,0.0761318579316139,-0.5170674920082092,0.132880300283432,0.073281280696392,0.0,0.0,0.9687371253967284,0.8638262748718262
0.0327403061091899,0.2093046456575393,0.073145106434822,-0.4798632264137268,0.1349033266305923,0.0404604747891426,0.0,0.0,0.977929949760437,-0.7614805698394775
0.0331687927246093,0.198898896574974,0.0396030135452747,-0.462772399187088,0.1381296813488006,0.0645274296402931,0.0,0.0,0.978687047958374,0.3786596059799194
0.0333795547485351,0.1890874505043029,0.0181549098342657,-0.4363366663455963,0.1410444229841232,0.0582947544753551,0.0,0.0,0.9436266422271729,0.6523058414459229
0.0334696769714355,0.1799104362726211,0.0074390200898051,-0.4080162048339844,0.1426115483045578,0.0313423611223697,0.0,0.0,0.933445692062378,0.0192344188690185
0.0335232727229595,0.17116779088974,0.0033046379685401,-0.3887576758861542,0.1446531414985656,0.0408317670226097,0.0,0.0,0.9909777641296388,-0.2272844314575195
0.0335047729313373,0.162445455789566,-0.0040370216593146,-0.3878763318061828,0.1468347012996673,0.0436310805380344,0.0,0.0,0.9683825969696044,0.0170691013336181
0.0334845557808876,0.1538608819246292,-0.0047258250415325,-0.3818053901195526,0.1495406031608581,0.0541181787848472,0.0,0.0,0.9173750877380372,0.785693883895874
0.0335702896118164,0.1457162648439407,0.0070060170255601,-0.3621392250061035,0.1510991901159286,0.0311719235032796,0.0,0.0,0.8894309997558594,0.1459411382675171
0.0337050445377826,0.1376782953739166,0.0111485747620463,-0.357481449842453,0.153418943285942,0.0463949218392372,0.0,0.0,0.9812012910842896,0.0963349342346191
0.0336547866463661,0.1303760409355163,-0.007344945333898,-0.3247867822647095,0.155736356973648,0.0463483855128288,0.0,0.0,0.8509154319763184,0.8601882457733154
0.0335363373160362,0.1237659305334091,-0.0125370817258954,-0.2938547730445862,0.1564348042011261,0.0139686940237879,0.0,0.0,0.9346117973327636,0.8459436893463135
0.0334793105721473,0.1177710145711898,-0.0050690313801169,-0.2663731873035431,0.1558020859956741,-0.0126545401290059,0.0,0.0,0.7409712076187134,0.6634058952331543
0.0334948524832725,0.1117197349667549,0.0032025999389588,-0.2687749564647674,0.15415920317173,-0.0328583605587482,0.0,0.0,0.9177277088165284,-0.5955384969711304
0.033268928527832,0.1059187948703765,-0.0220123492181301,-0.257757693529129,0.1535800397396087,-0.0115833049640059,0.0,0.0,0.5235464572906494,0.8642854690551758
0.0330345146358013,0.100745141506195,-0.0213059857487678,-0.229722648859024,0.1514377295970916,-0.0428462475538253,0.0,0.0,0.1643400192260742,0.7942231893539429
0.0327431671321392,0.0955777764320373,-0.0254381261765956,-0.2292902767658233,0.1477507799863815,-0.0737388283014297,0.0,0.0,0.3640227317810058,-0.0830795168876648
0.0322139747440815,0.0907641723752021,-0.0488067120313644,-0.2135380357503891,0.1436517685651779,-0.081980176270008,0.0,0.0,0.0484795570373535,0.8647522926330566
0.0317138656973838,0.0860430598258972,-0.0442454256117343,-0.2092804461717605,0.1378943920135498,-0.1151473894715309,0.0,0.0,0.3938155174255371,0.5457416772842407
0.0310813896358013,0.0816674828529357,-0.0563294664025306,-0.1938481926918029,0.1310039013624191,-0.1378097832202911,0.0,0.0,-0.0660013556480407,0.847597599029541
0.0304667465388774,0.0767117589712143,-0.053136546164751,-0.2195457518100738,0.1227253377437591,-0.1655710935592651,0.0,0.0,0.649766206741333,0.8764514923095703
0.0297943111509084,0.0719039514660835,-0.0571941062808036,-0.212885171175003,0.1127347648143768,-0.1998116225004196,0.0,0.0,0.1715223789215088,0.8793219327926636
0.0290090553462505,0.0671314820647239,-0.0667346119880676,-0.2112621665000915,0.1010293215513229,-0.2341088503599167,0.0,0.0,-0.2750791311264038,0.7170828580856323
0.0282282829284667,0.0617675632238388,-0.0652772337198257,-0.2375798374414444,0.0883379951119422,-0.2538265585899353,0.0,0.0,0.1524672508239746,0.3710387945175171
0.0274393074214458,0.0565662235021591,-0.0665168836712837,-0.2304846793413162,0.076077714562416,-0.2452058047056198,0.0,0.0,0.1896963119506836,-0.0788958072662353
0.0266370773315429,0.0511709786951541,-0.0681346505880355,-0.2392158210277557,0.064113974571228,-0.2392747104167938,0.0,0.0,0.3166218996047973,0.2118381261825561
0.0258745197206735,0.0461004599928855,-0.0647906437516212,-0.2249016463756561,0.0527798347175121,-0.2266827076673507,0.0,0.0,0.6398351192474365,-0.6231260299682617
0.0249611847102642,0.041586335748434,-0.0811593011021614,-0.2002997696399688,0.0427243299782276,-0.2011100053787231,0.0,0.0,0.2138594388961792,0.410932183265686
0.0240901000797748,0.0374228321015834,-0.0775235667824745,-0.1848007589578628,0.0332535617053508,-0.1894154995679855,0.0,0.0,-0.0297517776489257,0.0946488380432128
0.0231838226318359,0.0326621644198894,-0.0811409652233123,-0.2114018946886062,0.0238848570734262,-0.1873738914728164,0.0,0.0,0.679246187210083,-0.491205096244812
0.0222157482057809,0.0285485833883285,-0.0873812288045883,-0.1827047616243362,0.0145863937214016,-0.185969665646553,0.0,0.0,0.3344204425811767,-0.0718555450439453
0.0212535858154296,0.0247929189354181,-0.0871410146355629,-0.1668568104505539,0.0056204251013696,-0.1793191134929657,0.0,0.0,0.3896911144256592,-0.2155671715736389
0.0203235633671283,0.0210189446806907,-0.0843372419476509,-0.1677230149507522,-0.0029245112091302,-0.1708984673023224,0.0,0.0,0.011745810508728,-0.0235403776168823
0.0192872043699026,0.0172160007059574,-0.0947372466325759,-0.1690657436847686,-0.0117067573592066,-0.1756453067064285,0.0,0.0,0.4677443504333496,-0.3167290687561035
0.0181103702634573,0.0135036800056695,-0.1083688363432884,-0.1650953143835067,-0.0209059957414865,-0.1839847862720489,0.0,0.0,0.4058239459991455,-0.3594682216644287
0.0168941505253314,0.0099139902740716,-0.112332597374916,-0.1596994549036026,-0.0300783906131982,-0.1834479868412017,0.0,0.0,0.7112369537353516,-0.0923953056335449
0.0156912803649902,0.0065541840158402,-0.1112451925873756,-0.1495322734117508,-0.0390137955546379,-0.1787078976631164,0.0,0.0,0.3258833885192871,0.3347159624099731
0.0145750045776367,0.0030233596917241,-0.1031862050294876,-0.1571672707796096,-0.0473510026931762,-0.1667439192533493,1.0,0.0,0.660700798034668,0.6985080242156982
0.0137043949216604,0.0003483748296275,-0.0883659571409225,-0.1190316379070282,-0.0454160794615745,0.0395285561680793,1.0,0.0,0.6564164161682129,0.7367899417877197
0.0130530353635549,-0.0012292647734284,-0.0795798972249031,-0.069750539958477,-0.0311150103807449,0.2860597670078277,1.0,0.0,0.5319983959197998,0.922248125076294
0.0126151088625192,-0.0026077413931488,-0.0671920478343963,-0.0609454549849033,-0.0079785492271184,0.4627618789672851,1.0,0.0,0.1897658109664917,0.8567873239517212
