x_pos,y_pos,x_vel,y_vel,angle,ang_vel,leg_1,leg_2,main_booster,lat_booster
-0.0016052245628088,1.4030663967132568,-0.1620732843875885,-0.3490524590015411,0.0013825390487909,0.0272435899823904,0.0,0.0,0.1389080286026001,0.8015086650848389
-0.0031883239280432,1.395151138305664,-0.1576486080884933,-0.3517897725105285,0.0007315938128158,-0.0130196092650294,0.0,0.0,-0.2477139234542846,0.7896113395690918
-0.0047760964371263,1.386671543121338,-0.1557362973690033,-0.3768693804740906,-0.0022804422769695,-0.0602465346455574,0.0,0.0,0.1932902336120605,-0.4668806791305542
-0.0065287589095532,1.3781757354736328,-0.1713418215513229,-0.3776027262210846,-0.0061643421649932,-0.077685035765171,0.0,0.0,0.326904296875,0.3091515302658081
-0.0082532884553074,1.369906663894653,-0.1685624569654464,-0.3675352334976196,-0.0100170522928237,-0.0770611464977264,0.0,0.0,-0.3538437485694885,0.5550054311752319
-0.0100020412355661,1.3610782623291016,-0.1691437661647796,-0.3924228847026825,-0.015687895938754,-0.1134271174669265,0.0,0.0,-0.2540645599365234,0.4735854864120483
-0.0118275638669729,1.3516924381256104,-0.1763376742601394,-0.4172240793704986,-0.0218315571546554,-0.1228845492005348,0.0,0.0,0.020498514175415,0.7204773426055908
-0.013556957244873,1.3423454761505127,-0.1648879945278167,-0.4155580103397369,-0.0297930967062711,-0.1592456251382827,0.0,0.0,-0.3726957440376282,0.4745330810546875
-0.015360927209258,1.3324414491653442,-0.1718547344207763,-0.4403705894947052,-0.0382352545857429,-0.1688586920499801,0.0,0.0,-0.2728556394577026,0.6586899757385254
-0.017186164855957,1.3219820261001587,-0.1721962243318557,-0.4651599526405334,-0.0484651736915111,-0.2046173512935638,0.0,0.0,-0.2998968362808227,0.6077440977096558
-0.0190289504826068,1.3109629154205322,-0.1720576137304306,-0.4901743233203888,-0.0605589374899864,-0.2418977916240692,0.0,0.0,0.5126969814300537,0.8354853391647339
-0.0207752231508493,1.3000986576080322,-0.1603574007749557,-0.4835025370121002,-0.0746879503130912,-0.2826064527034759,0.0,0.0,-0.0768196582794189,0.4364068508148193
-0.0225907322019338,1.2886792421340942,-0.166810393333435,-0.5083292722702026,-0.0893088355660438,-0.2924442887306213,0.0,0.0,-0.2741621136665344,-0.3658393025398254
-0.0244742389768362,1.2767055034637451,-0.173126146197319,-0.5331500768661499,-0.1044244095683097,-0.302339494228363,0.0,0.0,0.2444612979888916,0.5823631286621094
-0.0261969566345214,1.2650843858718872,-0.1556456685066223,-0.517734169960022,-0.1209630966186523,-0.330804169178009,0.0,0.0,-0.6024150252342224,-0.5184532403945923
-0.0280183795839548,1.2529094219207764,-0.1658918857574463,-0.5425025820732117,-0.13715760409832,-0.3239196836948395,0.0,0.0,0.0102452039718627,-0.7514294981956482
-0.0297927856445312,1.2409588098526,-0.1622747033834457,-0.5326077342033386,-0.1522966623306274,-0.302809327840805,0.0,0.0,-0.4174075126647949,-0.5969846248626709
-0.0316651351749897,1.22845721244812,-0.1725224256515503,-0.5572091937065125,-0.1670304983854293,-0.2947032153606415,0.0,0.0,0.4395157098770141,-0.6008896827697754
-0.0334367752075195,1.2164299488067627,-0.1633794158697128,-0.5361471176147461,-0.1808600574731826,-0.2766165435314178,0.0,0.0,0.3304134607315063,-0.6689267754554749
-0.0353079810738563,1.2045540809631348,-0.1740878522396087,-0.5294653177261353,-0.1939794421195984,-0.2624110877513885,0.0,0.0,0.3004293441772461,-0.9752553701400756
-0.0370823852717876,1.1929898262023926,-0.1659344136714935,-0.5155192017555237,-0.2055891454219818,-0.2322145253419876,0.0,0.0,-0.7141191363334656,-0.4193843603134155
-0.0389124862849712,1.1808702945709229,-0.1710285246372223,-0.5403490662574768,-0.2177064418792724,-0.2423676699399948,0.0,0.0,-0.8416775465011597,-0.5544336438179016
-0.0408301353454589,1.1682065725326538,-0.1801737844944,-0.5645853281021118,-0.2294560372829437,-0.2350126504898071,0.0,0.0,0.3390576839447021,-0.8409577012062073
-0.0427458770573139,1.1553488969802856,-0.1812399327754974,-0.5730922818183899,-0.2399603724479675,-0.2101053297519683,0.0,0.0,-0.5975477695465088,-0.6563009023666382
-0.044774055480957,1.141960620880127,-0.1936129629611969,-0.5965665578842163,-0.2493352741003036,-0.1875146180391311,0.0,0.0,0.4261643886566162,-0.9099546670913696
-0.0469121932983398,1.1289637088775637,-0.2057899534702301,-0.5790203809738159,-0.257513552904129,-0.1635657697916031,0.0,0.0,0.7415010929107666,-0.9338428378105164
-0.0489684119820594,1.1165541410446167,-0.1989776790142059,-0.5527203679084778,-0.2643012404441833,-0.1357536613941192,0.0,0.0,0.3407545089721679,-0.9519949555397034
-0.0510838516056537,1.1046453714370728,-0.2062415182590484,-0.5302475690841675,-0.2697350978851318,-0.1086769253015518,0.0,0.0,0.5928448438644409,-0.961926519870758
-0.053252886980772,1.0933550596237185,-0.2128471583127975,-0.5025394558906555,-0.2738822996616363,-0.0829439908266067,0.0,0.0,0.0768507719039917,-0.5773400664329529
-0.0554367080330848,1.081990361213684,-0.2149615585803985,-0.5057433843612671,-0.2773931324481964,-0.0702159255743026,0.0,0.0,0.6815230846405029,-0.6667699813842773
-0.0574539192020893,1.071332931518555,-0.1991705596446991,-0.4741446375846863,-0.2800071239471435,-0.0522797293961048,0.0,0.0,0.6613407135009766,-0.7282630801200867
-0.0595257766544818,1.060810089111328,-0.2054212391376495,-0.4680258929729461,-0.281826376914978,-0.0363859012722969,0.0,0.0,0.6710739135742188,-0.2829564809799194
-0.0614889152348041,1.050934076309204,-0.1936682611703872,-0.4394412338733673,-0.2845384180545807,-0.0542405769228935,0.0,0.0,0.495589017868042,0.3269737958908081
-0.0634503364562988,1.0409966707229614,-0.1927523612976074,-0.4423335790634155,-0.288022369146347,-0.069678746163845,0.0,0.0,0.0647103786468505,-0.0379714965820312
-0.0653196349740028,1.031079888343811,-0.1831021755933761,-0.4414988458156585,-0.2919611036777496,-0.0787748172879219,0.0,0.0,0.1743190288543701,-0.654956579208374
-0.0670995712280273,1.0214003324508667,-0.1750085055828094,-0.4308059811592102,-0.295045793056488,-0.0616937987506389,0.0,0.0,0.0848475694656372,-0.3322257995605469
-0.0688383132219314,1.011601448059082,-0.1703201085329055,-0.4362310469150543,-0.2987093031406402,-0.0732704326510429,0.0,0.0,0.0028086900711059,-0.6028891205787659
-0.0704878792166709,1.001922845840454,-0.1621488630771637,-0.4307408332824707,-0.3016090989112854,-0.057996105402708,0.0,0.0,-0.9152098894119264,-0.6707782745361328
-0.0722152739763259,0.9917202591896056,-0.1708687096834182,-0.4538317024707794,-0.3035410046577453,-0.0386379584670066,0.0,0.0,0.2945926189422607,-0.823530375957489
-0.0738617926836013,0.9816623330116272,-0.163954347372055,-0.4471641182899475,-0.304262638092041,-0.0144325224682688,0.0,0.0,-0.1786460280418396,-0.460475206375122
-0.0755305290222168,0.9710483551025392,-0.1657061427831649,-0.4719766676425934,-0.3054717779159546,-0.0241825953125953,0.0,0.0,0.341165542602539,-0.8044984340667725
-0.0770448669791221,0.9604620337486268,-0.1515030115842819,-0.4704879820346832,-0.3054009079933166,0.0014174906536936,0.0,0.0,0.5128939151763916,-0.5439960956573486
-0.0784425735473632,0.9497008323669434,-0.1406535506248474,-0.4780872464179992,-0.304475724697113,0.0185034051537513,0.0,0.0,0.2702442407608032,-0.40344899892807
-0.079662799835205,0.9389308094978333,-0.1228033453226089,-0.4785047471523285,-0.30367311835289,0.0160522870719432,0.0,0.0,-0.0751465559005737,-0.8421418070793152
-0.0809685736894607,0.92762690782547,-0.1326514482498169,-0.5019601583480835,-0.3015219867229461,0.0430221930146217,0.0,0.0,0.0642436742782592,-0.9225707054138184
-0.0822624191641807,0.9160830974578856,-0.1328173577785492,-0.5123517513275146,-0.2979757487773895,0.0709247142076492,0.0,0.0,0.6378569602966309,-0.7076958417892456
-0.0834299102425575,0.904610276222229,-0.1212576478719711,-0.5089871883392334,-0.2933211624622345,0.093091532588005,0.0,0.0,-0.0607210993766784,-0.4431908726692199
-0.0846088379621505,0.8925814032554626,-0.1219663992524147,-0.5338001251220703,-0.2891220450401306,0.0839822366833686,0.0,0.0,0.3975410461425781,-0.5984130501747131
-0.0857693701982498,0.8810325860977173,-0.1206424683332443,-0.5123744010925293,-0.2844030857086181,0.0943789631128311,0.0,0.0,-0.335295557975769,-0.6554096341133118
-0.0869903564453125,0.8689484596252441,-0.1276029050350189,-0.5360068082809448,-0.2787522077560425,0.1130175739526748,0.0,0.0,-0.7659045457839966,-0.549712598323822
-0.0882507339119911,0.8563220500946045,-0.1319438368082046,-0.5600629448890686,-0.2726889252662658,0.1212658286094665,0.0,0.0,-0.8380361199378967,-0.4256914258003235
-0.0895173996686935,0.8431394696235657,-0.1321709156036377,-0.5848758816719055,-0.2670556306838989,0.1126659885048866,0.0,0.0,-0.5282431840896606,-0.0698668956756591
-0.0907894149422645,0.8294008374214172,-0.1322921514511108,-0.6096879839897156,-0.2618451416492462,0.1042104214429855,0.0,0.0,-0.7683085799217224,-0.3271492123603821
-0.0920655280351638,0.8151058554649353,-0.1323137879371643,-0.6344994902610779,-0.2570498585700989,0.0959055721759796,0.0,0.0,-0.8845431208610535,-0.229668378829956
-0.09334497153759,0.8002544641494751,-0.1322421580553054,-0.6593102216720581,-0.2526619434356689,0.0877580642700195,0.0,0.0,-0.4906569719314575,-0.7226189374923706
-0.0946911796927452,0.7848684191703796,-0.1401899605989456,-0.6828728318214417,-0.246983602643013,0.1135669201612472,0.0,0.0,-0.5474503636360168,-0.638599693775177
-0.096078872680664,0.7689475417137146,-0.1450469493865966,-0.7065580487251282,-0.2406023740768432,0.1276246756315231,0.0,0.0,-0.3651295304298401,0.4827336072921753
-0.0974671393632888,0.7524703741073608,-0.1447351276874542,-0.7313692569732666,-0.2346029728651046,0.1199879050254821,0.0,0.0,0.3894999027252197,0.7333259582519531
-0.0985687226057052,0.7364094257354736,-0.1143512949347496,-0.7131516933441162,-0.2303420454263687,0.0852183029055595,0.0,0.0,-0.467613935470581,-0.487128734588623
-0.0996693596243858,0.7197920680046082,-0.1139111369848251,-0.7379604578018188,-0.2264443784952163,0.0779532790184021,0.0,0.0,-0.4555908441543579,0.1746531724929809
-0.1007685661315918,0.7026177644729614,-0.1134170144796371,-0.762768566608429,-0.222900241613388,0.0708828344941139,0.0,0.0,0.7561302185058594,-0.7507355809211731
-0.1018715873360633,0.686039388179779,-0.1147254258394241,-0.7361527681350708,-0.2184256911277771,0.0894912406802177,0.0,0.0,-0.2788763642311096,0.0023195743560791
-0.1029720306396484,0.668904185295105,-0.1141436547040939,-0.7609606981277466,-0.2142843902111053,0.082825943827629,0.0,0.0,0.5351095199584961,-0.3606444597244262
-0.1039269417524337,0.6520400047302246,-0.0993757545948028,-0.7489640712738037,-0.2103645652532577,0.0783968046307563,0.0,0.0,0.916523575782776,-0.0680965781211853
-0.1047725677490234,0.6352980136871338,-0.0881754383444786,-0.7435750961303711,-0.2067147642374038,0.0729959458112716,0.0,0.0,0.5918357372283936,-0.6237326860427856
-0.1056723594665527,0.6188904643058777,-0.0942531526088714,-0.7286337614059448,-0.2024055868387222,0.086183525621891,0.0,0.0,0.4412633180618286,-0.3874938488006592
-0.106399729847908,0.6030173301696777,-0.0768162086606025,-0.704924464225769,-0.1982997357845306,0.0821172446012497,0.0,0.0,0.3767915964126587,-0.354634165763855
-0.1070079803466796,0.586925208568573,-0.0649366527795791,-0.7146583795547485,-0.1941560804843902,0.0828729644417762,0.0,0.0,0.6949267387390137,-0.9504041075706482
-0.1074845343828201,0.5715886950492859,-0.0534616708755493,-0.6808761358261108,-0.1883210241794586,0.1167012006044387,0.0,0.0,-0.1807438135147094,0.3365390300750732
-0.1079566925764083,0.555695116519928,-0.0527807995676994,-0.705683171749115,-0.1827415972948074,0.1115887984633445,0.0,0.0,0.6508654356002808,-0.6661073565483093
-0.108451172709465,0.5402869582176208,-0.0558775290846824,-0.6840295791625977,-0.1762888580560684,0.1290548145771026,0.0,0.0,0.5554616451263428,0.0994791984558105
-0.108810044825077,0.5251795649528503,-0.0422307774424552,-0.6707027554512024,-0.1699343174695968,0.1270906776189804,0.0,0.0,0.6173357963562012,0.2045098543167114
-0.1091492623090744,0.5107691884040833,-0.0394661799073219,-0.6398322582244873,-0.1643834859132766,0.1110170260071754,0.0,0.0,-0.4794202446937561,0.6997559070587158
-0.1094232574105262,0.4957864582538605,-0.0311768017709255,-0.6654885411262512,-0.160613551735878,0.0753988102078437,0.0,0.0,0.7841184139251709,-0.6576247811317444
-0.1097168922424316,0.4808884859085083,-0.0341484509408474,-0.6616197228431702,-0.1558213829994201,0.0958434864878654,0.0,0.0,0.9429147243499756,0.0355355739593505
-0.1098687201738357,0.465981125831604,-0.0201662741601467,-0.6620365977287292,-0.1508441418409347,0.0995449423789978,0.0,0.0,0.8589624166488647,-0.1809064149856567
-0.1099953651428222,0.4510907828807831,-0.0173061303794384,-0.6613292694091797,-0.1462043970823288,0.0927945524454116,0.0,0.0,0.810961127281189,-0.1916749477386474
-0.1100016608834266,0.4369353055953979,-0.0050854054279625,-0.6287038922309875,-0.1417684406042099,0.0887190923094749,0.0,0.0,0.6965001821517944,-0.5048977732658386
-0.1098400130867958,0.4234612286090851,0.0106087950989604,-0.5983294248580933,-0.1362243443727493,0.1108814850449562,0.0,0.0,0.8579196929931641,0.1958668231964111
-0.1096769347786903,0.4108213782310486,0.0114690689370036,-0.561336874961853,-0.1314022541046142,0.0964420214295387,0.0,0.0,-0.2700315713882446,-0.2337684631347656
-0.1095128059387207,0.3976240456104278,0.0116908671334385,-0.586140513420105,-0.1267070919275283,0.0939033180475235,0.0,0.0,0.5751228332519531,-0.5142396688461304
-0.1092521697282791,0.3849951326847076,0.0203122552484273,-0.560808539390564,-0.1209895983338356,0.1143498793244361,0.0,0.0,0.8020114898681641,0.2955383062362671
-0.1090258583426475,0.3727633953094482,0.017499353736639,-0.5432233214378357,-0.1158880740404129,0.1020305380225181,0.0,0.0,0.5815762281417847,0.577953577041626
-0.1087363213300705,0.3609452247619629,0.0252175629138946,-0.5249683260917664,-0.1121706515550613,0.0743486508727073,0.0,0.0,-0.1111084818840026,0.1207135915756225
-0.108448602259159,0.3485693037509918,0.025108803063631,-0.5497704744338989,-0.1085366606712341,0.0726797953248024,0.0,0.0,0.6713638305664062,-0.2183247208595276
-0.1080121994018554,0.3364990055561065,0.0396419167518615,-0.5361725091934204,-0.1045677587389946,0.0793780237436294,0.0,0.0,0.7815356254577637,0.4942219257354736
-0.1075155287981033,0.3244176208972931,0.0456170924007892,-0.5366710424423218,-0.1005437299609184,0.0804805755615234,0.0,0.0,0.7757346630096436,-0.1298156380653381
-0.1068806648254394,0.3124094903469085,0.0590137466788291,-0.533403754234314,-0.0961118414998054,0.0886375457048416,0.0,0.0,0.7523266077041626,-0.4695384502410888
-0.106037899851799,0.3007255792617798,0.0791226476430893,-0.5189656019210815,-0.0910020545125007,0.1021959409117698,0.0,0.0,0.2131978273391723,-0.0144409537315368
-0.1050734519958496,0.2889026701450348,0.0908514708280563,-0.5251320600509644,-0.0854535326361656,0.1109702587127685,0.0,0.0,0.5196300745010376,-0.2205840349197387
-0.1040626540780067,0.2775555849075317,0.0955224260687828,-0.5040076375007629,-0.0799551010131836,0.1099684685468673,0.0,0.0,0.1670854091644287,-0.0562913417816162
-0.1029959693551063,0.266449511051178,0.1010303869843483,-0.4933125078678131,-0.0743730515241622,0.1116410121321678,0.0,0.0,-0.0054587721824646,-0.0363354682922363
-0.1019391044974327,0.2547858357429504,0.10006083548069,-0.5181154012680054,-0.0688003972172737,0.1114529371261596,0.0,0.0,0.7194063663482666,-0.284558892250061
-0.1007650345563888,0.2430621534585952,0.1112866774201393,-0.5207818150520325,-0.0627438873052597,0.1211302056908607,0.0,0.0,0.588482141494751,0.2163867950439453
-0.0996227264404296,0.2315187007188797,0.1083368211984634,-0.5128069519996643,-0.0569153390824794,0.1165710538625717,0.0,0.0,0.8536584377288818,0.1919461488723755
-0.0983437523245811,0.2208593934774398,0.1215413585305213,-0.4735229611396789,-0.0506348013877868,0.1256108433008194,0.0,0.0,0.2887862920761108,-0.42598557472229
-0.0970748886466026,0.2103089392185211,0.1205888241529464,-0.4687081277370453,-0.0444190539419651,0.1243149787187576,0.0,0.0,0.4534236192703247,-0.5532805323600769
-0.0959527045488357,0.2002656757831573,0.1050682514905929,-0.4461729824542999,-0.0373550914227962,0.1412791907787323,0.0,0.0,0.2047446966171264,0.150576114654541
-0.0947650894522667,0.1904242634773254,0.1112862080335617,-0.4372267127037048,-0.0299661550670862,0.147778645157814,0.0,0.0,-0.2304953336715698,-0.6739192008972168
-0.0936535820364952,0.1800332367420196,0.1021517291665077,-0.4616691768169403,-0.0210803635418415,0.1777154803276062,0.0,0.0,0.6428461074829102,0.7065452337265015
-0.0925798416137695,0.1702078431844711,0.0999491363763809,-0.4365975558757782,-0.0137451458722352,0.1467044204473495,0.0,0.0,0.3664284944534302,0.4678008556365967
-0.0915417671203613,0.1604433208703994,0.096430480480194,-0.4339297711849212,-0.006458708550781,0.1457286775112152,0.0,0.0,0.360808253288269,0.7917799949645996
-0.0905680656433105,0.1508656144142151,0.0916749089956283,-0.4256640076637268,-0.0008357245824299,0.1124595999717712,0.0,0.0,0.2043704986572265,0.7900271415710449
-0.0896801948547363,0.1413010656833648,0.0847471505403518,-0.4250898361206054,0.0031556850299239,0.0798279643058776,0.0,0.0,0.7634793519973755,0.0865924358367919
-0.0887062102556228,0.1323300451040268,0.092762753367424,-0.3987326622009277,0.0077277198433876,0.091440662741661,0.0,0.0,0.234897494316101,0.9363911151885986
-0.0876326560974121,0.1232080310583114,0.1045179963111877,-0.4054374098777771,0.010520820505917,0.0558621957898139,0.0,0.0,0.7188680171966553,0.4420130252838135
-0.0864438042044639,0.1147210896015167,0.1152869239449501,-0.3772245347499847,0.0140750771388411,0.0710850656032562,0.0,0.0,0.3521267175674438,0.4828505516052246
-0.0853110328316688,0.1066285446286201,0.1097004413604736,-0.3597064614295959,0.0176078267395496,0.0706551074981689,0.0,0.0,0.2544293403625488,-0.2782078981399536
-0.0841109305620193,0.0989541411399841,0.1158481240272522,-0.3411396741867065,0.0217084847390651,0.0820131674408912,0.0,0.0,0.2374041080474853,0.6262685060501099
-0.0828382521867752,0.0913766473531723,0.1241956129670143,-0.3368247151374817,0.0247380807995796,0.0605920366942882,0.0,0.0,0.0587848424911499,-0.8488297462463379
-0.0816834419965744,0.0840318277478218,0.1106380671262741,-0.3265238404273987,0.0295226890593767,0.0956919491291046,0.0,0.0,0.3271362781524658,0.9305739402770996
-0.0804510116577148,0.0770917013287544,0.1201619356870651,-0.3085126876831054,0.0325635522603988,0.0608175098896026,0.0,0.0,0.1325281858444214,0.7226542234420776
-0.0791432410478591,0.0700671076774597,0.1290185153484344,-0.3122417330741882,0.0342997051775455,0.034723125398159,0.0,0.0,0.6960247755050659,-0.4352083206176758
-0.078018382191658,0.0634296759963035,0.1112454310059547,-0.2950252890586853,0.035523772239685,0.0244814772158861,0.0,0.0,0.5588661432266235,-0.3046061992645263
-0.0770686119794845,0.0569559670984745,0.0942355543375015,-0.287739485502243,0.0362554974853992,0.0146342385560274,0.0,0.0,0.7207317352294922,0.3395273685455322
-0.0762004852294921,0.0508031211793422,0.0861145555973053,-0.2734752595424652,0.0369501039385795,0.013892138376832,0.0,0.0,0.3414263725280761,0.890395998954773
-0.0752926841378212,0.0447452627122402,0.0917810350656509,-0.2692167460918426,0.035959780216217,-0.0198064260184764,0.0,0.0,0.650059700012207,0.2390885353088379
-0.0743074417114257,0.0386747457087039,0.0988494902849197,-0.2697917222976684,0.0356357432901859,-0.0064806723967194,0.0,0.0,0.8595194816589355,0.3554749488830566
-0.0732810050249099,0.0332058295607566,0.1023958325386047,-0.2430692464113235,0.0358797051012516,0.0048791044391691,0.0,0.0,0.3903391361236572,0.5937172174453735
-0.0722511261701583,0.0282059758901596,0.1038371548056602,-0.2221960872411728,0.0350480116903781,-0.0166338626295328,0.0,0.0,0.4763628244400024,0.4548068046569824
