x_pos,y_pos,x_vel,y_vel,angle,ang_vel,leg_1,leg_2,main_booster,lat_booster
-0.0015424728626385,1.4030611515045166,-0.15606389939785,-0.3492899537086487,0.0016157610807567,0.0318618789315223,0.0,0.0,-0.2311770915985107,0.5498356819152832
-0.0030578612349927,1.3946592807769775,-0.1517648845911026,-0.3734144270420074,0.0018423188012093,0.004532195162028,0.0,0.0,0.1169564723968505,0.7090554237365723
-0.0044353483244776,1.3860985040664673,-0.1365089267492294,-0.3804762959480285,0.0006241881637834,-0.0243647880852222,0.0,0.0,0.1299468278884887,0.234825849533081
-0.0059146881103515,1.3774868249893188,-0.1461445391178131,-0.3827444016933441,-0.0011491895420476,-0.0354710258543491,0.0,0.0,-0.1575671434402465,0.5903847217559814
-0.0073582651093602,1.368313550949097,-0.1409719288349151,-0.4077099561691284,-0.0045032803900539,-0.0670880079269409,0.0,0.0,-0.0202789902687072,0.916946291923523
-0.0087343212217092,1.3585752248764038,-0.1317934840917587,-0.4328400492668152,-0.0102456733584404,-0.1148587465286254,0.0,0.0,0.4680142402648926,0.7153494358062744
-0.0100921634584665,1.3490432500839231,-0.1283332407474517,-0.4237088561058044,-0.0176061056554317,-0.1472220867872238,0.0,0.0,-0.3776741027832031,0.3629170656204223
-0.0114714624360203,1.3389486074447632,-0.1303151249885559,-0.448758602142334,-0.0251242071390151,-0.1503762602806091,0.0,0.0,0.1333804130554199,-0.2769680023193359
-0.0128662111237645,1.3291527032852173,-0.1316708028316497,-0.4355270564556122,-0.032838374376297,-0.1542978137731552,0.0,0.0,-0.0328081846237182,-0.713757336139679
-0.0143389701843261,1.3188012838363647,-0.1407570838928222,-0.4602261483669281,-0.0392903015017509,-0.1290503591299057,0.0,0.0,0.2717199325561523,0.1846548318862915
-0.0157495494931936,1.3085689544677734,-0.1347111761569976,-0.4549491107463836,-0.0455812066793441,-0.1258295029401779,0.0,0.0,0.2803695201873779,-0.0226956605911254
-0.0171092040836811,1.2983834743499756,-0.1297210156917572,-0.4528931081295013,-0.0517637021839618,-0.1236614733934402,0.0,0.0,0.136052131652832,-0.2328114509582519
-0.0183771140873432,1.2883485555648804,-0.1208217740058898,-0.4462100565433502,-0.0576720535755157,-0.1181774958968162,0.0,0.0,-0.4259191155433655,-0.0182811617851257
-0.0196678154170513,1.277750849723816,-0.1229536384344101,-0.4712567627429962,-0.0637278333306312,-0.1211269497871398,0.0,0.0,0.0651266574859619,0.2804994583129883
-0.020856762304902,1.2673773765563965,-0.1130715757608413,-0.4613050818443298,-0.0695000886917114,-0.1154555454850196,0.0,0.0,-0.0271766781806945,-0.5771781206130981
-0.0221062656491994,1.2564380168914795,-0.1199337393045425,-0.4864390790462494,-0.0744792371988296,-0.0995919853448867,0.0,0.0,-0.5662773847579956,-0.8557149767875671
-0.0234305374324321,1.2449513673782349,-0.1285866945981979,-0.5107128620147705,-0.0782848671078682,-0.0761195123195648,0.0,0.0,-0.2949397563934326,-0.2091490626335144
-0.0247780792415142,1.2329018115997314,-0.1307875216007232,-0.5357550978660583,-0.0822294354438781,-0.0788984075188636,0.0,0.0,0.5629425048828125,-0.8263594508171082
-0.0260493271052837,1.221427321434021,-0.1248387098312377,-0.5100998878479004,-0.0844988003373146,-0.0453912056982517,0.0,0.0,-0.6960698366165161,0.875158429145813
-0.0272846221923828,1.2093816995620728,-0.1195836216211319,-0.5355920791625977,-0.0884112268686294,-0.0782554671168327,0.0,0.0,-0.3816676139831543,-0.931420624256134
-0.028600787743926,1.1967873573303225,-0.1290270984172821,-0.5599003434181213,-0.0909899324178695,-0.0515785291790962,0.0,0.0,-0.4505413770675659,-0.8615458607673645
-0.0300076492130756,1.1836340427398682,-0.139646291732788,-0.5846505761146545,-0.0920173674821853,-0.0205506347119808,0.0,0.0,-0.1590209007263183,0.1170276403427124
-0.0314383506774902,1.1699175834655762,-0.1419040709733963,-0.6096917986869812,-0.0931709110736846,-0.0230731200426816,0.0,0.0,0.0013492107391357,-0.4594598412513733
-0.0328330993652343,1.1559146642684937,-0.1383884400129318,-0.6224247813224792,-0.094250313937664,-0.0215898528695106,0.0,0.0,-0.0245776772499084,0.2202328443527221
-0.0342517867684364,1.141348361968994,-0.1406579315662384,-0.6474688649177551,-0.0954496413469314,-0.0239887535572052,0.0,0.0,0.2289321422576904,-0.199700653553009
-0.0357537269592285,1.1269949674606323,-0.1483608782291412,-0.6380454301834106,-0.0972671583294868,-0.0363505519926548,0.0,0.0,0.8898510932922363,-0.5146421194076538
-0.0372345931828022,1.1133275032043457,-0.1471869647502899,-0.6075040698051453,-0.0981578007340431,-0.0178129635751247,0.0,0.0,-0.5182254910469055,0.5010268688201904
-0.038708209991455,1.099097490310669,-0.1455583423376083,-0.6325672268867493,-0.0999394580721855,-0.0356331691145896,0.0,0.0,0.3275082111358642,-0.6087707877159119
-0.0403058044612407,1.0852625370025637,-0.1588596999645233,-0.6149439215660095,-0.1008352115750312,-0.0179151427000761,0.0,0.0,-0.2600219845771789,-0.1103456020355224
-0.0419273376464843,1.07086443901062,-0.1611441224813461,-0.6399827599525452,-0.1018352657556533,-0.0200011618435382,0.0,0.0,0.4548771381378174,-0.7288126349449158
-0.0435355193912982,1.0570298433303833,-0.1612047851085662,-0.6148436665534973,-0.1014490500092506,0.0077240504324436,0.0,0.0,-0.7668368816375732,0.3578519821166992
-0.0451675429940223,1.042631983757019,-0.1634877324104309,-0.6398822665214539,-0.1011603996157646,0.0057729962281882,0.0,0.0,-0.5250809788703918,0.576268196105957
-0.0467837341129779,1.0276702642440796,-0.1608195006847381,-0.6650139689445496,-0.1019553989171981,-0.0158998928964138,0.0,0.0,-0.6538640856742859,-0.5495333075523376
-0.0484718307852745,1.0121479034423828,-0.1691340953111648,-0.689863920211792,-0.1016310602426529,0.0064868666231632,0.0,0.0,0.5462982654571533,-0.4775729775428772
-0.0501087196171283,0.996936023235321,-0.164006620645523,-0.6760663986206055,-0.1013232842087745,0.0061556114815175,0.0,0.0,-0.282585859298706,-0.8021434545516968
-0.0518300049006938,0.9811760783195496,-0.1739203184843063,-0.7003182172775269,-0.0995455831289291,0.0355539992451667,0.0,0.0,-0.5223960280418396,-0.4105802774429321
-0.0535747520625591,0.9648529887199402,-0.1761836260557174,-0.7253570556640625,-0.0978475213050842,0.0339615941047668,0.0,0.0,-0.3927332758903503,0.0897021293640136
-0.0553427711129188,0.9479666352272034,-0.1784402579069137,-0.7503957152366638,-0.0962253138422966,0.0324438102543354,0.0,0.0,0.2521088123321533,-0.5549285411834717
-0.0571484565734863,0.9314877390861512,-0.1831852495670318,-0.7322282195091248,-0.0936326682567596,0.051852960139513,0.0,0.0,-0.840160071849823,-0.2375330924987793
-0.058977223932743,0.9144455790519714,-0.1854257434606552,-0.7572671175003052,-0.09110838919878,0.0504860803484916,0.0,0.0,0.7228943109512329,0.0781892538070678
-0.0608659759163856,0.8980685472488403,-0.1908356696367263,-0.7277554869651794,-0.0891636982560157,0.0388935022056102,0.0,0.0,-0.7543529272079468,0.4807777404785156
-0.0627775192260742,0.8811281323432922,-0.193056121468544,-0.7527939677238464,-0.0872797667980194,0.0376789048314094,0.0,0.0,-0.2037981748580932,-0.1529263854026794
-0.0647116675972938,0.8636245131492615,-0.1952650845050811,-0.7778323292732239,-0.0854527354240417,0.0365404710173606,0.0,0.0,-0.3440150022506714,-0.0592377185821533
-0.0666684135794639,0.8455576300621033,-0.1974615603685379,-0.8028708100318909,-0.0836788490414619,0.0354780927300453,0.0,0.0,0.2337595224380493,0.5717791318893433
-0.0686176270246505,0.8272480368614197,-0.1954499930143356,-0.8137334585189819,-0.0831589773297309,0.0103975534439086,0.0,0.0,0.9103773832321168,0.1532884836196899
-0.0705039054155349,0.8089459538459778,-0.1893618404865265,-0.8133821487426758,-0.082438938319683,0.0144006209447979,0.0,0.0,0.1015272140502929,0.4745852947235107
-0.0723471641540527,0.7905210852622986,-0.1851964294910431,-0.8188369870185852,-0.0815726220607757,0.0173266716301441,0.0,0.0,0.3793283700942993,0.775633692741394
-0.0741986259818077,0.772587239742279,-0.1842832714319229,-0.7971080541610718,-0.0824328735470771,-0.0172049906104803,0.0,0.0,0.0094772577285766,0.6221797466278076
-0.0760742202401161,0.754820704460144,-0.1853040307760238,-0.7897478938102722,-0.0846674665808677,-0.0446918606758117,0.0,0.0,0.0680371522903442,0.1532272100448608
-0.0779569596052169,0.7369840741157532,-0.1859206855297088,-0.7928705811500549,-0.0869963094592094,-0.0465769246220588,0.0,0.0,0.2371342182159423,0.172370433807373
-0.0797165855765342,0.7192093729972839,-0.1740835756063461,-0.7901028394699097,-0.0888557508587837,-0.0371888652443885,0.0,0.0,0.4992923736572265,0.3807548284530639
-0.081489659845829,0.7018770575523376,-0.1751670092344284,-0.7704528570175171,-0.0909809619188308,-0.0425043627619743,0.0,0.0,0.3348317146301269,-0.3011153936386108
-0.083162784576416,0.6845060586929321,-0.165553480386734,-0.7721542716026306,-0.0927182659506797,-0.0347464010119438,0.0,0.0,0.0766763687133789,0.4665749073028564
-0.0848059654235839,0.66734778881073,-0.1625521779060363,-0.7626973986625671,-0.094463363289833,-0.034901924431324,0.0,0.0,0.5500043630599976,0.612107515335083
-0.0862267464399337,0.6502787470817566,-0.1394230425357818,-0.7587929368019104,-0.0970988124608993,-0.0527089312672615,0.0,0.0,0.7044494152069092,-0.8047956228256226
-0.0877919197082519,0.6333937048912048,-0.1552590578794479,-0.7505291104316711,-0.0983438491821289,-0.0249006375670433,0.0,0.0,0.4951014518737793,0.5887281894683838
-0.089167021214962,0.6170069575309753,-0.1352753788232803,-0.7284507751464844,-0.1005585566163063,-0.0442946217954158,0.0,0.0,0.3488290309906006,0.2728328704833984
-0.0903938263654708,0.600861668586731,-0.1209643259644508,-0.7176849246025085,-0.1022574305534362,-0.0339776873588562,0.0,0.0,-0.0330565571784973,-0.0402795672416687
-0.0916393250226974,0.5841531157493591,-0.1228374391794204,-0.7427230477333069,-0.1039589568972587,-0.0340301692485809,0.0,0.0,0.8800580501556396,-0.319627046585083
-0.0928966552019119,0.5682287216186523,-0.123613104224205,-0.7078985571861267,-0.1060614064335823,-0.0420490317046642,0.0,0.0,0.4654872417449951,-0.5616205930709839
-0.0941328033804893,0.5522253513336182,-0.1227479949593544,-0.7113221883773804,-0.1069283187389373,-0.0173380337655544,0.0,0.0,0.2589001655578613,0.4062585830688476
-0.095405675470829,0.5364680886268616,-0.1260580569505691,-0.7004137635231018,-0.1081438139081001,-0.0243101008236408,0.0,0.0,0.5014162063598633,-0.0685102939605712
-0.0965333953499794,0.520829975605011,-0.1120872348546981,-0.6950716376304626,-0.1088330522179603,-0.0137844439595937,0.0,0.0,0.5774779319763184,-0.1265970468521118
-0.0975921601057052,0.5054976940155029,-0.1052993163466453,-0.6814790964126587,-0.1094089820981025,-0.0115185640752315,0.0,0.0,0.75447678565979,0.2187850475311279
-0.0986127853393554,0.4902353584766388,-0.101527914404869,-0.6783653497695923,-0.1099353209137916,-0.0105269709601998,0.0,0.0,0.42263925075531,0.4840165376663208
-0.0996995940804481,0.4751860201358795,-0.1076674461364746,-0.668936550617218,-0.1109417900443077,-0.0201295893639326,0.0,0.0,0.5200033187866211,0.3255842924118042
-0.1006952300667762,0.4607437252998352,-0.0986623466014862,-0.6419452428817749,-0.1118422299623489,-0.0180087201297283,0.0,0.0,0.626122236251831,0.1466785669326782
-0.1015937775373458,0.4461536407470703,-0.0893404930830001,-0.6484865546226501,-0.1123527139425277,-0.0102096674963831,0.0,0.0,0.8735980987548828,0.2703632116317749
-0.1023681610822677,0.4324380457401275,-0.0770815312862396,-0.6096088290214539,-0.112703800201416,-0.0070216888561844,0.0,0.0,0.6169710159301758,0.3169008493423462
-0.1031963378190994,0.4188652038574219,-0.0820511281490325,-0.6032988429069519,-0.1134620457887649,-0.0151650216430425,0.0,0.0,0.3498879671096802,-0.3011360168457031
-0.1040503531694412,0.4055661857128143,-0.0843043774366378,-0.5911508798599243,-0.1145473644137382,-0.0217064321041107,0.0,0.0,0.714081883430481,0.387994647026062
-0.1048121452331543,0.3926604688167572,-0.0752681642770767,-0.5736566781997681,-0.1154641136527061,-0.0183345638215541,0.0,0.0,0.4702177047729492,0.3397233486175537
-0.1056143790483474,0.3803310394287109,-0.0787828117609024,-0.5480862259864807,-0.1168893054127693,-0.0285039935261011,0.0,0.0,-0.2804039716720581,0.5882165431976318
-0.1063772216439247,0.367429107427597,-0.0735479593276977,-0.5736334919929504,-0.1196091622114181,-0.0543970689177513,0.0,0.0,0.2138783931732177,-0.4414093494415283
-0.1071423515677452,0.3543962836265564,-0.0736893415451049,-0.5794642567634583,-0.1224205568432807,-0.0562279447913169,0.0,0.0,0.3030784130096435,0.0955125093460083
-0.1078345328569412,0.3411721289157867,-0.0666619464755058,-0.5879542231559753,-0.1249603927135467,-0.0507965199649333,0.0,0.0,0.7298061847686768,-0.8831707835197449
-0.1085999459028244,0.3279247283935547,-0.0757206156849861,-0.5888442397117615,-0.1257775574922561,-0.0163436569273471,0.0,0.0,0.4282569885253906,-0.6384398341178894
-0.1093473434448242,0.3151509761810303,-0.0752091705799102,-0.5676795244216919,-0.1253092736005783,0.0093656610697507,0.0,0.0,-0.0657554268836975,-0.2467555999755859
-0.1101047545671463,0.3018139004707336,-0.0762389227747917,-0.5927170515060425,-0.1248171478509903,0.0098424786701798,0.0,0.0,0.9291188716888428,-0.6383122205734253
-0.1109417900443077,0.289375901222229,-0.085134632885456,-0.5526822209358215,-0.1233927011489868,0.0284891184419393,0.0,0.0,-0.5227855443954468,-0.2527244091033935
-0.1117877960205078,0.2763744592666626,-0.0860641449689865,-0.5777198672294617,-0.121944822371006,0.0289575401693582,0.0,0.0,0.6098207235336304,0.412704586982727
-0.1125097274780273,0.2639493942260742,-0.0738525241613388,-0.5520928502082825,-0.1202921420335769,0.0330538228154182,0.0,0.0,0.887566089630127,0.4768608808517456
-0.1132756248116493,0.2519609332084656,-0.0777436420321464,-0.532730221748352,-0.1191525161266326,0.022792400792241,0.0,0.0,-0.034996211528778,0.8029639720916748
-0.1139915436506271,0.2394021153450012,-0.0712993890047073,-0.5581932663917542,-0.1194465085864067,-0.0058798124082386,0.0,0.0,0.829979658126831,0.5143977403640747
-0.1145956963300705,0.2274313122034073,-0.0590584799647331,-0.5321443676948547,-0.120786041021347,-0.0267904307693243,0.0,0.0,0.7986819744110107,0.705963134765625
-0.1149723082780838,0.2158118337392807,-0.0351534411311149,-0.5166285634040833,-0.1232795938849449,-0.0498710349202156,0.0,0.0,0.943561315536499,-0.5058178305625916
-0.1153163909912109,0.204225406050682,-0.0330235213041305,-0.5150671005249023,-0.1246572285890579,-0.0275528766214847,0.0,0.0,0.9326539039611816,0.1212244033813476
-0.1154998764395713,0.1927564293146133,-0.0174858439713716,-0.5098052620887756,-0.1255149841308593,-0.0171554461121559,0.0,0.0,0.9885623455047609,0.0164134502410888
-0.1154268234968185,0.181713655591011,0.0073312907479703,-0.4907902181148529,-0.1255369782447815,-0.0004399194440338,0.0,0.0,0.9469873905181884,-0.418590247631073
-0.1151371970772743,0.1707683950662613,0.0281983204185962,-0.4863936007022857,-0.1247838363051414,0.0150631219148635,0.0,0.0,0.972099542617798,-0.2268957495689392
-0.1147470474243164,0.1605957299470901,0.0382792092859745,-0.4520588517189026,-0.1240482255816459,0.0147120030596852,0.0,0.0,0.8355534076690674,-0.8775414228439331
-0.1142870932817459,0.1511265337467193,0.0434143207967281,-0.4206389486789703,-0.1214765533804893,0.0514335446059703,0.0,0.0,0.7239789962768555,-0.4858212471008301
-0.1136171370744705,0.1421068757772445,0.0637921392917633,-0.4006148278713226,-0.1182933077216148,0.063664935529232,0.0,0.0,0.4584231376647949,-0.7871587872505188
-0.1128799468278884,0.1329385787248611,0.0687813907861709,-0.4070980250835418,-0.1133851930499076,0.0981622040271759,0.0,0.0,0.7744269371032715,0.0054214000701904
-0.1121396049857139,0.1240318641066551,0.0693556815385818,-0.3955041766166687,-0.1087313964962959,0.0930757075548172,0.0,0.0,0.3597927093505859,-0.352944016456604
-0.1112549751996994,0.1156096532940864,0.083433598279953,-0.373962789773941,-0.1037506461143493,0.0996151491999626,0.0,0.0,0.6164267063140869,-0.6933740377426147
-0.11039400100708,0.1074674725532531,0.0797325372695922,-0.3614469170570373,-0.097436599433422,0.1262810677289962,0.0,0.0,0.7599034309387207,-0.584240198135376
-0.1096390709280967,0.1000604256987571,0.0683169960975647,-0.3287535011768341,-0.0903280153870582,0.1421718001365661,0.0,0.0,0.2101287841796875,0.5802206993103027
-0.108723260462284,0.0928412750363349,0.0854474678635597,-0.3204904496669769,-0.0842486917972564,0.1215865761041641,0.0,0.0,0.1476483345031738,-0.0328918099403381
-0.1078014373779296,0.0858429968357086,0.0862181931734085,-0.310710996389389,-0.078345388174057,0.1180661469697952,0.0,0.0,0.1003088951110839,0.4097959995269775
-0.1068960204720497,0.0790340527892112,0.0848356708884239,-0.3023337125778198,-0.0727033168077468,0.1128416210412979,0.0,0.0,-0.0707566142082214,0.5743833780288696
-0.1059476882219314,0.0716554000973701,0.0902597308158874,-0.3277238309383392,-0.0681670829653739,0.0907246321439743,0.0,0.0,0.8003488779067993,0.5004227161407471
-0.1050496101379394,0.0647046193480491,0.086645558476448,-0.3087840676307678,-0.065033420920372,0.0626729577779769,0.0,0.0,0.787381649017334,0.8530614376068115
-0.1042263954877853,0.0580476634204387,0.0812157243490219,-0.2958157360553741,-0.0639410465955734,0.0218473393470048,0.0,0.0,0.7401717901229858,-0.0056654214859008
-0.1032429710030555,0.0519497506320476,0.096730962395668,-0.2709493637084961,-0.0623490065336227,0.0318409465253353,0.0,0.0,0.4045929908752441,-0.0482212901115417
-0.1021872535347938,0.0457533448934555,0.103736475110054,-0.2753218710422516,-0.0605347193777561,0.0362859293818473,0.0,0.0,0.7666236162185669,0.2250479459762573
-0.100926399230957,0.0402009598910808,0.1235423907637596,-0.2466699928045272,-0.058024663478136,0.0502009503543376,0.0,0.0,0.4429755210876465,0.4293465614318847
-0.099645234644413,0.035102043300867,0.1257061958312988,-0.226525604724884,-0.0556314326822757,0.0478644408285617,0.0,0.0,0.5386892557144165,0.0085300207138061
-0.0981856361031532,0.030620751902461,0.1429323703050613,-0.1990604698657989,-0.0526506043970584,0.0596165359020233,0.0,0.0,0.4672095775604248,-0.7878943681716919
-0.096684455871582,0.0263463109731674,0.1454388499259948,-0.1898148506879806,-0.048016969114542,0.0926723778247833,0.0,0.0,0.3819880485534668,-0.9405807852745056
-0.095229722559452,0.0225475877523422,0.1389200538396835,-0.1686368286609649,-0.0415484122931957,0.1293712258338928,0.0,0.0,0.2951192855834961,-0.404799222946167
-0.0937002152204513,0.0191084239631891,0.1462145745754242,-0.1526805013418197,-0.0348952524363994,0.1330633461475372,0.0,0.0,0.2215286493301391,-0.9178710579872132
-0.0921607017517089,0.0156104657799005,0.1453846842050552,-0.1552886664867401,-0.0264237783849239,0.1694294810295105,0.0,0.0,0.2881979942321777,-0.6825752854347229
-0.0907668098807334,0.0122805926948785,0.1296459734439849,-0.1478478163480758,-0.016801044344902,0.1924543380737304,0.0,0.0,0.5223257541656494,0.628065824508667
-0.0894421562552452,0.0091003151610493,0.1243080720305442,-0.1412787735462188,-0.0087521113455295,0.1609790027141571,0.0,0.0,0.5556032657623291,-0.8414674401283264
-0.0882001891732215,0.006154463160783,0.1144262179732322,-0.1308973580598831,0.0008897295920178,0.1928363740444183,0.0,0.0,0.3683726787567138,0.6738989353179932
-0.0868795365095138,0.0033080314751714,0.1236624345183372,-0.1265377849340438,0.0091839991509914,0.1658855676651001,0.0,0.0,0.0999326705932617,0.3451757431030273
-0.0854721069335937,0.000259432796156,0.1319779008626938,-0.1355707347393036,0.017828669399023,0.1728934049606323,0.0,0.0,0.4984744787216186,0.4072912931442261
-0.0842118263244628,-0.0018491410883143,0.1368096470832824,-0.0936327949166297,0.0071377689018845,-0.2138752490282058,0.0,1.0,-0.2243248224258422,-0.0862435102462768
-0.083086110651493,-0.0033421302214264,0.1241219863295555,-0.0663517862558364,-0.0043081822805106,-0.2289736270904541,1.0,1.0,0.8578096628189087,-0.9867438673973083
