x_pos,y_pos,x_vel,y_vel,angle,ang_vel,leg_1,leg_2,main_booster,lat_booster
-0.001542282057926,1.4032573699951172,-0.1563282310962677,-0.3405669331550598,0.0018690928118303,0.0368777811527252,0.0,0.0,-0.0803129076957702,0.9121384620666504
-0.0030257224570959,1.395246505737305,-0.1482883989810943,-0.3560406267642975,0.0018189380643889,-0.0010023764334619,0.0,0.0,-0.5253608226776123,0.4426491260528564
-0.0045274733565747,1.3868680000305176,-0.1502138972282409,-0.3723801970481872,0.0018573314882814,0.0007678000838495,0.0,0.0,-0.1025320887565612,0.8834228515625
-0.0059915543533861,1.3781195878982544,-0.1451222598552703,-0.3888197243213653,0.0005828671855852,-0.0254915449768304,0.0,0.0,0.321718692779541,0.6135519742965698
-0.0073121068999171,1.3697885274887085,-0.129860907793045,-0.3702649772167206,-0.0015778339002281,-0.0432182289659976,0.0,0.0,-0.4514685273170471,0.0613371133804321
-0.008650111965835,1.3610903024673462,-0.1317076832056045,-0.3865882158279419,-0.0036443439312279,-0.041334293782711,0.0,0.0,-0.1033487319946289,0.4432239532470703
-0.0100052831694483,1.3520251512527466,-0.1335259228944778,-0.4029024541378021,-0.0056152106262743,-0.0394213274121284,0.0,0.0,0.4276164770126343,0.6770977973937988
-0.0111785884946584,1.3434319496154783,-0.1143642216920852,-0.3819395303726196,-0.0085462033748626,-0.0586254708468914,0.0,0.0,-0.3968672156333923,0.1504287719726562
-0.0123682972043752,1.3344714641571045,-0.1161142736673355,-0.3982633352279663,-0.0113782482221722,-0.0566459894180297,0.0,0.0,-0.2981909513473511,0.6441389322280884
-0.013523387722671,1.3251471519470217,-0.1114676743745803,-0.414446622133255,-0.0153848119080066,-0.0801383480429649,0.0,0.0,-0.6316288709640503,0.3131587505340576
-0.0146942138671875,1.3154560327529907,-0.1131366640329361,-0.4307641983032226,-0.0192896518856287,-0.0781035870313644,0.0,0.0,-0.1391448378562927,-0.0341839790344238
-0.0158802978694438,1.3053979873657229,-0.1147624999284744,-0.4470818638801574,-0.0230926126241683,-0.0760660171508789,0.0,0.0,-0.4687482118606567,0.6023163795471191
-0.0170232765376567,1.2949740886688232,-0.1090942025184631,-0.4633743166923523,-0.028244586661458,-0.1030489206314086,0.0,0.0,0.2463786602020263,-0.3931024670600891
-0.0181208606809377,1.2845828533172607,-0.1049012914299964,-0.4619318842887878,-0.0330462008714675,-0.0960410013794899,0.0,0.0,-0.079501211643219,-0.1525907516479492
-0.0192320831120014,1.2738245725631714,-0.1063718572258949,-0.478253573179245,-0.0377437882125377,-0.0939604043960571,0.0,0.0,-0.8118394017219543,-0.7928314805030823
-0.0204075817018747,1.2626930475234983,-0.1142238155007362,-0.4948225915431976,-0.0410501025617122,-0.0661323517560958,0.0,0.0,-0.9265787601470948,-0.2406425476074218
-0.0215956680476665,1.2511945962905884,-0.1155766397714614,-0.5111398696899414,-0.0442517362534999,-0.0640381723642349,0.0,0.0,0.2473784685134887,-0.2608195543289184
-0.022675609216094,1.2397456169128418,-0.1053743958473205,-0.5089184641838074,-0.0468433871865272,-0.0518372356891632,0.0,0.0,-0.7585715055465698,0.6549134254455566
-0.0237064361572265,1.2279316186904907,-0.0990439727902412,-0.5251997113227844,-0.0508394353091716,-0.0799285098910331,0.0,0.0,-0.7384131550788879,-0.8837029337882996
-0.0248267166316509,1.215756058692932,-0.1100989803671836,-0.5411986112594604,-0.0527376346290111,-0.0379674322903156,0.0,0.0,0.6916078329086304,-0.7907276153564453
-0.0258343704044818,1.2043659687042236,-0.1008219495415687,-0.5062274932861328,-0.0526818260550498,0.0011162393493577,0.0,0.0,-0.7837090492248535,-0.237801969051361
-0.0268507953733205,1.19260835647583,-0.1018059402704238,-0.5225527882575989,-0.0525213219225406,0.0032104980200529,0.0,0.0,-0.7060487270355225,-0.1312675476074218
-0.0278750415891408,1.1804838180541992,-0.1027003675699234,-0.5388661623001099,-0.0522551722824573,0.0053234468214213,0.0,0.0,-0.5171066522598267,0.6551454067230225
-0.028848934918642,1.1679801940917969,-0.096283346414566,-0.5557584166526794,-0.0533399730920791,-0.0216978564858436,0.0,0.0,0.1111751794815063,-0.7607325911521912
-0.0299752242863178,1.1557732820510864,-0.1130822673439979,-0.542509913444519,-0.0528913177549839,0.0089735556393861,0.0,0.0,0.1248255968093872,-0.0853037238121032
-0.0311810486018657,1.143903732299805,-0.1206780299544334,-0.5275351405143738,-0.0527981333434581,0.0018638037145137,0.0,0.0,-0.9873640537261964,0.8528039455413818
-0.032322883605957,1.131666898727417,-0.1126571744680404,-0.5439128875732422,-0.0543083027005195,-0.0302031692117452,0.0,0.0,-0.701458752155304,-0.3123007416725158
-0.0334677696228027,1.119063138961792,-0.1130619198083877,-0.5602273344993591,-0.0557155311107635,-0.0281447526067495,0.0,0.0,-0.7193186283111572,-0.5322605967521667
-0.0346654877066612,1.1061006784439087,-0.1197658628225326,-0.5761079788208008,-0.055730864405632,-0.0003065138880629,0.0,0.0,-0.6127022504806519,-0.7098820209503174
-0.0359223373234272,1.0927733182907104,-0.1272529065608978,-0.592270016670227,-0.0541832074522972,0.0309532936662435,0.0,0.0,-0.7737022042274475,-0.2016401886940002
-0.0371790900826454,1.0790786743164062,-0.1273404210805893,-0.6085845828056335,-0.0525348074734211,0.032968059182167,0.0,0.0,-0.8339540958404541,0.199771761894226
-0.0384346954524517,1.0650172233581543,-0.127321571111679,-0.6248990893363953,-0.0507864952087402,0.0349661745131015,0.0,0.0,-0.8238818049430847,0.3448338508605957
-0.0396880134940147,1.0505884885787964,-0.1271969377994537,-0.6412136554718018,-0.0489391461014747,0.03694698959589,0.0,0.0,-0.7711356282234192,0.5520921945571899
-0.0408991798758506,1.0357848405838013,-0.1220880001783371,-0.6579107642173767,-0.0479768328368663,0.0192462857812643,0.0,0.0,-0.0515032410621643,0.2242076396942138
-0.0421059615910053,1.0206141471862793,-0.1217559203505516,-0.6742252111434937,-0.0469173304736614,0.0211901534348726,0.0,0.0,-0.955199420452118,-0.135514497756958
-0.0433074943721294,1.0050761699676514,-0.1213231831789016,-0.6905395984649658,-0.0457615852355957,0.0231145769357681,0.0,0.0,-0.0046460032463073,-0.1204345226287841
-0.0445028319954872,0.9891710877418518,-0.1207924038171768,-0.7068541049957275,-0.0445106402039527,0.0250190459191799,0.0,0.0,-0.974429190158844,-0.287477433681488
-0.0456908233463764,0.9728989005088806,-0.1201665624976158,-0.723168671131134,-0.0431654937565326,0.0269030276685953,0.0,0.0,-0.6271100044250488,0.1533074378967285
-0.0468707084655761,0.9562594294548036,-0.1194490417838096,-0.7394832372665405,-0.0417272001504898,0.0287660360336303,0.0,0.0,-0.1232476234436035,-0.196615993976593
-0.0480417236685752,0.9392530918121338,-0.1186434403061866,-0.7557979226112366,-0.0401968099176883,0.0306076612323522,0.0,0.0,-0.2302718758583068,0.4042614698410034
-0.0492028221487998,0.9218795299530028,-0.1177535504102706,-0.7721125483512878,-0.0385754443705081,0.0324274487793445,0.0,0.0,0.574793815612793,-0.5442796349525452
-0.0502507202327251,0.9048807621002196,-0.1079490929841995,-0.7554184198379517,-0.0354594103991985,0.0623208098113536,0.0,0.0,-0.1266916990280151,0.6797435283660889
-0.0512250885367393,0.8875042200088501,-0.0990866050124168,-0.7722527384757996,-0.033825896680355,0.0326702296733856,0.0,0.0,0.4665428400039673,-0.5017039179801941
-0.0521164909005165,0.8704602122306824,-0.0921439975500106,-0.7574439644813538,-0.0308638773858547,0.0592404082417488,0.0,0.0,0.4726204872131347,0.0678199529647827
-0.0530232414603233,0.8534445762634277,-0.093597799539566,-0.7561968564987183,-0.0279830545186996,0.0576165243983268,0.0,0.0,-0.5833924412727356,0.7538914680480957
-0.053852654993534,0.8360514044761658,-0.0843073204159736,-0.7730039358139038,-0.0266316570341587,0.0270280633121728,0.0,0.0,-0.2255913615226745,-0.0882065296173095
-0.0546680465340614,0.818291187286377,-0.0829962715506553,-0.7893186807632446,-0.0251962672919034,0.0287079252302646,0.0,0.0,0.7200639247894287,-0.4100453853607178
-0.0555641166865825,0.8014701008796692,-0.0905888825654983,-0.7475938200950623,-0.0242194198071956,0.0195365995168685,0.0,0.0,-0.265382170677185,0.0698630809783935
-0.0564450249075889,0.7842817902565002,-0.0891689211130142,-0.7639085650444031,-0.0231611207127571,0.0211661048233509,0.0,0.0,0.0890078544616699,0.0271559953689575
-0.0573166832327842,0.7672296762466431,-0.0882515981793403,-0.757857620716095,-0.0220871772617101,0.0214787237346172,0.0,0.0,0.0729631185531616,0.4706376791000366
-0.0580710396170616,0.7503633499145508,-0.0770394653081893,-0.7495850324630737,-0.0205034837126731,0.0316740572452545,0.0,0.0,-0.308447778224945,0.3191440105438232
-0.0588089935481548,0.733130156993866,-0.0754824057221412,-0.7658998370170593,-0.018842302262783,0.0332236550748348,0.0,0.0,-0.2299113273620605,0.5388157367706299
-0.0594799034297466,0.7155253887176514,-0.0675692930817604,-0.7824274897575378,-0.018371345475316,0.0094192009419202,0.0,0.0,0.1908576488494873,0.0541245937347412
-0.0601208694279193,0.6984157562255859,-0.0646586641669273,-0.7604197263717651,-0.0178150869905948,0.0111251734197139,0.0,0.0,0.1172447204589843,0.5869313478469849
-0.0605799667537212,0.681427001953125,-0.0455345399677753,-0.7550554275512695,-0.0181757565587759,-0.0072134360671043,0.0,0.0,0.1581708192825317,-0.0557944774627685
-0.0610821731388568,0.6645684242248535,-0.04961858689785,-0.749275267124176,-0.0187746174633502,-0.0119772925972938,0.0,0.0,0.0574791431427001,-0.1819962263107299
-0.0614967346191406,0.6481062769889832,-0.0411975979804992,-0.7316591143608093,-0.0190249681472778,-0.0050071231089532,0.0,0.0,0.0945135354995727,0.1237522363662719
-0.0617930404841899,0.6319443583488464,-0.0298799015581607,-0.7183025479316711,-0.0187838654965162,0.0048221326433122,0.0,0.0,-0.2333974242210388,0.3717182874679565
-0.0620710365474224,0.6154155135154724,-0.0281017925590276,-0.7346172332763672,-0.0184758082032203,0.0061609940603375,0.0,0.0,0.3497219085693359,-0.0919721126556396
-0.0623805038630962,0.5994837880134583,-0.0310423970222473,-0.7080691456794739,-0.0183903537690639,0.0017091231420636,0.0,0.0,-0.1169542074203491,0.5641511678695679
-0.0626228302717208,0.5831789970397949,-0.0231496132910251,-0.7246760129928589,-0.0194589719176292,-0.0213723462074995,0.0,0.0,0.5769343376159668,0.1446726322174072
-0.0629287734627723,0.5675138235092163,-0.0291246324777603,-0.6962475180625916,-0.0209085326641798,-0.0289911888539791,0.0,0.0,-0.1299700736999511,0.1849329471588134
-0.0632154494524002,0.5514815449714661,-0.027265915647149,-0.7125623822212219,-0.0222980342805385,-0.0277900137007236,0.0,0.0,0.4592878818511963,-0.1622049808502197
-0.0634500533342361,0.5358934998512268,-0.0221984796226024,-0.6928223967552185,-0.0235329922288656,-0.0246994793415069,0.0,0.0,-0.2874785661697387,0.8202803134918213
-0.0635993927717208,0.5199300050735474,-0.012069234624505,-0.7095364332199097,-0.0263647008687257,-0.056634496897459,0.0,0.0,0.5105499029159546,-0.7558227777481079
-0.0639000907540321,0.5044175386428833,-0.028567025437951,-0.6894719004631042,-0.0278532914817333,-0.0297717992216348,0.0,0.0,0.8384873867034912,0.8826656341552734
-0.06405820697546,0.4899721443653106,-0.0126262931153178,-0.642075777053833,-0.0309960376471281,-0.0628549605607986,0.0,0.0,-0.4745729565620422,-0.8452986478805542
-0.0642544776201248,0.4751524925231933,-0.017964694648981,-0.6586900949478149,-0.0326372124254703,-0.0328234136104583,0.0,0.0,0.3524706363677978,0.2279013395309448
-0.0643859878182411,0.4610122442245483,-0.0116353249177336,-0.6284863948822021,-0.0341274365782737,-0.0298047307878732,0.0,0.0,-0.7623847126960754,0.3321859836578369
-0.0644974708557128,0.4465049803256988,-0.0096869496628642,-0.6448011994361877,-0.0355710946023464,-0.0288733933120965,0.0,0.0,-0.3129446506500244,0.9279402494430542
-0.0645265579223632,0.4316312372684479,8.385399996768683e-05,-0.6611290574073792,-0.0385342203080654,-0.0592622831463813,0.0,0.0,0.9239383935928344,0.0280232429504394
-0.0644719153642654,0.4174747467041015,0.0082555590197443,-0.6292520761489868,-0.0412892065942287,-0.0550993755459785,0.0,0.0,0.8669164180755615,0.2145822048187255
-0.0645030960440635,0.4043905138969421,0.0003076036809943,-0.5816181302070618,-0.0446772389113903,-0.0677607655525207,0.0,0.0,0.2245314121246338,0.0961053371429443
-0.0644406303763389,0.3915771245956421,0.0093855336308479,-0.5695826411247253,-0.0477751344442367,-0.0619579181075096,0.0,0.0,0.1252919435501098,-0.893686830997467
-0.0644429177045822,0.3787958025932312,0.0010753162205219,-0.5681017637252808,-0.0490666665136814,-0.0258305482566356,0.0,0.0,0.9065278768539428,-0.1505250334739685
-0.0643281936645507,0.3662036657333374,0.0123775573447346,-0.5596833825111389,-0.0499612279236316,-0.0178912840783596,0.0,0.0,-0.0136103630065917,0.0428909063339233
-0.0641932487487793,0.3532443642616272,0.0143728945404291,-0.575998067855835,-0.0508239641785621,-0.0172546859830617,0.0,0.0,0.881930947303772,0.4873536825180053
-0.0640015602111816,0.3412722051143646,0.0200581662356853,-0.5321252346038818,-0.051701184362173,-0.0175442937761545,0.0,0.0,0.3808516263961792,-0.3648778200149536
-0.0636874213814735,0.329949140548706,0.0319549441337585,-0.5032656788825989,-0.0522414334118366,-0.0108048198744654,0.0,0.0,-0.3377596139907837,-0.6411703824996948
-0.0634128600358963,0.3182701468467712,0.0264412425458431,-0.5190314650535583,-0.0512414425611496,0.0199997909367084,0.0,0.0,0.2486405372619629,0.0699299573898315
-0.0632027611136436,0.3066066205501556,0.020425010472536,-0.5183610916137695,-0.0506705343723297,0.0114183351397514,0.0,0.0,0.5050146579742432,0.3098820447921753
-0.0628992095589637,0.2956519722938537,0.0295841600745916,-0.486848771572113,-0.0499084554612636,0.0152415605261921,0.0,0.0,0.0269104242324829,-0.0970892906188964
-0.0626204460859298,0.2848708629608154,0.0273873694241046,-0.4791458249092102,-0.0494186356663703,0.0097963605076074,0.0,0.0,0.1475311517715454,-0.0710822343826294
-0.0623359680175781,0.2744306921958923,0.0281042102724313,-0.4639930129051208,-0.0490879453718662,0.0066136545501649,0.0,0.0,-0.2840614318847656,-0.3836950659751892
-0.062031365931034,0.2636235356330871,0.0301194433122873,-0.4803076982498169,-0.0487422607839107,0.006913477089256,0.0,0.0,0.1829668283462524,-0.0705032348632812
-0.0616236701607704,0.2530688047409057,0.0401102341711521,-0.4690765142440796,-0.0480948202311992,0.0129490736871957,0.0,0.0,0.0409820079803466,-0.901004195213318
-0.0612391456961631,0.2424651980400085,0.0359727069735527,-0.4711937010288238,-0.0456466302275657,0.0489636175334453,0.0,0.0,-0.1613263487815857,0.1718111038208007
-0.0608345046639442,0.2314946055412292,0.037987932562828,-0.4875089526176452,-0.0431893467903137,0.0491455011069774,0.0,0.0,0.3256189823150635,0.4385886192321777
-0.0602717399597168,0.2208359986543655,0.0532235130667686,-0.4736306369304657,-0.0401788242161273,0.0602104254066944,0.0,0.0,0.5085244178771973,-0.493525743484497
-0.0595471374690532,0.2103425562381744,0.0688065961003303,-0.4662831127643585,-0.0365741550922393,0.0720933973789215,0.0,0.0,0.1399447917938232,0.0929150581359863
-0.0587873458862304,0.2002593874931335,0.0723425522446632,-0.4480557143688202,-0.032984010875225,0.0718027800321579,0.0,0.0,0.2320573329925537,-0.6575564742088318
-0.0580149665474891,0.1906637251377105,0.072238028049469,-0.426370769739151,-0.0280440151691436,0.0987999886274337,0.0,0.0,-0.4095968008041382,-0.1499747037887573
-0.0572224631905555,0.1807013601064682,0.0742445886135101,-0.4426876306533813,-0.0231038238853216,0.0988037586212158,0.0,0.0,0.3380128145217895,-0.6064335107803345
-0.0563622489571571,0.1707609444856643,0.0796213671565055,-0.4417105615139007,-0.0167836956679821,0.1264023780822754,0.0,0.0,0.3740825653076172,-0.6764857172966003
-0.0555768013000488,0.1610899716615677,0.0708644092082977,-0.429754763841629,-0.0092062149196863,0.1515497267246246,0.0,0.0,0.502880334854126,0.0493950843811035
-0.0546873100101947,0.1522289663553238,0.0809234976768493,-0.3937990069389343,-0.0012770950561389,0.1585823148488998,0.0,0.0,-0.2237483263015747,-0.0034995675086975
-0.0537778846919536,0.1430015861988067,0.0829149037599563,-0.4101190268993377,0.0066461521200835,0.1584646999835968,0.0,0.0,0.4725399017333984,-0.0257684588432312
-0.0529643073678016,0.1344702988862991,0.0738612040877342,-0.3792181611061096,0.014049069955945,0.1480583250522613,0.0,0.0,0.0523047447204589,-0.1601437926292419
-0.0520817749202251,0.1262405663728714,0.0805027335882186,-0.3658586144447326,0.0216999426484107,0.1530172079801559,0.0,0.0,0.0031222105026245,0.851239800453186
-0.0511606223881244,0.1183346360921859,0.0860836952924728,-0.3514755964279175,0.0276477560400962,0.1189563423395156,0.0,0.0,-0.2817534804344177,-0.4423784017562866
-0.0502200126647949,0.1100619882345199,0.0880515724420547,-0.3677932918071747,0.0335848107933998,0.1187411397695541,0.0,0.0,0.5090935230255127,-0.6228844523429871
-0.0493491180241107,0.1020989716053009,0.0798898637294769,-0.3540889918804168,0.04069534689188,0.1422106176614761,0.0,0.0,0.3139091730117798,-0.1146014332771301
-0.0485710129141807,0.0944807156920433,0.0710621252655983,-0.3387886583805084,0.0473639108240604,0.1333711445331573,0.0,0.0,0.1585563421249389,0.8788701295852661
-0.0478442199528217,0.0870402678847312,0.0677668899297714,-0.330847829580307,0.0522192455828189,0.0971070080995559,0.0,0.0,0.2476732730865478,0.955502986907959
-0.0469580665230751,0.0800648033618927,0.0856067687273025,-0.3101300299167633,0.0551931746304035,0.0594788119196891,0.0,0.0,0.0063565969467163,0.4927858114242553
-0.046027947217226,0.0730620920658111,0.0898477733135223,-0.3113538026809692,0.0583248622715473,0.0626335889101028,0.0,0.0,0.294150710105896,-0.7632684707641602
-0.0450462326407432,0.0665991902351379,0.0933241695165634,-0.2874357402324676,0.0631182789802551,0.0958685427904129,0.0,0.0,-0.0687881112098693,0.9472038745880128
-0.0439740195870399,0.0597840882837772,0.1042227521538734,-0.3030222952365875,0.0660796537995338,0.0592274852097034,0.0,0.0,0.78450608253479,0.3017206192016601
-0.0427902229130268,0.0539987422525882,0.1146771907806396,-0.257294088602066,0.0697371736168861,0.0731503441929817,0.0,0.0,0.0429695844650268,-0.6766176223754883
-0.0416119582951068,0.0483942851424217,0.1127292737364769,-0.2493323981761932,0.0747768059372901,0.1007930040359497,0.0,0.0,0.3322467803955078,-0.0300970673561096
-0.0404703132808208,0.0434072352945804,0.1091199293732643,-0.221906766295433,0.0797721371054649,0.0999064072966575,0.0,0.0,-0.3379963636398315,0.5352723598480225
-0.0392642021179199,0.0380636304616928,0.1167713403701782,-0.2377038449048996,0.08357485383749,0.0760543495416641,0.0,0.0,0.3930350542068481,0.1370277404785156
-0.0380045883357524,0.0329394675791263,0.1218255311250686,-0.2279772609472274,0.0876741260290145,0.0819853097200393,0.0,0.0,0.5217938423156738,-0.4898856878280639
-0.0368891730904579,0.0282846540212631,0.1079522371292114,-0.2070973217487335,0.0912344604730606,0.071207046508789,0.0,0.0,0.2015563249588012,-0.1615805625915527
-0.0358830466866493,0.0238092988729476,0.0974712967872619,-0.1990989744663238,0.09434524923563,0.0622160024940967,0.0,0.0,0.4780967235565185,-0.4406993389129638
-0.0349261276423931,0.0197173934429883,0.0926629453897476,-0.1820563971996307,0.0973493456840515,0.0600819364190101,0.0,0.0,0.3807034492492676,-0.1371434926986694
-0.0339736938476562,0.0159272532910108,0.0921377390623092,-0.1686579287052154,0.1004364863038063,0.0617428012192249,0.0,0.0,0.2514984607696533,0.0273621082305908
-0.032932948321104,0.0121915433555841,0.1005137786269187,-0.1662748008966446,0.1039642244577407,0.0705547258257865,0.0,0.0,0.3346091508865356,-0.3052544593811035
-0.0319418907165527,0.0096803875640034,0.1141259297728538,-0.110624223947525,0.0890741944313049,-0.2977840602397918,0.0,1.0,0.5121407508850098,-0.2601633071899414
-0.031129265204072,0.008404335938394,0.11101995408535,-0.0552044697105884,0.0596127547323703,-0.5892400145530701,0.0,1.0,0.0544471740722656,-0.3683823347091675
