x_pos,y_pos,x_vel,y_vel,angle,ang_vel,leg_1,leg_2,main_booster,lat_booster
-0.0015524864429607,1.4035032987594604,-0.1573492735624313,-0.3296433389186859,0.0018703896785154,0.0369034335017204,0.0,0.0,-0.2240347862243652,0.7541570663452148
-0.0030675888992846,1.3959846496582031,-0.1517910063266754,-0.3341616690158844,0.0021486489567905,0.005566562525928,0.0,0.0,-0.3224326372146606,0.6043734550476074
-0.00454883556813,1.3883399963378906,-0.1469999849796295,-0.3397626876831054,0.0010373572586104,-0.022228006273508,0.0,0.0,-0.0839276909828186,0.377819299697876
-0.0060517312958836,1.380573868751526,-0.1492310315370559,-0.3451592028141022,-8.004674782569055e-06,-0.0209091417491436,0.0,0.0,-0.2753695249557495,0.786392092704773
-0.0074986456893384,1.372688889503479,-0.1417938321828842,-0.3504426181316376,-0.0028807604685425,-0.0574606284499168,0.0,0.0,-0.1475582122802734,0.4016097784042358
-0.0089622493833303,1.3646827936172483,-0.1435153186321258,-0.3558356165885925,-0.0056956713087856,-0.0563034489750862,0.0,0.0,0.2833471298217773,-0.2251712083816528
-0.0104549406096339,1.3572285175323486,-0.1463995426893234,-0.3313181698322296,-0.0085421791300177,-0.0569351501762867,0.0,0.0,-0.4419921040534973,0.6417235136032104
-0.0118964193388819,1.349653959274292,-0.1397126615047454,-0.3366789817810058,-0.0129255903884768,-0.0876764729619026,0.0,0.0,-0.1623497009277343,0.2187955379486084
-0.013347053900361,1.3419584035873413,-0.1406804472208023,-0.3420704901218414,-0.0172644220292568,-0.0867842212319374,0.0,0.0,-0.546631395816803,-0.0426498055458068
-0.0148045541718602,1.3341416120529177,-0.1414036154747009,-0.3474638164043426,-0.0215640310198068,-0.0859998911619186,0.0,0.0,-0.02651047706604,0.0551608800888061
-0.0162664409726858,1.3262038230895996,-0.1418844759464264,-0.3528579473495483,-0.0258284397423267,-0.0852961540222168,0.0,0.0,-0.1672444939613342,-0.0357952117919921
-0.0177305229008197,1.3181450366973877,-0.1421269923448562,-0.3582521080970764,-0.0300620216876268,-0.0846791639924049,0.0,0.0,-0.5249935388565063,-0.3872960805892944
-0.0191944129765033,1.3099650144577026,-0.1421356052160263,-0.363646388053894,-0.0342690348625183,-0.0841478034853935,0.0,0.0,0.1387704610824585,0.5299273729324341
-0.0205533988773822,1.302021026611328,-0.1307166218757629,-0.3531873524188995,-0.0394012443721294,-0.1026538014411926,0.0,0.0,-0.6044349670410156,0.465792179107666
-0.0219078063964843,1.2939561605453491,-0.1302695572376251,-0.3585852384567261,-0.0445148050785064,-0.1022804230451583,0.0,0.0,-0.5141004323959351,-0.1936380863189697
-0.0232553482055664,1.2857701778411863,-0.1296041905879974,-0.3639798760414123,-0.0496142320334911,-0.1019978746771812,0.0,0.0,-0.655842125415802,0.0654822587966919
-0.0245940200984478,1.2774633169174194,-0.128726527094841,-0.369374543428421,-0.0547033660113811,-0.1017918214201927,0.0,0.0,-0.9526911973953248,-0.3844695687294006
-0.0259217265993356,1.2690354585647583,-0.1276425272226333,-0.3747698962688446,-0.0597860589623451,-0.1016629189252853,0.0,0.0,-0.9642856121063232,0.4537591934204101
-0.0272366516292095,1.2604864835739136,-0.1263589709997177,-0.3801653683185577,-0.0648660883307457,-0.1016098111867904,0.0,0.0,-0.8110661506652832,-0.3174423575401306
-0.0285367015749216,1.2518165111541748,-0.1248826012015342,-0.3855609595775604,-0.069947138428688,-0.1016300693154335,0.0,0.0,-0.9564695954322816,0.4699612855911255
-0.0298202522099018,1.243025779724121,-0.1232203394174575,-0.3909566700458526,-0.0750327482819557,-0.1017213836312294,0.0,0.0,-0.6959050297737122,0.0910063982009887
-0.0310854911804199,1.2341138124465942,-0.1213792935013771,-0.3963524997234344,-0.0801263600587844,-0.1018813252449035,0.0,0.0,-0.5436359643936157,0.4767099618911743
-0.0323305130004882,1.2250807285308838,-0.119366630911827,-0.4017484784126282,-0.0852312743663787,-0.102107360959053,0.0,0.0,-0.9276260137557985,0.7617964744567871
-0.0334875099360942,1.215909719467163,-0.1088313087821006,-0.4079988300800323,-0.0920464769005775,-0.1363161951303482,0.0,0.0,-0.8850364089012146,0.2155499458312988
-0.0346213355660438,1.206618070602417,-0.1064923405647277,-0.4133972823619842,-0.0988782495260238,-0.1366476118564605,0.0,0.0,-0.8719505071640015,-0.7915701270103455
-0.0358088500797748,1.1971999406814575,-0.1138325333595275,-0.4189168512821197,-0.1037696003913879,-0.0978268459439277,0.0,0.0,-0.4774017930030823,0.199967622756958
-0.0369706153869628,1.187660813331604,-0.1112208366394043,-0.4243101775646209,-0.108684666454792,-0.0983013659715652,0.0,0.0,-0.6959599852561951,0.457319974899292
-0.0381050109863281,1.1780009269714355,-0.1084740981459617,-0.4297035634517669,-0.1136258766055107,-0.0988239794969558,0.0,0.0,-0.7023997902870178,0.6617250442504883
-0.0391698852181434,1.1682184934616089,-0.10044427216053,-0.4352447092533111,-0.1196274831891059,-0.1200322285294532,0.0,0.0,-0.8882519006729126,-0.4838824272155761
-0.0402049049735069,1.1583151817321775,-0.097449317574501,-0.4406391978263855,-0.1256595402956009,-0.1206407696008682,0.0,0.0,-0.6785788536071777,-0.8382773995399475
-0.0412721633911132,1.1483125686645508,-0.1022643223404884,-0.4449429512023926,-0.1300978809595108,-0.0887666046619415,0.0,0.0,-0.873814046382904,0.0773670673370361
-0.0423075668513774,1.1381890773773191,-0.0990491583943367,-0.4503360986709595,-0.134570300579071,-0.0894484370946884,0.0,0.0,-0.7924644947052002,0.0945932865142822
-0.0433100685477256,1.1279444694519043,-0.095734417438507,-0.4557293057441711,-0.1390784084796905,-0.0901619493961334,0.0,0.0,-0.4579005837440491,-0.2196813821792602
-0.0442789085209369,1.1175789833068848,-0.0923268944025039,-0.4611225724220276,-0.1436236053705215,-0.0909038633108139,0.0,0.0,-0.4322742223739624,-0.792972981929779
-0.0452734008431434,1.107107162475586,-0.0964006409049034,-0.4657121300697326,-0.1466638147830963,-0.0608038008213043,0.0,0.0,-0.8616567254066467,-0.558238685131073
-0.046274472028017,1.0965276956558228,-0.0981052443385124,-0.4703968167304992,-0.1486586928367614,-0.0398976765573024,0.0,0.0,-0.8198748826980591,-0.1576542854309082
-0.0472394004464149,1.085827112197876,-0.0944586843252182,-0.4757887721061706,-0.1506940126419067,-0.040706280618906,0.0,0.0,-0.9162402749061584,-0.762164831161499
-0.048222828656435,1.0750237703323364,-0.0976969450712204,-0.4802133440971374,-0.1513392180204391,-0.0129040600731968,0.0,0.0,-0.8448694944381714,-0.7311691045761108
-0.0492289550602436,1.064121127128601,-0.1014888063073158,-0.4844707250595093,-0.1504637151956558,0.0175100304186344,0.0,0.0,-0.9522921442985536,0.3859829902648926
-0.0501972213387489,1.053097367286682,-0.0976603105664253,-0.4898624718189239,-0.149630606174469,0.0166622046381235,0.0,0.0,-0.9113771319389344,-0.2470532059669494
-0.0511271469295024,1.0419522523880005,-0.0937832593917846,-0.4952541887760162,-0.1488402485847473,0.0158072244375944,0.0,0.0,-0.8619028925895691,-0.0838139057159423
-0.0520182624459266,1.0306859016418457,-0.089863508939743,-0.5006459355354309,-0.1480928510427475,0.014948065392673,0.0,0.0,-0.8216808438301086,-0.0528266429901123
-0.0528702735900878,1.0192985534667969,-0.0859067887067794,-0.5060376524925232,-0.1473884582519531,0.0140877161175012,0.0,0.0,-0.9056126475334167,-0.7746756076812744
-0.0537336356937885,1.0077996253967283,-0.0882890671491622,-0.5108701586723328,-0.1454340666532516,0.0390878580510616,0.0,0.0,-0.9832252264022828,0.0240449905395507
-0.0545572265982627,0.9961795806884766,-0.0842752084136009,-0.5162621140480042,-0.1435223966836929,0.0382334776222705,0.0,0.0,-0.944977879524231,-0.0960775017738342
-0.055340863764286,0.9844383597373962,-0.0802409201860427,-0.5216540694236755,-0.1416530758142471,0.0373862907290458,0.0,0.0,-0.9915489554405212,-0.0685395002365112
-0.0560844428837299,0.972575843334198,-0.0761915147304534,-0.5270460247993469,-0.139825627207756,0.0365491025149822,0.0,0.0,-0.9805529117584229,-0.0669441223144531
-0.056787870824337,0.9605923295021056,-0.0721322149038314,-0.5324379205703735,-0.1380394101142883,0.0357244536280632,0.0,0.0,-0.9684318900108336,-0.4851985573768616
-0.0574509613215923,0.9484876394271852,-0.0680681467056274,-0.5378298163414001,-0.1362936645746231,0.0349150523543357,0.0,0.0,-0.951809823513031,-0.380806565284729
-0.0580739006400108,0.9362615942955016,-0.0640043541789054,-0.543221652507782,-0.1345874816179275,0.0341235473752021,0.0,0.0,-0.9610984921455384,0.3406267166137695
-0.058656595647335,0.9239146113395692,-0.0599457919597625,-0.5486134886741638,-0.1329198479652404,0.0333524122834205,0.0,0.0,-0.9867848753929138,-0.2033346891403198
-0.0591992363333702,0.9114462733268738,-0.0558973364531993,-0.5540053248405457,-0.1312896460294723,0.0326041691005229,0.0,0.0,-0.9843698740005492,-0.4012393951416015
-0.0597018226981163,0.8988565802574158,-0.05186378210783,-0.5593970417976379,-0.1296955943107605,0.0318812616169452,0.0,0.0,-0.926882803440094,-0.7707648277282715
-0.0602241531014442,0.886164665222168,-0.0553381815552711,-0.5638189911842346,-0.1266017407178878,0.0618767328560352,0.0,0.0,-0.9943658113479614,0.3258144855499267
-0.0607068054378032,0.8733515739440918,-0.0513486340641975,-0.5692113041877747,-0.1235411837697029,0.0612113773822784,0.0,0.0,-0.9897207617759703,0.7976422309875488
-0.0610979087650775,0.8604040145874023,-0.0408033318817615,-0.5753078460693359,-0.1218537017703056,0.0337494239211082,0.0,0.0,-0.9892761707305908,-0.3084776401519775
-0.0614501014351844,0.8473352789878845,-0.0368758365511894,-0.580699622631073,-0.1201961636543273,0.0331505760550498,0.0,0.0,-0.90110045671463,-0.7855069041252136
-0.0618107803165912,0.8341571688652039,-0.038929883390665,-0.5854699015617371,-0.1173568367958068,0.0567868947982788,0.0,0.0,-0.9072072505950928,0.1017447710037231
-0.0621333122253418,0.82085782289505,-0.0350822955369949,-0.5908620357513428,-0.1145436838269233,0.0562628507614135,0.0,0.0,-0.962956726551056,0.1057238578796386
-0.0624180808663368,0.8074371814727783,-0.0312810465693473,-0.5962541103363037,-0.1117547377943992,0.0557791404426097,0.0,0.0,-0.977436900138855,-0.5274365544319153
-0.0627038031816482,0.7938973903656006,-0.0323264822363853,-0.6014921069145203,-0.1080269142985344,0.0745567381381988,0.0,0.0,-0.9691569209098816,-0.3100500702857971
-0.0629528015851974,0.7802364230155945,-0.0286304615437984,-0.6068846583366394,-0.1043189615011215,0.0741589814424514,0.0,0.0,-0.945478081703186,-0.0798729062080383
-0.0631655678153038,0.7664544582366943,-0.0249930620193481,-0.6122772097587585,-0.1006286293268203,0.0738067179918289,0.0,0.0,-0.8694368004798889,-0.6023758053779602
-0.0633881539106369,0.7525593638420105,-0.027130564674735,-0.6172451376914978,-0.0957992374897003,0.09658794850111,0.0,0.0,-0.8904684782028198,0.6693756580352783
-0.0635227188467979,0.7385303378105164,-0.0169510040432214,-0.6232869625091553,-0.0923360511660575,0.0692639499902725,0.0,0.0,-0.9784541130065918,0.0753459930419921
-0.0636229515075683,0.7243802547454834,-0.013512572273612,-0.6286792159080505,-0.0888831913471221,0.0690572261810302,0.0,0.0,-0.8824565410614014,0.2915949821472168
-0.0636897087097168,0.7101090550422668,-0.0101478341966867,-0.6340714693069458,-0.0854381024837493,0.0689017176628112,0.0,0.0,-0.9713747501373292,-0.1334866285324096
-0.0637235641479492,0.6957167983055115,-0.006860283203423,-0.6394637227058411,-0.0819981768727302,0.0687985494732856,0.0,0.0,-0.9029194116592408,0.3518116474151611
-0.0637253746390342,0.681203305721283,-0.0036532885860651,-0.6448560357093811,-0.078560747206211,0.068748764693737,0.0,0.0,-0.9402565956115724,0.3793815374374389
-0.0636960044503212,0.6665686964988708,-0.0005300907068885,-0.6502481698989868,-0.0751230791211128,0.0687533244490623,0.0,0.0,-0.8001687526702881,0.2504045963287353
-0.0636361092329025,0.6518131494522095,0.0025062072090804,-0.6556402444839478,-0.0716824233531951,0.0688130035996437,0.0,0.0,-0.7670564651489258,-0.1787852644920349
-0.0635467544198036,0.6369362473487854,0.0054526510648429,-0.6610323786735535,-0.0682360008358955,0.0689284652471542,0.0,0.0,-0.6299052834510803,-0.0009669065475463
-0.0634287819266319,0.621938169002533,0.008306442759931,-0.666424572467804,-0.0647809654474258,0.0691004917025566,0.0,0.0,-0.5147081017494202,0.0187793970108032
-0.0632830634713172,0.6068189144134521,0.0110649447888135,-0.6718167066574097,-0.061314508318901,0.0693292096257209,0.0,0.0,-0.6680417060852051,0.6022111177444458
-0.0630659088492393,0.5915696620941162,0.0193411260843276,-0.67764812707901,-0.0589664094150066,0.0469620786607265,0.0,0.0,-0.5708675384521484,0.171194314956665
-0.0628229156136512,0.5761991739273071,0.0219018850475549,-0.683039665222168,-0.0566011369228363,0.0473054461181163,0.0,0.0,-0.59833824634552,0.3322315216064453
-0.0625552162528038,0.5607074499130249,0.0243605114519596,-0.6884312033653259,-0.0542158111929893,0.0477063432335853,0.0,0.0,-0.3543687462806701,0.1103219985961914
-0.0622637756168842,0.5450944304466248,0.0267151109874248,-0.6938228607177734,-0.0518075674772262,0.0481646955013275,0.0,0.0,-0.3184171915054321,0.0427628755569458
-0.0619495399296283,0.5293602347373962,0.0289639942348003,-0.6992143392562866,-0.0493735373020172,0.0486803576350212,0.0,0.0,-0.2710795402526855,-0.134935975074768
-0.0616134628653526,0.5135048031806946,0.0311056785285472,-0.7046060562133789,-0.0469108931720256,0.0492530390620231,0.0,0.0,0.1949446201324463,-0.2898842096328735
-0.0613391883671283,0.4978936016559601,0.0253531970083713,-0.6937652230262756,-0.044849656522274,0.0412244349718093,0.0,0.0,-0.0695027112960815,0.112842321395874
-0.0610451698303222,0.4821611940860748,0.0272769574075937,-0.699156641960144,-0.0427541621029377,0.0419099703431129,0.0,0.0,0.1527203321456909,-0.467193603515625
-0.0607861503958702,0.4669138193130493,0.0240756180137395,-0.6776111125946045,-0.040948674082756,0.0361098647117614,0.0,0.0,-0.1716617345809936,-0.0284845829010009
-0.0605096817016601,0.4515451192855835,0.0257782451808452,-0.6830024123191833,-0.0391033925116062,0.036905713379383,0.0,0.0,-0.0192578434944152,-0.5039895176887512
-0.0602574348449707,0.4360601902008056,0.0222766511142253,-0.6881465911865234,-0.0361927784979343,0.0582123100757598,0.0,0.0,0.5674904584884644,0.340158462524414
-0.0598872192203998,0.4212769269943237,0.0336363688111305,-0.6569530367851257,-0.0328543744981288,0.0667682439088821,0.0,0.0,0.2191845178604126,0.0719212293624877
-0.0594771392643451,0.406750351190567,0.0375022925436496,-0.6455506086349487,-0.0293873194605112,0.0693410113453865,0.0,0.0,0.7097554206848145,-0.0295184254646301
-0.0589457526803016,0.3927232623100281,0.0491328500211238,-0.6233548521995544,-0.0254259165376424,0.0792281180620193,0.0,0.0,0.2864062786102295,0.1738016605377197
-0.0582763664424419,0.3792374730110168,0.0623286254703998,-0.599299430847168,-0.0208818688988685,0.0908810719847679,0.0,0.0,-0.2344292402267456,0.1873815059661865
-0.0575961098074913,0.3656305968761444,0.0633678585290908,-0.604692280292511,-0.0162826627492904,0.091984212398529,0.0,0.0,0.5324097871780396,0.1889553070068359
-0.0568998344242572,0.3529478907585144,0.064934954047203,-0.563630998134613,-0.0116503536701202,0.0926463901996612,0.0,0.0,-0.1526428461074829,0.8498855829238892
-0.056123923510313,0.340149313211441,0.0746369287371635,-0.5688061118125916,-0.0087350001558661,0.0583071298897266,0.0,0.0,0.107511281967163,-0.0861395597457885
-0.0552528388798236,0.3278991281986236,0.0837058871984481,-0.544434130191803,-0.005371537990868,0.0672692060470581,0.0,0.0,-0.4128221273422241,0.3934297561645508
-0.0543748848140239,0.3155279159545898,0.0843226090073585,-0.5498262643814087,-0.0019439917523413,0.0685510709881782,0.0,0.0,-0.2925186157226562,0.0111142396926879
-0.0534910187125206,0.3030354976654053,0.0848383456468582,-0.5552184581756592,0.0015496283303946,0.0698722600936889,0.0,0.0,-0.1862103939056396,0.1873356103897094
-0.0526023879647254,0.2904218733310699,0.0852554216980934,-0.5606106519699097,0.0051112221553921,0.071231834590435,0.0,0.0,0.5640194416046143,0.2568609714508056
-0.0517346374690532,0.278495192527771,0.0831989794969558,-0.5300918221473694,0.0086404867470264,0.0705852583050727,0.0,0.0,0.5387529134750366,0.4096965789794922
-0.0509861931204795,0.2675572335720062,0.0717424973845481,-0.4861553013324737,0.0117051396518945,0.0612929873168468,0.0,0.0,-0.1880780458450317,0.6644759178161621
-0.050175379961729,0.2565023899078369,0.0794284269213676,-0.4913393855094909,0.0133303878828883,0.0325049646198749,0.0,0.0,0.22635018825531,-0.3138371706008911
-0.0494105331599712,0.2461608499288559,0.074950560927391,-0.459640234708786,0.014846459031105,0.0303214602172374,0.0,0.0,-0.2805309295654297,-0.4282952547073364
-0.0486452095210552,0.2356980144977569,0.0749166309833526,-0.4650317132472992,0.0164386257529258,0.031843427568674,0.0,0.0,-0.0966608524322509,-0.6312444806098938
-0.047932244837284,0.2251105904579162,0.0682788640260696,-0.4705882370471954,0.0194154623895883,0.0595370009541511,0.0,0.0,0.47969651222229,0.5837830305099487
-0.0472980514168739,0.2152083665132522,0.0617590360343456,-0.4401205480098724,0.021051375195384,0.0327183902263641,0.0,0.0,-0.0460323095321655,0.2045916318893432
-0.0466657653450965,0.2051849216222763,0.0614953227341175,-0.4455120265483856,0.0227669663727283,0.0343117527663707,0.0,0.0,0.3064113855361938,-0.2396931648254394
-0.0459650978446006,0.1958953291177749,0.0678526014089584,-0.4129096567630768,0.0249505918473005,0.0436726883053779,0.0,0.0,-0.2132310271263122,0.0331290960311889
-0.0452675819396972,0.1864844113588333,0.0674555674195289,-0.4183014333248138,0.0272157005965709,0.0453019328415393,0.0,0.0,0.5131018161773682,-0.9221975207328796
-0.0445156097412109,0.178010419011116,0.0707954168319702,-0.3767071962356567,0.031569056212902,0.0870668664574623,0.0,0.0,0.2409616708755493,-0.3297234177589416
-0.0438035018742084,0.1702885925769806,0.0668073669075965,-0.3432945609092712,0.0359256453812122,0.0871317759156227,0.0,0.0,-0.1086408495903015,-0.1918293237686157
-0.0430960655212402,0.1624456048011779,0.0662431195378303,-0.3486875593662262,0.0403654500842094,0.0887961462140083,0.0,0.0,-0.2634820938110351,0.6487321853637695
-0.0423361770808696,0.1544852405786514,0.0728842467069625,-0.353882759809494,0.0434346944093704,0.0613845102488994,0.0,0.0,0.1659170389175415,0.0249487161636352
-0.0416120514273643,0.1472668796777725,0.0692472234368324,-0.320912629365921,0.0465641133487224,0.0625884979963302,0.0,0.0,-0.1554009914398193,0.4372477531433105
-0.0408939346671104,0.1399273425340652,0.0685579255223274,-0.326304942369461,0.0497773438692092,0.0642646700143814,0.0,0.0,-0.1495662927627563,-0.5354899764060974
-0.0402188301086425,0.1324613690376281,0.0632457137107849,-0.3319686651229858,0.053997728973627,0.0844077095389366,0.0,0.0,-0.0621227025985717,-0.6898627877235413
-0.0396159179508686,0.1248703598976135,0.0542645938694477,-0.3376058340072632,0.0599530711770057,0.1191066727042198,0.0,0.0,-0.3893963098526001,0.7684404850006104
-0.0389719977974891,0.117160826921463,0.0594969093799591,-0.3428501188755035,0.0647884532809257,0.0967076197266578,0.0,0.0,0.0458176136016845,0.1546339988708496
-0.0383719429373741,0.1098631471395492,0.0551057644188404,-0.3245600163936615,0.0696434155106544,0.0970990359783172,0.0,0.0,-0.3470125794410705,0.9719860553741456
-0.0376988425850868,0.1024510934948921,0.0643615201115608,-0.3295660316944122,0.0725619941949844,0.0583717003464698,0.0,0.0,-0.0776161551475524,0.721754789352417
-0.0369632728397846,0.0949188098311424,0.072289690375328,-0.3348289430141449,0.073814570903778,0.0250512901693582,0.0,0.0,0.630926251411438,0.5041906833648682
-0.036142636090517,0.0882931053638458,0.0814482122659683,-0.2945069074630737,0.0744252279400825,0.0122131202369928,0.0,0.0,-0.1965531110763549,-0.4299814105033874
-0.0353291518986225,0.0815461724996566,0.0806518644094467,-0.2998985648155212,0.0751150101423263,0.0137956049293279,0.0,0.0,0.1915013790130615,-0.5277467966079712
