x_pos,y_pos,x_vel,y_vel,angle,ang_vel,leg_1,leg_2,main_booster,lat_booster
-0.0015175819862633,1.4035277366638184,-0.1537616103887558,-0.3285486102104187,0.0017947969026863,0.0354065038263797,0.0,0.0,-0.1473467350006103,0.7512577772140503
-0.0029653548263013,1.3960583209991455,-0.1449370980262756,-0.3319721519947052,0.0019584312103688,0.0032734673004597,0.0,0.0,-0.2225567698478698,-0.0615349411964416
-0.0044073103927075,1.3884917497634888,-0.1443897485733032,-0.3362935781478882,0.0021500166039913,0.003832200076431,0.0,0.0,-0.1985576748847961,0.6947733163833618
-0.0057997703552246,1.3808262348175049,-0.138363167643547,-0.3406882286071777,0.0012666727416217,-0.0176683999598026,0.0,0.0,0.0894054174423217,0.2102444171905517
-0.0071024894714355,1.373709201812744,-0.1298175901174545,,0.0008203799370676,-0.0089263813570141,0.0,0.0,-0.2669121623039245,-0.0267608761787414
-0.0084000583738088,1.3664952516555786,-0.1293359547853469,-0.3206163346767425,0.0004034688754472,-0.0083391163498163,0.0,0.0,-0.2259012460708618,0.0756317377090454
-0.0096927639096975,1.359184741973877,-0.1288768202066421,-0.3249124586582184,1.7154865417978726e-05,-0.007727185729891,0.0,0.0,-0.5383374691009521,0.054445743560791
-0.0109807970002293,1.3517775535583496,-0.1284403949975967,-0.3292098045349121,-0.0003382297581993,-0.0071083568036556,0.0,0.0,-0.5657744407653809,-0.3034918904304504
-0.0122643467038869,1.3442736864089966,-0.1280266642570495,-0.3335078656673431,-0.0006622271612286,-0.0064807450398802,0.0,0.0,-0.3000106811523437,0.6946020126342773
-0.0134890554472804,1.336677312850952,-0.1207801550626754,-0.3376164734363556,-0.0023286829236894,-0.0333323255181312,0.0,0.0,-0.1459085345268249,0.8111040592193604
-0.0146366115659475,1.3289847373962402,-0.1112437471747398,-0.3419035375118255,-0.0057990686036646,-0.0694142654538154,0.0,0.0,-0.2578027248382568,0.7536395788192749
-0.0157137867063283,1.3211934566497805,-0.1025624051690101,-0.3463039398193359,-0.0109049202874302,-0.1021261662244796,0.0,0.0,-0.3184124231338501,0.3856399059295654
-0.0167873390018939,1.3133059740066528,-0.1022234931588172,-0.3506042063236236,-0.0159769803285598,-0.101450502872467,0.0,0.0,-0.5160056352615356,-0.2868629693984985
-0.0178573615849018,1.3053219318389893,-0.1019065603613853,-0.3549043238162994,-0.0210156925022602,-0.100783571600914,0.0,0.0,-0.7055225372314453,0.3285152912139892
-0.0189241413027048,1.2972416877746582,-0.1016113981604576,-0.35920450091362,-0.0260205902159214,-0.1001069918274879,0.0,0.0,-0.7454368472099304,0.1263341903686523
-0.0199877731502056,1.28906512260437,-0.1013371720910072,-0.3635047674179077,-0.0309914853423833,-0.0994269326329231,0.0,0.0,-0.5183609127998352,0.4892020225524902
-0.0210484508424997,1.2807918787002563,-0.1010836958885192,-0.3678051233291626,-0.0359282977879047,-0.098745197057724,0.0,0.0,-0.8884947896003723,0.5503150224685669
-0.0220529548823833,1.2724149227142334,-0.0941263511776924,-0.3724747896194458,-0.0421825051307678,-0.1250955313444137,0.0,0.0,-0.5755250453948975,0.1564211845397949
-0.0230548866093158,1.263941764831543,-0.0939088687300682,-0.3767766952514648,-0.0484018065035343,-0.1243971958756446,0.0,0.0,-0.9526042342185974,-0.299196720123291
-0.0240544322878122,1.255372405052185,-0.0937110185623169,-0.3810786008834839,-0.0545870475471019,-0.1237161383032798,0.0,0.0,-0.897217869758606,-0.2466468811035156
-0.0250518806278705,1.24670672416687,-0.0935320109128952,-0.3853804767131805,-0.0607380829751491,-0.1230319142341613,0.0,0.0,-0.8401259183883667,-0.4015049934387207
-0.0260474197566509,0.0,-0.0933710187673568,-0.3896824419498443,-0.0668549984693527,-0.12234927713871,0.0,0.0,-0.9558570981025696,0.1592772006988525
-0.0270410533994436,1.2290866374969482,-0.0932275801897049,-0.3939845263957977,-0.072937935590744,-0.1216699257493019,0.0,0.0,-0.8900123834609985,-0.0648373961448669
-0.0280330665409564,1.2201321125030518,-0.0931010469794273,-0.3982867300510406,-0.0789871364831924,-0.1209945082664489,0.0,0.0,-0.8185198307037354,0.2235447168350219
-0.0290236473083496,1.2110812664031982,-0.0929907411336898,-0.4025889635086059,-0.0850027874112129,-0.1203237548470497,0.0,0.0,-0.8210832476615906,-0.7043254375457764
-0.0300828926265239,1.2019251585006714,-0.1016509905457496,-0.4071844816207886,-0.0892417132854461,-0.0847783386707305,0.0,0.0,-0.4994003772735595,0.53931725025177
-0.0310982707887887,1.192670464515686,-0.0961993783712387,-0.4116533398628235,-0.0945290178060531,-0.1057460084557533,0.0,0.0,-0.696932852268219,-0.6629641056060791
-0.0321758277714252,1.1833350658416748,-0.1040825247764587,-0.4151431024074554,-0.098174087703228,-0.072901502251625,0.0,0.0,-0.9059179425239564,-0.3613565564155578
-0.0332527160644531,1.1739033460617063,-0.1040457710623741,-0.419440358877182,-0.1017877906560897,-0.0722740665078163,0.0,0.0,-0.4311000108718872,0.0570309162139892
-0.0343290343880653,1.164374828338623,-0.1040213108062744,-0.4237376153469085,-0.1053705587983131,-0.0716550126671791,0.0,0.0,-0.7762093544006348,-0.07957524061203
-0.035404872149229,1.1547497510910034,-0.1040083542466163,-0.4280348122119903,-0.1089228019118309,-0.0710450857877731,0.0,0.0,-0.8135888576507568,0.101186990737915
-0.03648042678833,1.1450283527374268,-0.1040060892701149,-0.4323319792747497,-0.1124450489878654,-0.0704450085759162,0.0,0.0,-0.8196365833282471,-0.6974312663078308
-0.0376174934208393,1.1352272033691406,-0.1117902845144271,-0.4357507824897766,-0.1143529787659645,-0.0381585247814655,0.0,0.0,-0.6742369532585144,-0.2972559928894043
-0.0387544631958007,1.1253292560577393,-0.1118068546056747,-0.4400471746921539,-0.1162319928407669,-0.0375804230570793,0.0,0.0,-0.2825992107391357,0.7858922481536865
-0.039827823638916,1.1153255701065063,-0.1038579195737838,-0.444890946149826,-0.1196927726268768,-0.0692155212163925,0.0,0.0,-0.7064724564552307,0.3361222743988037
-0.040901280939579,1.1052252054214478,-0.1038902774453163,-0.449188083410263,-0.1231258735060691,-0.0686621144413948,0.0,0.0,-0.5100234150886536,0.0837410688400268
-0.0419748313724994,1.0950281620025637,-0.1039292067289352,-0.4534851908683777,-0.1265319734811782,-0.0681221634149551,0.0,0.0,-0.8111281394958496,0.531169056892395
-0.0430038459599018,1.0847302675247192,-0.0983761027455329,-0.4580737650394439,-0.1310377269983291,-0.0901148915290832,0.0,0.0,-0.6645864844322205,0.2625927925109863
-0.0440331473946571,1.074336051940918,-0.0984258130192756,-0.4623716175556183,-0.1355178952217102,-0.0896035358309745,0.0,0.0,-0.8666749596595764,-0.0222718119621276
-0.0450626388192176,1.063845157623291,-0.0984795838594436,-0.4666694104671478,-0.1399732679128646,-0.0891074389219284,0.0,0.0,-0.904934823513031,0.6860644817352295
-0.0460476875305175,1.0532543659210205,-0.0929325595498085,-0.4712339639663696,-0.1455299407243728,-0.1111333966255188,0.0,0.0,-0.8725255131721497,-0.9008798003196716
-0.0470892898738384,1.0425775051116943,-0.1000492125749588,-0.4749346375465393,-0.1496323347091674,-0.0820477083325386,0.0,0.0,-0.8330119848251343,-0.5986367464065552
-0.0481711402535438,1.0318063497543335,-0.1051055192947387,-0.479027658700943,-0.1527117043733596,-0.0615873709321022,0.0,0.0,-0.9827530980110168,-0.1275674104690551
-0.0492534637451171,1.020938754081726,-0.1051670089364051,-0.4833245277404785,-0.1557695716619491,-0.0611577332019805,0.0,0.0,-0.8993346691131592,0.2020196914672851
-0.0503361709415912,1.009974479675293,-0.105228379368782,-0.4876214265823364,-0.1588068604469299,-0.0607458129525184,0.0,0.0,-0.7100460529327393,-0.0597096681594848
-0.051419161260128,0.9989137053489684,-0.1052888184785842,-0.4919182956218719,-0.1618244796991348,-0.0603521168231964,0.0,0.0,-0.9386332035064696,-0.7308191061019897
-0.0525543205440044,0.9877648949623108,-0.1118274927139282,-0.4956901371479034,-0.1635106354951858,-0.0337235368788242,0.0,0.0,-0.9606568813323976,0.7186887264251709
-0.0536433234810829,0.9765156507492064,-0.1060721129179,-0.5002779960632324,-0.1663451343774795,-0.0566897690296173,0.0,0.0,-0.8911861181259155,-0.5412887930870056
-0.0547836311161518,0.9651874303817748,-0.1125418096780777,-0.5036412477493286,-0.1678369492292404,-0.0298363473266363,0.0,0.0,-0.9865580201148988,-0.1623241305351257
-0.0559243187308311,0.9537626504898072,-0.112590417265892,-0.5079376101493835,-0.1693128645420074,-0.0295185800641775,0.0,0.0,-0.9289941787719728,-0.8448237180709839
-0.057115364819765,0.9422537684440612,-0.1189367175102233,-0.5115259885787964,-0.1694846600294113,-0.0034360270947217,0.0,0.0,-0.7848476767539978,0.2966079711914062
-0.0583066940307617,0.930648148059845,-0.11897474527359,-0.5158222317695618,-0.1696425676345825,-0.0031576268374919,0.0,0.0,-0.9990763664245604,-0.0070714950561523
-0.0594982132315635,0.9189457297325134,-0.1190063953399658,-0.5201184153556824,-0.1697874963283538,-0.0028989426791667,0.0,0.0,-0.991008460521698,-0.4808583259582519
-0.0606898292899131,0.9071468710899352,-0.1190309077501297,-0.5244146585464478,-0.1699205189943313,-0.0026602135039865,0.0,0.0,-0.97977876663208,-0.905118465423584
-0.0619349479675293,0.895261287689209,-0.1257530003786087,-0.5280977487564087,-0.1686799526214599,0.0248116254806518,0.0,0.0,-0.9990027546882628,-0.042179524898529
-0.0631800666451454,0.8832793235778809,-0.1257611811161041,-0.5323941111564636,-0.167429432272911,0.0250104423612356,0.0,0.0,-0.9336554408073424,0.490768551826477
-0.0644250884652137,0.871200680732727,-0.1257601380348205,-0.5366905331611633,-0.1661698967218399,0.0251903943717479,0.0,0.0,-0.9988141655921936,0.810901403427124
-0.065591812133789,0.8590089678764343,-0.1159503012895584,-0.5419339537620544,-0.1668969243764877,-0.014540297910571,0.0,0.0,-0.9998544454574584,-0.4648610353469848
-0.0667582526803016,0.8467204570770264,-0.1159288436174392,-0.5462303161621094,-0.1676169633865356,-0.0144007075577974,0.0,0.0,-0.9999372363090516,-0.112622320652008
-0.0679244026541709,0.8343355059623718,-0.1158962473273277,-0.5505266785621643,-0.1683309674263,-0.0142804663628339,0.0,0.0,-0.9995949864387512,-0.2576831579208374
-0.0690899863839149,0.8218538761138916,-0.115851916372776,-0.5548230409622192,-0.1690399199724197,-0.0141794681549072,0.0,0.0,-0.9965643882751464,-0.193378746509552
-0.0702549964189529,0.8092753887176514,-0.1157952770590782,-0.5591194033622742,-0.1697447746992111,-0.0140974018722772,0.0,0.0,-0.975746214389801,-0.1703898906707763
-0.0714193359017372,0.796600341796875,-0.1157258003950119,-0.5634157657623291,-0.1704464703798294,-0.0140339331701397,0.0,0.0,-0.9973317980766296,-0.0297315120697021
-0.072582721710205,0.7838287353515625,-0.1156429648399353,-0.567712128162384,-0.1711459010839462,-0.0139885526150465,0.0,0.0,-0.9993075132369996,-0.6116650104522705
-0.073792740702629,0.7709680199623108,-0.1215054020285606,-0.5715262293815613,-0.1706370115280151,0.0101778954267501,0.0,0.0,-0.998176634311676,-0.7079076170921326
-0.075067900121212,0.7580284476280212,-0.129742294549942,-0.5748454928398132,-0.1684174090623855,0.044392205774784,0.0,0.0,-0.9925720691680908,-0.7880368232727051
-0.0764000862836837,0.7450163960456848,-0.1369547545909881,-0.5778961777687073,-0.1646703034639358,0.0749420374631881,0.0,0.0,-0.9983554482460022,-0.374037504196167
-0.0777307525277137,0.7319077849388123,-0.136814147233963,-0.5821937918663025,-0.160924345254898,0.0749188065528869,0.0,0.0,-0.9790531396865844,-0.5647463202476501
-0.0791012793779373,0.7187194228172302,-0.141876071691513,-0.5856324434280396,-0.1560967713594436,0.0965514332056045,0.0,0.0,-0.9851526021957396,-0.5857113003730774
-0.0805231109261512,0.705444872379303,-0.14837446808815,-0.5893459320068359,-0.1499180495738983,0.1235744804143905,0.0,0.0,-0.9747924208641052,-0.1705901026725769
-0.0819431319832801,0.692074179649353,-0.1481868624687194,-0.5936455130577087,-0.1437427848577499,0.1235053315758705,0.0,0.0,-0.9889582991600036,-0.0637741684913635
-0.0833610519766807,0.678607165813446,-0.1479828655719757,-0.5979450941085815,-0.1375716775655746,0.1234221458435058,0.0,0.0,-0.9872224926948548,-0.3560079336166382
-0.0847767814993858,0.6650442481040955,-0.1477622389793396,-0.6022446155548096,-0.1314053982496261,0.123325690627098,0.0,0.0,-0.9783959984779358,0.4950517416000366
-0.0861901268362999,0.6513850092887878,-0.1475248038768768,-0.6065442562103271,-0.1252445727586746,0.1232166439294815,0.0,0.0,-0.9285706281661988,0.2756484746932983
-0.087600901722908,0.6376296281814575,-0.1472704112529754,-0.6108437180519104,-0.1190897971391677,0.1230957061052322,0.0,0.0,-0.9878252148628236,0.040216326713562
-0.0890090018510818,0.6237781047821045,-0.1469989269971847,-0.615143358707428,-0.1129416301846504,0.1229636818170547,0.0,0.0,-0.9445280432701112,0.4532756805419922
-0.0904143303632736,0.6098303198814392,-0.1467103064060211,-0.6194429397583008,-0.1068005487322807,0.1228213682770729,0.0,0.0,-0.8888146281242371,0.585932731628418
-0.0917706489562988,0.5957843065261841,-0.1406619548797607,-0.6239160895347595,-0.1018175035715103,0.099661037325859,0.0,0.0,-0.883340060710907,0.7871122360229492
-0.0930531471967697,0.5816388726234436,-0.1314764022827148,-0.6284670233726501,-0.0986177399754524,0.0639953836798667,0.0,0.0,-0.8818203806877136,0.5394610166549683
-0.0942974090576171,0.5673972368240356,-0.1267628371715545,-0.6328105926513672,-0.0962995588779449,0.0463634356856346,0.0,0.0,-0.958237886428833,0.7707781791687012
-0.0954911261796951,0.5530440211296082,-0.1204742193222045,-0.6378445029258728,-0.0951992571353912,0.0220059622079134,0.0,0.0,-0.9021925330162048,0.2869559526443481
-0.0966810211539268,0.5385943651199341,-0.120099700987339,-0.6421410441398621,-0.0941080078482627,0.0218251477926969,0.0,0.0,-0.5408280491828918,0.7658529281616211
-0.0978170409798622,0.5240407586097717,-0.1134111732244491,-0.6468366384506226,-0.0942957401275634,-0.0037547429092228,0.0,0.0,-0.3881334662437439,0.0825198888778686
-0.0989490523934364,0.5093905329704285,-0.1130032762885093,-0.651133120059967,-0.0944929793477058,-0.0039446782320737,0.0,0.0,0.3326396942138672,0.6527992486953735
-0.0999826416373252,0.4954835474491119,-0.1018244251608848,-0.6181889176368713,-0.096018761396408,-0.0305157005786895,0.0,0.0,-0.7843967080116272,0.7614604234695435
-0.1009432822465896,0.4814701974391937,-0.0927665084600448,-0.6230327486991882,-0.099291980266571,-0.065464362502098,0.0,0.0,-0.1521787047386169,0.2189393043518066
-0.101899430155754,0.467360258102417,-0.0923103392124176,-0.6273300647735596,-0.1025750339031219,-0.0656609013676643,0.0,0.0,0.1432961225509643,0.32699716091156
-0.1027586013078689,0.4535596966743469,-0.0828979909420013,-0.6135671734809875,-0.1055709794163703,-0.0599188134074211,0.0,0.0,0.6862857341766357,-0.4623125791549682
-0.1034022346138954,0.4405083656311035,-0.0620337352156639,-0.5802294611930847,-0.1078820899128913,-0.0462222620844841,0.0,0.0,-0.713275671005249,-0.2948915958404541
-0.1040409058332443,0.4273602962493896,-0.0615318492054939,-0.5845262408256531,-0.1102029085159301,-0.0464166030287742,0.0,0.0,0.2660951614379883,-0.0118971467018127
-0.104615494608879,0.4149748086929321,-0.0550932958722114,-0.5506441593170166,-0.1125534176826477,-0.0470102205872535,0.0,0.0,-0.380323052406311,-0.5277986526489258
-0.1052239388227462,0.4025032520294189,-0.0594732835888862,-0.5543918609619141,-0.113912783563137,-0.027187529951334,0.0,0.0,-0.0655745267868042,0.268712043762207
-0.1058269515633583,0.3899351954460144,-0.0589291267096996,-0.5586885213851929,-0.11528130620718,-0.027370223775506,0.0,0.0,-0.0265963077545166,0.2812528610229492
-0.1064245253801345,0.377270370721817,-0.0583717711269855,-0.5629851222038269,-0.1166586503386497,-0.0275470167398452,0.0,0.0,0.042236328125,0.6869850158691406
-0.106962963938713,0.3649828433990478,-0.0510300286114215,-0.5463354587554932,-0.1194500997662544,-0.0558289475739002,0.0,0.0,-0.0279009342193603,-0.0209177732467651
-0.1074955910444259,0.3525987863540649,-0.0504477806389331,-0.5506324768066406,-0.1222496256232261,-0.055990744382143,0.0,0.0,0.7010636329650879,-0.8088900446891785
-0.1080407127737999,0.3410067558288574,-0.0532605722546577,-0.5153034925460815,-0.1234906762838363,-0.0248211733996868,0.0,0.0,-0.2392908334732055,0.5138105154037476
-0.1085474044084549,0.3293169140815735,-0.0485995486378669,-0.5197254419326782,-0.125550702214241,-0.0412001684308052,0.0,0.0,0.1504503488540649,-0.8427020907402039
-0.1089831367135047,0.318257063627243,-0.0432324633002281,-0.4915786683559418,-0.1258956044912338,-0.0068979612551629,0.0,0.0,-0.6884557008743286,0.8116292953491211
-0.1093543022871017,0.3070953488349914,-0.0352718532085418,-0.4962307214736938,-0.1277204900979995,-0.0364976897835731,0.0,0.0,-0.417886734008789,-0.8095863461494446
-0.1097907051444053,0.2958567440509796,-0.0436564944684505,-0.4994948506355285,-0.1277091801166534,0.0002263026835862,0.0,0.0,-0.1940994262695312,-0.3897387981414795
-0.1102208122611045,0.2845213711261749,-0.0430117882788181,-0.503791332244873,-0.127702459692955,0.0001344661141047,0.0,0.0,-0.5224107503890991,0.217639684677124
-0.1106443405151367,0.2730893790721893,-0.0423586666584014,-0.5080877542495728,-0.1276995688676834,5.7908386224880815e-05,0.0,0.0,0.1046681404113769,-0.1826508045196533
-0.1111166030168533,0.2621009647846222,-0.046748649328947,-0.4884136915206909,-0.1281651109457016,-0.0093108993023633,0.0,0.0,-0.221868634223938,-0.6035992503166199
-0.1116207093000412,0.2510270178318023,-0.0509492643177509,-0.4921318590641022,-0.1276378333568573,0.010546239092946,0.0,0.0,-0.5432718992233276,0.1847928762435913
-0.1121182441711425,0.2398563027381897,-0.050274483859539,-0.4964282810688019,-0.1271117776632309,0.0105212144553661,0.0,0.0,0.030045747756958,-0.6041168570518494
-0.112494371831417,0.2292911112308502,-0.0394898355007171,-0.4694071114063263,-0.1252497881650924,0.0372396633028984,0.0,0.0,-0.1923569440841674,0.175239086151123
-0.1128637343645095,0.2186293005943298,-0.0388037674129009,-0.4737037718296051,-0.1233870983123779,0.037253625690937,0.0,0.0,0.2226324081420898,0.1007750034332275
-0.1130435019731521,0.2087926715612411,-0.0203400887548923,-0.4369896054267883,-0.1210342347621917,0.0470570623874664,0.0,0.0,-0.6077800393104553,-0.1869809627532959
-0.1132162064313888,0.1988594084978103,-0.0196452643722295,-0.4412864446640014,-0.1186785548925399,0.047113548964262,0.0,0.0,0.2380024194717407,0.4508421421051025
-0.1133149117231369,0.1897418349981308,-0.0122124953195452,-0.4050421416759491,-0.1163439154624939,0.046692669391632,0.0,0.0,-0.62796550989151,-0.4183766841888428
-0.1134064644575119,0.1805276274681091,-0.0115115065127611,-0.4093389213085174,-0.1140041649341583,0.0467949099838733,0.0,0.0,-0.1466508507728576,0.1206514835357666
-0.1134909614920616,0.1712167114019394,-0.0108084427192807,-0.4136357009410858,-0.1116581112146377,0.0469211935997009,0.0,0.0,-0.092225968837738,0.0603314638137817
-0.1135682091116905,0.1618093103170395,-0.0101039884611964,-0.4179324805736542,-0.1093045100569725,0.0470721162855625,0.0,0.0,0.2889028787612915,-0.5639441609382629
-0.1137479767203331,0.1529279053211212,-0.0212686918675899,-0.3944938778877258,-0.1060412302613258,0.0652657896280288,0.0,0.0,0.1778445243835449,0.032912254333496
-0.113893412053585,0.1445518285036087,-0.0177637748420238,-0.3720455765724182,-0.102838858962059,0.0640473142266273,0.0,0.0,-0.6304894685745239,0.4320497512817383
-0.1140316948294639,0.1360792070627212,-0.0170594193041324,-0.3763427734375,-0.0996250584721565,0.0642760321497917,0.0,0.0,-0.1749715805053711,0.6288453340530396
-0.1141028404235839,0.1274951994419098,-0.0088331419974565,-0.3813976645469665,-0.0979261994361877,0.0339771583676338,0.0,0.0,0.6795947551727295,-0.1803860664367675
-0.1140002235770225,0.1198378205299377,0.0080655515193939,-0.3401892781257629,-0.0957548767328262,0.0434265732765197,0.0,0.0,0.1740897893905639,0.4890342950820923
-0.1138179749250412,0.1129371002316474,0.0159355644136667,-0.3065535128116607,-0.0934856310486793,0.0453848615288734,0.0,0.0,-0.2441123723983764,0.92354416847229
