x_pos,y_pos,x_vel,y_vel,angle,ang_vel,leg_1,leg_2,main_booster,lat_booster
-0.0016049385303631,1.402935266494751,-0.1626673638820648,-0.3548846244812011,0.0019515390740707,0.0385098196566104,0.0,0.0,-0.5937611744274689,0.6075959359405168
-0.003237533615902,1.3942813873291016,-0.1640067994594574,-0.3846143782138824,0.0026829184498637,0.0146295772865414,0.0,0.0,0.917265148334668,-0.7863942868852825
-0.0048417090438306,1.3856357336044312,-0.1632821857929229,-0.3842552006244659,0.0055120470933616,0.0565878935158252,0.0,0.0,-0.8735762119663282,-0.8500625123646188
-0.0066008567810058,1.3762977123260498,-0.1809576600790023,-0.4150591790676117,0.0105037745088338,0.0998437106609344,0.0,0.0,0.7324692843289524,0.7846592485808095
-0.0082295415922999,1.3673019409179688,-0.1668243259191513,-0.3998421728610992,0.0144178979098796,0.0782893970608711,0.0,0.0,-0.9291555180616702,0.9876436543669046
-0.0098329540342092,1.3576174974441528,-0.1620361506938934,-0.4304341971874237,0.0161026883870363,0.0336989648640155,0.0,0.0,-0.3539371980611536,0.7664151961473092
-0.0114457132294774,1.347245454788208,-0.1616846621036529,-0.460986465215683,0.0165063347667455,0.0080737527459859,0.0,0.0,0.2074942094285783,-0.6049068750661591
-0.0130578037351369,1.336896896362305,-0.1632536947727203,-0.459958553314209,0.0185196939855813,0.040271159261465,0.0,0.0,-0.5272954752091932,-0.7920275833710977
-0.0147961620241403,1.3258659839630127,-0.1776922047138214,-0.4903151094913482,0.0223287399858236,0.0761879831552505,0.0,0.0,0.9119063266562676,-0.986705409169329
-0.0166921615600585,1.3154103755950928,-0.1956317126750946,-0.4647949337959289,0.0282964147627353,0.1193644553422927,0.0,0.0,-0.9662172495345204,-0.7097745185667887
-0.0186934471130371,1.3042644262313845,-0.2076084613800048,-0.4955335855484009,0.0356847643852233,0.1477806270122528,0.0,0.0,-0.5445126180390114,-0.6263396595925208
-0.020793342962861,1.2924264669418335,-0.2187878787517547,-0.5263558030128479,0.0443940609693527,0.1742019206285476,0.0,0.0,-0.4970216029566063,-0.936776713164311
-0.0230035781860351,1.2799017429351809,-0.231529876589775,-0.5569992065429688,0.054792933166027,0.2079963237047195,0.0,0.0,-0.0847828944137631,-0.614527449775484
-0.0253063198179006,1.2666804790496826,-0.2421098500490188,-0.5880940556526184,0.0665152892470359,0.2344684302806854,0.0,0.0,0.1244418474210729,-0.9461959392153072
-0.0276554115116596,1.2536256313323977,-0.2488904297351837,-0.5808963775634766,0.0803785920143127,0.2772911489009857,0.0,0.0,-0.556611985447039,-0.9721623852858812
-0.0301112178713083,1.2398656606674194,-0.261409193277359,-0.6124828457832336,0.0960857570171356,0.3141718506813049,0.0,0.0,0.9010045093468582,0.6856744560954482
-0.032480239868164,1.226929783821106,-0.2520468831062317,-0.575965940952301,0.1111278310418129,0.3008690476417541,0.0,0.0,0.4050901191429039,-0.6199899054125186
-0.0348407737910747,1.213791847229004,-0.2529653906822204,-0.5852479338645935,0.1279614567756652,0.3367033302783966,0.0,0.0,0.1620654786710818,0.87901502986185
-0.0371638312935829,1.2008452415466309,-0.2477430999279022,-0.5767946839332581,0.143361434340477,0.3080276548862457,0.0,0.0,0.8587189576663168,-0.8206644561790772
-0.0397750847041606,1.188123345375061,-0.2782630622386932,-0.5671644806861877,0.1604918390512466,0.342639148235321,0.0,0.0,0.2902062411188506,0.6071264832627297
-0.0423574447631835,1.175627827644348,-0.274623841047287,-0.5572094321250916,0.1769160777330398,0.3285147249698639,0.0,0.0,-0.3744311411071988,0.6535136911987642
-0.0449176803231239,1.16245698928833,-0.271340399980545,-0.5872647166252136,0.1923203766345977,0.3081137239933014,0.0,0.0,-0.4836644347932664,0.8480308841638236
-0.0474254600703716,1.148622751235962,-0.2643170952796936,-0.6166732311248779,0.2059777379035949,0.2731716930866241,0.0,0.0,-0.7368896050321172,-0.6899184774378893
-0.0500042922794818,1.134080410003662,-0.2729361355304718,-0.6484926342964172,0.2211953252553939,0.3043791651725769,0.0,0.0,0.841401069391468,0.9738023168810476
-0.0528611168265342,1.119871735572815,-0.29880091547966,-0.6335107088088989,0.2345131933689117,0.2663812339305877,0.0,0.0,0.8190987163985621,-0.972314265610464
-0.0561646446585655,1.106003761291504,-0.3454570770263672,-0.6188402771949768,0.2498656809329986,0.3070498406887054,0.0,0.0,0.5691472605145633,0.63891233517757
-0.0596049316227436,1.0924772024154663,-0.3581613600254059,-0.6036481857299805,0.2642845213413238,0.2883768677711487,0.0,0.0,0.0720113920518725,-0.9883533612450072
-0.0633765235543251,1.0789806842803955,-0.3935587406158447,-0.6028922200202942,0.2810960710048675,0.3362303376197815,0.0,0.0,-0.6153982555903597,0.6072064247062724
-0.0671271309256553,1.0648202896118164,-0.3908063769340515,-0.6324678659439087,0.2973035871982574,0.3241501748561859,0.0,0.0,-0.3424592173271465,0.8550434711819996
-0.0708271041512489,1.050000548362732,-0.3844074606895447,-0.661666214466095,0.3122085630893707,0.2980995774269104,0.0,0.0,-0.5812030503702985,0.736123106053454
-0.0744821578264236,1.0345311164855957,-0.3787179589271545,-0.6904305219650269,0.3259366154670715,0.2745607793331146,0.0,0.0,0.3965184636099395,-0.657658086818387
-0.0783809646964073,1.018840193748474,-0.40456622838974,-0.700767457485199,0.3412664830684662,0.306597352027893,0.0,0.0,0.9457965740346936,-0.7878475481612116
-0.0827624350786209,1.003722071647644,-0.4544169902801513,-0.6758621335029602,0.3583631515502929,0.3419331908226013,0.0,0.0,0.4704080560861519,0.6032363079745008
-0.0872737914323806,0.988358438014984,-0.4663961827754974,-0.6867278218269348,0.3744928538799286,0.3225946128368377,0.0,0.0,-0.2669006035026293,-0.9879354930226548
-0.0918598175048828,0.9722716212272644,-0.4759885370731354,-0.7196374535560608,0.3930011689662933,0.3701670169830322,0.0,0.0,-0.9125941613616492,-0.6913003350419021
-0.096498392522335,0.9554768204689026,-0.4827771186828613,-0.7517977952957153,0.4132949709892273,0.4058755934238434,0.0,0.0,-0.5342407803456535,-0.7176076277616861
-0.1011911407113075,0.937961757183075,-0.4898574352264404,-0.7846187353134155,0.4355585277080536,0.4452714025974273,0.0,0.0,-0.302721679410562,0.6030554668286713
-0.1058404892683029,0.9198015928268432,-0.4844358563423157,-0.8133236169815063,0.4568974375724792,0.4267787039279938,0.0,0.0,0.844549262374551,-0.6385888677963578
-0.1109934821724891,0.9021689295768738,-0.5360802412033081,-0.7906602621078491,0.4798670709133148,0.4593926966190338,0.0,0.0,0.480219334202824,0.8434031034346343
-0.1163129806518554,0.8846463561058044,-0.5513196587562561,-0.7856536507606506,0.5015233755111694,0.4331256449222564,0.0,0.0,-0.8657054786295497,0.6042208981266544
-0.1215976700186729,0.866474986076355,-0.5470432043075562,-0.8145548105239868,0.5225534439086914,0.4206014573574066,0.0,0.0,-0.8822310566902161,0.9893536567687988
-0.1267971992492675,0.8476898074150085,-0.5364993810653687,-0.841378927230835,0.5414949059486389,0.3788292109966278,0.0,0.0,-0.8877740502357483,0.9974136352539062
-0.1319107115268707,0.8282822966575623,-0.5259758830070496,-0.8685178160667419,0.5584275722503662,0.3386538326740265,0.0,0.0,-0.8707849979400635,0.9928479194641112
-0.1369411498308181,0.8082615733146667,-0.5158052444458008,-0.8952028751373291,0.5733356475830078,0.2981621026992798,0.0,0.0,-0.753273606300354,0.9757001399993896
-0.141901209950447,0.7876051664352417,-0.507383406162262,-0.92303067445755,0.5867592692375183,0.2684722542762756,0.0,0.0,-0.8307926058769226,0.8750810623168945
-0.14678955078125,0.7663180232048035,-0.4987997412681579,-0.950568437576294,0.5986230373382568,0.2372746169567108,0.0,0.0,-0.7558889985084534,0.9674606323242188
-0.1515993177890777,0.7444117069244385,-0.4893493056297302,-0.9774438738822936,0.6086522936820984,0.2005844116210937,0.0,0.0,-0.7667407393455505,0.961789608001709
-0.1563547104597091,0.7218814492225647,-0.482828289270401,-1.0047601461410522,0.6174301505088806,0.175557479262352,0.0,0.0,-0.7827410697937012,0.8960633277893066
-0.1610603332519531,0.6987196207046509,-0.4769129753112793,-1.0324492454528809,0.6251413226127625,0.1542230397462844,0.0,0.0,-0.8746176362037659,0.7293543815612793
-0.1657116860151291,0.6749187707901001,-0.4705874025821686,-1.0604519844055176,0.6317920088768005,0.133013516664505,0.0,0.0,-0.91063129901886,0.7053070068359375
-0.1702991425991058,0.6504924893379211,-0.4629955291748047,-1.0876948833465576,0.6370107531547546,0.1043744906783104,0.0,0.0,-0.9175449013710022,0.6128042936325073
-0.174844354391098,0.6254226565361023,-0.4581561088562011,-1.1160186529159546,0.641484260559082,0.089470162987709,0.0,0.0,-0.8197553753852844,0.7310972213745117
-0.1793250143527984,0.599724292755127,-0.4505515694618225,-1.143391251564026,0.6445536017417908,0.0613872185349464,0.0,0.0,-0.7952598929405212,0.2894631624221802
-0.1837964951992035,0.5733405947685242,-0.4500192999839782,-1.1740480661392212,0.6480944156646729,0.0708164423704147,0.0,0.0,-0.8431736826896667,0.0177698135375976
-0.1882593184709549,0.546271562576294,-0.4495168328285217,-1.2047053575515747,0.6521085500717163,0.0802831351757049,0.0,0.0,-0.8244865536689758,-0.0296105742454528
-0.1927138268947601,0.5185174345970154,-0.4490529596805572,-1.2353630065917969,0.6565977931022644,0.0897845551371574,0.0,0.0,-0.9118245840072632,-0.3290796279907226
-0.1971603333950042,0.4900781512260437,-0.448636382818222,-1.2660211324691772,0.6615637540817261,0.0993190258741378,0.0,0.0,-0.9018775820732116,-0.1139391064643859
-0.2015996873378753,0.4609538614749908,-0.4482758045196533,-1.2966797351837158,0.6670078039169312,0.1088811978697776,0.0,0.0,-0.952042520046234,-0.1367688775062561
-0.2060324698686599,0.4311445951461792,-0.4479796886444092,-1.327338933944702,0.6729312539100647,0.1184691563248634,0.0,0.0,-0.945684254169464,0.0001440048217773
-0.2104593813419342,0.4006505012512207,-0.4477563798427582,-1.357998609542847,0.6793352365493774,0.128079205751419,0.0,0.0,-0.985142469406128,-0.2214628458023071
-0.2148813307285308,0.3694716691970825,-0.4476140141487121,-1.3886590003967283,0.686220645904541,0.137708380818367,0.0,0.0,-0.9807353615760804,-0.4490766525268554
-0.2192992717027664,0.3376080989837646,-0.4475605487823486,-1.4193202257156372,0.6935883164405823,0.147353321313858,0.0,0.0,-0.9811457395553588,-0.732633113861084
-0.2237482070922851,0.3050156831741333,-0.4519838392734527,-1.4525166749954224,0.7027254700660706,0.1827420741319656,0.0,0.0,-0.9748412370681764,-0.5784804224967957
-0.2282286137342453,0.2716982662677765,-0.4563896656036377,-1.4855360984802246,0.7135717868804932,0.2169261276721954,0.0,0.0,-0.9469276070594788,-0.4857275485992431
-0.2327086478471756,0.2376970797777176,-0.4566447734832763,-1.516202449798584,0.724901556968689,0.2265965640544891,0.0,0.0,-0.9375632405281068,0.2133662700653076
-0.2371896803379058,0.2030122578144073,-0.4570182263851166,-1.5468697547912598,0.7367149591445923,0.23626808822155,0.0,0.0,-0.8546590805053711,0.7263932228088379
-0.2416338920593261,0.1677083820104599,-0.4523451924324035,-1.573902249336243,0.7473218441009521,0.212137222290039,0.0,0.0,-0.8254831433296204,0.813636302947998
-0.246024802327156,0.1317860931158065,-0.4457855820655823,-1.6007142066955566,0.7563660740852356,0.1808860152959823,0.0,0.0,-0.8031193017959595,0.750978946685791
-0.2503805756568908,0.0952480435371398,-0.4412724077701568,-1.6275213956832886,0.7641223669052124,0.1551264375448227,0.0,1.0,0.971848964691162,0.999174952507019
-0.2514530718326568,0.0838156044483184,-0.256669670343399,-0.6831371784210205,0.9506425261497498,3.3071365356445312,0.0,1.0,-0.9976565837860109,-0.9912749528884888
-0.253190129995346,0.0700655281543731,-0.2597046494483948,-0.7214533686637878,1.1196707487106323,3.3616786003112797,0.0,1.0,-0.9968328475952148,-0.981342315673828
-0.2551843225955963,0.0557650662958622,-0.2594797015190124,-0.7588821649551392,1.2924375534057615,3.400238037109375,0.0,1.0,-0.9916223287582396,-0.955689013004303
-0.2574729323387146,0.0408183671534061,-0.2585606575012207,-0.7976229190826416,1.469438552856445,3.450719356536865,0.0,1.0,-0.9863713979721068,-0.9155694842338562
-0.2585974335670471,0.0335364900529384,0.0318764969706535,-0.0198339633643627,1.5967708826065063,-0.130993515253067,0.0,1.0,-0.9863713979721068,-0.9155694842338562
