x_pos,y_pos,x_vel,y_vel,angle,ang_vel,leg_1,leg_2,main_booster,lat_booster
-0.0015179633628576,1.4029240608215332,-0.1532337218523025,-0.3553844094276428,0.0012861100258305,0.0253342241048812,0.0,0.0,0.0470037460327148,0.7575631141662598
-0.0029294968117028,1.3946856260299685,-0.1404372304677963,-0.3661567270755768,0.0005880168173462,-0.0139624876901507,0.0,0.0,-0.168109655380249,0.4460413455963135
-0.0043276785872876,1.385745882987976,-0.1386240720748901,-0.3973177671432495,-0.0005934734945185,-0.0236320979893207,0.0,0.0,0.117108941078186,0.590435266494751
-0.0057520866394042,1.376610517501831,-0.1394184827804565,-0.4060155749320984,-0.0035841674543917,-0.0598196797072887,0.0,0.0,0.4552271366119385,0.3457555770874023
-0.0070403097197413,1.367635726928711,-0.1258668154478073,-0.3988876938819885,-0.0065165041014552,-0.0586519949138164,0.0,0.0,0.7481973171234131,0.7257394790649414
-0.0080857276916503,1.3588194847106934,-0.1000067442655563,-0.3918605148792267,-0.0110059985890984,-0.0897979885339737,0.0,0.0,-0.277097225189209,-0.0761008262634277
-0.0091040609404444,1.3493030071258545,-0.0968007445335388,-0.4229996800422668,-0.0159840751439332,-0.0995705425739288,0.0,0.0,-0.0795363187789917,0.5889879465103149
-0.0100342752411961,1.3390872478485107,-0.0860199555754661,-0.4541336297988891,-0.0229074954986572,-0.1384813487529754,0.0,0.0,-0.2250481843948364,0.0451688766479492
-0.0109312059357762,1.3281714916229248,-0.0821881145238876,-0.4852718412876129,-0.0303215906023979,-0.1482953578233719,0.0,0.0,-0.1600936651229858,-0.8105534911155701
-0.0118555072695016,1.3165640830993652,-0.0860718712210655,-0.5160243511199951,-0.0366196669638156,-0.1259727478027343,0.0,0.0,0.2637759447097778,-0.2161676883697509
-0.0126584051176905,1.3049349784851074,-0.0737352296710014,-0.5170212388038635,-0.0430993810296058,-0.1296062171459198,0.0,0.0,-0.1961466670036316,-0.9711143970489502
-0.0134872440248727,1.2926084995269775,-0.0775491967797279,-0.5480112433433533,-0.0483739785850048,-0.1055016070604324,0.0,0.0,-0.627544105052948,-0.9527387022972108
-0.0143305780366063,1.2795912027359009,-0.0800048857927322,-0.5786925554275513,-0.0526623055338859,-0.0857742875814437,0.0,0.0,-0.3870471119880676,-0.9327332377433776
-0.0151928905397653,1.2658703327178955,-0.0830523967742919,-0.609929621219635,-0.055810060352087,-0.0629607662558555,0.0,0.0,0.3880150318145752,-0.6054061055183411
-0.0158858299255371,1.252486228942871,-0.067110851407051,-0.5949357748031616,-0.0579752400517463,-0.043307326734066,0.0,0.0,-0.7341430187225342,-0.8820652365684509
-0.0165854450315237,1.238396406173706,-0.0687084645032882,-0.6262648105621338,-0.0592077933251857,-0.024653835222125,0.0,0.0,-0.4028857946395874,-0.9481072425842284
-0.0172894485294818,1.2236227989196775,-0.0701206400990486,-0.656620442867279,-0.0594837106764316,-0.0055189412087202,0.0,0.0,-0.4781109094619751,-0.8940473198890686
-0.0179930683225393,1.208146095275879,-0.0709410980343818,-0.6878280639648438,-0.0589035116136074,0.0116048948839306,0.0,0.0,0.1504199504852295,-0.6842427849769592
-0.0185847282409667,1.1928106546401978,-0.0607318393886089,-0.6815080642700195,-0.0573635585606098,0.0308020263910293,0.0,0.0,-0.4975759983062744,-0.8429100513458252
-0.0191939361393451,1.176781415939331,-0.063889667391777,-0.712307333946228,-0.0544228926301002,0.058818519115448,0.0,0.0,-0.7080059051513672,-0.4483042955398559
-0.019743537530303,1.160051941871643,-0.0574347674846649,-0.7434411644935608,-0.0519806779921054,0.0488486997783184,0.0,0.0,-0.5614473819732666,-0.4097670316696167
-0.0202322006225585,1.1426225900650024,-0.0508311204612255,-0.7745764255523682,-0.0500352904200553,0.0389112196862697,0.0,0.0,-0.333493709564209,-0.6577471494674683
-0.020699119195342,1.1244951486587524,-0.0492043569684028,-0.8055824637413025,-0.0475601069629192,0.0495082102715969,0.0,0.0,0.0421705245971679,-0.3103766441345215
-0.0210491176694631,1.105959415435791,-0.0372031778097152,-0.8237396478652954,-0.0453757420182228,0.0436913259327411,0.0,0.0,0.0735031366348266,-0.7267641425132751
-0.0214783661067485,1.087363362312317,-0.0460034497082233,-0.8264033794403076,-0.0423255264759063,0.0610098056495189,0.0,0.0,0.138789415359497,-0.6636536717414856
-0.021986961364746,1.0687870979309082,-0.0546451210975647,-0.825511634349823,-0.0385912247002124,0.0746860057115554,0.0,0.0,0.1684633493423462,0.2159491777420044
-0.022406006231904,1.0502805709838867,-0.0451941005885601,-0.8224268555641174,-0.0353331081569194,0.0651622861623764,0.0,0.0,0.035162329673767,-0.0489813089370727
-0.0228202827274799,1.031853437423706,-0.0438601933419704,-0.818926215171814,-0.0329394228756427,0.0478735342621803,0.0,0.0,-0.5781801342964172,-0.1771150827407837
-0.0231657028198242,1.0127261877059937,-0.0364674031734466,-0.8500603437423706,-0.0310280434787273,0.0382277928292751,0.0,0.0,0.4440405368804931,-0.4110736846923828
-0.0234461780637502,0.9935384392738342,-0.0294192172586917,-0.8527605533599854,-0.0296800229698419,0.0269604213535785,0.0,0.0,0.2004323005676269,0.1609405279159546
-0.0236242301762104,0.9745721220970154,-0.0187485832720994,-0.8429272770881653,-0.0287432577461004,0.0187354460358619,0.0,0.0,0.6368720531463623,-0.5734262466430664
-0.0238466262817382,0.9555586576461792,-0.0236600041389465,-0.8450117111206055,-0.0273449122905731,0.0279668308794498,0.0,0.0,0.6589027643203735,0.5749247074127197
-0.0240185745060443,0.9370591044425964,-0.0167437531054019,-0.8222107291221619,-0.0277803465723991,-0.0087086549028754,0.0,0.0,0.2124381065368652,-0.2573315501213074
-0.0241571422666311,0.9182580709457396,-0.0127306338399648,-0.8356227874755859,-0.0288904178887605,-0.0222015231847763,0.0,0.0,0.5883359909057617,-0.8434495329856873
-0.0242541320621967,0.8996648192405701,-0.0098537784069776,-0.8263665437698364,-0.0287475381046533,0.0028575300239026,0.0,0.0,0.4203443527221679,-0.0024247765541076
-0.024243164807558,0.8813454508781433,0.0013371872482821,-0.8141977787017822,-0.028977008536458,-0.0045895115472376,0.0,0.0,0.1159541606903076,-0.0391119718551635
-0.0241665840148925,0.862787663936615,0.0084112603217363,-0.824804425239563,-0.0297253988683223,-0.0149679286405444,0.0,0.0,-0.2734687328338623,-0.097420334815979
-0.0240153316408395,0.8435295820236206,0.0163176171481609,-0.8559378385543823,-0.0309022292494773,-0.0235366374254226,0.0,0.0,0.4585063457489013,-0.5679023265838623
-0.0238484386354684,0.8246966004371643,0.0172544308006763,-0.8370329141616821,-0.0314548574388027,-0.0110527211800217,0.0,0.0,-0.1248663663864135,-0.1569413542747497
-0.0236060135066509,0.8051633834838867,0.0252177715301513,-0.8681661486625671,-0.0324165970087051,-0.019234761595726,0.0,0.0,0.2311780452728271,-0.0115593671798706
-0.0233484264463186,0.7858035564422607,0.0275052338838577,-0.8604738712310791,-0.0341445580124855,-0.034559216350317,0.0,0.0,0.3606628179550171,-0.7858946919441223
-0.0229479782283306,0.7663853764533997,0.0404594354331493,-0.8630396723747253,-0.0345460511744022,-0.0080300904810428,0.0,0.0,-0.0718347430229187,0.2715239524841308
-0.0224710460752248,0.7462669610977173,0.0484752506017684,-0.8941730260848999,-0.0353212058544158,-0.0155030544847249,0.0,0.0,-0.0349255800247192,0.2289749383926391
-0.0219176299870014,0.7254481315612793,0.0565002039074897,-0.9253063797950744,-0.0364563204348087,-0.0227025561034679,0.0,0.0,0.1713459491729736,-0.2804653644561767
-0.021308422088623,0.7042436599731445,0.0625471100211143,-0.942462921142578,-0.0380700789391994,-0.0322751551866531,0.0,0.0,0.6458463668823242,-0.8403101563453674
-0.0206254962831735,0.6828300356864929,0.0684821680188179,-0.9517161846160888,-0.0382589399814605,-0.0037771731149405,0.0,0.0,0.9571034908294678,-0.6846869587898254
-0.0198217388242483,0.6615046858787537,0.0793052315711975,-0.9477695226669312,-0.037203062325716,0.0211175102740526,0.0,0.0,0.8889551162719727,-0.7563758492469788
-0.0191044807434082,0.640927255153656,0.0697502568364143,-0.9145085215568542,-0.0352506712079048,0.0390480682253837,0.0,0.0,0.8401308059692383,-0.6066938042640686
-0.0184849742799997,0.6209816336631775,0.0594483539462089,-0.8864150643348694,-0.0327854417264461,0.0493046976625919,0.0,0.0,0.8615412712097168,-0.4970977306365967
-0.0177931785583496,0.6011959910392761,0.0670545250177383,-0.8793124556541443,-0.0306879878044128,0.0419489480555057,0.0,0.0,0.9146413803100586,-0.7771621942520142
-0.0168843269348144,0.5816967487335205,0.0870276242494583,-0.8665608763694763,-0.0268811583518981,0.0761364847421646,0.0,0.0,0.7495400905609131,-0.8234829902648926
-0.0160093307495117,0.5626779794692993,0.0823297649621963,-0.8451963067054749,-0.0217774845659732,0.1020735725760459,0.0,0.0,-0.083138883113861,-0.7735741138458252
-0.0151071548461914,0.542956531047821,0.0839705243706703,-0.8764312863349915,-0.0156091395765542,0.1233671158552169,0.0,0.0,0.9606001377105712,-0.8220283389091492
-0.0141736986115574,0.5239640474319458,0.0856057778000831,-0.8440485596656799,-0.0079683922231197,0.1528149247169494,0.0,0.0,0.7156925201416016,0.7356956005096436
-0.0129316328093409,0.5050258040428162,0.117740049958229,-0.8416815996170044,-0.0015854175435379,0.1276593506336212,0.0,0.0,0.81367027759552,-0.5388577580451965
-0.0117659568786621,0.486161470413208,0.1094595417380333,-0.8384223580360413,0.0054289097897708,0.1402866393327713,0.0,0.0,0.8945157527923584,-0.3201743364334106
-0.0104205133393406,0.4679690897464752,0.1270351707935333,-0.8085947036743164,0.0128408847376704,0.1482398062944412,0.0,0.0,0.9256564378738404,0.1711914539337158
-0.0088476184755563,0.4502592086791992,0.1491077095270156,-0.7871977686882019,0.0209199413657188,0.1615810096263885,0.0,0.0,0.5908527374267578,0.0622075796127319
-0.007142829708755,0.4330408573150635,0.1620090901851654,-0.765398383140564,0.0292789004743099,0.1671791225671768,0.0,0.0,0.7967133522033691,-0.4866857528686523
-0.0054697035811841,0.416400671005249,0.1592682600021362,-0.7397447228431702,0.0372258350253105,0.1589385718107223,0.0,0.0,0.7875421047210693,0.2903920412063598
-0.0036802291870117,0.3996644616127014,0.1706477105617523,-0.7440589070320129,0.0454239435493946,0.163962572813034,0.0,0.0,0.8968441486358643,-0.4292620420455932
-0.0019668578170239,0.3834275007247925,0.1635656058788299,-0.7218962907791138,0.0531080663204193,0.1536822915077209,0.0,0.0,0.878911018371582,0.128322958946228
-6.933211989235133e-05,0.3673831820487976,0.1812853962182998,-0.7134042978286743,0.0614835806190967,0.1675101369619369,0.0,0.0,0.5752110481262207,-0.1359545588493347
0.0018895149696618,0.3515163660049438,0.1872372329235077,-0.7055681347846985,0.0700272098183631,0.1708724945783615,0.0,0.0,0.8175270557403564,-0.0212998390197753
0.0039001465775072,0.335610955953598,0.1923031359910965,-0.7073420286178589,0.0786967948079109,0.1733918488025665,0.0,0.0,0.9284226894378662,-0.1263279914855957
0.0057861329987645,0.3200205862522125,0.1804086863994598,-0.6933547258377075,0.086805373430252,0.1621719300746917,0.0,0.0,0.9384760856628418,-0.1628032922744751
0.0076830862089991,0.3052347600460052,0.1812751442193985,-0.6576645374298096,0.0951584801077842,0.1670619845390319,0.0,0.0,0.9086023569107056,-0.0247889757156372
0.0097147943452,0.2902674674987793,0.1941569745540619,-0.6658102869987488,0.1040978357195854,0.178786814212799,0.0,0.0,0.9439090490341188,-0.1407001614570617
0.0117453578859567,0.2761044502258301,0.1937435716390609,-0.630139946937561,0.1133507192134857,0.1850576400756836,0.0,0.0,0.9212074279785156,0.249537706375122
0.013675975613296,0.2620441913604736,0.1840691268444061,-0.6256064176559448,0.1222817599773407,0.1786209046840667,0.0,0.0,0.9708425998687744,-0.1271911263465881
0.0154694560915231,0.2484672665596008,0.1706736087799072,-0.6041488647460938,0.1309075206518173,0.1725156009197235,0.0,0.0,0.9446280002593994,0.154577374458313
0.0172724723815917,0.2352878898382187,0.1712525188922882,-0.586571455001831,0.1399184465408325,0.1802183836698532,0.0,0.0,0.9592999219894408,0.5227389335632324
0.0188844688236713,0.222877636551857,0.1534683406352996,-0.552312433719635,0.1476313322782516,0.1542576253414154,0.0,0.0,0.834477424621582,0.7285524606704712
0.0206142421811819,0.2107517570257187,0.166263461112976,-0.5396115779876709,0.1543341428041458,0.1340563148260116,0.0,0.0,0.7679798603057861,-0.0072174072265625
0.022310446947813,0.1985384076833725,0.162822812795639,-0.5435339212417603,0.1611310392618179,0.1359381079673767,0.0,0.0,0.8542585372924805,0.0576543807983398
0.0240888595581054,0.1861844360828399,0.1704234182834625,-0.5498883128166199,0.168554738163948,0.1484736651182174,0.0,0.0,0.8831274509429932,0.2018749713897705
0.025831127539277,0.1736944317817688,0.1667010188102722,-0.5559861660003662,0.1760974824428558,0.1508548557758331,0.0,0.0,0.8904290199279785,0.2678185701370239
0.027468204498291,0.1618432849645614,0.1559308469295501,-0.5276628732681274,0.1838928610086441,0.1559082120656967,0.0,0.0,0.936277151107788,0.4693375825881958
0.0290846824645996,0.1507287770509719,0.1531376838684082,-0.4950509667396545,0.192429706454277,0.1707372963428497,0.0,0.0,0.7366931438446045,0.4595998525619507
0.0304815284907817,0.140146717429161,0.1314363628625869,-0.471407026052475,0.2007382810115814,0.1661713570356369,0.0,0.0,0.7934815883636475,0.4193202257156372
0.0317285545170307,0.1293524354696273,0.1167747750878334,-0.4808402955532074,0.2087237238883972,0.1597087383270263,0.0,0.0,0.8667067289352417,0.4923806190490722
0.0328931808471679,0.1191842854022979,0.1080047860741615,-0.4531311690807342,0.2172552496194839,0.1706302911043167,0.0,0.0,0.8700921535491943,0.512730598449707
0.0338947288691997,0.1092454493045806,0.0927671194076538,-0.442831426858902,0.2247410863637924,0.1497166007757187,0.0,0.0,0.6054093837738037,0.949095606803894
0.0348188392817974,0.0995798408985138,0.0866280123591423,-0.4304772019386291,0.2305900901556015,0.1169803515076637,0.0,0.0,0.9599955081939696,-0.0042279362678527
0.0355932228267192,0.0904217809438705,0.0713937133550643,-0.4079838693141937,0.2367314100265503,0.1228264570236206,0.0,0.0,0.8522069454193115,0.7165106534957886
0.0364251136779785,0.0815732106566429,0.0779609978199005,-0.3941185772418976,0.242034450173378,0.1060609966516494,0.0,0.0,0.9444220066070556,0.8628299236297607
0.0373084060847759,0.072639524936676,0.0843999981880188,-0.3977044820785522,0.2460339814424514,0.0799906104803085,0.0,0.0,0.9731056690216064,0.9104762077331544
0.0383129119873046,0.0637707114219665,0.0977307558059692,-0.3946311771869659,0.2488059550523758,0.0554396025836467,0.0,0.0,0.9844419956207277,0.7266230583190918
0.0394368171691894,0.0552912093698978,0.1102828010916709,-0.3772213757038116,0.2509506046772003,0.0428933426737785,0.0,0.0,0.9910986423492432,-0.1219512820243835
0.0406516082584857,0.0468659251928329,0.1182353869080543,-0.3750161826610565,0.2542593777179718,0.0661753267049789,0.0,0.0,0.9947434663772584,0.6196277141571045
0.0417223945260047,0.0390784367918968,0.1046955212950706,-0.3465235531330108,0.2566831707954407,0.048476081341505,0.0,0.0,0.9982324838638306,0.4751800298690796
0.0426393523812294,0.0319372527301311,0.0887671113014221,-0.317900687456131,0.2596763372421264,0.0598632581532001,0.0,0.0,0.9993846416473388,0.7616448402404785
0.0436056144535541,0.0253561120480299,0.0944440513849258,-0.2928828597068786,0.261904776096344,0.0445688888430595,0.0,1.0,0.9993101358413696,0.9326945543289183
0.0446436889469623,0.0196843482553958,0.1197119951248169,-0.2497699707746505,0.2445829510688781,-0.3480201363563537,0.0,1.0,0.98837149143219,-0.2565027475357055
0.0453407280147075,0.0149297574535012,0.1055634468793869,-0.2057847678661346,0.2082103341817855,-0.7275060415267944,0.0,1.0,0.9854700565338136,-0.7809635996818542
0.0457798950374126,0.011572347022593,0.0918624699115753,-0.1432137191295623,0.1599529981613159,-0.9652820825576782,0.0,1.0,0.9715793132781982,-0.970540165901184
0.045971680432558,0.0087208012118935,0.0706850662827491,-0.1220347210764885,0.1085235252976417,-1.028725504875183,0.0,1.0,0.959636688232422,-0.8616921305656433
0.0458539016544818,0.0065486766397953,0.0373585820198059,-0.0937063321471214,0.0598036721348762,-0.974446415901184,0.0,1.0,0.8683867454528809,-0.9695684909820556
0.045722771435976,0.0048939324915409,0.0339337512850761,-0.0723334848880767,0.0132956374436616,-0.9301994442939758,0.0,0.0,-0.6922286748886108,-0.9997895956039428
0.0455456748604774,0.0025719976983964,0.0267625506967306,-0.1033979207277298,-0.0306376945227384,-0.8787035942077637,0.0,0.0,0.4905786514282226,-0.9985782504081726
0.0453411117196083,0.001330921659246,0.0022886276710778,-0.0557921454310417,-0.0530811548233032,-0.4488379955291748,1.0,0.0,0.3424677848815918,-0.5123723149299622
0.0452232360839843,0.0006710982415825,-0.009767685085535,-0.0294003076851367,-0.0550724156200885,-0.0398139059543609,1.0,0.0,-0.6256682872772217,0.1048724651336669
0.0452102646231651,-7.373333210125566e-05,-0.0166572295129299,-0.0326110310852527,-0.0398655869066715,0.3041524887084961,1.0,0.0,-0.7360981702804565,0.1118471622467041
0.0452665314078331,-0.0010987306013703,-0.0214631669223308,-0.045054018497467,-0.013092128559947,0.5354915857315063,1.0,0.0,-0.3627755641937256,-0.0037674903869628
0.0453516021370887,-0.0026222968008369,-0.0239115376025438,-0.0677467286586761,0.0189302247017622,0.6404816508293152,1.0,1.0,0.81361985206604,0.8049638271331787
0.0454837791621685,-0.003754940116778,-0.0032058823853731,-0.0508857555687427,0.0339434668421745,0.2987328767776489,1.0,1.0,0.5925254821777344,0.9976909160614014
0.0456302650272846,-0.0039508128538727,0.0190728325396776,-0.0086077423766255,0.0295673515647649,-0.0875383242964744,0.0,1.0,-0.0445802807807922,-0.2198297381401062
0.0457049384713172,-0.0039176605641841,0.0132249044254422,0.0015599228208884,0.0238817520439624,-0.1137048751115799,1.0,1.0,-0.944180428981781,-0.3508385419845581
0.0458046905696392,-0.003608884755522,0.0126577261835336,0.0137692783027887,0.021213099360466,-0.0534133799374103,1.0,1.0,-0.9198201894760132,-0.4413158893585205
0.0458946228027343,-0.0031534100417047,0.0124905100092291,0.0202836897224187,0.0177503004670143,-0.0692742839455604,1.0,1.0,-0.953587532043457,-0.4817478060722351
0.0459761619567871,-0.002606525318697,0.0123357325792312,0.0243485700339078,0.0136097641661763,-0.0828258767724037,1.0,1.0,-0.9615132212638856,-0.3926873207092285
0.0460545532405376,-0.0020280622411519,0.0122738871723413,0.0257399324327707,0.009225932881236,-0.0876885429024696,1.0,1.0,-0.9823627471923828,-0.3651040196418762
0.0461346618831157,-0.001471629133448,0.0122962491586804,0.0247478373348712,0.0049908198416233,-0.0847120806574821,1.0,1.0,-0.9591131210327148,-0.3702497482299804
0.0462197288870811,-0.0009729170706123,0.0123762981966137,0.0221743211150169,0.0011687511578202,-0.0764495357871055,1.0,1.0,-0.7410715222358704,-0.4905611276626587
0.0463216789066791,-0.0009677672642283,0.0101840021088719,0.0002300681080669,0.0011716586304828,4.896842801827006e-05,1.0,1.0,-0.7426366209983826,0.0459915399551391
0.0463583953678607,-0.0009712004684843,0.0036627682857215,-0.0001528679276816,0.0011700284667313,-3.698146247188561e-05,1.0,1.0,-0.919175148010254,0.2042763233184814
0.0463493354618549,-0.0009712004684843,-0.0009302377002313,-4.687005002779188e-06,0.0011842992389574,0.0002727602550294,1.0,1.0,-0.8995034098625183,0.1554049253463745
0.0463318824768066,-0.0009712004684843,-0.0017960320692509,-8.338652719430684e-07,0.0012115102726966,0.0005255552241578,1.0,1.0,-0.9170782566070556,0.1118650436401367
0.0463233962655067,-0.000971128931269,-0.0008645359193906,-8.449953838862712e-07,0.0012246844125911,0.000252956233453,1.0,1.0,-0.7711318731307983,0.064857006072998
0.0463235862553119,-0.000971128931269,2.1791649487568066e-05,1.5337066727738602e-08,0.0012245207326486,-6.383276286214823e-06,1.0,1.0,-0.8910305500030518,-0.1493502259254455
0.0463265404105186,-0.000971128931269,0.0002950307098217,2.967566672396061e-07,0.0012202069628983,-8.630898810224608e-05,1.0,1.0,-0.9172714948654176,-0.0116147994995117
