x_pos,y_pos,x_vel,y_vel,angle,ang_vel,leg_1,leg_2,main_booster,lat_booster
-0.0015518188010901,1.403308391571045,-0.1567820459604263,-0.3383013010025024,0.0014280857285484,0.0281455107033252,0.0,0.0,-0.1879070401191711,0.5270061492919922
-0.0030877112876623,1.395401120185852,-0.1534957140684127,-0.3514330983161926,0.0013349936343729,-0.0018610920524224,0.0,0.0,-0.2346607446670532,0.2553457021713257
-0.0046528815291821,1.3871772289276123,-0.1560702621936798,-0.3655069470405578,0.0008987684268504,-0.0087250834330916,0.0,0.0,-0.0088019967079162,0.4968811273574829
-0.0062475204467773,1.3786370754241943,-0.1586919277906417,-0.3795618414878845,0.0001288856001337,-0.0153994606807827,0.0,0.0,0.1268523931503296,0.5649838447570801
-0.0077303885482251,1.370449781417847,-0.1462258696556091,-0.3638812601566314,-0.0019001553300768,-0.0405844151973724,0.0,0.0,-0.2618473768234253,0.1104249954223632
-0.0092434883117675,1.3619463443756104,-0.1489312648773193,-0.3779378533363342,-0.0042424597777426,-0.0468507930636405,0.0,0.0,-0.5329144597053528,0.4510408639907837
-0.010787010192871,1.3531267642974854,-0.151676669716835,-0.3919871151447296,-0.0068882862105965,-0.0529216527938842,0.0,0.0,0.0461368560791015,0.8387925624847412
-0.0121813770383596,1.3446065187454224,-0.1348346769809723,-0.3787087202072143,-0.0114482399076223,-0.0912076011300087,0.0,0.0,0.4032886028289795,0.1362581253051757
-0.0136089324951171,1.336836576461792,-0.1378091871738433,-0.3453764021396637,-0.016338599845767,-0.0978162959218025,0.0,0.0,-0.2469847202301025,-0.1918880343437194
-0.0150676723569631,1.328750729560852,-0.1406560242176056,-0.359435498714447,-0.0215005874633789,-0.1032491326332092,0.0,0.0,0.1172316074371337,0.0058834552764892
-0.0164908412843942,1.320950269699097,-0.1371193528175354,-0.3467700183391571,-0.026646751910448,-0.1029325351119041,0.0,0.0,-0.3161011934280395,-0.509387195110321
-0.0179811473935842,1.3128345012664795,-0.1444743573665619,-0.3607963621616363,-0.0311513915657997,-0.0901012942194938,0.0,0.0,-0.2826029062271118,0.4321138858795166
-0.019503116607666,1.3044028282165527,-0.1474129259586334,-0.3748472034931183,-0.0358949713408947,-0.0948800072073936,0.0,0.0,-0.498417854309082,0.3806190490722656
-0.02105712890625,1.2956554889678955,-0.1503772437572479,-0.3888998925685882,-0.0408657789230346,-0.0994254425168037,0.0,0.0,-0.3645912408828735,0.0873051881790161
-0.0226431842893362,1.2865924835205078,-0.1533657163381576,-0.4029537439346313,-0.0460527651011943,-0.1037491410970687,0.0,0.0,-0.4347504377365112,0.755734920501709
-0.0241913795471191,1.2772002220153809,-0.1475715488195419,-0.4176733791828155,-0.0532190613448619,-0.1433391124010086,0.0,0.0,-0.2111519575119018,0.1756421327590942
-0.0257716178894042,1.2674927711486816,-0.1505989283323288,-0.431729644536972,-0.0605779029428958,-0.1471902132034301,0.0,0.0,-0.439659833908081,0.8621923923492432
-0.0273004528135061,1.2574552297592163,-0.1431365311145782,-0.4465379118919372,-0.0702385455369949,-0.1932304799556732,0.0,0.0,-0.6649284362792969,0.3800756931304931
-0.0288615226745605,1.2471027374267578,-0.1461968868970871,-0.460598349571228,-0.0800686627626419,-0.1966200917959213,0.0,0.0,-0.1641983985900879,0.1934034824371338
-0.0304550174623727,1.2364356517791748,-0.1492753475904464,-0.4746594429016113,-0.0900583043694496,-0.1998108476400375,0.0,0.0,-0.2038543224334716,0.5211238861083984
-0.0320308692753315,1.2254512310028076,-0.1461117565631866,-0.4889279901981354,-0.1014517173171043,-0.2278886139392852,0.0,0.0,0.04721200466156,0.1829214096069336
-0.0336031913757324,1.214569926261902,-0.1456732302904129,-0.4844394326210022,-0.1129466965794563,-0.2299199551343917,0.0,0.0,-0.3717594146728515,-0.4069669246673584
-0.0352077484130859,1.2033741474151611,-0.148795485496521,-0.4985080361366272,-0.1245676502585411,-0.2324396818876266,0.0,0.0,-0.6979449987411499,0.1370612382888794
-0.0368447303771972,1.191864252090454,-0.1519303619861602,-0.5125732421875,-0.136303499341011,-0.234737753868103,0.0,0.0,0.0448369979858398,0.0410600900650024
-0.0385478027164936,1.1806634664535522,-0.1580287516117096,-0.4989815354347229,-0.148559957742691,-0.2451512813568115,0.0,0.0,-0.1803651452064514,-0.1549460887908935
-0.0402854904532432,1.1691274642944336,-0.161398708820343,-0.513995349407196,-0.1609110087156295,-0.2470211535692215,0.0,0.0,0.0219538211822509,-0.0563473105430603
-0.041981317102909,1.157942295074463,-0.157178908586502,-0.4985122680664062,-0.1733366400003433,-0.248512789607048,0.0,0.0,-0.2004057765007019,-0.2904255390167236
-0.0437098518013954,1.1464431285858154,-0.1603922545909881,-0.5125752687454224,-0.1858380138874054,-0.2500272393226623,0.0,0.0,0.1660658121109008,-0.7533347010612488
-0.0455308929085731,1.1354875564575195,-0.1710093319416046,-0.4883446395397186,-0.1969884634017944,-0.2230089604854583,0.0,0.0,-0.3174887895584106,0.2315906286239624
-0.0473844520747661,1.1242176294326782,-0.1742394566535949,-0.5024049878120422,-0.2081958204507827,-0.2241475880146026,0.0,0.0,-0.7038299441337585,-0.6420120596885681
-0.0493176467716693,1.1126554012298584,-0.1834227889776229,-0.5152990221977234,-0.2181949168443679,-0.1999817639589309,0.0,0.0,0.1482148170471191,-0.3867110013961792
-0.0512703880667686,1.101242184638977,-0.1851038336753845,-0.5087903141975403,-0.2284832894802093,-0.2057677805423736,0.0,0.0,-0.6731671690940857,-0.0228208303451538
-0.053255558013916,1.0895144939422607,-0.1883535683155059,-0.5228487253189087,-0.238802433013916,-0.2063826620578766,0.0,0.0,-0.1549280881881714,-0.807500422000885
-0.0553430542349815,1.077489733695984,-0.2003417462110519,-0.5358253121376038,-0.2473483085632324,-0.1709176450967788,0.0,0.0,0.9042463302612304,-0.7365959882736206
-0.0573224052786827,1.066216230392456,-0.1910429149866104,-0.5022156834602356,-0.254373162984848,-0.1404979526996612,0.0,0.0,-0.3677579164505005,-0.4286155104637146
-0.0593342781066894,1.054627537727356,-0.1943042576313018,-0.5162689685821533,-0.2614054381847381,-0.1406451165676117,0.0,0.0,0.8423383235931396,-0.7997198700904846
-0.0613401420414447,1.0434917211532593,-0.1952188313007354,-0.4958911836147308,-0.2668880820274353,-0.1096530333161354,0.0,0.0,0.7494502067565918,-0.4311633110046386
-0.0631269440054893,1.033190369606018,-0.1735187321901321,-0.4587852358818054,-0.2721776962280273,-0.105792224407196,0.0,0.0,-0.2890269756317138,0.0247610807418823
-0.0649462714791297,1.0225732326507568,-0.176786184310913,-0.4728363752365112,-0.2774543166160583,-0.1055319085717201,0.0,0.0,0.211404800415039,-0.7379775047302246
-0.0667090415954589,1.0122984647750854,-0.1726480424404144,-0.4573543965816498,-0.2811887264251709,-0.0746884793043136,0.0,0.0,-0.1664531230926513,-0.0507405400276184
-0.0685043334960937,1.001707673072815,-0.1759160608053207,-0.471404105424881,-0.2848983407020569,-0.0741925835609436,0.0,0.0,0.5395236015319824,-0.3242923021316528
-0.0700843781232833,0.9914544820785522,-0.154951274394989,-0.4562977850437164,-0.2880458831787109,-0.0629500150680542,0.0,0.0,-0.0929900407791137,-0.2849558591842651
-0.0716967582702636,0.9808852672576904,-0.1582173854112625,-0.4703468978404999,-0.2911583185195923,-0.0622484870254993,0.0,0.0,0.3464865684509277,-0.6049878597259521
-0.0731785744428634,0.970599889755249,-0.1465563476085662,-0.4574514031410217,-0.2928314805030823,-0.0334629490971565,0.0,0.0,-0.0274104475975036,-0.6310434937477112
-0.0747448951005935,0.9600141048431396,-0.1563681811094284,-0.4705304205417633,-0.2930992245674133,-0.0053550698794424,0.0,0.0,0.4075715541839599,-0.5103694200515747
-0.0762601867318153,0.9495150446891784,-0.152411550283432,-0.4664468169212341,-0.292185366153717,0.0182771701365709,0.0,0.0,0.0879797935485839,-0.3349602222442627
-0.0776842087507247,0.9391050338745116,-0.1435202658176422,-0.4624425172805786,-0.2910346388816833,0.0230147428810596,0.0,0.0,0.268929123878479,-0.5656554698944092
-0.079088494181633,0.9293646812438964,-0.1425454020500183,-0.4324853718280792,-0.2888593375682831,0.0435061454772949,0.0,0.0,0.4069440364837646,-0.2899104952812195
-0.0804417580366134,0.92032128572464,-0.1369892805814743,-0.4015975892543793,-0.2871499359607696,0.0341880731284618,0.0,0.0,-0.1963748931884765,-0.5057315826416016
-0.0818666443228721,0.9109779000282288,-0.1452398002147674,-0.4147258996963501,-0.2843199372291565,0.0565996766090393,0.0,0.0,-0.0864031314849853,-0.2752952575683594
-0.0833231955766677,0.9013182520866394,-0.1484674215316772,-0.4287742376327514,-0.2814291715621948,0.0578155890107154,0.0,0.0,-0.7669061422348022,-0.3257735967636108
-0.0848112106323242,0.891342282295227,-0.1516861617565155,-0.4428226351737976,-0.2784761488437652,0.0590604655444622,0.0,0.0,-0.5768401026725769,-0.4231023788452148
-0.0863307937979698,0.8810500502586365,-0.154894933104515,-0.4568710327148437,-0.2754597961902618,0.0603267960250377,0.0,0.0,-0.6984794735908508,-0.5293187499046326
-0.0879206657409668,0.8704633712768555,-0.1630377620458603,-0.4697621166706085,-0.2713074088096618,0.0830477401614189,0.0,0.0,-0.1867415904998779,0.192607045173645
-0.0895417183637619,0.8595606088638306,-0.166223406791687,-0.4838111996650696,-0.2670907378196716,0.0843333452939987,0.0,0.0,-0.814734935760498,-0.4923886060714721
-0.0911938697099685,0.8483416438102722,-0.1693954169750213,-0.4978603422641754,-0.2628099024295807,0.0856170579791069,0.0,0.0,-0.8076068162918091,0.0877425670623779
-0.0928768143057823,0.8368067145347595,-0.1725524365901947,-0.5119096040725708,-0.2584653794765472,0.0868912264704704,0.0,0.0,-0.9356059432029724,0.1858407258987426
-0.0945905670523643,0.8249558210372925,-0.1756929457187652,-0.5259588956832886,-0.2540579736232757,0.0881482809782028,0.0,0.0,-0.7950288653373718,-0.4380189776420593
-0.0963348373770713,0.8127886056900024,-0.1788153350353241,-0.5400083065032959,-0.2495889365673065,0.0893806368112564,0.0,0.0,-0.9678874611854552,-0.4036216735839844
-0.0981095284223556,0.8003055453300476,-0.1819178909063339,-0.5540578365325928,-0.2450598925352096,0.0905809104442596,0.0,0.0,-0.9392524361610411,-0.0508300065994262
-0.0999144539237022,0.7875061631202698,-0.1849987804889679,-0.5681074261665344,-0.2404728084802627,0.0917416512966156,0.0,0.0,-0.655232846736908,-0.6411494016647339
-0.1018059700727462,0.7744155526161194,-0.1952185928821563,-0.5808338522911072,-0.2343177199363708,0.1231016516685485,0.0,0.0,-0.7421719431877136,-0.720028817653656
-0.1037714928388595,0.7610231041908264,-0.20380799472332,-0.5940837860107422,-0.226956769824028,0.1472185552120208,0.0,0.0,0.3922308683395386,-0.0745905041694641
-0.105630874633789,0.7480632662773132,-0.193343698978424,-0.5748689770698547,-0.2194540202617645,0.1500550508499145,0.0,0.0,0.0560930967330932,0.2665654420852661
-0.1074586883187294,0.7351614832878113,-0.1902729570865631,-0.572318434715271,-0.2118815630674362,0.1514488756656646,0.0,0.0,-0.5631252527236938,0.3168939352035522
-0.1093152984976768,0.721944272518158,-0.1932129263877868,-0.5863715410232544,-0.2042663097381591,0.1523054838180542,0.0,0.0,-0.6637481451034546,0.2224183082580566
-0.1112004294991493,0.708411455154419,-0.19611656665802,-0.6004248261451721,-0.1966122537851333,0.1530808061361313,0.0,0.0,-0.9210159778594972,0.1344428062438964
-0.1131138801574707,0.6945633888244629,-0.1989807337522506,-0.6144782304763794,-0.1889238506555557,0.1537681668996811,0.0,0.0,0.2511444091796875,0.3381633758544922
-0.1149134635925293,0.6813464760780334,-0.1877425014972686,-0.5864441990852356,-0.1811110973358154,0.1562549769878387,0.0,0.0,-0.4576842784881592,0.455392837524414
-0.1167405098676681,0.6678142547607422,-0.1905173808336258,-0.6004980802536011,-0.1732737421989441,0.1567473709583282,0.0,0.0,-0.2060908079147339,0.534250020980835
-0.1185589805245399,0.6539596319198608,-0.1887867152690887,-0.6149712204933167,-0.1663231998682022,0.1390104591846466,0.0,0.0,-0.4589888453483581,0.5267236232757568
-0.1203606575727462,0.639779269695282,-0.1860229074954986,-0.6295875310897827,-0.1604673713445663,0.1171166896820068,0.0,0.0,0.3670920133590698,0.4317922592163086
-0.1221818923950195,0.6263437271118164,-0.1874948441982269,-0.5965675115585327,-0.1550968438386917,0.1074105277657508,0.0,0.0,-0.6220921874046326,0.8779714107513428
-0.1239516288042068,0.6125742197036743,-0.1803755462169647,-0.6116266250610352,-0.1516961008310318,0.0680148154497146,0.0,0.0,0.0642590522766113,0.430377721786499
-0.1257295608520507,0.5988672375679016,-0.1810917854309082,-0.6088658571243286,-0.1484007388353347,0.0659070536494255,0.0,0.0,-0.1153032183647155,0.7802691459655762
-0.1274644881486892,0.5848208665847778,-0.1750470846891403,-0.6241289973258972,-0.1468582302331924,0.0308501180261373,0.0,0.0,-0.0269581079483032,0.1587159633636474
-0.129222959280014,0.5704584717750549,-0.177371084690094,-0.6381785869598389,-0.1453343331813812,0.0304775945842266,0.0,0.0,0.3607040643692016,-0.0020604133605957
-0.1309162080287933,0.5567510724067688,-0.1707965433597564,-0.6090723276138306,-0.1438681483268737,0.0293237566947937,0.0,0.0,-0.5349454879760742,0.4339061975479126
-0.1326313018798828,0.5427277684211731,-0.1729436218738556,-0.6231220364570618,-0.142435222864151,0.0286586880683898,0.0,0.0,0.2627156972885132,0.6781904697418213
-0.1343195885419845,0.529331624507904,-0.1687264293432235,-0.5953933596611023,-0.1425396651029586,-0.0020885607227683,0.0,0.0,-0.8327053785324097,0.5373516082763672
-0.1359953880310058,0.5156068205833435,-0.1665760576725006,-0.610083818435669,-0.1435390710830688,-0.0199881978332996,0.0,0.0,0.2777581214904785,0.7839212417602539
-0.1375055313110351,0.5024598240852356,-0.1484315991401672,-0.5845630764961243,-0.1461196392774582,-0.0516110174357891,0.0,0.0,-0.8962534070014954,0.3570312261581421
-0.1390335112810135,0.4889968931674957,-0.1501479744911193,-0.5986136198043823,-0.1487650424242019,-0.0529079847037792,0.0,0.0,-0.8168635368347168,0.528212308883667
-0.1405403167009353,0.4752119183540344,-0.1470024138689041,-0.6130378246307373,-0.1524427682161331,-0.0735541582107544,0.0,0.0,0.02265465259552,-0.47907555103302
-0.1420041024684906,0.4617545902729034,-0.1425866931676864,-0.5984964370727539,-0.1562362760305404,-0.0758699998259544,0.0,0.0,-0.3002963662147522,0.2628278732299804
-0.1434821188449859,0.4479815661907196,-0.1439100801944732,-0.6125479340553284,-0.1601198762655258,-0.0776718631386756,0.0,0.0,-0.1041337847709655,0.313227891921997
-0.1449728012084961,0.4338928759098053,-0.1450895965099334,-0.6265996098518372,-0.1641021817922592,-0.0796460509300232,0.0,0.0,-0.1296708583831787,-0.4663274884223938
-0.1464749276638031,0.4194884300231933,-0.1461193114519119,-0.6406515836715698,-0.1681918650865554,-0.0817939266562461,0.0,0.0,0.5432440042495728,-0.212009310722351
-0.1477620154619217,0.4055227637290954,-0.1251484304666519,-0.6211069226264954,-0.1717619746923446,-0.0714021176099777,0.0,0.0,-0.0087148547172546,-0.8204513788223267
-0.1491073668003082,0.3912478983402252,-0.1321034431457519,-0.6347211003303528,-0.1741973161697387,-0.0487069636583328,0.0,0.0,0.7806003093719482,-0.7278996706008911
-0.1503817588090896,0.37787526845932,-0.1263159811496734,-0.5944688320159912,-0.175318643450737,-0.0224265456199646,0.0,0.0,0.9020591974258424,0.8432884216308594
-0.1514040976762771,0.3654554188251495,-0.0993737429380416,-0.5523316860198975,-0.1781909465789795,-0.057446114718914,0.0,0.0,0.4405614137649536,-0.0225800275802612
-0.1522200554609298,0.3535497784614563,-0.0790859013795852,-0.5294448137283325,-0.1807120591402053,-0.0504224710166454,0.0,0.0,0.9371626377105712,-0.5437368154525757
-0.1528887748718261,0.3418653607368469,-0.0656454339623451,-0.5194575786590576,-0.1819417774677276,-0.0245941579341888,0.0,0.0,0.4079115390777588,-0.5253340005874634
-0.1535678803920745,0.3305284082889557,-0.0674496591091156,-0.5039229989051819,-0.1824023127555847,-0.0092105623334646,0.0,0.0,0.9097234010696412,0.4990029335021972
-0.1539684236049652,0.3203202188014984,-0.0398750938475132,-0.4537191092967987,-0.1825871169567108,-0.0036959792487323,0.0,0.0,0.5964944362640381,0.2814030647277832
-0.1542883813381195,0.310613751411438,-0.0315153412520885,-0.4314562976360321,-0.1830613017082214,-0.0094836819916963,0.0,0.0,0.3910434246063232,0.4422909021377563
-0.1545846909284591,0.3016082048416137,-0.0284848008304834,-0.400390088558197,-0.1842135190963745,-0.0230446606874465,0.0,0.0,0.3227194547653198,-0.0555631518363952
-0.1547040045261383,0.2930917143821716,-0.0108959693461656,-0.3786369562149048,-0.1852448284626007,-0.0206262879073619,0.0,0.0,0.0496137142181396,-0.6226049065589905
-0.1548130959272384,0.2849910855293274,-0.0108761675655841,-0.3600346446037292,-0.1852796524763107,-0.0006960601895116,0.0,0.0,-0.711826741695404,-0.1279615759849548
-0.1549128592014312,0.2765748202800751,-0.0097276093438267,-0.3740871846675873,-0.1855314522981643,-0.0050361342728137,0.0,0.0,-0.1918444633483886,0.0255106687545776
-0.1550018340349197,0.2678429782390594,-0.0084236850962042,-0.3881397843360901,-0.1860077381134033,-0.0095255831256508,0.0,0.0,-0.124280035495758,-0.4563524723052978
-0.155078500509262,0.2587956190109253,-0.0069700395688414,-0.4021925628185272,-0.1867157220840454,-0.0141596822068095,0.0,0.0,0.4005733728408813,-0.2556910514831543
-0.155184656381607,0.2501227259635925,-0.0090767471119761,-0.3856551945209503,-0.1882524788379669,-0.0307348612695932,0.0,0.0,-0.3825372457504272,-0.3163754343986511
-0.155275821685791,0.2411343902349472,-0.007342449389398,-0.3997083306312561,-0.1900346577167511,-0.0356437116861343,0.0,0.0,0.4883723258972168,-0.5425398349761963
-0.1552722007036209,0.2323107868432998,0.0011633562389761,-0.3922615647315979,-0.1908382177352905,-0.0160713270306587,0.0,0.0,0.3342494964599609,-0.6328679323196411
-0.1550559103488922,0.224061444401741,0.0211801175028085,-0.3665795028209686,-0.1903903633356094,0.0089575247839093,0.0,0.0,-0.3593178987503052,-0.696601927280426
-0.1548765152692794,0.2155186533927917,0.016305822879076,-0.3794739544391632,-0.188751220703125,0.0327827632427215,0.0,0.0,0.0678768157958984,-0.5637557506561279
-0.1545159369707107,0.2074641585350036,0.0334041975438594,-0.3576399981975555,-0.1860874444246292,0.0532756075263023,0.0,0.0,0.1008014678955078,-0.468382179737091
-0.1540135443210601,0.1996495574712753,0.0476281717419624,-0.3469903171062469,-0.1834635436534881,0.0524780973792076,0.0,0.0,-0.2817427515983581,-0.7459328174591064
-0.1535473763942718,0.1915433555841446,0.0427592359483242,-0.359806090593338,-0.1796006262302398,0.0772582963109016,0.0,0.0,-0.1088147163391113,-0.2323623299598693
-0.1530590951442718,0.1831218600273132,0.0452599115669727,-0.3738607168197632,-0.1760225296020507,0.0715620815753936,0.0,0.0,0.2648171186447143,-0.1218196153640747
-0.1524256765842437,0.174887329339981,0.0597796440124511,-0.3655633926391601,-0.1724483221769333,0.0714841410517692,0.0,0.0,0.2538292407989502,-0.5600369572639465
-0.151831716299057,0.1670694500207901,0.0551953501999378,-0.3469795286655426,-0.1682459712028503,0.0840467289090156,0.0,0.0,-0.1443135738372802,-0.2697430849075317
-0.151213452219963,0.1589363366365432,0.0579262152314186,-0.3610343039035797,-0.1643407791852951,0.0781038627028465,0.0,0.0,0.6112666130065918,-0.8156120181083679
-0.1505668610334396,0.1513227373361587,0.0594622865319252,-0.3378180861473083,-0.1591418981552124,0.10397769510746,0.0,0.0,0.3220202922821045,0.3869467973709106
-0.1498064994812011,0.1440212577581405,0.0710399225354194,-0.32398521900177,-0.1541506797075271,0.0998246669769287,0.0,0.0,0.0618501901626586,-0.4822409749031067
-0.1489016562700271,0.1367277950048446,0.0854064971208572,-0.3236342072486877,-0.1490777730941772,0.1014581769704818,0.0,0.0,0.2293270826339721,-0.6755957007408142
-0.147866815328598,0.1298707872629165,0.0972323566675186,-0.304142028093338,-0.1428443342447281,0.1246686801314354,0.0,0.0,0.690288782119751,-0.8330604434013367
-0.1467237472534179,0.1239401698112487,0.1066392287611961,-0.2628686130046844,-0.1352034211158752,0.1528186500072479,0.0,0.0,-0.6299912929534912,-0.6138433814048767
