x_pos,y_pos,x_vel,y_vel,angle,ang_vel,leg_1,leg_2,main_booster,lat_booster
-0.0015018463600426,1.4030662775039673,-0.1517175137996673,-0.3490574657917022,0.0013707726029679,0.027010316029191,0.0,0.0,-0.108054648842329,-0.9118231651279726
-0.0030464171431958,1.394672989845276,-0.1570994406938552,-0.3730413317680359,0.0039908988401293,0.0524079911410808,0.0,0.0,0.1882759936751796,-0.8586799987338445
-0.0045245168730616,1.38615083694458,-0.1519239693880081,-0.3787713348865509,0.0080554243177175,0.0812978893518447,0.0,0.0,-0.0681931780941569,0.6098779619020392
-0.0059391977265477,1.3770692348480225,-0.1442741602659225,-0.4036485254764557,0.0108379377052187,0.055655550211668,0.0,0.0,-0.0122225897249759,0.7209778089538823
-0.0072588920593261,1.367432951927185,-0.1327472776174545,-0.4282912313938141,0.0116041349247097,0.0153250396251678,0.0,0.0,-0.2336104396581706,0.8919324600394758
-0.0084653850644826,1.357238531112671,-0.1189744099974632,-0.4530714750289917,0.0099470783025026,-0.0331440456211566,0.0,0.0,0.9695369228683252,0.8894554645913451
-0.0096101760864257,1.3475193977355957,-0.1107303649187088,-0.4319464266300201,0.0062396614812314,-0.0741553306579589,0.0,0.0,-0.9873261884291742,0.8879727701379962
-0.0106388088315725,1.3372455835342407,-0.09669129550457,-0.4566022455692291,0.0001425103255314,-0.1219543814659118,0.0,0.0,0.7145164896595728,-0.5650293286885634
-0.0116954799741506,1.3277227878570557,-0.1004304438829422,-0.4232406914234161,-0.0050369431264698,-0.1035987511277198,0.0,0.0,0.7908701615930704,0.5218472231305609
-0.0126772876828908,1.3188263177871704,-0.0917609855532646,-0.3954403102397918,-0.0113860247656703,-0.1269934624433517,0.0,0.0,0.8799321919550713,0.8548725044720196
-0.0134449005126953,1.3103843927383425,-0.0687440708279609,-0.3752790987491607,-0.0193041246384382,-0.158376395702362,0.0,0.0,-0.5051383305490047,0.8678740183121625
-0.0141036035493016,1.301381230354309,-0.0558702573180198,-0.4002972543239593,-0.0292088277637958,-0.1981120556592941,0.0,0.0,0.0661832640314012,-0.5946229407946584
-0.0146689414978027,1.2924988269805908,-0.047820396721363,-0.394957959651947,-0.0378210209310054,-0.1722596883773803,0.0,0.0,-0.9755192437710792,0.7672631890081344
-0.0151333808898925,1.2830485105514526,-0.0360299684107303,-0.4203070998191833,-0.0481276363134384,-0.2061512172222137,0.0,0.0,-0.107249280515109,0.800106664051424
-0.015485381707549,1.2730443477630615,-0.0228586699813604,-0.445065826177597,-0.0603525452315807,-0.2445204704999923,0.0,0.0,0.4770014447317503,-0.9078780095095168
-0.0157475471496582,1.262867450714111,-0.0159096922725439,-0.4527524709701538,-0.0705699548125267,-0.2043668031692505,0.0,0.0,-0.4310391650184941,0.7638883710053805
-0.0159001350402832,1.2521347999572754,-0.003176346886903,-0.4776143133640289,-0.0825446024537086,-0.2395146191120147,0.0,0.0,-0.6598393358332906,-0.5594663571834569
-0.0160505287349224,1.2408452033996582,-0.0039802668616175,-0.502409815788269,-0.0935294032096862,-0.2197157442569732,0.0,0.0,-0.8604893022360427,-0.7697106425023572
-0.0162150375545024,1.229012966156006,-0.0068595693446695,-0.5265070199966431,-0.1030548736453056,-0.1905262321233749,0.0,0.0,0.9533714952230125,-0.7588007715210803
-0.0164365768432617,1.2176464796066284,-0.0140494424849748,-0.5057545304298401,-0.1111088991165161,-0.161095306277275,0.0,0.0,0.7991772608682612,-0.621178575845149
-0.016430377960205,1.2069305181503296,0.0068422816693782,-0.4767432808876037,-0.1173024848103523,-0.1238830313086509,0.0,0.0,-0.9411182955347228,-0.714710603636075
-0.0164424888789653,1.1956617832183838,0.0033466960303485,-0.5011943578720093,-0.1218372285366058,-0.0907029956579208,0.0,0.0,0.5933010301241675,0.6292708973315406
-0.0161691661924123,1.1845821142196655,0.0325293019413948,-0.4928706884384155,-0.1270243525505066,-0.1037517562508583,0.0,0.0,0.9250719428530176,-0.5514080738515703
-0.0157703403383493,1.1734706163406372,0.0434086844325065,-0.4941478967666626,-0.1305437684059143,-0.070394679903984,0.0,0.0,-0.2541011654205005,0.9019180281211946
-0.0152796749025583,1.161792278289795,0.0536236949265003,-0.5194382071495056,-0.1350948512554168,-0.0910296440124511,0.0,0.0,0.1457886813658524,0.6768951839217461
-0.014747142791748,1.1502758264541626,0.058942724019289,-0.5123650431632996,-0.1407677829265594,-0.1134585291147232,0.0,0.0,0.3258294161299357,-0.5028051543483808
-0.0141309741884469,1.1390776634216309,0.065899483859539,-0.498113065958023,-0.145034834742546,-0.0853410512208938,0.0,0.0,-0.6429995197745453,0.6161873092934356
-0.0134387016296386,1.1273187398910522,0.0740523561835289,-0.5230949521064758,-0.1498500704765319,-0.0963048487901687,0.0,0.0,-0.0436569624349667,-0.932480275206573
-0.0127965928986668,1.115028738975525,0.0663156658411026,-0.5464368462562561,-0.1519582271575927,-0.0421628281474113,0.0,0.0,0.4350925309509974,0.9406477354448896
-0.0120003698393702,1.1027921438217163,0.0831882953643798,-0.5442171096801758,-0.1555161625146865,-0.071158766746521,0.0,0.0,-0.0110443950045857,0.7339315736836247
-0.0111065860837697,1.0899908542633057,0.0939720049500465,-0.5694297552108765,-0.1601133942604065,-0.0919443741440773,0.0,0.0,-0.8417605757713318,-0.9824585318565368
-0.0102626802399754,1.0766459703445437,0.0862778052687645,-0.5933107733726501,-0.162005990743637,-0.0378518141806125,0.0,0.0,-0.910971462726593,-0.9138252139091492
-0.0094618797302246,1.0627703666687012,0.0793941989541053,-0.6166232824325562,-0.1613107770681381,0.0139044057577848,0.0,0.0,-0.960258424282074,-0.996598780155182
-0.0087110521271824,1.0483474731445312,0.0716671869158744,-0.6406469941139221,-0.1578976958990097,0.0682615265250206,0.0,0.0,-0.9709152579307556,-0.9935707449913024
-0.0079988483339548,1.0333858728408811,0.0653400272130966,-0.6643487811088562,-0.1520188748836517,0.1175765395164489,0.0,0.0,-0.9303751587867736,-0.9834275245666504
-0.0073239328339695,1.0178899765014648,0.059141494333744,-0.6878699064254761,-0.1436863094568252,0.1666513532400131,0.0,0.0,-0.978797972202301,-0.9256293773651124
-0.0066889761947095,1.0018481016159058,0.0526465363800525,-0.7119669318199158,-0.1328720152378082,0.2162856310606002,0.0,0.0,-0.9692878127098083,-0.9011754989624025
-0.0060836793854832,0.9852690696716307,0.0473933890461921,-0.7357295155525208,-0.1198048219084739,0.2613438963890075,0.0,0.0,-0.94389408826828,-0.331620454788208
-0.0054430961608886,0.9681333899497986,0.050337690860033,-0.7605430483818054,-0.1061650663614273,0.272795021533966,0.0,0.0,-0.7973867058753967,0.7708735466003418
-0.0047039031051099,0.9504318237304688,0.0612054355442523,-0.7858813405036926,-0.0935533717274665,0.2522341907024383,0.0,0.0,-0.8960608839988708,0.4335746765136719
-0.0039302827790379,0.9321736693382264,0.0640423074364662,-0.8106951117515564,-0.0803523436188697,0.2640205323696136,0.0,0.0,-0.8649693727493286,0.7058732509613037
-0.0030555725097656,0.9133492708206176,0.0752318575978279,-0.8360335826873779,-0.0682493448257446,0.2420601099729538,0.0,0.0,-0.6922473311424255,0.7433102130889893
-0.0020798682235181,0.8939527869224548,0.086466409265995,-0.8616016507148743,-0.0572635382413864,0.2197163999080658,0.0,0.0,-0.6455525755882263,0.8364901542663574
-0.000994300819002,0.8739907145500183,0.0987777411937713,-0.8868590593338013,-0.0476075895130634,0.1931191384792328,0.0,0.0,-0.8884111046791077,0.6878622770309448
0.0001737594575388,0.8534595966339111,0.1077079176902771,-0.9122337102890016,-0.0386136658489704,0.1798784881830215,0.0,0.0,0.1829957962036132,0.7022316455841064
0.0014751434791833,0.8327171802520752,0.1217738837003707,-0.9216963052749634,-0.0303511079400777,0.1652511805295944,0.0,0.0,-0.6613210439682007,0.6865142583847046
0.0028672218322753,0.8114106059074402,0.1317292749881744,-0.946824312210083,-0.0229668337851762,0.1476854532957077,0.0,0.0,-0.1848124861717224,-0.117312490940094
0.0042896270751953,0.7895464897155762,0.1341177821159362,-0.9716328382492064,-0.0149519983679056,0.1602963358163833,0.0,0.0,0.2285760641098022,-0.5997216701507568
0.0055938721634447,0.7680130004882812,0.120648980140686,-0.9569730758666992,-0.0053031612187623,0.192976638674736,0.0,0.0,0.4645559787750244,0.5065354108810425
0.0069493292830884,0.746597409248352,0.1261962950229644,-0.9518028497695924,0.003925603814423,0.1845753490924835,0.0,0.0,0.4173049926757812,0.1622569561004638
0.0084541318938136,0.7253604531288147,0.1399013549089431,-0.9439260959625244,0.014365829527378,0.2088048011064529,0.0,0.0,0.6866714954376221,-0.3216742277145386
0.0099167823791503,0.7046937346458435,0.1353112310171127,-0.9186601638793944,0.0251797772943973,0.2162787169218063,0.0,0.0,0.8067388534545898,0.16176438331604
0.011513328179717,0.6842045187950134,0.1474920511245727,-0.910883903503418,0.0371954068541526,0.2403127402067184,0.0,0.0,0.9155937433242798,0.3625092506408691
0.0131051065400242,0.6645462512969971,0.1463415473699569,-0.8740774989128113,0.0498797483742237,0.2536867260932922,0.0,0.0,0.9042949676513672,0.9422935247421264
0.0149585725739598,0.645190417766571,0.1734129339456558,-0.8607050776481628,0.0616743378341198,0.235891968011856,0.0,0.0,0.6420276165008545,0.6727385520935059
0.0167574882507324,0.6259720921516418,0.1688869893550872,-0.8546373844146729,0.0725603699684143,0.2177207171916961,0.0,0.0,0.4187294244766235,0.4449523687362671
0.0186107642948627,0.6072309017181396,0.1732922792434692,-0.8335779905319214,0.0844789296388626,0.2383715212345123,0.0,0.0,0.6831681728363037,0.8086339235305786
0.0206469539552927,0.5889918804168701,0.1922744065523147,-0.8113009929656982,0.0957277864217758,0.2249769866466522,0.0,0.0,0.6204167604446411,0.4374973773956299
0.0227007865905761,0.5714136958122253,0.193036675453186,-0.7820881009101868,0.1079789027571678,0.2450221478939056,0.0,0.0,0.4015874862670898,0.6667122840881348
0.0246849060058593,0.5542770624160767,0.1868830323219299,-0.7624984979629517,0.1194322928786277,0.229067713022232,0.0,0.0,-0.3100373148918152,0.9167850017547609
0.0267680175602436,0.536591112613678,0.1981131881475448,-0.7868878245353699,0.1295704692602157,0.2027635872364044,0.0,0.0,0.4548426866531372,0.760246753692627
0.0287524219602346,0.5192647576332092,0.189271479845047,-0.7708848118782043,0.1387012600898742,0.1826161742210388,0.0,0.0,0.3236809968948364,0.8817892074584961
0.0308794975280761,0.5020337700843811,0.204551413655281,-0.766602098941803,0.1468371450901031,0.1627181321382522,0.0,0.0,0.3923710584640503,0.8692643642425537
0.0330389961600303,0.4850345849990845,0.2088410854339599,-0.756236732006073,0.1539292931556701,0.1418432593345642,0.0,0.0,0.5612552165985107,0.6033735275268555
0.0352128036320209,0.4680491983890533,0.2108045071363449,-0.7556034922599792,0.1605079621076584,0.1315729469060897,0.0,0.0,0.84393310546875,0.2492109537124633
0.0371611602604389,0.4514512717723846,0.1882144063711166,-0.7384137511253357,0.1671215593814849,0.1322720646858215,0.0,0.0,0.9626579284667968,0.8880364894866943
0.0390512458980083,0.4358356595039367,0.1834665238857269,-0.6946622729301453,0.1726798713207245,0.111166276037693,0.0,0.0,0.4009574651718139,0.876218318939209
0.041060734540224,0.4200581908226013,0.1963948756456375,-0.7017588019371033,0.1772473454475402,0.0913496389985084,0.0,0.0,0.7757160663604736,-0.6956941485404968
0.0428982749581337,0.4050810933113098,0.1770713627338409,-0.6664623618125916,0.1839533746242523,0.1341205686330795,0.0,0.0,0.419630765914917,0.907130002975464
0.0446550361812114,0.3901383280754089,0.1702174395322799,-0.6648088097572327,0.1894304007291793,0.1095404028892517,0.0,0.0,0.4452152252197265,0.9819279909133912
0.0462976470589637,0.3755119144916534,0.160180777311325,-0.6505899429321289,0.1935413628816604,0.082219086587429,0.0,0.0,0.7158125638961792,0.8160617351531982
0.0479253754019737,0.3613110184669494,0.1595762073993683,-0.6315726637840271,0.1967559903860092,0.0642926469445228,0.0,0.0,0.7600052356719971,0.5007932186126709
0.0492834076285362,0.3478516936302185,0.1333519220352172,-0.5985192060470581,0.1992211192846298,0.0493026487529277,0.0,0.0,0.7903847694396973,0.741478681564331
0.0506704337894916,0.3347993493080139,0.1368671953678131,-0.5803497433662415,0.2010634243488311,0.0368465259671211,0.0,0.0,0.5803253650665283,0.9004645347595215
0.0520276054739952,0.3217442035675049,0.1350451111793518,-0.5803208947181702,0.2017341554164886,0.0134148281067609,0.0,0.0,0.7423518896102905,0.8147399425506592
0.0534667000174522,0.3086711168289184,0.1440433859825134,-0.5810056924819946,0.2016016393899917,-0.0026500483509153,0.0,0.0,0.9748835563659668,0.3863766193389892
0.054796028882265,0.2956267297267914,0.1325645595788955,-0.5798013210296631,0.2019758373498916,0.0074836546555161,0.0,0.0,0.9618306159973145,0.7113621234893799
0.0559880249202251,0.2834300994873047,0.1196003556251525,-0.5420168042182922,0.2015712112188339,-0.0080923875793814,0.0,0.0,0.9751636981964112,0.4357496500015259
0.0570858940482139,0.272139310836792,0.1090741381049156,-0.5019137263298035,0.2022908180952072,0.0143918842077255,0.0,0.0,0.964906930923462,0.6007512807846069
0.0579015724360942,0.261697769165039,0.0817709416151046,-0.4640375971794128,0.2020878940820694,-0.004058756865561,0.0,0.0,0.9528504610061646,0.254873514175415
0.0584952346980571,0.2512292861938476,0.0595947876572608,-0.4652348458766937,0.2018589228391647,-0.0045793736353516,0.0,0.0,0.9564251899719238,0.7343177795410156
0.0590136535465717,0.2416195422410965,0.0527446866035461,-0.4269777238368988,0.2009527385234832,-0.0181234311312437,0.0,0.0,0.7540977001190186,0.6596082448959351
0.0593526847660541,0.2323323041200637,0.0357179567217826,-0.4125204086303711,0.1991272866725921,-0.0365093983709812,0.0,0.0,0.938482403755188,0.886652946472168
0.0595383644104003,0.2236616909503936,0.0216138120740652,-0.3849549889564514,0.196062684059143,-0.0612922608852386,0.0,0.0,0.969941020011902,0.7306921482086182
0.059607408940792,0.2156775742769241,0.0107715344056487,-0.3543413281440735,0.1921707391738891,-0.0778389871120452,0.0,0.0,0.2953879833221435,0.4198335409164428
0.0596608147025108,0.2078285813331604,0.0082282153889536,-0.3484768867492676,0.1892740726470947,-0.0579336956143379,0.0,0.0,0.9141430854797364,0.849622368812561
0.0597404465079307,0.2000267058610916,0.0118000898510217,-0.3462633192539215,0.1854156851768493,-0.0771676152944564,0.0,0.0,0.8410643339157104,0.3178967237472534
0.0598427765071392,0.1923586726188659,0.0129332691431045,-0.3404691517353058,0.1827126592397689,-0.0540605187416076,0.0,0.0,0.9469501972198486,0.6579138040542603
0.0600607879459857,0.1851915270090103,0.0246553476899862,-0.3181895613670349,0.1798455715179443,-0.0573417954146862,0.0,0.0,0.9858713150024414,0.5254632234573364
0.0604131706058979,0.1782223582267761,0.0379439406096935,-0.3094163537025451,0.1771331429481506,-0.0542484447360038,0.0,0.0,0.961111307144165,-0.3825415372848511
0.0606053359806537,0.1720116436481475,0.0212717223912477,-0.2757863700389862,0.1750628501176834,-0.041405901312828,0.0,0.0,0.9810364246368408,-0.7528794407844543
0.0606225952506065,0.1665884405374527,0.0015258609782904,-0.2410537153482437,0.1752638071775436,0.0040191309526562,0.0,0.0,0.7430267333984375,-0.4190306663513183
0.0606496818363666,0.1616825610399246,0.0012444452149793,-0.2182135283946991,0.1767423152923584,0.0295697189867496,0.0,0.0,0.6851838827133179,-0.5008864998817444
0.0606910698115825,0.1567251980304718,0.0006834062514826,-0.2207433134317398,0.1802036017179489,0.0692257955670356,0.0,0.0,0.8559262752532959,0.6221878528594971
0.0606194511055946,0.1520500034093856,-0.0098737878724932,-0.2081160545349121,0.1829194277524948,0.0543165691196918,0.0,0.0,0.4346755743026733,0.3102346658706665
0.0604869835078716,0.1479435712099075,-0.0169454347342252,-0.1829673498868942,0.1866380721330642,0.0743728727102279,0.0,0.0,-0.0254700183868408,0.3070522546768188
0.0603578574955463,0.1432809680700302,-0.0172681361436843,-0.20778389275074,0.1910167336463928,0.0875728726387023,0.0,0.0,0.2029480934143066,0.9162856340408324
0.060088537633419,0.1389138251543045,-0.0300655700266361,-0.1945021152496338,0.1941680759191513,0.0630268901586532,0.0,0.0,0.0601240396499633,-0.0649494528770446
0.0597911849617958,0.1346656382083892,-0.0337688401341438,-0.1893421709537506,0.1982312649488449,0.0812636837363243,0.0,0.0,-0.4774931669235229,0.7120420932769775
0.059547234326601,0.1298814415931701,-0.0277830120176076,-0.2130886912345886,0.2016371935606002,0.0681189075112342,0.0,0.0,0.4036929607391357,0.5990157127380371
0.0591503158211708,0.1254712492227554,-0.0423516295850276,-0.196373701095581,0.2043220847845077,0.0536979623138904,0.0,0.0,-0.3895862102508545,0.144514799118042
0.0587577819824218,0.1205047965049743,-0.0425571501255035,-0.2211903482675552,0.2076480537652969,0.0665193572640419,0.0,0.0,0.2106478214263916,0.4192677736282348
0.0581953041255474,0.1156025752425193,-0.0597840175032615,-0.2183785885572433,0.2112147212028503,0.071333147585392,0.0,0.0,-0.7530858516693115,0.826088547706604
0.0576857551932334,0.1101576164364814,-0.053869891911745,-0.2424164563417434,0.2141668498516082,0.059042178094387,0.0,0.0,-0.1357260942459106,0.8589980602264404
0.0572587959468364,0.1041868031024932,-0.0442238040268421,-0.2655911445617676,0.2157071828842163,0.0308068692684173,0.0,0.0,0.5423402786254883,0.0600855350494384
0.0568197257816791,0.0981828048825264,-0.0463019236922264,-0.2671970427036285,0.2181306630373001,0.0484698936343193,0.0,0.0,0.4455496072769165,0.8845722675323486
0.0564498901367187,0.0926760509610176,-0.0383761376142501,-0.2449497580528259,0.2195373326539993,0.028133139014244,0.0,0.0,0.5968527793884277,0.4797554016113281
0.0559018142521381,0.0877038091421127,-0.0566969215869903,-0.2212681323289871,0.22144515812397,0.0381566099822521,0.0,0.0,-0.0830505490303039,0.9031907320022584
0.0554452911019325,0.0822145789861679,-0.0458951629698276,-0.2440048307180404,0.2216898053884506,0.0048934519290924,0.0,0.0,0.3367159366607666,0.9128297567367554
0.055032730102539,0.0769023001194,-0.040309552103281,-0.2359585464000702,0.220734417438507,-0.0191077906638383,0.0,0.0,0.5561791658401489,0.8436678647994995
0.0545164123177528,0.0721868351101875,-0.0495621524751186,-0.2092670053243637,0.2186382710933685,-0.041922815144062,0.0,0.0,0.879531979560852,0.9305546283721924
0.0539597496390342,0.0682836845517158,-0.0524279847741127,-0.1729950010776519,0.2153578251600265,-0.0656089782714843,0.0,0.0,0.2236496210098266,0.7180609703063965
0.053461454808712,0.064358003437519,-0.045773010700941,-0.1738885939121246,0.2112708687782287,-0.0817392468452453,0.0,0.0,0.0715435743331909,0.7507946491241455
0.0528576858341693,0.0604553557932376,-0.0553007237613201,-0.1727344393730163,0.2061528861522674,-0.1023597493767738,0.0,0.0,-0.1836785078048706,0.9512946605682372
0.0523229613900184,0.0560121871531009,-0.0474272333085536,-0.1966450065374374,0.2000584453344345,-0.1218892335891723,0.0,0.0,0.4918719530105591,0.961986780166626
0.0517513267695903,0.0517767295241355,-0.0496747270226478,-0.1872513443231582,0.1925223767757415,-0.1507209539413452,0.0,0.0,0.7629339694976807,0.9455060958862304
0.0511869415640831,0.0478518344461917,-0.047600295394659,-0.1733114719390869,0.1836311668157577,-0.1778241097927093,0.0,0.0,0.4939690828323364,0.9321640729904176
0.05078125,0.0438994020223617,-0.030465293675661,-0.1744469851255417,0.1734947115182876,-0.2027290761470794,0.0,0.0,0.4056434631347656,0.8875442743301392
0.0504501350224018,0.040297444909811,-0.0217589847743511,-0.1588039547204971,0.1621326655149459,-0.2272412478923797,0.0,0.0,0.1331820487976074,0.6426723003387451
0.050112534314394,0.0369820930063724,-0.0215607937425375,-0.1460624784231186,0.1499464064836502,-0.243725299835205,0.0,0.0,0.3579508066177368,0.6983902454376221
0.0498646721243858,0.0335096679627895,-0.0116847632452845,-0.1530632823705673,0.1368807703256607,-0.2613130807876587,0.0,0.0,0.4075684547424316,-0.4441031217575073
0.0496438033878803,0.0302805751562118,-0.0097516560927033,-0.14242585003376,0.124598428606987,-0.2456470280885696,0.0,0.0,0.6302034854888916,-0.365037739276886
