x_pos,y_pos,x_vel,y_vel,angle,ang_vel,leg_1,leg_2,main_booster,lat_booster
-0.0015716552734375,1.4031013250350952,-0.1592393219470977,-0.3475046157836914,0.0018466961337253,0.0364345051348209,0.0,0.0,-0.1941324472427368,0.9209784269332886
-0.0031140327919274,1.3947781324386597,-0.154090330004692,-0.3699182569980621,0.0017081461846828,-0.0027707703411579,0.0,0.0,0.2173107862472534,-0.0167770981788635
-0.0046077729202806,1.386378049850464,-0.1497548073530197,-0.3733403086662292,0.0020778065081685,0.0073936795815825,0.0,0.0,-0.1589818000793457,0.6895854473114014
-0.0061079980805516,1.377452373504639,-0.1493150293827057,-0.3966942131519317,0.0013838651357218,-0.0138800460845232,0.0,0.0,0.1562341451644897,0.77630615234375
-0.0074947355315089,1.3686909675598145,-0.1365471184253692,-0.3893971443176269,-0.0007120007649064,-0.0419213324785232,0.0,0.0,-0.0367240309715271,0.9206784963607788
-0.0088430400937795,1.3594049215316772,-0.1304790526628494,-0.4127213060855865,-0.0050171352922916,-0.0861108526587486,0.0,0.0,-0.2049087882041931,0.0345362424850463
-0.0102421762421727,1.3495959043502808,-0.1355851888656616,-0.435973584651947,-0.0092971520498394,-0.0856077820062637,0.0,0.0,0.6010293960571289,0.7417764663696289
-0.0114687923341989,1.3402035236358645,-0.1172074303030967,-0.4174797832965851,-0.0146980583667755,-0.1080281287431716,0.0,0.0,0.1653864383697509,-0.1564488410949707
-0.0127465249970555,1.3311737775802612,-0.1222939044237136,-0.4013886451721191,-0.020119447261095,-0.108437456190586,0.0,0.0,0.4208779335021972,-0.2485188841819763
-0.0140637401491403,1.3225579261779783,-0.1262581199407577,-0.3830078542232513,-0.0255264285951852,-0.1081495732069015,0.0,0.0,-0.0514401793479919,0.5429278612136841
-0.0153836254030466,1.313417911529541,-0.1252904534339904,-0.4063557684421539,-0.0321473516523838,-0.1324304193258285,0.0,0.0,-0.1817655563354492,0.0636197328567504
-0.0167550090700387,1.3037551641464231,-0.1304532587528228,-0.4296096861362457,-0.038753543049097,-0.1321358978748321,0.0,0.0,0.3164088726043701,0.5062094926834106
-0.0180038455873727,1.2943990230560305,-0.1174826472997665,-0.4160368144512176,-0.0460771881043911,-0.1464862823486328,0.0,0.0,-0.7469552755355835,-0.5983356237411499
-0.0193459503352642,1.284517526626587,-0.1278855800628662,-0.4393889307975769,-0.0523390918970108,-0.12524975836277,0.0,0.0,0.2119245529174804,0.5923666954040527
-0.0205466262996196,1.275012731552124,-0.1127693653106689,-0.4227069914340973,-0.0595538467168808,-0.1443084627389907,0.0,0.0,-0.8364036083221436,0.3720831871032715
-0.0217981338500976,1.2649850845336914,-0.1178840398788452,-0.4459732174873352,-0.0667592138051986,-0.1441204249858856,0.0,0.0,-0.3503499031066894,-0.2845302820205688
-0.0231005661189556,1.2544353008270264,-0.1229719072580337,-0.4692294299602508,-0.073956660926342,-0.1439622342586517,0.0,0.0,-0.2027585506439209,-0.8593645691871643
-0.0245054252445697,1.2433611154556274,-0.1345469206571579,-0.4924921691417694,-0.0798442736268043,-0.1177627295255661,0.0,0.0,0.3373322486877441,-0.4197645187377929
-0.025830078870058,1.2327262163162231,-0.1269172728061676,-0.4729672372341156,-0.0853580236434936,-0.1102850064635276,0.0,0.0,-0.7619951367378235,0.4903359413146972
-0.0272045135498046,1.2215683460235596,-0.1318954974412918,-0.496232807636261,-0.0908658653497695,-0.1101667881011962,0.0,0.0,0.5918899774551392,0.4241764545440674
-0.0284399986267089,1.2109532356262207,-0.1185802072286605,-0.4720968902111053,-0.0957944616675376,-0.0985806658864021,0.0,0.0,-0.7788389325141907,-0.0583510994911193
-0.0297240260988473,1.1998149156570437,-0.1234518662095069,-0.495362788438797,-0.1007181257009506,-0.0984820649027824,0.0,0.0,0.0522104501724243,-0.5221118330955505
-0.0309712402522563,1.1886627674102783,-0.1209785118699073,-0.4959031939506531,-0.1044358238577842,-0.0743605718016624,0.0,0.0,0.5888187885284424,0.0083723068237304
-0.0321675315499305,1.1774249076843262,-0.1162187084555625,-0.4997041821479797,-0.107836939394474,-0.0680282860994339,0.0,0.0,-0.6948882341384888,0.1084693670272827
-0.0334104523062706,1.1656638383865356,-0.1208794265985488,-0.5229619741439819,-0.1112324222922325,-0.0679154321551323,0.0,0.0,0.2168781757354736,-0.8567736148834229
-0.0348331443965435,1.154167890548706,-0.1404920667409896,-0.5110652446746826,-0.112993985414505,-0.0352310948073864,0.0,0.0,0.2311220169067382,0.7221887111663818
-0.0361792556941509,1.1429499387741089,-0.1314035952091217,-0.4988232851028442,-0.1161850318312645,-0.0638211145997047,0.0,0.0,0.6108841896057129,-0.5038602948188782
-0.0376502983272075,1.1324435472488403,-0.1445346176624298,-0.4671526253223419,-0.1187336817383766,-0.0509729869663715,0.0,0.0,-0.0038681030273437,0.8129231929779053
-0.0391135215759277,1.121411681175232,-0.1424857079982757,-0.4906085729598999,-0.1225440204143524,-0.0762068405747413,0.0,0.0,-0.6398608088493347,0.8799091577529907
-0.0405519492924213,1.1098414659500122,-0.1383095383644104,-0.5146956443786621,-0.1280442327260971,-0.110004112124443,0.0,0.0,-0.3738505840301513,-0.5118191242218018
-0.0420690551400184,1.097761631011963,-0.1471884101629257,-0.5372768640518188,-0.1325437128543853,-0.0899899899959564,0.0,0.0,-0.0284116268157959,-0.5261818170547485
-0.0436719879508018,1.0851651430130005,-0.1569750905036926,-0.5601463317871094,-0.1358492374420166,-0.0661103799939155,0.0,0.0,-0.521644115447998,-0.5641319751739502
-0.0453621856868267,1.0720610618591309,-0.1670098304748535,-0.5825911164283752,-0.1378610134124755,-0.0402353964745998,0.0,0.0,0.8516414165496826,-0.91710764169693
-0.0471840873360633,1.0590572357177734,-0.1818722039461136,-0.577971339225769,-0.1381701380014419,-0.0061824554577469,0.0,0.0,0.7400100231170654,0.6938836574554443
-0.0488765724003315,1.0464980602264404,-0.1675963103771209,-0.5583406686782837,-0.1398119628429412,-0.0328367911279201,0.0,0.0,-0.4006215929985046,0.033557653427124
-0.0506018623709678,1.0334157943725586,-0.1708950847387313,-0.5815931558609009,-0.1414409577846527,-0.0325801149010658,0.0,0.0,-0.9400100111961364,0.0936375856399536
-0.0523582473397254,1.0198101997375488,-0.1740192472934723,-0.6048456430435181,-0.1430557966232299,-0.0322968438267707,0.0,0.0,0.0215660333633422,0.1495888233184814
-0.0540534034371376,1.0063753128051758,-0.1680276691913604,-0.5972537994384766,-0.1445462256669998,-0.0298086255788803,0.0,0.0,0.1818054914474487,0.7235589027404785
-0.0556632988154888,0.993314266204834,-0.158024400472641,-0.5807772874832153,-0.1474979072809219,-0.0590339489281177,0.0,0.0,-0.1866201162338256,-0.2069594264030456
-0.0572983734309673,0.9797301292419434,-0.1605721414089203,-0.6040302515029907,-0.1504309922456741,-0.0586615689098835,0.0,0.0,-0.5441161394119263,-0.4800281524658203
-0.0589566230773925,0.9656230211257936,-0.1629102081060409,-0.6272830963134766,-0.153343841433525,-0.0582566745579242,0.0,0.0,-0.8920895457267761,-0.676178514957428
-0.0606779083609581,0.9510008692741394,-0.170321449637413,-0.6500594615936279,-0.1551600098609924,-0.0363231971859931,0.0,0.0,-0.9660011529922484,0.253379225730896
-0.062417984008789,0.935855507850647,-0.1722142547369003,-0.6733118891716003,-0.1569525003433227,-0.0358497574925422,0.0,0.0,0.630835771560669,0.4814032316207886
-0.0639960318803787,0.9209371209144592,-0.1564872711896896,-0.6631782054901123,-0.1582661569118499,-0.0262733995914459,0.0,0.0,-0.6723222732543945,-0.8836262226104736
-0.0656627640128135,0.9055027365684508,-0.1672614812850952,-0.6859062314033508,-0.1576704233884811,0.0119145503267645,0.0,0.0,-0.8848341107368469,-0.7819800972938538
-0.0673979744315147,0.8895508646965027,-0.1755920350551605,-0.7087574601173401,-0.1556043177843094,0.0413224957883358,0.0,0.0,-0.3911855220794678,-0.0816659331321716
-0.069141961634159,0.8730757832527161,-0.1764968633651733,-0.7320098876953125,-0.153507113456726,0.0419441983103752,0.0,0.0,-0.7243983745574951,-0.3250062465667724
-0.0708919540047645,0.8560774326324463,-0.177136093378067,-0.7552622556686401,-0.1513768881559372,0.0426045767962932,0.0,0.0,0.0472005605697631,-0.3658878803253174
-0.0726530998945236,0.8393157124519348,-0.1778919100761413,-0.7447855472564697,-0.1496006995439529,0.035523734986782,0.0,0.0,-0.42918860912323,-0.1996849179267883
-0.0744147300720214,0.8220308423042297,-0.1779806315898895,-0.7680377960205078,-0.1477875709533691,0.0362625047564506,0.0,0.0,-0.3015634417533874,-0.1768427491188049
-0.0761740654706955,0.8042227029800415,-0.1777855455875396,-0.7912900447845459,-0.1459355354309082,0.0370407626032829,0.0,0.0,0.2328724861145019,-0.0876076221466064
-0.0778905898332595,0.7867165207862854,-0.1733575016260147,-0.7778851985931396,-0.1442414075136184,0.0338827930390834,0.0,0.0,-0.343446671962738,0.0035191774368286
-0.0795990005135536,0.7686871886253357,-0.1725807338953018,-0.8011373281478882,-0.142504408955574,0.0347402766346931,0.0,0.0,0.0850682258605957,0.1536332368850708
-0.0812196731567382,0.7509119510650635,-0.163867250084877,-0.7898362278938293,-0.1407128572463989,0.0358311496675014,0.0,0.0,0.684046745300293,0.3149974346160888
-0.0826061218976974,0.7333196997642517,-0.1411895453929901,-0.7816370725631714,-0.138171911239624,0.050819057971239,0.0,0.0,0.486149787902832,0.5031689405441284
-0.0839691162109375,0.7158426642417908,-0.1376475691795349,-0.7766340970993042,-0.1368269771337509,0.0268988106399774,0.0,0.0,0.2664810419082641,-0.405225396156311
-0.085157111287117,0.6987354755401611,-0.1205311194062233,-0.7601615786552429,-0.1350979506969452,0.034580573439598,0.0,0.0,-0.3579012155532837,0.5374656915664673
-0.0862697586417198,0.6810965538024902,-0.1117322295904159,-0.7839066982269287,-0.134635254740715,0.0092540150508284,0.0,0.0,0.8218061923980713,-0.3373941779136657
-0.0871524810791015,0.6642673015594482,-0.0891800746321678,-0.7478834986686707,-0.1337369084358215,0.0179668646305799,0.0,0.0,0.6252923011779785,-0.0859262347221374
-0.0879770293831825,0.6480790972709656,-0.0830666199326515,-0.719426155090332,-0.1331286877393722,0.0121643403545022,0.0,0.0,-0.0732904076576232,-0.6269823908805847
-0.0888147354125976,0.6313709616661072,-0.0855813696980476,-0.7424136400222778,-0.1313186436891555,0.0362005867063999,0.0,0.0,0.4290897846221924,-0.1719561219215393
-0.0896235480904579,0.6150591373443604,-0.0823559314012527,-0.7248435616493225,-0.1298497319221496,0.0293782409280538,0.0,0.0,0.2085740566253662,0.0650746822357177
-0.0902554541826248,0.5987691283226013,-0.0651500821113586,-0.7238296866416931,-0.1279009133577346,0.0389763452112674,0.0,0.0,0.2500052452087402,-0.614887535572052
-0.0908156409859657,0.5826523303985596,-0.0593054182827472,-0.716022789478302,-0.1246255785226821,0.0655065551400184,0.0,0.0,0.7170597314834595,0.201163649559021
-0.0912717804312706,0.5666309595108032,-0.0490214154124259,-0.7117815613746643,-0.1212472021579742,0.0675676167011261,0.0,0.0,0.3245487213134765,0.4943763017654419
-0.0917223915457725,0.550809919834137,-0.0480678491294384,-0.7029145956039429,-0.1182607561349868,0.0597286522388458,0.0,0.0,0.6819517612457275,-0.071571946144104
-0.0919989570975303,0.535759687423706,-0.0308363083750009,-0.6686534881591797,-0.1151043996214866,0.0631271377205848,0.0,0.0,0.1849701404571533,0.0300158262252807
-0.0921408683061599,0.5204886794090271,-0.0177091620862483,-0.6784448027610779,-0.1116052716970443,0.0699826255440712,0.0,0.0,0.1899460554122924,-0.2489821314811706
-0.0921401008963584,0.5056078433990479,-0.0036172489635646,-0.6610996127128601,-0.1079441234469413,0.0732230991125106,0.0,0.0,-0.1012139320373535,0.0446225404739379
-0.0920822173357009,0.4902038872241974,0.0020275507122278,-0.6843525171279907,-0.1042094603180885,0.0746934041380882,0.0,0.0,0.459031343460083,-0.095998466014862
-0.0919831246137619,0.4751815795898437,0.0064457617700099,-0.6674205660820007,-0.1007749512791633,0.0686899572610855,0.0,0.0,0.5587316751480103,-0.2434511184692382
-0.0917342156171798,0.4605081081390381,0.0212210416793823,-0.651913046836853,-0.0971298366785049,0.0729022771120071,0.0,0.0,0.4679980278015136,-0.2226146459579467
-0.0914622321724891,0.446448415517807,0.023977518081665,-0.6246694326400757,-0.0939365252852439,0.0638664215803146,0.0,0.0,0.072755217552185,-0.4835832118988037
-0.0910412818193435,0.4324188828468323,0.0385714247822761,-0.6233193278312683,-0.0904434993863105,0.0698605850338935,0.0,0.0,0.1142522096633911,-0.4743520021438598
-0.0905508026480674,0.41826331615448,0.0455479845404624,-0.6289291977882385,-0.0869754254817962,0.0693613141775131,0.0,0.0,0.6846215724945068,-0.5418198108673096
-0.0899303406476974,0.4040702283382416,0.0571716427803039,-0.6305285692214966,-0.0821493938565254,0.0965206995606422,0.0,0.0,0.7023186683654785,-0.3783026337623596
-0.0892414078116417,0.3898809850215912,0.0640824213624,-0.6303752660751343,-0.0773915350437164,0.0951573252677917,0.0,0.0,0.6750190258026123,-0.657649576663971
-0.088477037847042,0.3763846755027771,0.0702356621623039,-0.599531352519989,-0.0712598785758018,0.1226334944367408,0.0,0.0,0.2097164392471313,-0.0286871790885925
-0.0875361412763595,0.3632529973983764,0.0875406637787818,-0.583331286907196,-0.064772754907608,0.12974214553833,0.0,0.0,-0.0847178697586059,0.2844693660736084
-0.0865179076790809,0.3495986461639404,0.0951788574457168,-0.6065868139266968,-0.058200467377901,0.1314457207918167,0.0,0.0,0.854964017868042,0.2614134550094604
-0.0855442062020301,0.3359911143779754,0.091310054063797,-0.6045548915863037,-0.0522142872214317,0.1197235435247421,0.0,0.0,0.7466459274291992,0.0950349569320678
-0.0844040885567665,0.3231094181537628,0.1076674088835716,-0.5723126530647278,-0.0459443181753158,0.1253994405269622,0.0,0.0,0.5112854242324829,0.172642707824707
-0.083250805735588,0.3105001151561737,0.1093307361006736,-0.5602383017539978,-0.0400160774588584,0.1185647398233413,0.0,0.0,0.3840136528015136,0.0882706642150878
-0.082037828862667,0.2982219457626343,0.1154276505112648,-0.5455525517463684,-0.0342127606272697,0.1160661727190017,0.0,0.0,0.5346469879150391,0.2724313735961914
-0.0807295814156532,0.2863952815532684,0.1249109134078025,-0.5255060791969299,-0.0283730011433362,0.1167952269315719,0.0,0.0,0.2959526777267456,0.2631415128707886
-0.0792548209428787,0.2747272253036499,0.1411552131175995,-0.5184719562530518,-0.0221287496387958,0.1248849257826805,0.0,0.0,0.1683168411254882,0.0650177001953125
-0.0776716247200965,0.2628990411758423,0.1518268585205078,-0.5256175398826599,-0.0157187692821025,0.1281996518373489,0.0,0.0,0.5154905319213867,0.0644985437393188
-0.075910285115242,0.2511001229286194,0.1691566705703735,-0.5243384838104248,-0.0088269626721739,0.1378358900547027,0.0,0.0,0.5590100288391113,-0.3822282552719116
-0.0739170089364051,0.2395851463079452,0.1915989816188812,-0.5117501616477966,-0.0012048946227878,0.1524411737918853,0.0,0.0,0.5231420993804932,-0.8592459559440613
-0.0717579871416091,0.2280866205692291,0.2061571627855301,-0.5110651850700378,0.0084124999120831,0.1923478245735168,0.0,0.0,0.6140041351318359,-0.6630545854568481
-0.0695737823843956,0.2171712517738342,0.2072697877883911,-0.4852244257926941,0.0194223634898662,0.22019724547863,0.0,0.0,0.2501330375671386,-0.6238365173339844
-0.0673335045576095,0.2065994888544082,0.2114880084991455,-0.4700660705566406,0.0318038165569305,0.2476290017366409,0.0,0.0,0.4426305294036865,-0.5865698456764221
-0.064948558807373,0.196385771036148,0.2244289368391037,-0.4542997181415558,0.0456995368003845,0.2779144048690796,0.0,0.0,0.3635027408599853,-0.2763915061950683
-0.0624007210135459,0.1860610544681549,0.2402452528476715,-0.4593852460384369,0.0600655227899551,0.2873196899890899,0.0,0.0,0.4665582180023193,-0.1297951936721801
-0.0598340034484863,0.1758885532617569,0.2422795593738556,-0.4527517557144165,0.0743000283837318,0.2846900820732116,0.0,0.0,0.7740951776504517,-0.7012271285057068
-0.0572003349661827,0.1665949374437332,0.2472781836986541,-0.413922905921936,0.0902359932661056,0.3187193572521209,0.0,0.0,0.5233463048934937,-0.0375400185585022
-0.0545418746769428,0.1575626283884048,0.2498085498809814,-0.402477890253067,0.1061544120311737,0.3183680474758148,0.0,0.0,-0.06015145778656,-0.143639862537384
-0.0517891868948936,0.1480107456445694,0.2591578364372253,-0.4257522225379944,0.1221533119678497,0.3199783563613891,0.0,0.0,0.7071871757507324,0.4163887500762939
-0.0489407554268837,0.1390292048454284,0.2682792246341705,-0.4006150364875793,0.1386472433805465,0.3298782110214233,0.0,0.0,0.3261027336120605,0.421309232711792
-0.0461232177913188,0.1304140239953994,0.2653429210186004,-0.3845058977603912,0.1550195813179016,0.3274467587471008,0.0,0.0,0.31965172290802,0.3256901502609253
-0.043368149548769,0.1221503838896751,0.2593688368797302,-0.3690343201160431,0.1711616069078445,0.3228406310081482,0.0,0.0,0.297404408454895,0.4743950366973877
-0.0406035408377647,0.1139401793479919,0.260393738746643,-0.3668314218521118,0.1872866302728653,0.3225000202655792,0.0,0.0,0.282639741897583,-0.0188359022140502
-0.0379189476370811,0.105873018503189,0.2527735233306885,-0.3605954349040985,0.2030637413263321,0.3155423700809479,0.0,0.0,0.3390500545501709,0.1734538078308105
-0.0353432670235633,0.0978728160262107,0.242413118481636,-0.3577137887477875,0.2183453738689422,0.305633008480072,0.0,0.0,0.1193455457687377,-0.2565720677375793
-0.0327068343758583,0.0900890454649925,0.2481599599123001,-0.34831103682518,0.2340250760316848,0.3135940432548523,0.0,0.0,0.0802532434463501,-0.5237970352172852
-0.0300262458622455,0.0821343958377838,0.2514505982398987,-0.3562687635421753,0.2509061098098755,0.3376205563545227,0.0,0.0,0.2162815332412719,-0.0910058617591857
-0.0272851940244436,0.0745163559913635,0.2570329010486603,-0.341589480638504,0.2683413028717041,0.3487035632133484,0.0,0.0,0.3699885606765747,-0.149585485458374
-0.0246364586055278,0.0673024281859397,0.2479185312986374,-0.3238225877285003,0.2857456803321838,0.3480877876281738,0.0,0.0,0.497677206993103,-0.131157636642456
-0.0219852440059185,0.0607391707599163,0.2476234138011932,-0.2952364683151245,0.3038019239902496,0.3611249923706054,0.0,0.0,0.2151645421981811,0.0242092609405517
-0.0193112380802631,0.0542924255132675,0.2497015744447708,-0.2903301417827606,0.3221676647663116,0.3673145771026611,0.0,0.0,0.2366753816604614,-0.1176579594612121
-0.0167389865964651,0.0481940135359764,0.2396070510149002,-0.2750712633132934,0.3405545055866241,0.3677367866039276,0.0,0.0,0.2355005741119384,0.6176925897598267
-0.0141746522858738,0.0424638837575912,0.2400166988372802,-0.2586467266082763,0.3577950596809387,0.3448104560375213,0.0,0.0,0.2002081871032714,-0.0524324774742126
-0.0115751270204782,0.0367132276296615,0.2433446198701858,-0.2598225176334381,0.3753441870212555,0.3509823977947235,0.0,1.0,0.9979288578033448,0.9978033304214478
-0.0093223573639988,0.0325028747320175,0.2247583568096161,-0.1878456771373748,0.3740887343883514,-0.0277825947850942,0.0,1.0,0.9923267364501952,0.9844681024551392
-0.0074916840530931,0.0294647552073001,0.2037301063537597,-0.1298086494207382,0.3521927297115326,-0.4380251765251159,0.0,1.0,0.9208271503448486,-0.7251299023628235
-0.0060446737334132,0.0274910777807235,0.1784268319606781,-0.0798994973301887,0.3168281316757202,-0.7074385285377502,0.0,1.0,0.7402101755142212,-0.9156898856163024
-0.0048580169677734,0.0261288732290267,0.1582395434379577,-0.0524578504264354,0.2758494615554809,-0.8197185397148132,0.0,1.0,0.3787786960601806,-0.972725510597229
-0.0037046433426439,0.0247206073254346,0.1534946262836456,-0.0558899566531181,0.2368189245462417,-0.7807143330574036,0.0,1.0,0.5221699476242065,-0.8779383897781372
-0.0026467323768883,0.0237156730145216,0.1412255764007568,-0.0393704175949096,0.200936958193779,-0.7176686525344849,0.0,1.0,0.3661746978759765,-0.8525689244270325
-0.0017677306896075,0.0231790877878665,0.1218741759657859,-0.0196023155003786,0.1667998284101486,-0.6827706098556519,0.0,0.0,-0.9967299103736876,-0.5345213413238525
-0.0008212089305743,0.022110067307949,0.1274390518665313,-0.0441605485975742,0.1340557783842086,-0.6548817157745361,0.0,0.0,-0.9799874424934388,-0.8104689717292786
