x_pos,y_pos,x_vel,y_vel,angle,ang_vel,leg_1,leg_2,main_booster,lat_booster
-0.001569366431795,1.4030784368515017,-0.1588279902935028,-0.3485230803489685,0.0016872559208422,0.0332773551344871,0.0,0.0,-0.4016709368192055,-0.776160129173449
-0.0032415390014648,1.394709825515747,-0.1701737642288208,-0.3719439208507538,0.0046091815456748,0.0584445670247077,0.0,0.0,-0.3760899099748016,-0.6231411018472719
-0.0049994466826319,1.3857898712158203,-0.1795810163021087,-0.3964561820030212,0.0083550764247775,0.0749249458312988,0.0,0.0,-0.5112359012659591,-0.6531821746128175
-0.0068672178313136,1.3763210773468018,-0.1919735372066497,-0.420870691537857,0.0135042397305369,0.1029926314949989,0.0,0.0,-0.0125978249999116,0.8227187376946064
-0.008705330081284,1.366310715675354,-0.1868596524000167,-0.4449416995048523,0.0165250618010759,0.0604218244552612,0.0,0.0,0.2356499665605826,-0.6527604638205955
-0.010536384768784,1.3563640117645264,-0.1875116974115371,-0.4421274960041046,0.0208765491843223,0.0870376452803611,0.0,0.0,-0.1587181776953552,0.7201359590993504
-0.0123628620058298,1.3458731174468994,-0.1854851692914962,-0.4663110077381134,0.0236874371767044,0.0562228560447692,0.0,0.0,0.3262293365298803,-0.9476247360491884
-0.0141880037263035,1.3356199264526367,-0.1871879547834396,-0.4557763636112213,0.0283092893660068,0.0924453660845756,0.0,0.0,0.2610315566491166,0.6832640881843735
-0.0160385128110647,1.3257875442504885,-0.1881501376628875,-0.4370538890361786,0.0313788279891014,0.0613962821662426,0.0,0.0,-0.2012325343989418,-0.6707219949210945
-0.0179927833378314,1.315410852432251,-0.1996846944093704,-0.461284726858139,0.0355945155024528,0.0843215808272361,0.0,0.0,-0.587958437780636,-0.6945641631801897
-0.0200448986142873,1.3044861555099487,-0.2104789316654205,-0.4856722950935364,0.0407985225319862,0.1040896400809288,0.0,0.0,-0.1552069408983314,-0.6865298505774642
-0.0221960060298442,1.2930114269256592,-0.2213849276304245,-0.5101722478866577,0.0470084324479103,0.1242095455527305,0.0,0.0,0.1078956472129994,-0.7203388132772968
-0.0243777278810739,1.281700611114502,-0.2257947474718094,-0.5029621720314026,0.0545501895248889,0.1508491039276123,0.0,0.0,-0.0583926634546871,-0.9602919204424104
-0.026677418500185,1.2698297500610352,-0.2390892803668975,-0.5279474854469299,0.0635759010910987,0.1805310547351837,0.0,0.0,-0.1351160697620392,0.8578686952865707
-0.0289456360042095,1.2574303150177002,-0.2335903942584991,-0.5513860583305359,0.0702885761857032,0.1342654377222061,0.0,0.0,0.5742951194926897,0.9612957920133736
-0.0310905463993549,1.2449181079864502,-0.2192752063274383,-0.5563327074050903,0.0750278457999229,0.094793863594532,0.0,0.0,-0.8569738785995076,0.9782986405189305
-0.0331923477351665,1.2318814992904663,-0.2123260200023651,-0.5795097947120667,0.0771605148911476,0.0426574237644672,0.0,0.0,-0.2896677966898737,0.9405763915329572
-0.0352524742484092,1.2183014154434204,-0.2056246548891067,-0.6035440564155579,0.0767669007182121,-0.0078725470229983,0.0,0.0,0.2371913744085305,0.6818519331973042
-0.0372742637991905,1.205095887184143,-0.2003122270107269,-0.5868173241615295,0.0749181732535362,-0.0369780249893665,0.0,0.0,-0.2869982408161444,-0.78489280375881
-0.0394156463444232,1.1913355588912964,-0.2138337790966034,-0.611553430557251,0.0746171846985817,-0.0060202372260391,0.0,0.0,0.4696663550950875,0.8855398082836297
-0.0414585098624229,1.1780582666397097,-0.202135756611824,-0.5900027751922607,0.0724835321307182,-0.0426765903830528,0.0,0.0,0.7343731554817343,0.7255848105976355
-0.0435126312077045,1.1649328470230105,-0.2016038000583648,-0.5831685662269592,0.0687105879187583,-0.0754658803343772,0.0,0.0,-0.4405793063061727,0.7513450475876722
-0.0455422401428222,1.1512680053710938,-0.1970983445644378,-0.6070737242698669,0.0628924593329429,-0.1163729429244995,0.0,0.0,0.5174107168060584,-0.912690067045244
-0.0476361289620399,1.1374762058258057,-0.2052004635334015,-0.6127974390983582,0.0587502084672451,-0.0828524678945541,0.0,0.0,0.6786590785014013,0.9158038079513092
-0.049903392791748,1.1241123676300049,-0.2202216684818267,-0.5937067270278931,0.0523119941353797,-0.128775954246521,0.0,0.0,-0.0894699367971367,0.7504217504656945
-0.0521702766418457,1.1101890802383425,-0.2187954932451248,-0.6185623407363892,0.044507723301649,-0.1560851633548736,0.0,0.0,0.1851570004196041,0.7008405800489674
-0.0544463172554969,1.0965096950531006,-0.2180621922016143,-0.6077206134796143,0.0350752547383308,-0.1886491477489471,0.0,0.0,-0.9910598900019878,-0.7440176067989783
-0.0568375587463378,1.0822889804840088,-0.2311500757932663,-0.6318652033805847,0.0272040180861949,-0.1574247479438781,0.0,0.0,-0.9361017273306376,-0.915798345955232
-0.0593591704964637,1.0675265789031982,-0.246190458536148,-0.6560052037239075,0.0213072411715984,-0.1179354563355445,0.0,0.0,0.6009867742073445,0.6058931113967244
-0.0619056709110736,1.0529258251190186,-0.2471675425767898,-0.648833155632019,0.0139106446877121,-0.1479318886995315,0.0,0.0,-0.962662754947653,-0.700432577488449
-0.0645456314086914,1.0377864837646484,-0.2576182782649994,-0.6728197336196899,0.0076185027137398,-0.1258426904678344,0.0,0.0,-0.232110703738452,0.6027239741266588
-0.0671820640563964,1.022098422050476,-0.2559664249420166,-0.697223424911499,3.613132503232919e-05,-0.1516474187374115,0.0,0.0,0.8234934620636527,-0.6079256348320194
-0.0700010284781456,1.0071978569030762,-0.2749250531196594,-0.6622612476348877,-0.0068416940048336,-0.1375565081834793,0.0,0.0,-0.1946780208933436,-0.6567798478560504
-0.0729124993085861,0.991746425628662,-0.285385251045227,-0.6867685914039612,-0.0125256674364209,-0.1136797219514846,0.0,0.0,0.2002220037156898,0.8879755117793577
-0.0757674202322959,0.9764332175254822,-0.2777048945426941,-0.680670440196991,-0.02022067271173,-0.153900146484375,0.0,0.0,-0.3418754955555938,0.6540147317329633
-0.0786005035042762,0.960578441619873,-0.2739031314849853,-0.7048190236091614,-0.0295092798769474,-0.1857722103595733,0.0,0.0,0.8285946749287552,0.6436721490810641
-0.0814287215471267,0.9449302554130554,-0.2717819511890411,-0.6957289576530457,-0.0404128953814506,-0.2180724143981933,0.0,0.0,-0.7202998786783343,0.8559642038392128
-0.0842123031616211,0.9287402629852296,-0.2652397453784942,-0.7199613451957703,-0.0533837303519248,-0.2594165503978729,0.0,0.0,-0.303538330435587,-0.62266823191338
-0.0870736092329025,0.912017583847046,-0.2740896344184875,-0.7437061667442322,-0.0652926266193389,-0.2381777018308639,0.0,0.0,0.2111787638070661,-0.7557308714561909
-0.0899653434753418,0.8954222202301025,-0.2784221768379211,-0.7380772829055786,-0.0759329870343208,-0.2128074467182159,0.0,0.0,-0.4017824700807031,-0.7328828158005851
-0.0929459556937217,0.8782961368560791,-0.2887868881225586,-0.7616521716117859,-0.0851166695356369,-0.1836734116077423,0.0,0.0,-0.8011060953140259,0.7721868753433228
-0.0958721190690994,0.8606147170066833,-0.2812080085277557,-0.7865329384803772,-0.0964199304580688,-0.2260654270648956,0.0,0.0,-0.6613662838935852,0.8663012981414795
-0.0987359061837196,0.8423685431480408,-0.2726987898349762,-0.811881422996521,-0.1099992096424102,-0.2715857625007629,0.0,0.0,0.5022408962249756,-0.6534296274185181
-0.1015140563249588,0.8242863416671753,-0.2653857767581939,-0.8046121001243591,-0.1223419159650802,-0.2468543797731399,0.0,0.0,0.7413918972015381,-0.5416707992553711
-0.1043538078665733,0.806132435798645,-0.2722620069980621,-0.8078437447547913,-0.1340023726224899,-0.2332091629505157,0.0,0.0,0.8203041553497314,0.4264606237411499
-0.1071027740836143,0.7879717946052551,-0.2631536722183227,-0.808234453201294,-0.1457017809152603,-0.2339886128902435,0.0,0.0,0.7104659080505371,-0.010012149810791
-0.1097277626395225,0.7699403166770935,-0.2507961094379425,-0.8025850653648376,-0.1573841869831085,-0.2336482554674148,0.0,0.0,0.8081169128417969,-0.4802867174148559
-0.112334057688713,0.7527458667755127,-0.2481050938367843,-0.7655647993087769,-0.1699127703905105,-0.2505716681480407,0.0,0.0,0.7645549774169922,-0.9684073328971864
-0.1150286644697189,0.7363206148147583,-0.2583974003791809,-0.7313225865364075,-0.1810031831264495,-0.2218083143234253,0.0,0.0,-0.6977711319923401,-0.3636770248413086
-0.1177203208208084,0.7193512916564941,-0.2578478455543518,-0.7556077837944031,-0.1923748254776001,-0.2274329215288162,0.0,0.0,0.9360008239746094,-0.8093152046203613
-0.1201609596610069,0.7027891278266907,-0.2344893664121627,-0.7373771667480469,-0.2020145654678344,-0.1927946060895919,0.0,0.0,0.3928529024124145,-0.6255887746810913
-0.1225682273507118,0.6866301894187927,-0.2320164740085601,-0.719386100769043,-0.2107838094234466,-0.175384908914566,0.0,0.0,0.3422842025756836,-0.7774590849876404
-0.1248507499694824,0.6704402565956116,-0.2209553718566894,-0.7206093668937683,-0.2181527912616729,-0.1473802328109741,0.0,0.0,-0.3524739742279053,-0.8895759582519531
-0.1271851509809494,0.6537362933158875,-0.2276405096054077,-0.7432655096054077,-0.2240236103534698,-0.1174164563417434,0.0,0.0,0.6376591920852661,-0.1921583414077758
-0.1292500495910644,0.6371452212333679,-0.2010836601257324,-0.7382150292396545,-0.229502648115158,-0.1095806583762168,0.0,0.0,0.9822654724121094,-0.8161190748214722
-0.1313499510288238,0.62089604139328,-0.2056532651185989,-0.7228679060935974,-0.2339021861553192,-0.087990678846836,0.0,0.0,0.8507490158081055,-0.6240426301956177
-0.1331556290388107,0.6053880453109741,-0.1774658858776092,-0.689741849899292,-0.2370431870222091,-0.0628200620412826,0.0,0.0,0.3516552448272705,-0.8243977427482605
-0.1347425431013107,0.5901205539703369,-0.1570853739976883,-0.6788148283958435,-0.2386743724346161,-0.0326239131391048,0.0,0.0,0.8711721897125244,-0.5429401397705078
-0.1360316276550293,0.5756556987762451,-0.1283411085605621,-0.6429736018180847,-0.239248976111412,-0.0114919701591134,0.0,0.0,0.6725924015045166,-0.7565165758132935
-0.1372374594211578,0.5618627071380615,-0.1210711374878883,-0.6129432916641235,-0.2387559562921524,0.0098604951053857,0.0,0.0,0.7811625003814697,-0.835821270942688
-0.1383182555437088,0.5481012463569641,-0.1100235357880592,-0.6113050580024719,-0.2367731779813766,0.0396554097533226,0.0,0.0,0.6274261474609375,-0.712378203868866
-0.1393560469150543,0.5348635911941528,-0.1066354513168335,-0.5878821611404419,-0.2338722944259643,0.0580172650516033,0.0,0.0,0.6317119598388672,-0.4899337291717529
-0.1401137411594391,0.5217838883399963,-0.0788839757442474,-0.5808311700820923,-0.2307133823633194,0.0631781741976738,0.0,0.0,0.6731867790222168,-0.5690625905990601
-0.1407021582126617,0.5090729594230652,-0.0628439337015152,-0.564303994178772,-0.2266488820314407,0.0812898427248001,0.0,0.0,0.4575885534286499,-0.8493823409080505
-0.1412207633256912,0.4963480830192566,-0.0572645291686058,-0.5647318959236145,-0.2211774885654449,0.1094278544187545,0.0,0.0,0.9287195205688475,0.1681358814239502
-0.1416770964860916,0.4841355979442596,-0.0500779338181018,-0.5421194434165955,-0.2166854590177536,0.0898402109742164,0.0,0.0,0.3884401321411133,0.4076764583587646
-0.1419065445661544,0.4724258482456207,-0.0271636042743921,-0.5198181867599487,-0.2124221920967102,0.0852652713656425,0.0,0.0,-0.5583902597427368,0.5374031066894531
-0.1420324295759201,0.4601495563983917,-0.0152783840894699,-0.5452274680137634,-0.2097057402133941,0.0543291494250297,0.0,0.0,0.1607811450958252,-0.8401697874069214
-0.1420152634382248,0.4482315480709076,-0.0023670475929975,-0.5291169285774231,-0.2055949568748474,0.0822159796953201,0.0,0.0,-0.4432872533798218,-0.2956580519676208
-0.1419356316328048,0.4357684850692749,0.0042070788331329,-0.5533944964408875,-0.2017997801303863,0.0759036093950271,0.0,0.0,0.7984961271286011,-0.604534387588501
-0.1417944878339767,0.4238927364349365,0.0097293816506862,-0.5272212624549866,-0.1973816156387329,0.0883632153272628,0.0,0.0,0.2027864456176757,-0.3021414875984192
-0.1414748132228851,0.4121317267417907,0.0277785956859588,-0.5221590399742126,-0.1931771785020828,0.084088809788227,0.0,0.0,0.1772857904434204,-0.403965950012207
-0.1410598754882812,0.400738000869751,0.0380512401461601,-0.5059431791305542,-0.1897152513265609,0.0692381411790847,0.0,0.0,-0.3337411284446716,-0.2403372526168823
-0.1405727416276931,0.3887990713119507,0.0455812998116016,-0.530220091342926,-0.1865717470645904,0.062870442867279,0.0,0.0,0.6343806982040405,-0.7601694464683533
-0.1400354355573654,0.3769064545631408,0.0494748838245868,-0.5280322432518005,-0.1822943687438964,0.085547499358654,0.0,0.0,0.6990272998809814,-0.670068085193634
-0.1393393576145172,0.3649486601352691,0.064155176281929,-0.5307947397232056,-0.1768247038125991,0.109393373131752,0.0,0.0,0.4280186891555786,-0.4476702213287353
-0.1385400742292404,0.3528863787651062,0.0749071165919303,-0.5355135798454285,-0.1718001961708068,0.1004901975393295,0.0,0.0,0.5359231233596802,-0.516633927822113
-0.137582391500473,0.3413861393928528,0.0900555923581123,-0.5104731321334839,-0.1660777628421783,0.114448681473732,0.0,0.0,-0.0004703402519226,-0.6200615763664246
-0.1365837156772613,0.3293575346469879,0.093381181359291,-0.5338912606239319,-0.1595930159091949,0.129695177078247,0.0,0.0,0.6612331867218018,-0.2145054936408996
-0.1354820281267166,0.3180280327796936,0.1045216470956802,-0.502937912940979,-0.1539476960897445,0.1129064336419105,0.0,0.0,0.2789865732192993,-0.7246648669242859
-0.1344241201877594,0.3065653443336487,0.0991643518209457,-0.508782148361206,-0.1473249047994613,0.1324555724859237,0.0,0.0,0.156254768371582,-0.3118908405303955
-0.1331699341535568,0.2953723073005676,0.11896363645792,-0.4968413114547729,-0.140887051820755,0.1287568062543869,0.0,0.0,-0.1167918443679809,-0.4429185390472412
-0.1318271607160568,0.2836343944072723,0.1281253099441528,-0.5211193561553955,-0.1347633004188537,0.1224748641252517,0.0,0.0,0.6112868785858154,-0.7781046032905579
-0.1304249763488769,0.2723616063594818,0.1329357326030731,-0.500370442867279,-0.1275015771389007,0.1452343761920929,0.0,0.0,0.576308012008667,-0.081823706626892
-0.1288578063249588,0.2615387737751007,0.1497747153043747,-0.4804396629333496,-0.1206031590700149,0.1379684656858444,0.0,0.0,-0.3057813644409179,-0.2034723758697509
-0.1271982192993164,0.2501709461212158,0.1593309938907623,-0.5047175884246826,-0.1140129044651985,0.1318051069974899,0.0,0.0,0.6834957599639893,0.1357381343841552
-0.1253812760114669,0.238773688673973,0.1752606928348541,-0.5060672163963318,-0.107616476714611,0.1279285848140716,0.0,0.0,0.7827222347259521,-0.6424452662467957
-0.1233663558959961,0.22746542096138,0.1937986314296722,-0.5020519495010376,-0.0999773815274238,0.1527813971042633,0.0,0.0,0.6844620704650879,-0.4064955115318298
-0.1210480704903602,0.2164589315652847,0.2237245291471481,-0.4886607825756073,-0.0919436514377594,0.1606744229793548,0.0,0.0,0.6207594871520996,-0.8559021353721619
-0.1185133904218673,0.2054672986268997,0.2436972558498382,-0.4879435896873474,-0.0822640657424926,0.1935919225215912,0.0,0.0,0.6770967245101929,-0.9321023225784302
-0.1158977523446083,0.1950880140066146,0.2502197921276092,-0.4607129096984863,-0.0710261017084121,0.2247591316699981,0.0,0.0,0.3541646003723144,-0.8974509835243225
-0.1131805405020713,0.185106411576271,0.2588043510913849,-0.4430637061595917,-0.0582606419920921,0.2553092837333679,0.0,0.0,0.0033559799194335,-0.9653947949409484
-0.1103250533342361,0.1751903146505355,0.2710234522819519,-0.4402115941047668,-0.0439021326601505,0.2871705889701843,0.0,0.0,0.5918588638305664,-0.9463102221488952
-0.1073207855224609,0.1651905328035354,0.2841268479824066,-0.4440366625785827,-0.0278042815625667,0.3219569325447082,0.0,0.0,0.8341176509857178,-0.6398146152496338
-0.1043130904436111,0.1554988920688629,0.2836167216300964,-0.430506020784378,-0.0108628096058964,0.3388295769691467,0.0,0.0,0.8320598602294922,-0.6105560660362244
-0.1011406928300857,0.1467068344354629,0.2988467812538147,-0.3907247185707092,0.0072932741604745,0.3631217181682586,0.0,0.0,0.7203996181488037,-0.7731025815010071
-0.097957894206047,0.1382610946893692,0.2986366748809814,-0.3755760788917541,0.0266778543591499,0.3876915574073791,0.0,0.0,0.7730119228363037,-0.672488808631897
-0.0948926955461502,0.1305527091026306,0.2861370146274566,-0.3430807888507843,0.0468097403645515,0.4026378989219665,0.0,0.0,0.7316832542419434,-0.3840733766555786
-0.0916670784354209,0.1234058737754821,0.3020191192626953,-0.3184034526348114,0.0671238079667091,0.4062811732292175,0.0,0.0,0.4074958562850952,-0.1888311505317688
-0.0884257331490516,0.1166700944304466,0.3040612339973449,-0.3003861308097839,0.0869961529970169,0.3974469602108001,0.0,0.0,0.4769116640090942,-0.5415632724761963
-0.0852604880928993,0.1103815659880638,0.2958183288574219,-0.2808223068714142,0.1075314804911613,0.4107066094875335,0.0,0.0,0.3259955644607544,0.3632441759109497
-0.0820530876517295,0.1041448935866355,0.3003882765769958,-0.2787716686725616,0.1277637481689453,0.4046452939510345,0.0,0.0,0.1593624353408813,-0.2070873975753784
-0.0788751617074012,0.0979793891310691,0.2980600297451019,-0.2758314907550812,0.1474175304174423,0.393075942993164,0.0,0.0,0.2530097961425781,-0.105345606803894
-0.0757626518607139,0.0918364822864532,0.2922877669334411,-0.2750028371810913,0.166355162858963,0.3787528872489929,0.0,0.0,0.3530313968658447,-0.2751132249832153
-0.0725559219717979,0.0860440582036972,0.3015497624874115,-0.2596951425075531,0.1855177581310272,0.383252203464508,0.0,0.0,0.1735843420028686,0.0202596187591552
-0.0692481994628906,0.0801083669066429,0.3116771876811981,-0.2663094401359558,0.2047180980443954,0.3840074837207794,0.0,0.0,0.1656327247619629,-0.4111865758895874
-0.0658429116010665,0.0744528397917747,0.3211907744407654,-0.2541508078575134,0.2242409139871597,0.3904567658901214,0.0,0.0,0.1022785902023315,-0.3336996436119079
-0.0624607093632221,0.0690078139305114,0.3191867768764496,-0.2450132220983505,0.2435555756092071,0.3862930834293365,0.0,0.0,0.0038559436798095,0.0376129150390625
-0.0590121261775493,0.0638083294034004,0.3256320655345917,-0.2343910187482834,0.2631472647190094,0.3918336033821106,0.0,0.0,0.0772897005081176,-0.1257704496383667
-0.0555062294006347,0.0586341731250286,0.3313422799110412,-0.233539417386055,0.2828589081764221,0.3942336440086365,0.0,0.0,0.2187155485153198,-0.0138145089149475
-0.0520659461617469,0.0537838079035282,0.325023353099823,-0.2193768471479416,0.3024499714374542,0.3918213546276092,0.0,0.0,0.0635433197021484,-0.0477241277694702
-0.0486312881112098,0.0491352900862693,0.3244641125202179,-0.2106718719005584,0.3221397995948791,0.3937971293926239,0.0,0.0,-0.1822834014892578,0.2272987365722656
-0.0450886711478233,0.0439453236758708,0.3354603052139282,-0.2349718511104583,0.3417620658874511,0.3924450576305389,0.0,0.0,-0.0227722525596618,0.1266229152679443
-0.0414378158748149,0.0382137633860111,0.3464629650115967,-0.2592717409133911,0.361330896615982,0.3913768529891968,0.0,0.0,0.4340541362762451,0.2286480665206909
-0.0379090309143066,0.0337075106799602,0.351193368434906,-0.2006796300411224,0.363237202167511,0.0382912196218967,0.0,1.0,0.9939181804656982,0.973085641860962
-0.0347630493342876,0.0303617566823959,0.3327080607414245,-0.144203320145607,0.3442412912845611,-0.3798083364963531,0.0,1.0,0.7499717473983765,-0.8316273093223572
-0.0320703499019146,0.0278042182326316,0.3029913604259491,-0.1060167253017425,0.3090575039386749,-0.7037090063095093,0.0,1.0,0.749875545501709,-0.9792300462722778
-0.0295544620603323,0.025618253275752,0.2939744293689728,-0.0887555107474327,0.2653484046459198,-0.8742515444755554,0.0,1.0,0.785102128982544,-0.986193597316742
-0.0272142402827739,0.0240353196859359,0.2759732604026794,-0.0633409097790718,0.2225952744483947,-0.8551333546638489,0.0,1.0,0.4956156015396118,-0.9838634133338928
-0.0250617023557424,0.0229600053280591,0.2542375922203064,-0.0423924922943115,0.1832663416862487,-0.7866119146347046,0.0,1.0,0.598426103591919,-0.9890760183334352
