x_pos,y_pos,x_vel,y_vel,angle,ang_vel,leg_1,leg_2,main_booster,lat_booster
-0.001592731452547,1.4029561281204224,-0.1613228619098663,-0.3539558351039886,0.0018300153315067,0.0361042097210884,0.0,0.0,0.2402724027633667,0.8019994497299194
-0.0031491280533373,1.3948626518249512,-0.1558927595615387,-0.3597061932086944,0.0020849951542913,0.0051004029810428,0.0,0.0,-0.2848622798919678,0.3990813493728637
-0.0047760964371263,1.3861004114151,-0.1629648208618164,-0.3894388079643249,0.0023395882453769,0.005092236213386,0.0,0.0,0.5668965578079224,0.9591329097747804
-0.0065279961563646,1.377377152442932,-0.1733497232198715,-0.3876985609531402,0.0005232844850979,-0.0363294966518878,0.0,0.0,0.5821090936660767,0.747305154800415
-0.0081568714231252,1.368924617767334,-0.1598254144191742,-0.375667005777359,-0.0025051422417163,-0.0605741664767265,0.0,0.0,0.3604625463485718,0.4445523023605346
-0.0097434995695948,1.3604742288589478,-0.1561292707920074,-0.3755807280540466,-0.005007941275835,-0.0500603020191192,0.0,0.0,0.1586834192276001,0.4133758544921875
-0.0114161493256688,1.3519630432128906,-0.1646288931369781,-0.3782830834388733,-0.0076053063385188,-0.0519524402916431,0.0,0.0,0.340097427368164,0.7437338829040527
-0.0129627231508493,1.3435708284378052,-0.1507357209920883,-0.3730156719684601,-0.0114839393645524,-0.0775799006223678,0.0,0.0,-0.3949061036109924,0.3187856674194336
-0.0145815853029489,1.334510326385498,-0.1579457223415374,-0.4027257263660431,-0.0153869865462183,-0.0780680850148201,0.0,0.0,-0.3040076494216919,0.8461513519287109
-0.0162062644958496,1.3247854709625244,-0.1567976921796798,-0.4322800040245056,-0.0209914669394493,-0.1120994314551353,0.0,0.0,0.3796186447143554,0.8988001346588135
-0.0177397727966308,1.3151333332061768,-0.1459396779537201,-0.4291106760501861,-0.0283188018947839,-0.146560251712799,0.0,0.0,0.0734715461730957,0.7530312538146973
-0.0192233081907033,1.3053216934204102,-0.1394471824169159,-0.4362617433071136,-0.0371270962059497,-0.1761822700500488,0.0,0.0,0.2888261079788208,0.0972071886062622
-0.0206565856933593,1.2956551313400269,-0.1348818242549896,-0.4298613965511322,-0.0454866364598274,-0.1672059297561645,0.0,0.0,0.0430275201797485,-0.2759367227554321
-0.0221075061708688,1.285653829574585,-0.136813536286354,-0.4447711110115051,-0.0536739453673362,-0.1637613028287887,0.0,0.0,0.0401257276535034,0.0370291471481323
-0.0235126502811908,1.2757552862167358,-0.1326345652341842,-0.4402333498001098,-0.0614762715995311,-0.1560608595609665,0.0,0.0,0.057705283164978,-0.457243800163269
-0.0249063484370708,1.265467643737793,-0.1317928433418274,-0.4575597643852234,-0.0689823627471923,-0.1501353085041046,0.0,0.0,-0.0720738172531127,0.5460458993911743
-0.0263166427612304,1.2545132637023926,-0.1320724189281463,-0.4872931241989136,-0.0778533220291137,-0.1774354428052902,0.0,0.0,-0.7481442093849182,-0.0749590992927551
-0.0277956966310739,1.242891550064087,-0.1389311254024505,-0.5170050263404846,-0.0867561101913452,-0.1780718266963958,0.0,0.0,0.0566098690032959,-0.2784805297851562
-0.0292365066707134,1.2313618659973145,-0.1353615969419479,-0.512963056564331,-0.0953999385237693,-0.172892540693283,0.0,0.0,-0.3107539415359497,-0.106225848197937
-0.0307443626224994,1.2191643714904783,-0.1420458853244781,-0.5426820516586304,-0.1040741801261901,-0.1735004484653473,0.0,0.0,-0.3893646001815796,0.6257851123809814
-0.0322581306099891,1.206295132637024,-0.1411159336566925,-0.572711169719696,-0.1142856106162071,-0.204247236251831,0.0,0.0,0.4114489555358886,-0.6347833275794983
-0.0338328368961811,1.1933250427246094,-0.1484790295362472,-0.5771532654762268,-0.1232365295290947,-0.1790342777967453,0.0,0.0,0.934447169303894,-0.3382599353790283
-0.0352418906986713,1.1806087493896484,-0.1326086670160293,-0.5658803582191467,-0.1315054595470428,-0.1653933972120285,0.0,0.0,0.2322840690612793,-0.8224443197250366
-0.0366888046264648,1.1675626039505005,-0.1380738168954849,-0.5804170370101929,-0.1381066590547561,-0.1320360451936721,0.0,0.0,0.8694188594818115,-0.9470415115356444
-0.0383468642830848,1.1549856662750244,-0.1607708930969238,-0.5594530701637268,-0.1431320011615753,-0.1005155071616172,0.0,0.0,0.722283124923706,0.3557087182998657
-0.0401119217276573,1.1428415775299072,-0.1707514375448227,-0.5403006076812744,-0.1488758325576782,-0.1148764863610267,0.0,0.0,0.0886019468307495,0.6278693675994873
-0.0418113693594932,1.1307320594787598,-0.1629278510808944,-0.5389211773872375,-0.1558827608823776,-0.1401386708021164,0.0,0.0,0.8108046054840088,-0.4209427833557129
-0.0435677543282508,1.1193286180496216,-0.1679471433162689,-0.5076438784599304,-0.1635618209838867,-0.1535814106464386,0.0,0.0,-0.4348222613334656,0.2929033041000366
-0.0453777313232421,1.107257843017578,-0.1733341515064239,-0.5373523831367493,-0.1712466776371002,-0.1536968052387237,0.0,0.0,0.7816550731658936,-0.5941431522369385
-0.047220516949892,1.0953123569488523,-0.177724614739418,-0.5316792726516724,-0.1778073757886886,-0.1312139332294464,0.0,0.0,0.6664377450942993,-0.6939476728439331
-0.0489944443106651,1.0839763879776,-0.1722939610481262,-0.504435658454895,-0.1829252690076828,-0.1023577898740768,0.0,0.0,0.7631199359893799,0.2351002693176269
-0.0508121475577354,1.0726850032806396,-0.1763033270835876,-0.50252366065979,-0.1884201318025589,-0.1098973974585533,0.0,0.0,-0.014327049255371,0.4500638246536255
-0.0526746734976768,1.0607256889343262,-0.180799126625061,-0.532229483127594,-0.1939031183719635,-0.1096596345305442,0.0,0.0,0.6626988649368286,-0.1831938028335571
-0.0545724853873252,1.0486513376235962,-0.1840459257364273,-0.5374047756195068,-0.1996659785509109,-0.1152572184801101,0.0,0.0,0.85685133934021,-0.3941245079040527
-0.0563518516719341,1.0369398593902588,-0.1723296791315078,-0.5212788581848145,-0.2053222209215164,-0.113125205039978,0.0,0.0,0.8563731908798218,-0.6207535266876221
-0.058020494878292,1.0258212089538574,-0.1625811010599136,-0.4947684109210968,-0.2096429020166397,-0.086413636803627,0.0,0.0,-0.7899391055107117,0.3904426097869873
-0.059722900390625,1.0140342712402344,-0.1659861356019973,-0.5244728922843933,-0.2139304727315902,-0.0857518091797828,0.0,0.0,0.5292413234710693,-0.566596508026123
-0.0613120086491107,1.0026181936264038,-0.155935138463974,-0.5078161954879761,-0.2169449776411056,-0.0602901950478553,0.0,0.0,0.5334880352020264,-0.5202689170837402
-0.0628377944231033,0.9917108416557312,-0.1505764573812484,-0.4850624799728393,-0.2189636826515197,-0.0403745360672473,0.0,0.0,-0.9843819737434388,-0.0906766653060913
-0.0643876045942306,0.980135142803192,-0.1530327498912811,-0.5147654414176941,-0.2209316492080688,-0.0393592230975627,0.0,0.0,-0.7743046879768372,0.158618688583374
-0.065958023071289,0.9678909182548524,-0.1551489681005478,-0.5444681644439697,-0.222842663526535,-0.0382203534245491,0.0,0.0,-0.0293617844581604,0.3942052125930786
-0.0675454139709472,0.9549784064292908,-0.1569137424230575,-0.5741708278656006,-0.2246905267238617,-0.0369575545191764,0.0,0.0,0.1269621849060058,-0.8571500778198242
-0.069090649485588,0.9416977167129515,-0.1544915735721588,-0.5902588367462158,-0.2247216403484344,-0.000622211722657,0.0,0.0,-0.5196343064308167,-0.9088276028633118
-0.0707041770219802,0.9277666807174684,-0.1628973633050918,-0.6189218163490295,-0.2231493294239044,0.0314459539949893,0.0,0.0,-0.9640273451805116,-0.6214636564254761
-0.0723753944039344,0.9131773114204408,-0.1700778901576995,-0.6479713916778564,-0.2201642543077469,0.0597012713551521,0.0,0.0,-0.7592225670814514,-0.6647194027900696
-0.0740966796875,0.897928774356842,-0.1763820350170135,-0.6770802736282349,-0.2158593982458114,0.0860975757241249,0.0,0.0,0.1004325151443481,-0.4365115165710449
-0.0757119208574295,0.8824350237846375,-0.166077047586441,-0.6879534125328064,-0.2112714499235153,0.0917591899633407,0.0,0.0,-0.3629277348518371,0.4460345506668091
-0.077320672571659,0.8662728667259216,-0.1655233800411224,-0.7176569104194641,-0.2065819352865219,0.0937909334897995,0.0,0.0,-0.3323837518692016,-0.2692302465438843
-0.0789186507463455,0.8494424223899841,-0.1645548492670059,-0.747360348701477,-0.2017843723297119,0.0959511399269104,0.0,0.0,-0.1157591938972473,0.0510236024856567
-0.0805015563964843,0.831943690776825,-0.1631656289100647,-0.77706378698349,-0.1968724131584167,0.098239004611969,0.0,0.0,0.5954384803771973,0.4041035175323486
-0.0818212479352951,0.8145471215248108,-0.1376145333051681,-0.7724360823631287,-0.1911990195512771,0.1134682744741439,0.0,0.0,0.432376503944397,-0.1752451658248901
-0.083044908940792,0.7974373698234558,-0.12790247797966,-0.7597332000732422,-0.185629516839981,0.1113896742463111,0.0,0.0,0.349165678024292,0.3716251850128174
-0.0840855613350868,0.7801697850227356,-0.1101624518632888,-0.7666971683502197,-0.1795139163732528,0.1223120689392089,0.0,0.0,0.2330509424209594,0.4181112051010132
-0.0849850624799728,0.7631120681762695,-0.0961983576416969,-0.7573772072792053,-0.1732480078935623,0.1253182590007782,0.0,0.0,-0.2207973599433899,0.5277512073516846
-0.0857966393232345,0.7453707456588745,-0.0862387046217918,-0.7879202961921692,-0.1681574583053589,0.1018106564879417,0.0,0.0,0.4886966943740845,0.4010970592498779
-0.086580753326416,0.7276105284690857,-0.0832473263144493,-0.7888020277023315,-0.1633140295743942,0.0968686863780021,0.0,0.0,0.7321779727935791,0.24500572681427
-0.0870859175920486,0.7103947401046753,-0.0559831149876117,-0.7645584344863892,-0.1578577160835266,0.109126329421997,0.0,0.0,0.1043084859848022,0.4459207057952881
-0.0873792618513107,0.6931566596031189,-0.0353797152638435,-0.7655038833618164,-0.1518121212720871,0.1209120005369186,0.0,0.0,-0.1231855750083923,0.7208435535430908
-0.0875541716814041,0.6752431988716125,-0.0220957975834608,-0.7956934571266174,-0.1472154855728149,0.0919326618313789,0.0,0.0,0.1520442962646484,0.48384690284729
-0.0876426696777343,0.6574859619140625,-0.0133914472535252,-0.7887678742408752,-0.1426910758018493,0.0904882997274398,0.0,0.0,0.0398951768875122,-0.0518027544021606
-0.0876035690307617,0.6393995881080627,-0.000952823262196,-0.8033812046051025,-0.1378389298915863,0.0970429331064224,0.0,0.0,0.3346045017242431,0.1107422113418579
-0.0874999985098838,0.6215032935142517,0.0056734574027359,-0.7949613332748413,-0.1331777870655059,0.0932232588529586,0.0,0.0,0.3418748378753662,-0.1455883979797363
-0.0871706008911132,0.6035434007644653,0.0276107992976903,-0.7977555990219116,-0.1278639882802963,0.1062758415937423,0.0,0.0,0.5237852334976196,-0.2054245471954345
-0.0866727828979492,0.5857519507408142,0.0441432483494281,-0.7902548909187317,-0.1222563907504081,0.1121519356966018,0.0,0.0,0.3058501482009887,-0.3134068846702575
-0.086051657795906,0.5677630305290222,0.0562356896698474,-0.7990424633026123,-0.1164224445819854,0.1166792064905166,0.0,0.0,0.638251543045044,-0.410366415977478
-0.0854022949934005,0.5500002503395081,0.0594321675598621,-0.7890350818634033,-0.1109542101621627,0.1093644723296165,0.0,0.0,0.37744140625,-0.1509376764297485
-0.0845704078674316,0.5326300859451294,0.0773923993110656,-0.7715902924537659,-0.105197012424469,0.1151438802480697,0.0,0.0,0.4846192598342895,-0.5942558646202087
-0.0835892707109451,0.5149715542793274,0.0907308086752891,-0.7843212485313416,-0.0978676304221153,0.1465876251459121,0.0,0.0,0.6532807350158691,-0.1801566481590271
-0.0824050903320312,0.4979164898395538,0.1106810569763183,-0.7575166821479797,-0.0901994258165359,0.1533641368150711,0.0,0.0,0.5735423564910889,-0.7164978384971619
-0.0812392234802246,0.4808850288391113,0.1073757857084274,-0.7564212679862976,-0.081078752875328,0.1824136227369308,0.0,0.0,0.2041188478469848,-0.3070801496505737
-0.0800013542175293,0.4639321863651275,0.1146740540862083,-0.7529938220977783,-0.0720472484827041,0.1806295812129974,0.0,0.0,0.2499748468399047,0.3240253925323486
-0.0786045044660568,0.4470138251781463,0.1302286833524704,-0.7515000700950623,-0.0626847818493843,0.1872491985559463,0.0,0.0,0.4270219802856445,0.1835081577301025
-0.0771681815385818,0.4305305480957031,0.1344474554061889,-0.732231855392456,-0.0536109842360019,0.1814759373664856,0.0,0.0,0.5094447135925293,-0.1284536719322204
-0.0755292922258377,0.4141647815704345,0.1541651934385299,-0.7270472645759583,-0.0439981147646904,0.1922571659088134,0.0,0.0,0.6700441837310791,-0.5721441507339478
-0.0738451033830642,0.3977252542972564,0.1574082970619201,-0.7303552031517029,-0.0331108458340168,0.2177453488111496,0.0,0.0,0.9445239305496216,0.6846907138824463
-0.0718956962227821,0.3811781108379364,0.184844896197319,-0.7352327704429626,-0.0231373142451047,0.1994705349206924,0.0,0.0,0.8581485748291016,-0.3462367057800293
-0.0698582679033279,0.3645376861095428,0.1935717016458511,-0.7394484877586365,-0.0130938366055488,0.2008693218231201,0.0,0.0,0.9108567237854004,-0.0600987076759338
-0.0677016228437423,0.3486062884330749,0.2053017169237136,-0.7079970836639404,-0.0028594068717211,0.204688474535942,0.0,0.0,0.9250268936157228,-0.5874199271202087
-0.0653702765703201,0.3334397077560425,0.2210654020309448,-0.6740883588790894,0.0090560503304004,0.2383091896772384,0.0,0.0,0.7569646835327148,-0.0270538330078125
-0.0630452185869216,0.3189088106155395,0.2207592725753784,-0.6459289193153381,0.0206570718437433,0.232020303606987,0.0,0.0,0.7886332273483276,0.54103684425354
-0.0607110969722271,0.3042401075363159,0.2229341715574264,-0.6521168351173401,0.0310038421303033,0.2069352865219116,0.0,0.0,0.8917429447174072,-0.2465952038764953
-0.0582343116402626,0.2902638912200928,0.2367451637983322,-0.6214250922203064,0.04180259257555,0.2159750908613205,0.0,0.0,0.7939252853393555,-0.4188481569290161
-0.0557674393057823,0.2765505611896515,0.2360363751649856,-0.6098078489303589,0.0523305907845497,0.2105598449707031,0.0,0.0,0.8626112937927246,0.1087234020233154
-0.0532744415104389,0.2633104622364044,0.2386929243803024,-0.5888521075248718,0.062810406088829,0.2095965594053268,0.0,0.0,0.8276300430297852,-0.2830952405929565
-0.0507142059504985,0.2505605220794678,0.2452611625194549,-0.5671504735946655,0.0734659358859062,0.2131104916334152,0.0,0.0,0.8579069375991821,0.020160436630249
-0.0479735359549522,0.2381335347890854,0.2625994384288788,-0.5529076457023621,0.0848107784986496,0.2268969118595123,0.0,0.0,0.8333842754364014,-0.0217580795288085
-0.0451072677969932,0.2256114035844802,0.274827092885971,-0.5572491884231567,0.096511535346508,0.2340149581432342,0.0,0.0,0.5705313682556152,-0.0775896906852722
-0.0420571342110633,0.213007390499115,0.2925731837749481,-0.5610276460647583,0.1088524982333183,0.2468195855617523,0.0,0.0,0.808191180229187,0.0730327367782592
-0.0387808792293071,0.2006956934928894,0.3142229616641998,-0.5482150912284851,0.1221683397889137,0.266317069530487,0.0,0.0,0.8319940567016602,-0.4589909315109253
-0.0352695472538471,0.1883979439735412,0.336805135011673,-0.5478007793426514,0.1364265978336334,0.2851651608943939,0.0,0.0,0.9595744609832764,-0.4257868528366089
-0.031750202178955,0.1767577975988388,0.3374403119087219,-0.5187292695045471,0.1508780270814895,0.2890290021896362,0.0,0.0,0.8532485961914062,-0.4230013489723205
-0.0281876567751169,0.1657222658395767,0.3414028286933899,-0.492039680480957,0.1657109409570694,0.2966580986976623,0.0,0.0,0.8393803834915161,0.1280207633972168
-0.0244734771549701,0.1551549285650253,0.3557543158531189,-0.4714776575565338,0.1814022809267044,0.3138269484043121,0.0,0.0,0.8882143497467041,-0.4956493973731994
-0.0205752365291118,0.1445049196481704,0.373476892709732,-0.4754191935062408,0.197839617729187,0.3287465572357178,0.0,0.0,0.9304609298706056,-0.0285485982894897
-0.0167152397334575,0.134047582745552,0.3697668015956878,-0.4670204222202301,0.2142010480165481,0.3272286057472229,0.0,0.0,0.9333642721176147,-0.2444087266921997
-0.0128338811919093,0.1244376301765441,0.3713237345218658,-0.4296396970748901,0.2312236428260803,0.3404517471790313,0.0,0.0,0.9182525873184204,-0.4418368339538574
-0.0089903827756643,0.1151192039251327,0.36752650141716,-0.4168831408023834,0.2483184188604354,0.3418953120708465,0.0,0.0,0.9433103799819946,-0.3990336656570434
-0.0053783417679369,0.1064434349536895,0.3449248671531677,-0.3884326517581939,0.2649275362491607,0.3321826756000519,0.0,0.0,0.7643096446990967,-0.1948490142822265
-0.0017310142284259,0.0982188582420349,0.347935289144516,-0.3686671257019043,0.2821515202522278,0.3444803357124328,0.0,0.0,0.8398594856262207,-0.1484434604644775
0.0017676353454589,0.090509258210659,0.3332395851612091,-0.3459541499614715,0.2992777228355407,0.342523992061615,0.0,0.0,0.936275839805603,-0.3365223407745361
0.0050563812255859,0.083350621163845,0.3126070499420166,-0.3215969502925873,0.3161259293556213,0.3369640707969665,0.0,0.0,0.6038726568222046,-0.5155521631240845
0.0082737924531102,0.0761848986148834,0.3044692575931549,-0.3223509192466736,0.3341216444969177,0.3599143624305725,0.0,0.0,0.6118619441986084,-0.4237540364265442
0.0113333705812692,0.0691309049725532,0.2891331017017364,-0.3175028562545776,0.3517449200153351,0.3524657189846039,0.0,0.0,0.3277554512023926,-0.1794928312301635
0.0142764095216989,0.0619432292878627,0.2779986560344696,-0.3235391974449157,0.3689539432525635,0.344180017709732,0.0,0.0,0.6398018598556519,0.4879840612411499
0.0172027591615915,0.0551464408636093,0.2758435904979706,-0.3065100610256195,0.3867847323417663,0.3566160798072815,0.0,0.0,0.4207981824874878,0.4803330898284912
0.0202006343752145,0.0481566749513149,0.2827809453010559,-0.3153862655162811,0.4049850404262543,0.3640058934688568,0.0,0.0,0.9307916164398192,0.6940171718597412
0.0232064239680767,0.0418773740530014,0.2845067381858825,-0.2837734818458557,0.4222942292690277,0.3461841344833374,0.0,1.0,0.9994058609008788,0.9996938705444336
0.0258587840944528,0.0372016057372093,0.2661679089069366,-0.2079785317182541,0.4197160899639129,-0.0538724847137928,0.0,1.0,0.999798059463501,0.979358434677124
0.0282341949641704,0.0344194732606411,0.2583625912666321,-0.1176576688885688,0.3972241878509521,-0.4499765336513519,0.0,1.0,0.9864903688430786,-0.7249881625175476
0.0301725380122661,0.0325613133609294,0.2296085655689239,-0.0730667039752006,0.3591383993625641,-0.7617954015731812,0.0,1.0,0.9316271543502808,-0.9802226424217224
0.0315975174307823,0.0315710417926311,0.18345907330513,-0.0343899130821228,0.3161650598049164,-0.8595956563949585,0.0,1.0,0.6778757572174072,-0.9510781168937684
0.0327956192195415,0.0310508348047733,0.1578745990991592,-0.0153238764032721,0.2768307030200958,-0.7867286205291748,0.0,1.0,0.5939793586730957,-0.9377903342247008
0.0338866226375103,0.0305186137557029,0.1454848945140838,-0.0172077175229787,0.2396459728479385,-0.7437251806259155,0.0,0.0,-0.99823796749115,-0.8632850050926208
0.0350393280386924,0.0293079707771539,0.1498046815395355,-0.0485679656267166,0.2046569883823394,-0.6998083591461182,0.0,0.0,-0.9932869672775269,-0.9204276204109192
0.0362482070922851,0.02741533331573,0.1533513218164444,-0.0799601525068283,0.1720029413700103,-0.6531070470809937,0.0,0.0,-0.954649806022644,-0.7545614242553711
0.037546444684267,0.0248427018523216,0.1604467183351516,-0.1110827252268791,0.1413913816213607,-0.6122313737869263,0.0,0.0,-0.7176946997642517,-0.7717501521110535
0.0389298424124717,0.0215997323393821,0.1675463616847992,-0.1416163891553878,0.1123159676790237,-0.581508219242096,0.0,0.0,0.8972821235656738,-0.8501221537590027
0.0405072197318077,0.0183231458067893,0.1849638819694519,-0.1438026577234268,0.0853098109364509,-0.5401231050491333,0.0,0.0,0.8970544338226318,-0.8605502843856812
0.0422154441475868,0.0155714126303792,0.1961022317409515,-0.1210460811853408,0.06028588488698,-0.5004786252975464,0.0,0.0,0.5270872116088867,-0.9302284717559814
0.0439743995666503,0.0132800908759236,0.1993004530668258,-0.1010574921965599,0.0371547602117061,-0.462622582912445,0.0,0.0,0.7472507953643799,-0.8749971985816956
0.0458701141178607,0.0108121009543538,0.2111040353775024,-0.109291672706604,0.0158900283277034,-0.4252947866916656,0.0,0.0,0.6705400943756104,-0.8626988530158997
