x_pos,y_pos,x_vel,y_vel,angle,ang_vel,leg_1,leg_2,main_booster,lat_booster
-0.0015068054199218,1.402974247932434,-0.1525125801563263,-0.3531522452831268,0.0016409077215939,0.0323592871427536,0.0,0.0,-0.3296772837638855,0.5858213901519775
-0.0029504776466637,1.3943984508514404,-0.1445984840393066,-0.3811465799808502,0.0018641690257936,0.0044663697481155,0.0,0.0,-0.008954644203186,0.5558699369430542
-0.0043313028290867,1.385167956352234,-0.1368319988250732,-0.4102429747581482,0.0006290862220339,-0.0247037857770919,0.0,0.0,0.1524528264999389,0.2374664545059204
-0.0057896613143384,1.375809907913208,-0.1440623104572296,-0.4159165620803833,-0.0011180518195033,-0.0349461734294891,0.0,0.0,-0.3451069593429565,0.8710005283355713
-0.0071625709533691,1.3658039569854736,-0.1333069503307342,-0.4447098076343536,-0.0050682248547673,-0.0790108740329742,0.0,0.0,0.5869401693344116,0.7198991775512695
-0.0083331111818552,1.3559281826019287,-0.1118174418807029,-0.4389506876468658,-0.0102452524006366,-0.1035501956939697,0.0,0.0,0.3792412281036377,0.0377740859985351
-0.0095227239653468,1.3461257219314575,-0.1135273203253746,-0.4357116520404815,-0.0156192537397146,-0.1074898093938827,0.0,0.0,0.3555017709732055,0.5491267442703247
-0.0105362888425588,1.336466908454895,-0.0950376838445663,-0.429356038570404,-0.021870108321309,-0.1250286698341369,0.0,0.0,-0.6658767461776733,0.1281468868255615
-0.0115622524172067,1.3261584043502808,-0.0961704403162002,-0.4582644402980804,-0.0282229222357273,-0.1270677000284195,0.0,0.0,-0.4247918725013733,0.0333169698715209
-0.0126040456816554,1.3152002096176147,-0.0976548343896865,-0.487167090177536,-0.0346754267811775,-0.1290620565414428,0.0,0.0,-0.1322703957557678,-0.0475648641586303
-0.0136650083586573,1.303592324256897,-0.0994823053479194,-0.5160717964172363,-0.0412251763045787,-0.131006971001625,0.0,0.0,-0.1078479290008544,-0.1242554783821106
-0.0147485733032226,1.2913347482681274,-0.1016433462500572,-0.5449775457382202,-0.0478697083890438,-0.1329028904438018,0.0,0.0,0.6600508689880371,-0.6019356846809387
-0.0157305710017681,1.2794768810272217,-0.0929612219333648,-0.5271938443183899,-0.0530510768294334,-0.1036370173096656,0.0,0.0,0.7017033100128174,-0.7436076402664185
-0.0167030338197946,1.2675082683563232,-0.0935867428779602,-0.5320713520050049,-0.0566824153065681,-0.0726330354809761,0.0,0.0,-0.1077704429626464,-0.7546107172966003
-0.0177528373897075,1.2549012899398804,-0.1023732870817184,-0.5604115724563599,-0.059252742677927,-0.0514109954237937,0.0,0.0,0.1091175079345703,-0.4316498041152954
-0.018752098083496,1.241936445236206,-0.0975876525044441,-0.5763090252876282,-0.0615623481571674,-0.0461965873837471,0.0,0.0,0.2483296394348144,-0.8678324818611145
-0.0196973793208599,1.2292944192886353,-0.0939559191465377,-0.5618922710418701,-0.0621339045464992,-0.0114323552697896,0.0,0.0,-0.7198624610900879,-0.732165515422821
-0.020727252587676,1.215999960899353,-0.1034483313560485,-0.5908481478691101,-0.0616772137582302,0.0091348709538578,0.0,0.0,0.2831920385360718,-0.3344291448593139
-0.0216859821230173,1.20298171043396,-0.0966198593378067,-0.5785558819770813,-0.0609455220401287,0.014635344967246,0.0,0.0,-0.6611731648445129,-0.5902308225631714
-0.0227426532655954,1.1893177032470703,-0.1076705828309059,-0.6072091460227966,-0.0589591413736343,0.0397313721477985,0.0,0.0,0.2507338523864746,0.461688756942749
-0.0237165447324514,1.175847411155701,-0.0997838526964187,-0.5985881686210632,-0.0565955974161624,0.0472751036286354,0.0,0.0,-0.7076515555381775,-0.1504626870155334
-0.0247399322688579,1.161726713180542,-0.1046541184186935,-0.6274977922439575,-0.0543025396764278,0.0458653345704078,0.0,0.0,-0.6732167601585388,-0.211425244808197
-0.0258146282285451,1.146955966949463,-0.1097235232591629,-0.6563988327980042,-0.0520769394934177,0.0445162057876586,0.0,0.0,0.3493201732635498,-0.0565959811210632
-0.0268722530454397,1.131912350654602,-0.1082233935594558,-0.668516993522644,-0.0496513210237026,0.0485170148313045,0.0,0.0,-0.2374458312988281,0.2133420705795288
-0.0279849059879779,1.1162185668945312,-0.1136600151658058,-0.6974228620529175,-0.047287993133068,0.0472705774009227,0.0,0.0,0.7470219135284424,0.4644629955291748
-0.0292736999690532,1.1009796857833862,-0.1304825097322464,-0.6772345304489136,-0.0456965379416942,0.0318293198943138,0.0,0.0,-0.3320490717887878,-0.4801047444343567
-0.0306204799562692,1.0850906372070312,-0.1362347304821014,-0.7061351537704468,-0.0441614687442779,0.0307014137506485,0.0,0.0,0.326213002204895,-0.6593614816665649
-0.03216552734375,1.0695620775222778,-0.1571352481842041,-0.6900807023048401,-0.0415680147707462,0.0518691428005695,0.0,0.0,0.3205841779708862,0.6164705753326416
-0.0338116660714149,1.0543206930160522,-0.1657243520021438,-0.6773720383644104,-0.0404683239758014,0.021993750706315,0.0,0.0,-0.7075129747390747,0.6931052207946777
-0.0354670509696006,1.0384231805801392,-0.1652575880289077,-0.7065675854682922,-0.0407484397292137,-0.0056024184450507,0.0,0.0,-0.4042897820472717,0.5052937269210815
-0.0371444709599018,1.0218786001205444,-0.1663554459810257,-0.7353553175926208,-0.0421101078391075,-0.0272334106266498,0.0,0.0,0.6462234258651733,-0.8933864235877991
-0.0390251167118549,1.0053428411483765,-0.1883136481046676,-0.7349135279655457,-0.0418672859668731,0.0048564570024609,0.0,0.0,0.0427757501602172,-0.5642881989479065
-0.0410526283085346,0.988926887512207,-0.2040048092603683,-0.7295611500740051,-0.0406283624470233,0.0247786678373813,0.0,0.0,-0.7385995984077454,0.1979837417602539
-0.0431464202702045,0.9718607664108276,-0.2105974406003952,-0.758461594581604,-0.0394264385104179,0.0240385737270116,0.0,0.0,0.073607325553894,-0.1949300169944763
-0.0452807433903217,0.9547547101974488,-0.2146645039319992,-0.7602369785308838,-0.0382094122469425,0.0243404395878314,0.0,0.0,-0.3715546131134033,-0.0381442308425903
-0.0474829673767089,0.93699848651886,-0.2214285880327224,-0.7891374230384827,-0.0370228327810764,0.0237319134175777,0.0,0.0,-0.1140803098678588,-0.0059612393379211
-0.0497539527714252,0.9185919165611268,-0.2282688915729522,-0.818037748336792,-0.0358631238341331,0.023193959146738,0.0,0.0,0.0515950918197631,0.4748983383178711
-0.0520525947213172,0.9002602100372314,-0.2311328649520874,-0.8147134184837341,-0.0346145592629909,0.024971380829811,0.0,0.0,0.7709610462188721,0.5720067024230957
-0.0543896667659282,0.8826386332511902,-0.233677476644516,-0.7831838726997375,-0.0346431583166122,-0.0005722801433876,0.0,0.0,-0.1265450119972229,-0.0406438112258911
-0.0567973144352436,0.8643668293952942,-0.2407124787569046,-0.8120841979980469,-0.034687053412199,-0.0008778817136771,0.0,0.0,0.3232729434967041,0.7192445993423462
-0.0592927932739257,0.8463877439498901,-0.2478975802659988,-0.7991117238998413,-0.0363139174878597,-0.0325374528765678,0.0,0.0,0.4088153839111328,0.8075233697891235
-0.0616613402962684,0.8284158110618591,-0.2337389439344406,-0.7988294959068298,-0.0393964275717735,-0.0616500675678253,0.0,0.0,-0.1315246224403381,0.0909615755081176
-0.064101792871952,0.8097938299179077,-0.2409237623214721,-0.8277305364608765,-0.0424809157848358,-0.0616897046566009,0.0,0.0,-0.1732881665229797,0.3162167072296142
-0.0666144341230392,0.7905216813087463,-0.2481496334075927,-0.8566314578056335,-0.0455625727772712,-0.0616330131888389,0.0,0.0,0.922351598739624,0.9566875696182252
-0.0691611319780349,0.7711000442504883,-0.2495385706424713,-0.8633478879928589,-0.0506320260465145,-0.1013891473412513,0.0,0.0,0.9167425632476808,0.6252539157867432
-0.0716548934578895,0.7515949010848999,-0.2431453466415405,-0.8671185374259949,-0.0567821934819221,-0.1230035275220871,0.0,0.0,0.9913272857666016,0.9137933254241944
-0.0740382224321365,0.7322287559509277,-0.2304570972919464,-0.8610356450080872,-0.0645778775215148,-0.1559137403964996,0.0,0.0,0.8786981105804443,-0.2786074876785278
-0.0765612572431564,0.7136448621749878,-0.2438435852527618,-0.8263407349586487,-0.0729409828782081,-0.1672621965408325,0.0,0.0,-0.2181745767593383,0.1429581642150879
-0.0791575461626052,0.6944114565849304,-0.2512176036834717,-0.8552466034889221,-0.0812746882438659,-0.1666737049818039,0.0,0.0,0.958065390586853,0.0605870485305786
-0.0818035155534744,0.6754331588745117,-0.2560974061489105,-0.8439676761627197,-0.0896892696619033,-0.1682915687561035,0.0,0.0,0.9940428733825684,0.6391682624816895
-0.0842264145612716,0.65680330991745,-0.2330689430236816,-0.8285720944404602,-0.0988392829895019,-0.1830003708600998,0.0,0.0,0.9700708389282228,-0.7357366681098938
-0.0867678672075271,0.6388598680496216,-0.2462646961212158,-0.7980262637138367,-0.1066514253616333,-0.1562429964542389,0.0,0.0,0.836555004119873,0.657633900642395
-0.0891488045454025,0.6209713220596313,-0.2292698919773101,-0.7957034707069397,-0.1154000759124755,-0.1749729365110397,0.0,0.0,0.9932225942611694,-0.7465511560440063
-0.0915464386343956,0.6038835644721985,-0.2325306832790374,-0.7600361704826355,-0.1225878745317459,-0.1437563002109527,0.0,0.0,0.399577260017395,0.6671710014343262
-0.0937767997384071,0.5867233872413635,-0.2147966921329498,-0.7633764147758484,-0.1307902783155441,-0.1640479862689972,0.0,0.0,0.7106120586395264,-0.6432541608810425
-0.096173956990242,0.5696671605110168,-0.2325867861509323,-0.7586972117424011,-0.1378930360078811,-0.1420552879571914,0.0,0.0,0.7512326240539551,-0.5593745112419128
-0.0984662994742393,0.5532084703445435,-0.2235992848873138,-0.7320302128791809,-0.1435134708881378,-0.1124085336923599,0.0,0.0,0.2705967426300049,-0.137601613998413
-0.1006528884172439,0.5368469953536987,-0.2136016190052032,-0.7276729941368103,-0.1485619395971298,-0.1009694188833236,0.0,0.0,0.8922131061553955,0.1591614484786987
-0.102688692510128,0.5212152600288391,-0.1990006864070892,-0.6952069401741028,-0.1531282067298889,-0.0913252755999565,0.0,0.0,0.3478560447692871,0.6237154006958008
-0.1047181114554405,0.5058935880661011,-0.1970865428447723,-0.6815789937973022,-0.158977523446083,-0.1169863790273666,0.0,0.0,0.308147668838501,-0.0139285326004028
-0.1067339926958084,0.4903464317321777,-0.1960315704345703,-0.6915877461433411,-0.1645428538322448,-0.1113064438104629,0.0,0.0,0.2943043708801269,0.0990571975708007
-0.1088102310895919,0.4749816656112671,-0.2018013000488281,-0.6835326552391052,-0.1703703254461288,-0.116549476981163,0.0,0.0,-0.020652949810028,-0.051772117614746
-0.110958956182003,0.4589669704437256,-0.2091681212186813,-0.7124341726303101,-0.17609204351902,-0.1144343242049217,0.0,0.0,0.1288728713989257,0.0416890382766723
-0.1130907982587814,0.4429163336753845,-0.2076634168624878,-0.714025616645813,-0.1816292554140091,-0.1107442155480384,0.0,0.0,0.521315336227417,0.53961181640625
-0.1151789650321006,0.426742672920227,-0.2023472338914871,-0.7196351289749146,-0.1881180554628372,-0.1297760903835296,0.0,0.0,0.8138643503189087,-0.647315502166748
-0.1174113303422927,0.4109308123588562,-0.2178368270397186,-0.7034444808959961,-0.1935513913631439,-0.1086666211485862,0.0,0.0,0.406577467918396,0.8008449077606201
-0.1194914802908897,0.3955263495445251,-0.2011676132678985,-0.6855509877204895,-0.2004379779100418,-0.1377317756414413,0.0,0.0,-0.1734542250633239,-0.5037290453910828
-0.1216770187020301,0.3794762194156647,-0.2127077281475067,-0.7141416072845459,-0.2063300609588623,-0.1178415790200233,0.0,0.0,0.9586501121520996,-0.2985527515411377
-0.1236944198608398,0.3642519414424896,-0.1961693465709686,-0.6774203777313232,-0.2119463831186294,-0.1123266443610191,0.0,0.0,0.8005436658859253,0.3752562999725342
-0.1257735192775726,0.3491663932800293,-0.2020202428102493,-0.6713278889656067,-0.2179068922996521,-0.1192097887396812,0.0,0.0,0.6839768886566162,0.5569260120391846
-0.1278277337551117,0.33446204662323,-0.1983007937669754,-0.6545944809913635,-0.2251159846782684,-0.144181877374649,0.0,0.0,0.6213629245758057,0.5204944610595703
-0.1297431886196136,0.3199771642684936,-0.1836061626672744,-0.6450011730194092,-0.2331518232822418,-0.1607171446084976,0.0,0.0,0.9044814109802246,-0.6176572442054749
-0.1317029893398285,0.3063418865203857,-0.1890281289815902,-0.607132613658905,-0.2402198761701584,-0.1413612067699432,0.0,0.0,0.8395892381668091,-0.1713542938232422
-0.1334985792636871,0.2929640412330627,-0.1731063425540924,-0.5956357717514038,-0.2467705011367797,-0.1310125142335891,0.0,0.0,0.9522124528884888,-0.4687586426734924
-0.135287195444107,0.279622882604599,-0.1723932176828384,-0.5940434336662292,-0.2533648312091827,-0.1318863332271576,0.0,0.0,0.972702145576477,-0.1289283633232116
-0.1369667947292328,0.266164630651474,-0.162003755569458,-0.5991877913475037,-0.2594414949417114,-0.1215330362319946,0.0,0.0,0.9939987659454346,-0.7891924977302551
-0.1387090682983398,0.2526820600032806,-0.1698828041553497,-0.5999967455863953,-0.2638778686523437,-0.0887279212474823,0.0,0.0,0.9963009357452391,-0.7591691613197327
-0.1403339356184005,0.239971175789833,-0.1597729623317718,-0.5654208064079285,-0.2666522562503814,-0.0554876402020454,0.0,0.0,0.9980101585388184,-0.4931128025054931
-0.1416702270507812,0.2279988676309585,-0.1314988881349563,-0.5324937701225281,-0.2688334584236145,-0.0436249300837516,0.0,0.0,0.9787323474884032,-0.5713575482368469
-0.1429905891418457,0.2168716937303543,-0.1307844668626785,-0.4947685897350311,-0.2701118588447571,-0.025568077340722,0.0,0.0,0.9396476745605468,0.077920913696289
-0.1444168090820312,0.2057167887687683,-0.1408278793096542,-0.4961056709289551,-0.2719459533691406,-0.0366820804774761,0.0,0.0,0.9963752031326294,-0.0204109549522399
-0.145601749420166,0.1952716261148452,-0.1170746535062789,-0.4644952416419983,-0.2734070718288421,-0.0292222257703542,0.0,0.0,0.9786708354949952,-0.8714771866798401
-0.1468563079833984,0.1852527409791946,-0.1256323158740997,-0.4452494978904724,-0.2732180655002594,0.0037799577694386,0.0,0.0,0.9849045276641846,-0.6053663492202759
-0.1480646133422851,0.1758094429969787,-0.1221737712621688,-0.4194526374340057,-0.2718443870544433,0.0274737384170293,0.0,0.0,0.9908547401428224,0.7880582809448242
-0.1490607261657714,0.1669180244207382,-0.0995092466473579,-0.395192950963974,-0.2719503045082092,-0.0021183690987527,0.0,0.0,0.9320720434188844,-0.9512348771095276
-0.1498961448669433,0.1583438217639923,-0.085652083158493,-0.3806843757629394,-0.2697871625423431,0.0432634875178337,0.0,0.0,0.8642702102661133,-0.9195860028266908
-0.150729089975357,0.1496859341859817,-0.0874137356877327,-0.3840450346469879,-0.2655702531337738,0.0843379274010658,0.0,0.0,0.9319822788238524,-0.0864977836608886
-0.1513900756835937,0.1410162597894668,-0.0708641707897186,-0.3844634294509887,-0.2607027888298034,0.0973494872450828,0.0,0.0,0.8469696044921875,-0.1630806922912597
-0.1517829000949859,0.1325578540563583,-0.0449327193200588,-0.3749354183673858,-0.2549257576465606,0.1155404672026634,0.0,0.0,0.9497644901275636,-0.039192795753479
-0.1519530266523361,0.1240625455975532,-0.0235752295702695,-0.3764450252056122,-0.2482391893863678,0.1337313205003738,0.0,0.0,0.6706118583679199,-0.6441584825515747
-0.1520436257123947,0.1160473227500915,-0.0170550160109996,-0.3549046218395233,-0.2401132434606552,0.1625192016363144,0.0,0.0,0.9129767417907716,-0.4825171828269958
-0.1519422531127929,0.1086490750312805,0.0018447823822498,-0.3274747431278229,-0.2316735982894897,0.1687928140163421,0.0,0.0,0.7284538745880127,0.45026695728302
-0.1516037881374359,0.1015751212835311,0.0247809737920761,-0.3129966855049133,-0.2224836498498916,0.1837985813617706,0.0,0.0,0.8703449964523315,-0.387704849243164
-0.1511210501194,0.0943546146154403,0.0385076776146888,-0.319472461938858,-0.2126184403896331,0.1973043084144592,0.0,0.0,0.9499967098236084,-0.8181579113006592
-0.1506884545087814,0.087405689060688,0.0318403914570808,-0.3072378933429718,-0.201105535030365,0.2302583754062652,0.0,0.0,0.9354257583618164,-0.2480864524841308
-0.1500028669834137,0.0812638625502586,0.0565284378826618,-0.2713818252086639,-0.1889879256486892,0.2423521727323532,0.0,0.0,0.851017951965332,-0.493148922920227
-0.1492673903703689,0.0754201486706733,0.0614441148936748,-0.2582272887229919,-0.1768457442522049,0.2428436577320099,0.0,0.0,0.7882900238037109,-0.683112621307373
-0.148619458079338,0.0702582225203514,0.0514999404549598,-0.2278898656368255,-0.1635254919528961,0.266404926776886,0.0,0.0,0.6119234561920166,-0.663295567035675
-0.1478621512651443,0.065449483692646,0.0607279315590858,-0.2121378928422927,-0.1485302746295929,0.2999044954776764,0.0,0.0,0.8443512916564941,-0.4343979358673095
-0.1470799446105957,0.0612489320337772,0.0633236318826675,-0.1852705925703048,-0.1336683183908462,0.2972390651702881,0.0,0.0,0.7146899700164795,0.4504350423812866
-0.146317571401596,0.0575732327997684,0.0615610666573047,-0.1621130555868148,-0.1190611273050308,0.2921435236930847,0.0,0.0,0.7093038558959961,0.349357008934021
-0.1455562561750412,0.0540218465030193,0.0613945424556732,-0.1567316800355911,-0.1044314503669738,0.292593777179718,0.0,0.0,0.639333963394165,0.9730402231216432
-0.1448214501142501,0.0507220141589641,0.060707289725542,-0.1458140313625335,-0.0917608216404914,0.2534126043319702,0.0,0.0,0.5926511287689209,0.9424700736999512
-0.1441629379987716,0.0475379079580307,0.0550167076289653,-0.1408867388963699,-0.0810310989618301,0.2145947962999344,0.0,0.0,0.3115527629852295,0.980720281600952
-0.1433154046535492,0.04454205930233,0.0757055655121803,-0.1326822936534881,-0.0720690712332725,0.1792404651641845,0.0,0.0,0.1987878084182739,0.740746259689331
-0.1423706114292144,0.0412791334092617,0.0867191776633262,-0.1446657925844192,-0.0643902048468589,0.1535773575305938,0.0,0.0,0.4753174781799316,0.8045649528503418
-0.1412025392055511,0.0383723340928554,0.1103105694055557,-0.1289238929748535,-0.0579613074660301,0.1285780519247055,0.0,0.0,0.0260850191116333,0.6347185373306274
-0.1399994790554046,0.0355397090315818,0.1149559170007705,-0.1256976425647735,-0.0526764616370201,0.1056967824697494,0.0,0.0,0.0142560005187988,0.66847825050354
-0.1386414468288421,0.032838474959135,0.1315793991088867,-0.1199126690626144,-0.0484955981373786,0.0836170464754104,0.0,0.0,-0.0611380934715271,-0.1825378537178039
-0.1373073607683181,0.0294871423393487,0.1290394514799118,-0.1488137543201446,-0.0441809445619583,0.0862932652235031,0.0,0.0,0.6374228000640869,0.1116743087768554
-0.1359670609235763,0.0266987904906272,0.1295594424009323,-0.1238007321953773,-0.0397666357457637,0.0882860049605369,0.0,0.0,0.0181391239166259,0.5220807790756226
-0.1345454156398773,0.0239874701946973,0.1385516822338104,-0.1204129233956337,-0.0361903719604015,0.0715251788496971,0.0,0.0,0.1061874628067016,-0.3304862380027771
-0.1330779045820236,0.0210831742733716,0.1427496671676635,-0.1289861351251602,-0.032234001904726,0.079127512872219,0.0,0.0,0.1751432418823242,0.3073952198028564
-0.1317006051540374,0.0181923247873783,0.1339870989322662,-0.1284046918153762,-0.0285505894571542,0.0736683681607246,0.0,0.0,0.5477609634399414,0.5011513233184814
-0.1304147690534591,0.0153769347816705,0.1260833442211151,-0.1250842809677124,-0.0260794758796691,0.0494224056601524,0.0,0.0,0.5078120231628418,0.3931764364242553
-0.1291497200727462,0.0126834968104958,0.1239723339676857,-0.1196651011705398,-0.0235719177871942,0.050150953233242,0.0,0.0,0.5505115985870361,0.760934591293335
-0.1277986466884613,0.0100861163809895,0.1339237838983535,-0.1154218912124633,-0.0224041659384965,0.0233549680560827,0.0,0.0,0.2324402332305908,0.4587368965148926
-0.1263557374477386,0.0072374679148197,0.1425278484821319,-0.1265819668769836,-0.0206605829298496,0.034871906042099,0.0,0.0,0.5431385040283203,-0.038440465927124
-0.1248186081647872,0.0046935533173382,0.1513890326023101,-0.113033190369606,-0.018371719866991,0.0457769632339477,0.0,0.0,-0.0456578731536865,0.0494098663330078
-0.1232902556657791,0.0014994358643889,0.150395005941391,-0.1419336348772049,-0.0159597378224134,0.048239666968584,0.0,0.0,0.8376939296722412,0.4372067451477051
