x_pos,y_pos,x_vel,y_vel,angle,ang_vel,leg_1,leg_2,main_booster,lat_booster
-0.0015245437389239,1.4030649662017822,-0.1544263958930969,-0.3491218686103821,0.0017705669160932,0.0349263660609722,0.0,0.0,-0.28873090792854,0.7993555070935623
-0.0029824257362633,1.394669532775879,-0.1457997560501098,-0.3731285333633423,0.0017780953785404,0.0001513402967248,0.0,0.0,0.4879200026433918,0.5358511813616423
-0.0042714118026196,1.386256456375122,-0.128176674246788,-0.3739188611507416,0.0010680466657504,-0.0142020462080836,0.0,0.0,0.2253122082257985,-0.5641156306315047
-0.005704975221306,1.377837300300598,-0.1435666233301162,-0.3741866946220398,0.0012690949952229,0.0040212273597717,0.0,0.0,0.7747217716279167,0.8196429232580422
-0.0069263456389307,1.3699121475219729,-0.1210142374038696,-0.3522272706031799,0.000164584358572,-0.0220923256129026,0.0,0.0,-0.0828283703361154,-0.8196260229250493
-0.0082017900422215,1.3614261150360107,-0.1277016401290893,-0.377157986164093,0.0003142484056297,0.0029937231447547,0.0,0.0,-0.0784688547474308,-0.6375396145451688
-0.0095345498993992,1.3523805141448977,-0.1347568333148956,-0.4020267724990845,0.0017731166444718,0.02918042242527,0.0,0.0,0.9780131576377464,-0.96254744802939
-0.010753059759736,1.3439403772354126,-0.1256342679262161,-0.3751231729984283,0.0055193221196532,0.0749308168888092,0.0,0.0,0.000717231173654,0.6902564023238336
-0.0119355199858546,1.335708737373352,-0.1206458583474159,-0.3658590316772461,0.0078912647441029,0.0474431179463863,0.0,0.0,-0.9448291667660084,-0.914439559635251
-0.0131981847807765,1.3269224166870115,-0.1305038928985595,-0.3905267119407654,0.0120806628838181,0.0837957188487052,0.0,0.0,-0.2102455456542333,-0.9680261041315184
-0.0145353320986032,1.3175766468048096,-0.1396179497241974,-0.4154319763183594,0.017916016280651,0.1167180389165878,0.0,0.0,0.3557722210840179,0.989117242188134
-0.0157452579587698,1.3083233833312988,-0.1249587535858154,-0.4113054275512695,0.0218389686197042,0.0784662738442421,0.0,0.0,-0.0374973009269063,-0.8903970870393273
-0.0170213691890239,1.298513412475586,-0.1329850256443023,-0.4360818564891815,0.0271513611078262,0.1062575429677963,0.0,0.0,-0.7814403099207006,0.6711163162313846
-0.0182507522404193,1.2881405353546145,-0.126805692911148,-0.4610970318317413,0.0309853162616491,0.0766858011484146,0.0,0.0,-0.2943502296293507,-0.9202283273965224
-0.0195491798222064,1.2772150039672852,-0.135133147239685,-0.485691100358963,0.0362241715192794,0.1047866120934486,0.0,0.0,-0.1315016961417194,-0.7178928454506868
-0.0209080688655376,1.2657195329666138,-0.142376035451889,-0.5110802054405212,0.042636189609766,0.1282520741224289,0.0,0.0,0.8588882436967915,0.7829201723219548
-0.0220931060612201,1.2551312446594238,-0.1237980350852012,-0.4707514345645904,0.0478729382157325,0.1047444939613342,0.0,0.0,-0.6664240665820524,0.9170895599216498
-0.023205280303955,1.243981957435608,-0.1142359599471092,-0.4956249594688415,0.0508689023554325,0.0599246621131897,0.0,0.0,0.968814357705036,0.6439825128125987
-0.0242094043642282,1.2337255477905271,-0.1024982780218124,-0.4559055864810943,0.052931323647499,0.0412522368133068,0.0,0.0,-0.9353112849086392,-0.685970305444916
-0.0252939220517873,1.2229044437408447,-0.1121051535010337,-0.4810758233070373,0.0565511211752891,0.0724025815725326,0.0,0.0,0.8707562372523665,-0.6295916820906837
-0.0263419151306152,1.2128126621246338,-0.1101375073194503,-0.4487380683422088,0.0618425607681274,0.1058382615447044,0.0,0.0,-0.5263390051218535,-0.6707766823466361
-0.0274630542844533,1.202152967453003,-0.1187938302755355,-0.4740598499774933,0.0684559643268585,0.1322798877954483,0.0,0.0,-0.7342140827564365,-0.9084293616012588
-0.0286630634218454,1.190927028656006,-0.1281294226646423,-0.4993097484111786,0.0765022560954094,0.1609405279159546,0.0,0.0,0.5238684941403808,-0.7776010189955098
-0.0298988334834575,1.1795659065246582,-0.133377268910408,-0.5054667592048645,0.0862338617444038,0.1946494281291961,0.0,0.0,-0.3607655550588833,-0.9065020471294908
-0.0312482826411724,1.167637825012207,-0.1470113694667816,-0.5308786630630493,0.0982123687863349,0.239591509103775,0.0,0.0,-0.5571109397815881,-0.811167366199877
-0.0327023491263389,1.155123591423035,-0.1595231741666793,-0.5571756958961487,0.1122161448001861,0.280075341463089,0.0,0.0,-0.1120265481804132,0.7878577970753011
-0.0341221801936626,1.1420674324035645,-0.1544913649559021,-0.5812568068504333,0.1246558874845504,0.2487948685884475,0.0,0.0,-0.2119233657217731,-0.69624224890605
-0.0356378555297851,1.1284488439559937,-0.1657770276069641,-0.6065180897712708,0.1388050019741058,0.2829823493957519,0.0,0.0,-0.2381207915027672,-0.8947809007014246
-0.0372695922851562,1.1142634153366089,-0.1795485168695449,-0.6320765018463135,0.155147910118103,0.3268581628799438,0.0,0.0,0.2223041183900354,0.7251845101478251
-0.0389486327767372,1.1000627279281616,-0.1828039735555648,-0.6327653527259827,0.1700423508882522,0.2978887259960174,0.0,0.0,0.5324815609816855,-0.9200190711679496
-0.0408467277884483,1.0864635705947876,-0.206534743309021,-0.606411337852478,0.1868201941251754,0.3355569243431091,0.0,0.0,-0.8767846822738647,0.9624861478805542
-0.0427125915884971,1.0723211765289309,-0.2016334235668182,-0.6305191516876221,0.2019439935684204,0.3024766147136688,0.0,0.0,-0.8489491939544678,0.9828977584838868
-0.0445490851998329,1.0576510429382324,-0.1969657689332962,-0.6538793444633484,0.2153817862272262,0.2687560617923736,0.0,0.0,-0.819297730922699,0.992504358291626
-0.0463516227900981,1.042437195777893,-0.1918033063411712,-0.6778998970985413,0.2270662784576416,0.2336901426315307,0.0,0.0,-0.7168071866035461,0.9899916648864746
-0.0481131561100482,1.0266945362091064,-0.1856816709041595,-0.7011759877204895,0.2367269545793533,0.193213403224945,0.0,0.0,-0.8786224722862244,0.986919403076172
-0.0498358719050884,1.0104286670684814,-0.1797757297754287,-0.7241548895835876,0.2443578094244003,0.1526172161102295,0.0,0.0,-0.9256308674812316,0.9918358325958252
-0.0515239723026752,0.9936261177062988,-0.1744550168514251,-0.7477290630340576,0.2501057386398315,0.114958643913269,0.0,0.0,-0.5740458965301514,0.9938952922821044
-0.0531724914908409,0.9763028025627136,-0.168417602777481,-0.770540177822113,0.2537406682968139,0.0726984143257141,0.0,0.0,-0.2742795348167419,0.9983856678009032
-0.0547925010323524,0.958458423614502,-0.1637379825115203,-0.7933827042579651,0.2555089890956878,0.035367164760828,0.0,0.0,0.040217638015747,0.9962451457977296
-0.0564544685184955,0.9406492710113524,-0.1659726500511169,-0.7914800643920898,0.2552798986434936,-0.0045816204510629,0.0,0.0,0.7463061809539795,0.987030029296875
-0.0584156028926372,0.9234647154808044,-0.1937970668077469,-0.7633559703826904,0.2529105246067047,-0.047387596219778,0.0,0.0,0.0335594415664672,0.9991663694381714
-0.060335349291563,0.9062589406967164,-0.187642902135849,-0.7639625072479248,0.2484984248876571,-0.0882423669099807,0.0,0.0,0.0907226800918579,0.9993946552276612
-0.0621978752315044,0.8888418674468994,-0.1799362897872924,-0.7730385661125183,0.2420802414417266,-0.1283640563488006,0.0,0.0,-0.3666607141494751,0.9995412826538086
-0.0640161484479904,0.8708972334861755,-0.1732431948184967,-0.7961520552635193,0.2333464473485946,-0.1746754795312881,0.0,0.0,-0.6013437509536743,0.9984850883483888
-0.0658076256513595,0.8524083495140076,-0.1687137931585312,-0.8201149106025696,0.2227785736322403,-0.2113575637340545,0.0,0.0,-0.4003082513809204,0.9950337409973145
-0.0675622969865799,0.8333798050880432,-0.1629195362329483,-0.843867301940918,0.2100961357355117,-0.2536487579345703,0.0,0.0,0.3497297763824463,0.9988632202148438
-0.0693065673112869,0.8143672943115234,-0.1599294394254684,-0.8430042862892151,0.1954708993434906,-0.2925046384334564,0.0,0.0,-0.0192289352416992,0.9880120754241944
-0.071039006114006,0.794827401638031,-0.1571127772331237,-0.8663957118988037,0.1792603433132171,-0.3242108821868896,0.0,0.0,0.6148135662078857,0.998638391494751
-0.0730265602469444,0.7758592367172241,-0.180448442697525,-0.8409185409545898,0.160919651389122,-0.3668137490749359,0.0,0.0,-0.9806511998176576,0.9286940097808838
-0.0749942809343338,0.7563509345054626,-0.1766483187675476,-0.8649833798408508,0.1408239901065826,-0.401913583278656,0.0,0.0,-0.7110851407051086,0.7323616743087769
-0.0769420638680458,0.7363037467002869,-0.1728062033653259,-0.8890528082847595,0.118953913450241,-0.4374014735221863,0.0,0.0,-0.1742046475410461,0.5334813594818115
-0.0789036750793457,0.7157139182090759,-0.1732136309146881,-0.9134263396263124,0.0961581766605377,-0.4559151232242584,0.0,0.0,0.9615730047225952,0.167854905128479
-0.0808389633893966,0.6953782439231873,-0.1711611002683639,-0.9025208950042723,0.0740022584795951,-0.4431183934211731,0.0,0.0,0.9586620330810548,0.0583200454711914
-0.0828927978873252,0.6759046912193298,-0.1830420792102813,-0.8645404577255249,0.051903698593378,-0.4419712424278259,0.0,0.0,-0.2859112024307251,-0.2044738531112671
-0.0849995613098144,0.655877947807312,-0.188347727060318,-0.8894510865211487,0.0298454463481903,-0.4411652982234955,0.0,0.0,0.9557063579559326,-0.7094334363937378
-0.0873541831970214,0.63612300157547,-0.2142945080995559,-0.8777101039886475,0.008939916267991,-0.4181106090545654,0.0,0.0,0.9931492805480956,0.7467235326766968
-0.0895894020795822,0.6172662973403931,-0.201175644993782,-0.8380983471870422,-0.0131171410903334,-0.4411413669586181,0.0,0.0,0.6880631446838379,0.3873462677001953
-0.0917285904288292,0.5988869071006775,-0.1922783255577087,-0.8171895742416382,-0.0344806611537933,-0.4272705018520355,0.0,0.0,-0.6392931342124939,-0.5776453614234924
-0.0939619094133377,0.5799617171287537,-0.2027748078107834,-0.841717541217804,-0.0547954738140106,-0.40629643201828,0.0,0.0,0.8945143222808838,0.0129193067550659
-0.096287727355957,0.5618391633033752,-0.2116762399673462,-0.8063364028930664,-0.0754726380109787,-0.413543164730072,0.0,0.0,0.2391519546508789,-0.3465473651885986
-0.0986091643571853,0.543573796749115,-0.2114952355623245,-0.8129618167877197,-0.0959302932024002,-0.409153401851654,0.0,0.0,0.7868510484695435,0.1589536666870117
-0.101020909845829,0.5259027481079102,-0.2201122492551803,-0.7868637442588806,-0.1168475896120071,-0.4183459877967834,0.0,0.0,0.6717758178710938,0.3006922006607055
-0.1033029556274414,0.5084354877471924,-0.2078054696321487,-0.778045117855072,-0.1371446102857589,-0.4059405326843261,0.0,0.0,0.0896741151809692,-0.759084939956665
-0.1056269630789756,0.4910240769386291,-0.2136288583278656,-0.7756755948066711,-0.1558694243431091,-0.3744961619377136,0.0,0.0,0.47160804271698,-0.9395619034767152
-0.1080175414681434,0.4735948741436004,-0.2222765684127807,-0.776479959487915,-0.1726678609848022,-0.3359687924385071,0.0,0.0,0.9518402814865112,-0.9648382663726808
-0.1105789169669151,0.4567028880119324,-0.241083025932312,-0.7525720000267029,-0.1877692937850952,-0.3020283579826355,0.0,0.0,0.3913611173629761,-0.004479706287384
-0.1130443587899208,0.4403112232685089,-0.2316512167453766,-0.7304707765579224,-0.2027450650930404,-0.2995155453681946,0.0,0.0,-0.08222496509552,0.6805531978607178
-0.1155074089765548,0.423336774110794,-0.2299694716930389,-0.7567431926727295,-0.2192388772964477,-0.329876959323883,0.0,0.0,0.7463691234588623,-0.5372779965400696
-0.1178415268659591,0.4071369469165802,-0.2183171808719635,-0.7223024368286133,-0.2345205694437027,-0.3056336045265198,0.0,0.0,0.8713383674621582,-0.7484930753707886
-0.1202782616019249,0.3912203013896942,-0.229909136891365,-0.7096604704856873,-0.2485104352235794,-0.2797974944114685,0.0,0.0,0.8705189228057861,-0.8668656945228577
-0.1227597221732139,0.3759317100048065,-0.2359829246997833,-0.6815992593765259,-0.2609178721904754,-0.2481482774019241,0.0,0.0,0.5814570188522339,-0.1879268884658813
-0.1251160651445388,0.3609373569488525,-0.2236734628677368,-0.6685924530029297,-0.2731474339962005,-0.2445910423994064,0.0,0.0,0.7533012628555298,-0.8443117737770081
-0.1274950951337814,0.3467765152454376,-0.227451205253601,-0.6313601732254028,-0.2838816344738006,-0.2146832048892974,0.0,0.0,0.6711447238922119,-0.4381338953971863
-0.1296962797641754,0.332867294549942,-0.2100637406110763,-0.6201786398887634,-0.2942306399345398,-0.2069800198078155,0.0,0.0,0.904438853263855,-0.8797661662101746
-0.1319323480129242,0.3190886974334717,-0.2152720689773559,-0.61408531665802,-0.302836537361145,-0.1721181571483612,0.0,0.0,0.9883599281311036,-0.6348794102668762
-0.134074404835701,0.3052882552146911,-0.207398772239685,-0.6147891879081726,-0.3098834455013275,-0.1409384608268737,0.0,0.0,0.9818035364151,-0.9772443175315856
-0.1362646073102951,0.2915552854537964,-0.2141104191541671,-0.6114118695259094,-0.3149794042110443,-0.1019191518425941,0.0,0.0,0.9953866004943848,-0.9047850370407104
-0.1382916420698166,0.2786750197410583,-0.1995912939310073,-0.5731320977210999,-0.3182021081447601,-0.0644543692469596,0.0,0.0,0.9931926727294922,-0.860431432723999
-0.1400297135114669,0.2666276097297668,-0.1726523041725158,-0.5356948375701904,-0.3194064199924469,-0.0240862481296062,0.0,0.0,0.9971532821655272,-0.9602837562561036
-0.1417261064052581,0.2555427849292755,-0.1701646149158477,-0.4925441443920135,-0.3188627660274505,0.0108731463551521,0.0,0.0,0.9847683906555176,-0.3018186092376709
-0.1435020416975021,0.2445380836725235,-0.1774566918611526,-0.4891263544559479,-0.3189975917339325,-0.0026962484698742,0.0,0.0,0.986011266708374,-0.4967894554138183
-0.1449902504682541,0.2343042641878128,-0.1489402204751968,-0.4548081457614898,-0.3188678920269012,0.0025941408239305,0.0,0.0,0.980027675628662,-0.6442911624908447
-0.1464898139238357,0.2245780825614929,-0.1510610431432724,-0.4320334792137146,-0.3177241683006286,0.0228747688233852,0.0,0.0,0.9719833135604858,-0.2058357000350952
-999.0,0.2154756635427475,-0.1373305022716522,-0.4043673574924469,-0.3168431520462036,0.0176204908639192,0.0,0.0,0.8978416919708252,0.0081541538238525
-0.1490377485752105,0.206964835524559,-0.1191353946924209,-0.3780791163444519,-0.3159859478473663,0.0171438008546829,0.0,0.0,0.8570116758346558,-0.683850884437561
-0.150023266673088,0.1988025456666946,-0.1010069251060485,-0.3622364103794098,-0.3134432137012481,0.0508549399673938,0.0,0.0,0.912289261817932,-0.8223854899406433
-0.1509761810302734,0.1906544268131256,-0.0994490459561348,-0.3612460792064667,-0.3091324269771576,0.0862152650952339,0.0,0.0,-0.0127198696136474,-0.8617677688598633
-0.1520394384860992,0.1819671541452407,-0.1119475811719894,-0.3849147260189056,-0.3033040761947632,0.1165666356682777,0.0,0.0,0.1667162179946899,0.6535565853118896
-0.1528757065534591,0.1732224375009536,-0.0881668850779533,-0.3877172470092773,-0.2986120283603668,0.0938411429524421,0.0,0.0,0.7177925109863281,-0.6382993459701538
-0.1535439491271972,0.1644546091556549,-0.0730227455496788,-0.3884219527244568,-0.2922183573246002,0.127873346209526,0.0,0.0,0.6502187252044678,-0.2074133157730102
-0.1540541648864746,0.1562079340219497,-0.0572350919246673,-0.3652853071689605,-0.2858127653598785,0.12811179459095,0.0,0.0,0.7889463901519775,-0.5267816781997681
-0.1543895751237869,0.1485905200242996,-0.0409530028700828,-0.3371181488037109,-0.2781959772109985,0.1523356884717941,0.0,0.0,0.4279131889343261,-0.7462911605834961
-0.154558852314949,0.1412234604358673,-0.0260439366102218,-0.3257158398628235,-0.2688407599925995,0.1871043145656585,0.0,0.0,0.2359043359756469,-0.1547899842262268
-0.1546409577131271,0.1336209326982498,-0.0177401807159185,-0.3361702263355255,-0.2590996623039245,0.1948221921920776,0.0,0.0,0.6108059883117676,-0.3918948173522949
-0.1546951234340667,0.1261995136737823,-0.0147762345150113,-0.3282178938388824,-0.2495590150356292,0.1908129453659057,0.0,0.0,0.6097875833511353,-0.1221765279769897
-0.1545107811689376,0.1194110214710235,0.0086512994021177,-0.3000804781913757,-0.2396009862422943,0.1991609930992126,0.0,0.0,0.4556632041931152,-0.3503499031066894
-0.1542753279209137,0.1128020584583282,0.0137860821560025,-0.292172759771347,-0.2297025173902511,0.1979696452617645,0.0,0.0,0.0020090341567993,-0.524971067905426
-0.1540986001491546,0.1063870042562484,0.0069454819895327,-0.2834755480289459,-0.218837484717369,0.2173008024692535,0.0,0.0,0.7829227447509766,-0.5828537344932556
-0.1537505090236663,0.1005019545555114,0.0225785914808511,-0.2597973346710205,-0.2064977288246154,0.2467954903841018,0.0,0.0,0.5151510238647461,-0.3554180860519409
-0.1533544510602951,0.0950843915343284,0.0275515802204608,-0.2391431331634521,-0.1943515241146087,0.2429242134094238,0.0,0.0,0.5672857761383057,-0.1722795963287353
-0.1529418975114822,0.0901772379875183,0.0294943638145923,-0.216597244143486,-0.1825355589389801,0.2363195717334747,0.0,0.0,0.3706247806549072,-0.5058861374855042
-0.1525582373142242,0.0853370279073715,0.0255823396146297,-0.2135966718196869,-0.1697274893522262,0.2561617493629455,0.0,0.0,0.5535311698913574,-0.5143164396286011
-0.1522762328386306,0.0808161795139312,0.0146463513374328,-0.1994341015815735,-0.1561653167009353,0.2712436318397522,0.0,0.0,0.1657752990722656,-0.5000897645950317
-0.1521302163600921,0.0763210132718086,0.0002158078859793,-0.1983370631933212,-0.1418138146400451,0.2870299220085144,0.0,0.0,0.7248435020446777,0.2756973505020141
-0.1518072187900543,0.0723596438765525,0.0173679776489734,-0.1747028976678848,-0.1269217729568481,0.2978408932685852,0.0,0.0,0.2405893802642822,0.1978514194488525
-0.1514399498701095,0.0682452023029327,0.0215016640722751,-0.1816388964653015,-0.1117886379361152,0.3026626408100128,0.0,0.0,0.5119962692260742,0.1600621938705444
-0.1508979797363281,0.0645928233861923,0.0383053719997406,-0.1612118035554886,-0.0960146784782409,0.3154790699481964,0.0,0.0,0.719989538192749,0.9937334060668944
-0.1502596884965896,0.0615908242762088,0.04991190508008,-0.1325863748788833,-0.082228198647499,0.2757301926612854,0.0,0.0,0.385075569152832,0.4879989624023437
-0.1494750082492828,0.0590880736708641,0.0639653578400611,-0.1104990914463996,-0.0678640082478523,0.2872834801673889,0.0,0.0,0.3278360366821289,0.9801597595214844
-0.1485398262739181,0.0567102059721946,0.0808986201882362,-0.1051575168967247,-0.0553919747471809,0.2494405508041381,0.0,0.0,0.0360245704650878,0.96658456325531
-0.147532656788826,0.0545451268553733,0.0900157988071441,-0.095863863825798,-0.0448180064558982,0.2114796936511993,0.0,0.0,0.0855331420898437,0.9827926158905028
-0.146402359008789,0.052597414702177,0.1043109521269798,-0.0863294675946235,-0.0361905246973037,0.1725497543811798,0.0,0.0,-0.0418637990951538,0.8901454210281372
-0.1452155113220214,0.0500820726156234,0.1119624823331832,-0.1116441190242767,-0.0295526143163442,0.1327579915523529,0.0,0.0,-0.0663908123970031,0.784001350402832
-0.1440002471208572,0.0470068305730819,0.1160468906164169,-0.1365799903869629,-0.0241402108222246,0.1082477942109108,0.0,0.0,-0.0487419366836547,0.9506982564926147
-0.1427444517612457,0.0433676801621913,0.1215917915105819,-0.1616825610399246,-0.0202005133032798,0.0787940099835395,0.0,0.0,0.1281384229660034,0.6269276142120361
-0.1414638459682464,0.0397449843585491,0.125343844294548,-0.1609745472669601,-0.0175175573676824,0.0536589995026588,0.0,0.0,0.3411241769790649,0.7100235223770142
-0.1401095390319824,0.0362087599933147,0.1340965926647186,-0.1571482568979263,-0.0161984544247388,0.0263820327818393,0.0,0.0,0.5177481174468994,0.7652764320373535
-0.1385671645402908,0.0325967893004417,0.1542027294635772,-0.160531610250473,-0.0161670576781034,0.0006279911031015,0.0,0.0,0.385098934173584,0.4363839626312256
-0.1369421035051345,0.0292830802500247,0.162089005112648,-0.1472730785608291,-0.0157498065382242,0.0083446726202964,0.0,0.0,0.2787327766418457,-0.337606132030487
-0.1352932006120681,0.0263456683605909,0.1643711477518081,-0.1305454969406128,-0.0152369476854801,0.0102573409676551,0.0,0.0,0.2412844896316528,-0.2354118824005127
-0.1335954666137695,0.0231991857290267,0.1690192073583603,-0.1398373246192932,-0.0144989369437098,0.0147604662925004,0.0,0.0,0.4045953750610351,0.0976816415786743
