x_pos,y_pos,x_vel,y_vel,angle,ang_vel,leg_1,leg_2,main_booster,lat_booster
-0.001500415848568,1.403198480606079,-0.1519799530506134,-0.3431867063045501,0.0017324684886261,0.0341721586883068,0.0,0.0,0.4044191444409568,-0.8756122916151914
-0.0029969215393066,1.3956577777862549,-0.1531429141759872,-0.3351479172706604,0.0051880944520235,0.0691200718283653,0.0,0.0,0.3367545822159248,0.6667368326636367
-0.0042992592789232,1.3881773948669434,-0.1326036155223846,-0.332473486661911,0.0075198695994913,0.046639896929264,0.0,0.0,-0.8390153247999361,-0.983763181091078
-0.0056705474853515,1.380266785621643,-0.1417975127696991,-0.3516159057617187,0.0121478913351893,0.0925689190626144,0.0,0.0,-0.6524924917448407,-0.6426591493407625
-0.0070574758574366,1.371931552886963,-0.1443523466587066,-0.3705025315284729,0.017736604437232,0.1117846965789794,0.0,0.0,0.6333909959030497,-0.9093497918035404
-0.0083494186401367,1.3639774322509766,-0.1368760913610458,-0.3536377251148224,0.0253234840929508,0.1517517566680908,0.0,0.0,-0.1667615348406739,0.7511020283517437
-0.0095603941008448,1.3555994033813477,-0.1272810250520706,-0.3724640905857086,0.0314332991838455,0.122207723557949,0.0,0.0,-0.4003880032252973,-0.5628759622124656
-0.010780525393784,1.3467963933944702,-0.1289865672588348,-0.3914147913455963,0.0383355990052223,0.1380587816238403,0.0,0.0,0.7597492806502437,0.634629954940997
-0.0119745256379246,1.3389124870300293,-0.12501260638237,-0.3505441546440124,0.0438924022018909,0.1111461073160171,0.0,0.0,-0.0882762238758574,-0.8818568054805539
-0.0132135394960641,1.3306039571762085,-0.1312388628721237,-0.3695047199726105,0.0511463955044746,0.1450930386781692,0.0,0.0,0.7186219992757026,0.7994389469469285
-0.0142983440309762,1.3228092193603516,-0.1143413782119751,-0.3466434180736542,0.0569569207727909,0.1162212342023849,0.0,0.0,0.9791211232593952,-0.7514324681739684
-0.0153619768097996,1.3155378103256226,-0.1139030084013938,-0.3234830796718597,0.0644274055957794,0.1494233161211013,0.0,0.0,0.5536535003417253,0.9833477194767466
-0.0162271503359079,1.3088513612747192,-0.092179037630558,-0.2974351048469543,0.0700407102704048,0.1122762337327003,0.0,0.0,-0.9786405137237404,0.5942381609117801
-0.0170151703059673,1.3017388582229614,-0.0830712467432022,-0.3163179755210876,0.074278637766838,0.0847661644220352,0.0,0.0,-0.607968854884904,0.9397251274717296
-0.0176875106990337,1.294220209121704,-0.0691193640232086,-0.3342533111572265,0.0761461481451988,0.0373534932732582,0.0,0.0,0.2388830591106592,-0.5328554404157072
-0.0183038711547851,1.2866082191467283,-0.0647119060158729,-0.338471382856369,0.0792025104165077,0.0611328184604644,0.0,0.0,-0.5786061366464732,0.7540429384952575
-0.0188227649778127,1.2785873413085938,-0.0530446171760559,-0.3565389513969421,0.0803451016545295,0.0228538271039724,0.0,0.0,-0.3039619208468771,0.7317704943639259
-0.0192451477050781,1.2701427936553955,-0.0415018163621425,-0.3752707540988922,0.0796216204762458,-0.0144712524488568,0.0,0.0,-0.5769802799333288,0.6535085435865923
-0.0195829384028911,1.2612855434417725,-0.0314552672207355,-0.393534779548645,0.0773159191012382,-0.0461184084415435,0.0,0.0,-0.6741050787522906,0.6655847435291793
-0.0198500640690326,1.252007246017456,-0.023167822510004,-0.4121912121772766,0.0737907588481903,-0.0705097466707229,0.0,0.0,0.6052904889933717,0.6009538767827606
-0.0199651718139648,1.2434203624725342,-0.0070016980171203,-0.3814257383346557,0.0693198516964912,-0.0894259139895439,0.0,0.0,-0.048695744870191,0.5012896223407798
-0.0200147628784179,1.2344088554382324,0.0006602368084713,-0.4002634286880493,0.0637570992112159,-0.1112650409340858,0.0,0.0,0.7126328999630922,-0.8002550738042734
-0.0199902541935443,1.2258234024047852,0.0062438072636723,-0.3814151585102081,0.0599926374852657,-0.075295865535736,0.0,0.0,-0.943646110046158,0.627006657738008
-0.0198852531611919,1.21681010723114,0.0157844796776771,-0.4003907144069671,0.0547576285898685,-0.1047093644738197,0.0,0.0,-0.0084740423702003,-0.6721577784656253
-0.0198208801448345,1.2073673009872437,0.0101246125996112,-0.4195438325405121,0.0510967336595058,-0.0732241421937942,0.0,0.0,0.6352111521199186,-0.6687112647393092
-0.0199765209108591,1.1985087394714355,-0.012772262096405,-0.3936274647712707,0.0483387745916843,-0.055159043520689,0.0,0.0,0.5536954292317235,-0.8171809316592187
-0.0202012062072753,1.1902482509613037,-0.0212505031377077,-0.3670932352542877,0.0471299141645431,-0.0241771750152111,0.0,0.0,0.8753443251124644,0.8978482073397498
-0.0205384250730276,1.182968020439148,-0.0303018204867839,-0.3234549462795257,0.0437514707446098,-0.067568764090538,0.0,0.0,0.0555845824686587,-0.926375026603343
-0.0210454948246479,1.1759999990463257,-0.0490811392664909,-0.3096462786197662,0.0421448498964309,-0.0321324989199638,0.0,0.0,0.0185743809106344,-0.9837348966972894
-0.021634291857481,1.1690467596054075,-0.0591565445065498,-0.3090415894985199,0.0424199365079402,0.0055018505081534,0.0,0.0,-0.2612416513796931,0.8539105389792802
-0.0221296306699514,1.1616814136505127,-0.0479513294994831,-0.3273009657859802,0.0408570580184459,-0.0312575623393058,0.0,0.0,-0.8388636112213135,0.9086053371429444
-0.0225382801145315,1.1538889408111572,-0.0376062989234924,-0.3462568521499634,0.0376355648040771,-0.064429759979248,0.0,0.0,-0.9524840712547302,0.7754404544830322
-0.0228705406188964,1.1456806659698486,-0.0285228230059146,-0.3647018074989319,0.0329962410032749,-0.0927865579724311,0.0,0.0,-0.968275249004364,0.5567259788513184
-0.0231396667659282,1.1370434761047363,-0.021129997447133,-0.3837538361549377,0.0272812489420175,-0.1142999902367591,0.0,0.0,-0.9812827110290528,0.1983455419540405
-0.0233855247497558,1.1279807090759275,-0.0187108870595693,-0.4026910066604614,0.0214798245579004,-0.1160281151533126,0.0,0.0,-0.9465188384056092,-0.2875709533691406
-0.0236083976924419,1.118492603302002,-0.0163162481039762,-0.4216282665729522,0.0155917489901185,-0.1177616864442825,0.0,0.0,-0.9295216798782348,-0.6957735419273376
-0.023865794762969,1.10857355594635,-0.0211532153189182,-0.4407988488674164,0.0110608711838722,-0.0906173586845398,0.0,0.0,-0.9829871654510498,-0.6573337912559509
-0.0241495128720998,1.0982331037521362,-0.0249314997345209,-0.4595552682876587,0.0076672011055052,-0.0678734108805656,0.0,0.0,-0.9576680064201356,-0.3801161646842956
-0.0244109146296978,1.087466835975647,-0.0226235035806894,-0.4784907400608063,0.0041863112710416,-0.0696177333593368,0.0,0.0,-0.948654055595398,0.0905299186706543
-0.0246505737304687,1.0762746334075928,-0.0203491300344467,-0.4974262416362762,0.0006181356147862,-0.0713637024164199,0.0,0.0,-0.6963551640510559,-0.5394449234008789
-0.0249190330505371,1.0646610260009766,-0.0244170408695936,-0.5161624550819397,-0.0017745704390108,-0.0478536784648895,0.0,0.0,-0.9139881730079652,-0.7467010617256165
-0.025213336572051,1.0526198148727417,-0.0281125269830226,-0.5351656675338745,-0.0030741193331778,-0.0259912963956594,0.0,0.0,-0.995412528514862,-0.8457326889038086
-0.0255430229008197,1.0401434898376465,-0.0329995565116405,-0.5545016527175903,-0.0030506853945553,0.0004688660555984,0.0,0.0,-0.8894591927528381,-0.213483452796936
-0.0258525852113962,1.0272411108016968,-0.0308867245912551,-0.5734363794326782,-0.0031144425738602,-0.0012753943447023,0.0,0.0,-0.6942358016967773,0.2060089111328125
-0.0261423103511333,1.013912796974182,-0.0288216955959796,-0.5923709869384766,-0.00326530309394,-0.0030171708203852,0.0,0.0,-0.4143987894058227,-0.3935659527778625
-0.0264127738773822,1.000158429145813,-0.0268076956272125,-0.6113055348396301,-0.0035030907019972,-0.0047556445933878,0.0,0.0,-0.7890984416007996,-0.8417686820030212
-0.0267244335263967,0.9859737753868104,-0.0323605351150035,-0.6304273009300232,-0.0023233797401189,0.0235942769795656,0.0,0.0,-0.8686310052871704,0.3430337905883789
-0.0270179752260446,0.9713630676269532,-0.0304588563740253,-0.6493620276451111,-0.001230135676451,0.0218647383153438,0.0,0.0,-0.7539719343185425,-0.3024531602859497
-0.0272939689457416,0.956326425075531,-0.0286187268793582,-0.668296754360199,-0.0002230929094366,0.0201408881694078,0.0,0.0,-0.5728344917297363,-0.0075705051422119
-0.0275530815124511,0.9408637285232544,-0.0268439017236232,-0.6872314214706421,0.0006980872713029,0.0184235014021396,0.0,0.0,-0.7342022061347961,0.4414722919464111
-0.0277959816157817,0.924975037574768,-0.0251382533460855,-0.70616614818573,0.001533753471449,0.0167132467031478,0.0,0.0,-0.4854203462600708,0.5724290609359741
-0.0279825218021869,0.9086641669273376,-0.0183654464781284,-0.7249257564544678,0.0012547918595373,-0.0055794408544898,0.0,0.0,-0.4634923338890075,-0.0986208915710449
-0.0281542781740427,0.8919273614883423,-0.0168101582676172,-0.7438603043556213,0.0008911587065085,-0.0072728223167359,0.0,0.0,-0.6612948775291443,0.1316676139831543
-0.0283122062683105,0.8747645020484924,-0.0153362099081277,-0.7627947926521301,0.0004433277936186,-0.0089565906673669,0.0,0.0,0.145618200302124,-0.3256813287734985
-0.0283538810908794,0.8576827645301819,-0.0041135884821414,-0.7591871023178101,0.0003897554415743,-0.0010713853407651,0.0,0.0,0.2701690196990967,0.392136812210083
-0.028456974774599,0.8407183289527893,-0.0098296888172626,-0.7539729475975037,-8.677026198711246e-05,-0.0095305796712636,0.0,0.0,0.0296225547790527,0.3030723333358764
-0.0284902565181255,0.8240728974342346,-0.0030342398677021,-0.7397951483726501,-0.000374794966774,-0.0057605877518653,0.0,0.0,-0.0696531534194946,0.1687266826629638
-0.028513241559267,0.8070014715194702,-0.001927506760694,-0.7587297558784485,-0.0007447197567671,-0.0073982300236821,0.0,0.0,-0.4215208888053894,0.5258735418319702
-0.0284802429378032,0.7895092964172363,0.004947128240019,-0.777426540851593,-0.0023713319096714,-0.0325323641300201,0.0,0.0,-0.4946024417877197,-0.0065711736679077
-0.0284390449523925,0.771591305732727,0.0058456039987504,-0.7963612675666809,-0.0040784464217722,-0.0341423042118549,0.0,0.0,-0.5104876756668091,-0.2483564019203186
-0.0283907894045114,0.7532472610473633,0.0066341585479676,-0.8152961134910583,-0.0058653173036873,-0.0357373505830764,0.0,0.0,-0.4178431630134582,0.3599333763122558
-0.0283366199582815,0.7344772219657898,0.0073091783560812,-0.8342310786247253,-0.0077311545610427,-0.0373168289661407,0.0,0.0,0.2304826974868774,0.1718561649322509
-0.0281826965510845,0.7158578634262085,0.0169339720159769,-0.8275330662727356,-0.0092496424913406,-0.0303697139024734,0.0,0.0,-0.6611233949661255,0.0136390924453735
-0.0280250553041696,0.6968125700950623,0.0173720978200435,-0.846467912197113,-0.0108454516157507,-0.0319161340594291,0.0,0.0,0.0439398288726806,0.4676684141159057
-0.0278573986142873,0.6777211427688599,0.01843405328691,-0.84852135181427,-0.0124948546290397,-0.0329879857599735,0.0,0.0,0.2835034132003784,-0.0931921601295471
-0.0277791023254394,0.6588941812515259,0.0100336913019418,-0.8367722034454346,-0.0146647067740559,-0.0433969646692276,0.0,0.0,0.494945764541626,-0.7270019054412842
-0.0277254097163677,0.6408119201660156,0.0061342054978013,-0.8036607503890991,-0.01542479544878,-0.015201929025352,0.0,0.0,-0.233730673789978,0.0425174236297607
-0.0276732444763183,0.62230384349823,0.006068720947951,-0.8225954174995422,-0.0162585750222206,-0.0166758242994546,0.0,0.0,-0.1402850151062011,-0.260452926158905
-0.0276236534118652,0.6033696532249451,0.0058735315687954,-0.8415300250053406,-0.0171650983393192,-0.0181305240839719,0.0,0.0,0.4932303428649902,0.0293483734130859
-0.02765579149127,0.5846532583236694,-0.00182215066161,-0.8318542838096619,-0.0185368470847606,-0.0274349395185709,0.0,0.0,0.7420589923858643,-0.519365668296814
-0.0278240200132131,0.5665879249572754,-0.0161189921200275,-0.8029150366783142,-0.0192368421703577,-0.0139997377991676,0.0,0.0,0.6598265171051025,0.040921926498413
-0.0279559139162302,0.5490333437919617,-0.0125546995550394,-0.7802120447158813,-0.0198636576533317,-0.0125361438840627,0.0,0.0,0.5962932109832764,-0.145219624042511
-0.0282038692384958,0.5322802662849426,-0.0235071294009685,-0.7446012496948242,-0.0211350098252296,-0.0254272874444723,0.0,0.0,-0.0069563388824462,-0.4858895540237427
-0.0284608844667673,0.5151010751724243,-0.024349395185709,-0.7635361552238464,-0.0224741417914628,-0.0267824288457632,0.0,0.0,0.6721658706665039,-0.5957269668579102
-0.0288033485412597,0.4980877935886383,-0.0339299850165843,-0.7561532855033875,-0.0227871723473072,-0.0062605491839349,0.0,0.0,0.6807067394256592,0.061873435974121
-0.0290807727724313,0.4811419546604156,-0.0276746153831481,-0.753148078918457,-0.0228459183126688,-0.0011750091798603,0.0,0.0,0.7313158512115479,-0.1696109175682068
-0.0293957702815532,0.4643046259880066,-0.0312279649078845,-0.7483277916908264,-0.0231226049363613,-0.0055334577336907,0.0,0.0,0.7450380325317383,-0.1742656230926513
-0.0297142975032329,0.4482979774475097,-0.0314593128859996,-0.7114113569259644,-0.0235038734972476,-0.0076256669126451,0.0,0.0,0.8942312002182007,-0.1475000977516174
-0.0299340244382619,0.433264672756195,-0.0219563841819763,-0.6681462526321411,-0.0235233753919601,-0.000390039931517,0.0,0.0,0.6926696300506592,0.2366272211074829
-0.0302651412785053,0.4190651178359985,-0.0324921831488609,-0.6310989260673523,-0.0241364426910877,-0.0122612807899713,0.0,0.0,0.6449902057647705,0.6091392040252686
-0.0306965820491313,0.4049312472343445,-0.0408919602632522,-0.6282119750976562,-0.026357889175415,-0.0444289818406105,0.0,0.0,0.7262359857559204,0.868154764175415
-0.0310088153928518,0.3916131854057312,-0.0272483322769403,-0.59199059009552,-0.0302857551723718,-0.0785573050379753,0.0,0.0,-0.4601970911026001,-0.645008385181427
-0.0313998237252235,0.3778719007968902,-0.0365851894021034,-0.6107779145240784,-0.0327735394239425,-0.0497555322945117,0.0,0.0,0.1360902786254882,0.3466665744781494
-0.0318333618342876,0.3644052743911743,-0.0405984371900558,-0.5985780954360962,-0.0354933552443981,-0.0543962530791759,0.0,0.0,0.8874537944793701,-0.3599358797073364
-0.0322731025516986,0.3517111539840698,-0.0411020703613758,-0.564258337020874,-0.038333062082529,-0.0567942038178443,0.0,0.0,-0.4939262866973877,-0.0718490481376648
-0.0327346809208393,0.3385909795761108,-0.0432254821062088,-0.5831936597824097,-0.0412283912301063,-0.0579064860939979,0.0,0.0,0.7791241407394409,-0.1349167823791504
-0.0331781394779682,0.3255958557128906,-0.0414770059287548,-0.5776425004005432,-0.0440602302551269,-0.0566369220614433,0.0,0.0,0.7677121162414551,-0.4008549451828003
-0.0335267074406147,0.3128138184547424,-0.0324044376611709,-0.5681629180908203,-0.0464864820241928,-0.0485250055789947,0.0,0.0,0.8340797424316406,-0.0553287267684936
-0.0337066650390625,0.3005443215370178,-0.0162539388984441,-0.5453638434410095,-0.0482096672058105,-0.0344636552035808,0.0,0.0,0.7980422973632812,-0.3381009101867676
-0.0337390899658203,0.2884810268878937,-0.002155075315386,-0.5361820459365845,-0.0492823980748653,-0.0214548632502555,0.0,0.0,0.6341942548751831,-0.6010516881942749
-0.0338135734200477,0.2771134078502655,-0.0075051644816994,-0.5052269697189331,-0.0492233820259571,0.0011802776716649,0.0,0.0,0.54494309425354,-0.5611956715583801
-0.0338919647037982,0.2663876414299011,-0.009058965370059,-0.4766581356525421,-0.0480196140706539,0.0240754876285791,0.0,0.0,0.0317717790603637,0.3010175228118896
-0.0338990204036235,0.2558545768260956,-0.0022429260425269,-0.4680895805358886,-0.0465039052069187,0.030314240604639,0.0,0.0,-0.0414709448814392,-0.1466487646102905
-0.0339329726994037,0.2448954880237579,-0.0048834416083991,-0.4870244860649109,-0.0450347438454628,0.0293832477182149,0.0,0.0,0.7452532052993774,0.1947091817855835
-0.0340254791080951,0.2343202978372573,-0.0104330983012914,-0.4699743688106537,-0.0438675507903099,0.0233436860144138,0.0,0.0,-0.1053391098976135,0.5043686628341675
-0.0341001525521278,0.2233220934867859,-0.0074407458305358,-0.4888084232807159,-0.0438877567648887,-0.0004040774365421,0.0,0.0,0.7152483463287354,-0.079011857509613
-0.0342011451721191,0.2127850204706192,-0.0099244136363267,-0.4683218002319336,-0.0440622940659523,-0.0034907790832221,0.0,0.0,0.6095829010009766,-0.3103787899017334
-0.0344177260994911,0.2029913067817688,-0.0208631474524736,-0.4352995157241821,-0.0448384061455726,-0.0155225098133087,0.0,0.0,-0.2359572649002075,-0.1092408299446106
-0.0346630103886127,0.1927715837955474,-0.0237095095217227,-0.45423424243927,-0.0456536076962947,-0.0163040570914745,0.0,0.0,0.0327954292297363,-0.5144869089126587
-0.0349937453866004,0.1828376799821853,-0.0331786721944808,-0.4415022432804107,-0.0455457456409931,0.0021572168916463,0.0,0.0,0.3194139003753662,-0.1244197487831115
-0.0353925712406635,0.1733783632516861,-0.0396542996168136,-0.4204208254814148,-0.0457789674401283,-0.0046644015237689,0.0,0.0,0.1323949098587036,0.565016508102417
-0.0357798561453819,0.164000853896141,-0.0372845828533172,-0.4168229699134826,-0.047202531248331,-0.0284714791923761,0.0,0.0,0.1397876739501953,-0.5386098623275757
-0.0363087654113769,0.1548288464546203,-0.0523272380232811,-0.4076625406742096,-0.047750350087881,-0.0109563814476132,0.0,0.0,-0.3853029608726501,0.5744497776031494
-0.0368336662650108,0.1452270299196243,-0.0510449521243572,-0.4267907738685608,-0.0491848178207874,-0.0286890156567096,0.0,0.0,0.5027318000793457,-0.0274398922920227
-0.0372605323791503,0.1361714750528335,-0.041666992008686,-0.4025039970874786,-0.0502001941204071,-0.0203074235469102,0.0,0.0,-0.1937532424926757,0.2951998710632324
-0.0377181060612201,0.1266898959875106,-0.0446974746882915,-0.4214387536048889,-0.0512395501136779,-0.0207872949540615,0.0,0.0,0.5540025234222412,0.6506279706954956
-0.0379693023860454,0.1178470477461814,-0.0230582691729068,-0.3930893242359161,-0.053274743258953,-0.0407039113342762,0.0,0.0,0.3091975450515747,-0.833134651184082
-0.0383047088980674,0.1095131039619445,-0.0331243798136711,-0.3704126477241516,-0.0536900162696838,-0.0083052851259708,0.0,0.0,0.7384564876556396,-0.1758550405502319
-0.0384729392826557,0.1020878180861473,-0.0170892290771007,-0.3300024569034576,-0.0534261465072631,0.0052775098010897,0.0,0.0,-0.17795330286026,-0.3703875541687011
-0.0386722572147846,0.0942365229129791,-0.0201874636113643,-0.3489370942115783,-0.0531744249165058,0.0050344415940344,0.0,0.0,0.5890853404998779,-0.1043640375137329
-0.0388679504394531,0.0871360376477241,-0.0197830908000469,-0.3155679702758789,-0.0529636368155479,0.004215913824737,0.0,0.0,0.0945178270339965,-0.4940063953399658
-0.0390271171927452,0.080387957394123,-0.0163186993449926,-0.2999029457569122,-0.0525723025202751,0.0078269857913255,0.0,0.0,-0.2065014243125915,0.2890152931213379
-0.039217758923769,0.0732138007879257,-0.0194552149623632,-0.3188375234603882,-0.0521826595067977,0.0077928304672241,0.0,0.0,0.6254634857177734,-0.2057554721832275
-0.0395281799137592,0.0665342435240745,-0.0308821685612201,-0.296873390674591,-0.0523476935923099,-0.0033005650620907,0.0,0.0,0.5425578355789185,0.9467926025390624
-0.0399059280753135,0.0601509436964988,-0.035552117973566,-0.2837804555892944,-0.054544273763895,-0.043931771069765,0.0,0.0,0.5786614418029785,0.8209326267242432
-0.0402438156306743,0.0541447252035141,-0.029891749843955,-0.2670938372611999,-0.0584017150104045,-0.0771488100290298,0.0,0.0,0.0488543510437011,0.2179049253463745
-0.0405771248042583,0.0482182614505291,-0.0295202434062957,-0.2635520398616791,-0.0621691383421421,-0.0753483027219772,0.0,0.0,0.5468502044677734,0.8797929286956787
-0.0407148376107215,0.0423427931964397,-0.0084007056429982,-0.2613650560379028,-0.0674860477447509,-0.1063382402062416,0.0,0.0,0.5523269176483154,-0.1196868419647216
-0.0407496467232704,0.0369938239455223,0.0014531934866681,-0.2379607111215591,-0.0723574683070182,-0.0974286943674087,0.0,0.0,0.2622663974761963,-0.482075572013855
-0.0407523140311241,0.0321390964090824,0.0045347758568823,-0.216006800532341,-0.077114462852478,-0.0951396971940994,0.0,0.0,0.1696650981903076,-0.2955107688903808
