x_pos,y_pos,x_vel,y_vel,angle,ang_vel,leg_1,leg_2,main_booster,lat_booster
-0.0015225410461425,1.4033981561660769,-0.1541550457477569,-0.3343065083026886,0.0016967137344181,0.0334646329283714,0.0,0.0,0.218253942889065,0.5398563828605205
-0.0029608726035803,1.3961808681488037,-0.1444236636161804,-0.32076495885849,0.0022826045751571,0.0117195136845111,0.0,0.0,-0.6530072277512842,-0.7170956676267389
-0.0044427872635424,1.3887314796447754,-0.1497909277677536,-0.331088662147522,0.0038623209111392,0.0315972156822681,0.0,0.0,0.3510690032550272,-0.6029533401978731
-0.0060806274414062,1.381665825843811,-0.1662247627973556,-0.3140364289283752,0.006274193059653,0.0482420958578586,0.0,0.0,-0.8635691208029699,0.6463740414719598
-0.0076573370024561,1.3743762969970703,-0.1583921313285827,-0.3239754438400268,0.0069895107299089,0.0143078388646245,0.0,0.0,-0.4527225885732251,0.8694414973971263
-0.0091508869081735,1.3668603897094729,-0.1477801650762558,-0.3340354561805725,0.0054338639602065,-0.0311159379780292,0.0,0.0,0.8708352254532865,-0.7849544613077579
-0.0107386587187647,1.360098361968994,-0.1585396528244018,-0.3005351722240448,0.0051938109099864,-0.0048015611246228,0.0,0.0,0.2823691627030633,0.7969313175726693
-0.0121362684294581,1.3538669347763062,-0.1378945857286453,-0.2769466936588287,0.0033471155911684,-0.0369371995329856,0.0,0.0,-0.9087705546449092,0.5300990569923852
-0.0134946824982762,1.347415328025818,-0.132727637887001,-0.286737322807312,0.0002689634275157,-0.0615689642727375,0.0,0.0,0.197189244762445,-0.8084779883390671
-0.0149195669218897,1.3415321111679075,-0.140770822763443,-0.2614770829677582,-0.0014243102632462,-0.0338685028254985,0.0,0.0,0.9202285193060094,-0.6011452006335127
-0.0162860862910747,1.3364591598510742,-0.1362178474664688,-0.2254626899957656,-0.0018514450639486,-0.0085435286164283,0.0,0.0,0.7059078981403106,-0.8155227042820294
-0.0176377296447753,1.3319764137268066,-0.1362913995981216,-0.1992356777191162,-0.0007476944010704,0.0220771636813879,0.0,0.0,0.7282171512067599,-0.8333650271218932
-0.0189070701599121,1.328369140625,-0.1297439932823181,-0.1603285372257232,0.0020423352252691,0.0558056160807609,0.0,0.0,-0.6619208068247067,-0.6711768188367007
-0.0202263835817575,1.324529051780701,-0.1356656402349472,-0.1706769317388534,0.005746766924858,0.0740949511528015,0.0,0.0,0.8903236603429163,0.8024011160682281
-0.0213147159665823,1.3218882083892822,-0.111090287566185,-0.1173820868134498,0.0079737901687622,0.0445444770157337,0.0,0.0,-0.3845106377530976,0.9636693305661008
-0.022316550835967,1.3190104961395264,-0.0998677164316177,-0.127892792224884,0.0076592005789279,-0.0062919659540057,0.0,0.0,-0.7401143451166177,-0.9489788176944836
-0.0233798027038574,1.3159172534942627,-0.1071801632642746,-0.1374891400337219,0.0085066156461834,0.0169496200978755,0.0,0.0,0.628277839593389,-0.5091278133576136
-0.0243401527404785,1.3131484985351562,-0.0980370789766311,-0.1230660900473594,0.0104834027588367,0.0395392850041389,0.0,0.0,-0.3341480431134473,0.9200439615542748
-0.0252201072871685,1.3101632595062256,-0.0875340104103088,-0.1326669454574585,0.0100307762622833,-0.0090533467009663,0.0,0.0,-0.7461950417079941,-0.5954513257792571
-0.026157284155488,0.0,-0.0942975431680679,-0.1427785903215408,0.0106062600389122,0.011510650627315,0.0,0.0,-0.1440369615617687,0.6848523593965989
-0.0270329471677541,0.0,-0.0861529782414436,-0.1525540500879287,0.0092115048319101,-0.0278976000845432,0.0,0.0,-0.6603897528541949,-0.7504615179898175
-0.0279708858579397,1.2998541593551636,-0.0935225263237953,-0.1628440171480178,0.0089537585154175,-0.0051556127145886,0.0,0.0,0.0258780251103254,-0.8090474383478953
-0.0288854595273733,1.296470284461975,-0.0925182029604911,-0.1504035592079162,0.0099996356293559,0.0209195129573345,0.0,0.0,-0.34388664120849,0.5702035761584007
-0.0297538749873638,1.2928543090820312,-0.086282305419445,-0.1607034653425216,0.0094436276704072,-0.0111210271716117,0.0,0.0,-0.6843200982564397,0.9599961727850844
-0.0305685047060251,1.289015769958496,-0.0790783017873764,-0.1705937683582306,0.0070891943760216,-0.0470930263400077,0.0,0.0,0.96831309167817,-0.7280031828395153
-0.0316383354365825,1.2861888408660889,-0.1052595227956771,-0.12563256919384,0.0053850361146032,-0.0340830907225608,0.0,0.0,0.0952802119927214,0.541721522990561
-0.0326693542301654,1.2838619947433472,-0.09993676841259,-0.1034100502729415,0.0022606162820011,-0.0624884478747844,0.0,0.0,0.2850995106618781,-0.7283673687185487
-0.0338778495788574,1.2822788953781128,-0.1186396330595016,-0.0703605040907859,7.793311669956893e-05,-0.0436534360051155,0.0,0.0,0.8420359836937115,-0.7216918888263015
-0.0353055968880653,1.281770944595337,-0.1412937343120575,-0.0225761197507381,-0.0013847022783011,-0.029252678155899,0.0,0.0,0.5629784586710089,0.7567504380895778
-0.0366989150643348,1.2817258834838867,-0.1359279602766037,-0.0020110781770199,-0.0047463639639317,-0.0672335028648376,0.0,0.0,0.2828355317460262,-0.8902752680982274
-0.03814697265625,1.2824511528015137,-0.1428415030241012,0.0322278290987014,-0.0066815079189836,-0.038702867925167,0.0,0.0,-0.590714156627655,-0.4909625053405761
-0.0395989418029785,1.2829504013061523,-0.1428842395544052,0.0221730824559927,-0.0089736534282565,-0.0458427444100379,0.0,0.0,-0.5458147525787354,-0.7355710864067078
-0.0411211028695106,1.2832311391830444,-0.1512186080217361,0.0124748200178146,-0.0099598057568073,-0.0197228360921144,0.0,0.0,-0.5909141302108765,-0.437800645828247
-0.0426471717655658,1.2832859754562378,-0.1512426733970642,0.0024202102795243,-0.0113034090027213,-0.0268720630556345,0.0,0.0,-0.8282345533370972,-0.3956848382949829
-0.0441768653690815,1.2831144332885742,-0.1512560695409774,-0.0076345088891685,-0.0130040487274527,-0.0340127572417259,0.0,0.0,-0.6063656210899353,-0.255913496017456
-0.0457103736698627,1.2827168703079224,-0.1512578874826431,-0.0176893677562475,-0.0150608494877815,-0.0411363132297992,0.0,0.0,-0.8754909038543701,-0.4802207350730896
-0.0472472198307514,1.282093167304993,-0.1512472927570343,-0.0277443993836641,-0.0174725782126188,-0.0482342727482318,0.0,0.0,-0.8084392547607422,-0.3983319401741028
-0.0487874969840049,1.2812434434890747,-0.1512234508991241,-0.037799634039402,-0.0202374849468469,-0.0552982985973358,0.0,0.0,-0.9356998205184937,0.1402610540390014
-0.050330925732851,1.280167818069458,-0.1511855721473693,-0.0478550940752029,-0.0233535021543502,-0.0623202323913574,0.0,0.0,-0.9736476540565492,-0.1087442636489868
-0.051877211779356,1.2788660526275637,-0.1511329114437103,-0.0579108223319053,-0.0268181059509515,-0.0692919641733169,0.0,0.0,-0.9867176413536072,-0.4919398427009582
-0.0534264557063579,1.277338624000549,-0.1510647237300872,-0.0679668337106704,-0.0306283812969923,-0.0762055665254592,0.0,0.0,-0.9620043635368348,-0.1282969713211059
-0.0549782738089561,1.275585055351257,-0.1509803235530853,-0.0780231580138206,-0.0347810611128807,-0.0830532684922218,0.0,0.0,-0.9906591176986694,-0.235489010810852
-0.0565325729548931,1.2736058235168457,-0.1508790403604507,-0.0880798175930976,-0.0392724275588989,-0.0898273810744285,0.0,0.0,-0.9790796041488647,-0.5229336619377136
-0.0581235885620117,1.2714016437530518,-0.15509594976902,-0.0980709046125412,-0.0432298555970191,-0.0791485384106636,0.0,0.0,-0.9989731311798096,-0.4222397804260254
-0.0597166046500206,1.2689718008041382,-0.1549590528011322,-0.1081276461482048,-0.0475175119936466,-0.0857531055808067,0.0,0.0,-0.9881630539894104,-0.0876595377922058
-0.0613112449645996,1.266316056251526,-0.1548034846782684,-0.1181847006082534,-0.0521306172013282,-0.0922619253396987,0.0,0.0,-0.991121232509613,0.2561237812042236
-0.0629075020551681,1.2634347677230835,-0.1546287834644317,-0.1282421052455902,-0.0570640079677104,-0.098667949438095,0.0,0.0,-0.9996401071548462,0.3223953247070312
-0.0645049065351486,1.260327696800232,-0.154434472322464,-0.1382998824119568,-0.0623122118413448,-0.1049642339348793,0.0,0.0,-0.9572909474372864,0.116373062133789
-999.0,1.2569949626922607,-0.1542201489210128,-0.1483580321073532,-0.0678694099187851,-0.1111440435051918,0.0,0.0,-0.9965396523475648,-0.2707198858261108
-0.0677023902535438,1.2534369230270386,-0.1539854556322097,-0.1584165543317794,-0.073729433119297,-0.1172007918357849,0.0,0.0,-0.9874721765518188,0.0900300741195678
-0.069301888346672,1.2496533393859863,-0.1537300050258636,-0.1684754639863968,-0.0798858329653739,-0.1231280788779258,0.0,0.0,-0.9933905601501464,0.1193430423736572
-0.0709014907479286,1.245644450187683,-0.1534535586833953,-0.1785347908735275,-0.0863318145275116,-0.1289197206497192,0.0,0.0,-0.9920464754104614,0.3417742252349853
-0.0725009888410568,1.241410255432129,-0.1531559079885482,-0.1885945498943328,-0.0930603072047233,-0.1345697939395904,0.0,0.0,-0.944757878780365,-0.5378673076629639
-0.0741418823599815,1.2369617223739624,-0.1580957621335983,-0.198105975985527,-0.098995991051197,-0.1187139526009559,0.0,0.0,-0.9798724055290222,0.1127922534942627
-0.0757820159196853,1.2322875261306765,-0.1577550172805786,-0.2081653475761413,-0.1051991954445838,-0.1240641102194786,0.0,0.0,-0.9983299374580384,0.8366348743438721
-0.0773658752441406,1.2273757457733154,-0.1504672318696975,-0.2188790589570999,-0.1130672246217727,-0.1573608964681625,0.0,0.0,-0.9856882095336914,0.00923752784729
-0.078948400914669,1.2222390174865725,-0.15008345246315,-0.2289408147335052,-0.1211867108941078,-0.1623897403478622,0.0,0.0,-0.9753289818763732,-0.1212145090103149
-0.0805292129516601,1.2168773412704468,-0.1496780216693878,-0.2390030026435852,-0.1295492649078369,-0.1672509610652923,0.0,0.0,-0.9838671684265136,-0.1259049773216247
-0.0821081176400184,1.211290717124939,-0.1492510437965393,-0.2490655928850174,-0.1381462663412094,-0.1719401478767395,0.0,0.0,-0.9726741313934326,-0.2705719470977783
-0.0836846381425857,1.205479383468628,-0.1488026082515716,-0.2591285407543182,-0.1469689011573791,-0.1764532774686813,0.0,0.0,-0.9854109883308412,-0.0554388761520385
-0.0852584838867187,1.1994433403015137,-0.148332878947258,-0.2691918909549713,-0.1560082286596298,-0.1807866394519806,0.0,0.0,-0.9752623438835144,0.1728181838989257
-0.0868293792009353,1.1931825876235962,-0.1478420794010162,-0.279255598783493,-0.1652550846338272,-0.184936910867691,0.0,0.0,-0.9718734622001648,-0.5975579619407654
-0.0884342193603515,1.1867048740386963,-0.1519998013973236,-0.2888685762882232,-0.1737497448921203,-0.1698933094739914,0.0,0.0,-0.9745850563049316,-0.5192261934280396
-0.0900742560625076,1.1800130605697632,-0.156338483095169,-0.2983267605304718,-0.1814328283071518,-0.1536615788936615,0.0,0.0,-0.9837540984153748,-0.8190399408340454
-0.0917739868164062,1.1731075048446655,-0.1637545078992843,-0.307687908411026,-0.1876777410507202,-0.1248978748917579,0.0,0.0,-0.7672446966171265,-0.6272985339164734
-0.0935282707214355,1.165993571281433,-0.1705552339553833,-0.3167982697486877,-0.1925744116306305,-0.097933255136013,0.0,0.0,-0.6356586813926697,0.0521317720413208
-0.0952781662344932,1.1586543321609497,-0.169961541891098,-0.3268570601940155,-0.1976310014724731,-0.1011322289705276,0.0,0.0,-0.6914688944816589,0.1858690977096557
-0.0970232933759689,1.1510895490646362,-0.1693486273288726,-0.3369158506393432,-0.2028378099203109,-0.1041361317038536,0.0,0.0,-0.8372631072998047,0.3893895149230957
-0.0987634658813476,1.1432991027832031,-0.1687169820070266,-0.3469746708869934,-0.2081850320100784,-0.1069444790482521,0.0,0.0,-0.5799424052238464,0.3776842355728149
-0.1004983931779861,1.1352832317352295,-0.1680671125650406,-0.3570335507392883,-0.2136628776788711,-0.1095570549368858,0.0,0.0,-0.7410966753959656,0.2779866456985473
-0.1022277846932411,1.127041935920715,-0.1673995554447174,-0.3670924305915832,-0.2192615866661071,-0.1119742020964622,0.0,0.0,-0.2610448598861694,0.568474531173706
-0.1039051041007042,1.118560791015625,-0.1609064787626266,-0.3779654502868652,-0.2261736989021301,-0.1382420510053634,0.0,0.0,-0.5495624542236328,0.5396885871887207
-0.1055427566170692,1.1098493337631226,-0.1560091376304626,-0.3883937895298004,-0.2340373545885086,-0.1572730094194412,0.0,0.0,-0.2731005549430847,-0.1297568082809448
-0.1071740165352821,1.1009124517440796,-0.1552928239107132,-0.3984548449516296,-0.2419928312301635,-0.1591096222400665,0.0,0.0,-0.399016261100769,0.4814364910125732
-0.1087986007332801,1.0917506217956543,-0.1545612514019012,-0.4085158705711365,-0.2500306069850921,-0.1607562899589538,0.0,0.0,0.335532546043396,0.4039648771286011
-0.1102980598807334,1.0827250480651855,-0.1422358453273773,-0.4024678170681,-0.2578870952129364,-0.1571300327777862,0.0,0.0,-0.9371626377105712,-0.0997928977012634
-0.1117903739213943,1.0734742879867554,-0.1414756625890731,-0.4125284552574157,-0.2658073008060455,-0.1584047973155975,0.0,0.0,-0.5351575016975403,-0.3120958805084228
-0.1132752448320388,1.063998460769653,-0.1407022774219513,-0.4225889444351196,-0.2737821936607361,-0.1594983041286468,0.0,0.0,-0.9370205998420716,-0.6165997982025146
-0.114792063832283,1.0543200969696045,-0.1449193954467773,-0.4314284920692444,-0.2807134389877319,-0.1386248171329498,0.0,0.0,-0.8056381940841675,-0.5796148777008057
-0.1163518875837326,1.0444443225860596,-0.150577887892723,-0.4399769008159637,-0.2862811386585235,-0.1113537922501564,0.0,0.0,-0.3313551545143127,-0.4427504539489746
-0.1179039031267166,1.034342885017395,-0.1497680246829986,-0.4500343203544616,-0.2918775379657745,-0.1119280308485031,0.0,0.0,-0.3965641856193542,-0.7011721730232239
-0.119495965540409,1.0240436792373655,-0.1550528556108474,-0.4585782885551452,-0.2961589097976684,-0.0856266096234321,0.0,0.0,0.5826923847198486,-0.334898829460144
-0.1210116371512413,1.0143522024154663,-0.1469800174236297,-0.4316800534725189,-0.300901859998703,-0.0948591157793998,0.0,0.0,0.158009648323059,-0.8394710421562195
-0.1224829703569412,1.0051676034927368,-0.1441777497529983,-0.408815324306488,-0.3039603233337402,-0.0611695237457752,0.0,0.0,0.4232100248336792,-0.3213220834732055
-0.1237753853201866,0.9966239333152772,-0.1262364983558654,-0.3803572058677673,-0.3070640563964844,-0.0620744638144969,0.0,0.0,0.2662210464477539,-0.5363510251045227
-0.1248949021100997,0.98847758769989,-0.1101729273796081,-0.3624371588230133,-0.3089149892330169,-0.0370184108614921,0.0,0.0,0.7840878963470459,-0.7427655458450317
-0.1259240210056305,0.9806402325630188,-0.1026497334241867,-0.3483829200267792,-0.3091854751110077,-0.0054098428227007,0.0,0.0,0.0774371623992919,-0.7778486013412476
-0.1268572807312011,0.972942352294922,-0.094642162322998,-0.3418461978435516,-0.3078190386295318,0.0273284502327442,0.0,0.0,0.5943024158477783,-0.713086724281311
-0.1275196969509124,0.9657604694366456,-0.0692829489707946,-0.3185499906539917,-0.3046700060367584,0.0629806518554687,0.0,0.0,0.2995936870574951,-0.6876557469367981
-0.1280160844326019,0.958760678768158,-0.054244227707386,-0.3101386427879333,-0.2999091446399688,0.0952171236276626,0.0,0.0,-0.0610976815223693,-0.6555966138839722
-0.1285521537065506,0.9515626430511476,-0.0595550462603569,-0.3186960220336914,-0.2937577068805694,0.1230288296937942,0.0,0.0,0.2048705816268921,-0.6642444133758545
-0.1289433538913726,0.9449496865272522,-0.0464936420321464,-0.2924449145793915,-0.2861718237400055,0.1517175287008285,0.0,0.0,-0.2267999649047851,-0.2186468839645385
-0.129325196146965,0.9381110072135924,-0.0456150360405445,-0.3025026321411133,-0.27853724360466,0.1526915729045868,0.0,0.0,-0.7866097688674927,0.5900073051452637
-0.1296466886997223,0.931018054485321,-0.038269892334938,-0.3140800595283508,-0.2722530364990234,0.1256841570138931,0.0,0.0,-0.6353078484535217,0.1047821044921875
-0.1299587190151214,0.92369943857193,-0.0373912900686264,-0.3241362273693084,-0.2659125030040741,0.1268113404512405,0.0,0.0,-0.955302357673645,-0.0599737167358398
-0.1302612274885177,0.91615492105484,-0.0365144647657871,-0.3341923952102661,-0.2595123946666717,0.1280020326375961,0.0,0.0,-0.7950611710548401,0.6186665296554565
-0.1305090934038162,0.908366084098816,-0.0299338903278112,-0.3452686369419098,-0.254253476858139,0.1051785200834274,0.0,0.0,-0.9774182438850404,-0.37946617603302
-0.1307474076747894,0.9003510475158691,-0.0290631148964166,-0.3553237617015838,-0.2489299923181533,0.1064698323607444,0.0,0.0,-0.918871521949768,0.1111530065536499
-0.1309764832258224,0.8921100497245789,-0.0281970892101526,-0.3653789162635803,-0.2435401082038879,0.1077977195382118,0.0,0.0,-0.9804880023002625,-0.2760920524597168
-0.1311961114406585,0.8836429715156555,-0.0273368507623672,-0.3754341304302215,-0.238082468509674,0.1091528981924057,0.0,0.0,-0.8579709529876709,-0.3223828077316284
-0.1314065009355545,0.8749498724937439,-0.0264834407716989,-0.3854894638061523,-0.2325561642646789,0.1105259507894516,0.0,0.0,-0.8074531555175781,0.7131329774856567
-0.1315555572509765,0.8660097718238831,-0.019065823405981,-0.3966910243034363,-0.2283414006233215,0.0842955410480499,0.0,0.0,-0.8212571740150452,-0.1045675277709961
-0.1316955536603927,0.8568433523178101,-0.0182289239019155,-0.4067454040050506,-0.2240576148033142,0.085675872862339,0.0,0.0,-0.9510871767997742,0.3632946014404297
-0.1318265944719314,0.8474507331848145,-0.0174021404236555,-0.4167999029159546,-0.2197053581476211,0.0870452374219894,0.0,0.0,-0.5306469798088074,-0.2407064437866211
-0.1319486647844314,0.8378321528434753,-0.0165866129100322,-0.4268544614315033,-0.2152856588363647,0.0883938297629356,0.0,0.0,-0.7059234380722046,-0.6470285058021545
-0.1321077346801757,0.8279964923858643,-0.0215020701289176,-0.4363327026367187,-0.2096348404884338,0.1130160540342331,0.0,0.0,-0.9845529198646544,0.5220719575881958
-0.1322075873613357,0.8179230093955994,-0.0143631864339113,-0.4471047222614288,-0.2052202224731445,0.088292509317398,0.0,0.0,-0.9846130609512328,-0.4324828386306762
-0.1322991400957107,0.8076231479644775,-0.0135884983465075,-0.4571595191955566,-0.2007442712783813,0.0895191505551338,0.0,0.0,-0.7574325799942017,-0.825838565826416
-0.1324297934770584,0.7971216440200806,-0.0188360810279846,-0.4659648537635803,-0.1949370354413986,0.1161448508501052,0.0,0.0,-0.978147029876709,0.5156869888305664
-0.1325074136257171,0.7863806486129761,-0.0124330008402466,-0.4767641723155975,-0.1902418881654739,0.0939028710126876,0.0,0.0,-0.8085736036300659,0.3192596435546875
-0.1325773298740387,0.7754137516021729,-0.011710425838828,-0.4868194460868835,-0.1854960322380066,0.0949172303080558,0.0,0.0,-0.9739221930503844,0.2608317136764526
-0.1326396912336349,0.7642207145690918,-0.0110078323632478,-0.4968748688697815,-0.1807039976119995,0.095840647816658,0.0,0.0,-0.9789427518844604,0.199478268623352
-0.1326947212219238,0.7528018355369568,-0.0103265745565295,-0.506930410861969,-0.1758708357810974,0.0966629460453987,0.0,0.0,-0.9950555562973022,0.1399917602539062
-0.1327428817749023,0.7411568760871887,-0.0096680307760834,-0.516986072063446,-0.1710021197795868,0.0973743051290512,0.0,0.0,-0.986774206161499,-0.2039084434509277
-0.1327842772006988,0.7292858958244324,-0.0090335980057716,-0.5270418524742126,-0.1661039143800735,0.0979644507169723,0.0,0.0,-0.9602256417274476,-0.0077674388885498
-0.132819265127182,0.7171890735626221,-0.0084246983751654,-0.5370978116989136,-0.1611827313899994,0.0984235629439354,0.0,0.0,-0.9912292957305908,-0.2258228659629821
-0.1328482627868652,0.7048662304878235,-0.0078427735716104,-0.5471538305282593,-0.1562456637620926,0.0987416803836822,0.0,0.0,-0.9788122177124025,0.2162208557128906
-0.1328716278076172,0.6923173666000366,-0.0072892783209681,-0.5572100281715393,-0.1513002216815948,0.0989091023802757,0.0,0.0,-0.9705211520195008,0.0477300882339477
-0.1328897476196289,0.6795427203178406,-0.0067656794562935,-0.5672663450241089,-0.1463544070720672,0.098916158080101,0.0,0.0,-0.980725347995758,0.0392975807189941
-0.132902905344963,0.6665422320365906,-0.0062734498642385,-0.5773227214813232,-0.1414167582988739,0.098753273487091,0.0,0.0,-0.9950097799301147,0.0489013195037841
