x_pos,y_pos,x_vel,y_vel,angle,ang_vel,leg_1,leg_2,main_booster,lat_booster
-0.0015809058677405,1.403473138809204,-0.1607531607151031,-0.3309728801250458,0.0023806046228855,0.0470056869089603,0.0,0.0,-0.0575760602951049,0.6924986839294434
-0.003159713698551,1.395895004272461,-0.1592724770307541,-0.3368062078952789,0.0037601925432682,0.0275949425995349,0.0,0.0,-0.1058164834976196,0.8905489444732666
-0.0047086714766919,1.388159155845642,-0.1546458452939987,-0.3438132405281067,0.0035080695524811,-0.0050428993999958,0.0,0.0,0.0634845495223999,0.2546429634094238
-0.0063901902176439,1.3807541131973269,-0.1680210381746292,-0.3291153907775879,0.0033808113075792,-0.0025452456902712,0.0,0.0,-0.1567416191101074,0.5230456590652466
-0.0080754281952977,1.3731995820999146,-0.16758494079113,-0.335754930973053,0.0024607789237052,-0.0184024237096309,0.0,0.0,0.1456584930419922,0.7314050197601318
-0.0096481321379542,1.3660584688186646,-0.1554356217384338,-0.3173853456974029,0.0006524245836772,-0.0361705869436264,0.0,0.0,-0.2305203676223755,0.6728788614273071
-0.0112207410857081,1.3587660789489746,-0.1545565277338028,-0.3241097331047058,-0.0020373051520437,-0.0537994094192981,0.0,0.0,-0.2518939971923828,0.0560669898986816
-0.0128433229401707,1.3513225317001345,-0.1599012911319732,-0.330830305814743,-0.0043599940836429,-0.046457827091217,0.0,0.0,-0.5376705527305603,0.6895707845687866
-0.0144608495756983,1.3437349796295166,-0.1583898365497589,-0.3372394740581512,-0.0076904585584998,-0.0666152983903884,0.0,0.0,-0.629787027835846,0.1937044858932495
-0.0161251071840524,1.335996150970459,-0.1633622795343399,-0.343962550163269,-0.0107268029823899,-0.0607324242591857,0.0,0.0,0.2408816814422607,0.8930337429046631
-0.0176845546811819,1.328774333000183,-0.1514000296592712,-0.3210091590881347,-0.0152243236079812,-0.0899585336446762,0.0,0.0,0.0644218921661377,0.0597506761550903
-0.0192365646362304,1.321910738945007,-0.1510953605175018,-0.3050959408283233,-0.0192909855395555,-0.0813404768705368,0.0,0.0,-0.6791406273841858,0.428887128829956
-0.0208301544189453,1.3148961067199707,-0.1554222851991653,-0.3118210732936859,-0.0231850184500217,-0.0778877586126327,0.0,0.0,-0.797697126865387,0.1721220016479492
-0.0224632266908884,1.3077304363250732,-0.1595101356506347,-0.3185427784919739,-0.0269482675939798,-0.0752715617418289,0.0,0.0,-0.6255815029144287,0.0332159996032714
-0.0241338722407817,1.3004136085510254,-0.1633464694023132,-0.325266420841217,-0.0306238587945699,-0.0735185369849205,0.0,0.0,-0.479783296585083,0.6812019348144531
-0.0257763862609863,1.292934775352478,-0.1589681208133697,-0.3325080275535583,-0.0358538404107093,-0.1046090871095657,0.0,0.0,-0.4969589710235595,0.1692332029342651
-0.0274518020451068,1.2853050231933594,-0.1622576415538787,-0.3392329812049866,-0.0410825945436954,-0.1045845970511436,0.0,0.0,-0.1728537082672119,0.5322470664978027
-0.0291058532893657,1.2775168418884275,-0.158757746219635,-0.3463375270366668,-0.0476622693240642,-0.1316051185131073,0.0,0.0,-0.693093478679657,0.6511490345001221
-0.0307279583066701,1.2695798873901367,-0.1539495885372162,-0.3530297577381134,-0.055828858166933,-0.1633465588092804,0.0,0.0,-0.8636796474456787,0.1663172245025634
-0.0323749557137489,1.2614928483963013,-0.1563268154859542,-0.3597590029239654,-0.0641242489218711,-0.1659230440855026,0.0,0.0,-0.5850671529769897,0.3817856311798095
-0.0340441688895225,1.2532553672790527,-0.1583801507949829,-0.3664890229701996,-0.0725913494825363,-0.1693570911884308,0.0,0.0,-0.8291726112365723,0.5507125854492188
-0.0356885902583599,1.2448601722717283,-0.154559701681137,-0.3736273944377899,-0.0823888778686523,-0.1959683448076248,0.0,0.0,-0.85694420337677,0.0503424406051635
-0.0373491272330284,1.236315131187439,-0.1559301018714904,-0.3803610205650329,-0.0924384593963623,-0.2010092735290527,0.0,0.0,-0.9083533883094788,0.8750388622283936
-0.0389464385807514,1.2276006937026978,-0.1473579853773117,-0.3881229758262634,-0.1047283113002777,-0.245819091796875,0.0,0.0,-0.8470257520675659,0.3028243780136108
-0.0405533798038959,1.218737244606018,-0.1480105966329574,-0.3948635160923004,-0.1173456162214279,-0.2523688077926636,0.0,0.0,-0.8640387654304504,-0.244768738746643
-0.0421685203909873,1.2097041606903076,-0.1484647095203399,-0.4025531113147735,-0.1303284913301468,-0.2596576511859894,0.0,0.0,-0.7497095465660095,-0.3215174674987793
-0.0437870994210243,1.2005226612091064,-0.1484181582927703,-0.4092922806739807,-0.1437115520238876,-0.2676613628864288,0.0,0.0,-0.7600362300872803,-0.5187464356422424
-0.0454543121159076,1.191209077835083,-0.1541531383991241,-0.4151975512504577,-0.1562624126672744,-0.2510173618793487,0.0,0.0,-0.8922888040542603,-0.3840506076812744
-0.0471179969608783,1.1817474365234375,-0.1533604562282562,-0.4219374060630798,-0.1692768335342407,-0.2602882981300354,0.0,0.0,-0.5594552159309387,-0.4843487739562988
-0.0487747192382812,1.172137975692749,-0.1521943360567093,-0.4286790788173675,-0.1827838271856308,-0.2701397538185119,0.0,0.0,-0.9259251952171326,-0.7479037046432495
-0.05047607421875,1.1624045372009275,-0.157631903886795,-0.4341820180416107,-0.1953516602516174,-0.2513567209243774,0.0,0.0,-0.8078635931015015,-0.8631904125213623
-0.0522397048771381,1.152540922164917,-0.1652859598398208,-0.4398916065692901,-0.2065109312534332,-0.2231852710247039,0.0,0.0,-0.5312162637710571,-0.3794752359390259
-0.0539859756827354,1.142529010772705,-0.1630138903856277,-0.4466323554515838,-0.2182396203279495,-0.2345735281705856,0.0,0.0,-0.9919450283050536,-0.6950767040252686
-0.0557717308402061,1.1323829889297483,-0.1679282784461975,-0.4525472521781921,-0.2290173768997192,-0.2155553549528122,0.0,0.0,-0.6298443078994751,-0.7222649455070496
-0.0575872436165809,1.1221094131469729,-0.1717229038476944,-0.4581676125526428,-0.2389899343252182,-0.1994507163763046,0.0,0.0,-0.8319544792175293,-0.484984278678894
-0.0593754760921001,1.1116877794265747,-0.1684000790119171,-0.464909017086029,-0.2495941668748855,-0.2120846211910247,0.0,0.0,-0.8628724813461304,-0.6920313239097595
-0.0611890777945518,1.1011362075805664,-0.1717552691698074,-0.4706237614154815,-0.2593917548656463,-0.1959514915943145,0.0,0.0,-0.9507670402526855,-0.6257928013801575
-0.0630131736397743,1.0904594659805298,-0.1733263283967971,-0.4761638343334198,-0.2686650454998016,-0.1854656338691711,0.0,0.0,-0.8707301020622253,-0.8261286020278931
-0.0648658722639083,1.0796711444854736,-0.177308976650238,-0.4809661507606506,-0.276828408241272,-0.16326704621315,0.0,0.0,-0.7274650931358337,-0.5562558174133301
-0.0667194351553917,1.0687527656555176,-0.1777795702219009,-0.4867183566093445,-0.2846114039421081,-0.155659943819046,0.0,0.0,-0.7547006607055664,-0.4735822677612304
-0.0685311332345008,1.0576865673065186,-0.1729126423597335,-0.4934606254100799,-0.2931027114391327,-0.169825941324234,0.0,0.0,0.0702368021011352,-0.8203732371330261
-0.0701731666922569,1.0469456911087036,-0.1569198071956634,-0.478859931230545,-0.3006206750869751,-0.1503596603870391,0.0,0.0,-0.9680783748626708,-0.889566957950592
-0.0718262642621994,1.0360738039016724,-0.1587972491979599,-0.4845580160617828,-0.3073619902133941,-0.1348261535167694,0.0,0.0,-0.7011953592300415,-0.7492749094963074
-0.0734772682189941,1.0250751972198486,-0.1591140925884246,-0.4901123642921448,-0.3135717511177063,-0.1241954937577247,0.0,0.0,-0.6837758421897888,-0.8577519655227661
-0.0751474350690841,1.013952374458313,-0.1621057689189911,-0.4954151511192322,-0.3186762630939483,-0.1020899564027786,0.0,0.0,-0.8183912634849548,-0.7014818787574768
-0.076813980937004,1.0026991367340088,-0.1622804254293441,-0.5011152625083923,-0.3232255280017853,-0.0909855663776397,0.0,0.0,-0.1929852962493896,-0.7932860255241394
-0.0784790068864822,0.9913207292556764,-0.1627965122461319,-0.5065411925315857,-0.327090859413147,-0.0773069187998771,0.0,0.0,-0.5754297375679016,-0.8018676042556763
-0.0801555663347244,0.979838728904724,-0.1650826036930084,-0.5108962655067444,-0.3297769129276275,-0.0537213310599327,0.0,0.0,0.1914926767349243,-0.799586832523346
-0.0817504897713661,0.9691060185432434,-0.1576609313488006,-0.477429062128067,-0.3316842913627624,-0.0381471253931522,0.0,0.0,0.3492090702056885,-0.4862955212593078
-0.0831656455993652,0.9588230848312378,-0.1388604938983917,-0.457631915807724,-0.3344582021236419,-0.0554782375693321,0.0,0.0,-0.7658393383026123,-0.3728858232498169
-0.0845185294747352,0.9483925104141236,-0.1318742632865905,-0.4643750190734863,-0.3380241692066192,-0.0713193044066429,0.0,0.0,-0.626002311706543,-0.0188474655151367
-0.0858076065778732,0.9378144145011902,-0.1247432231903076,-0.4711189270019531,-0.3423872292041778,-0.0872606486082077,0.0,0.0,-0.7785710096359253,-0.8481377363204956
-0.0870841965079307,0.9271119236946106,-0.1240802556276321,-0.4765177965164184,-0.3461357951164245,-0.0749712735414505,0.0,0.0,-0.771687388420105,-0.8560965061187744
-0.088355541229248,0.9163033962249756,-0.1244718432426452,-0.4810182154178619,-0.3489362001419067,-0.056008119136095,0.0,0.0,-0.6700922846794128,-0.8104332089424133
-0.0896053314208984,0.9053692817687988,-0.1227296814322471,-0.4865090250968933,-0.351299524307251,-0.0472661927342414,0.0,0.0,-0.930100679397583,-0.9106263518333436
-0.0908656120300293,0.8943268656730652,-0.125052660703659,-0.4910178184509277,-0.3523168861865997,-0.0203473195433616,0.0,0.0,-0.7253051400184631,-0.7513455748558044
-0.092101477086544,0.8831690549850464,-0.1230947002768516,-0.4960243999958038,-0.3528420031070709,-0.0105024464428424,0.0,0.0,-0.0335562825202941,-0.967417061328888
-0.0933212265372276,0.8718978762626648,-0.1221533045172691,-0.5008977651596069,-0.3526521027088165,0.0037977639585733,0.0,0.0,0.3866541385650635,-0.9261501431465148
-0.0942298918962478,0.8614614605903625,-0.0921312049031257,-0.4635310173034668,-0.3513189554214477,0.0266629550606012,0.0,0.0,0.0287812948226928,-0.9100606441497804
-0.0950164794921875,0.8516402840614319,-0.0809509828686714,-0.4359420239925384,-0.3489179611206054,0.0480196326971054,0.0,0.0,-0.7720740437507629,-0.4955516457557678
-0.0957305878400802,0.8416716456413269,-0.0729115083813667,-0.4426868855953216,-0.3473436236381531,0.0314868353307247,0.0,0.0,-0.1667450070381164,-0.9203572869300842
-0.0964497551321983,0.8316031098365784,-0.0747290104627609,-0.4468105435371399,-0.3443920910358429,0.0590305402874946,0.0,0.0,-0.3895095586776733,-0.7435478568077087
-0.0971393585205078,0.8214089870452881,-0.0721325427293777,-0.4523122012615204,-0.3410625159740448,0.0665915757417678,0.0,0.0,-0.2989953756332397,-0.6757676601409912
-0.0978025421500206,0.8110941648483276,-0.0699678435921669,-0.4575763344764709,-0.3372345864772796,0.0765583664178848,0.0,0.0,-0.2893657684326172,-0.731242835521698
-0.0984456092119216,0.8006551265716553,-0.0685797780752182,-0.4629665911197662,-0.3327697217464447,0.0892970412969589,0.0,0.0,0.4449226856231689,-0.8648539185523987
-0.099024198949337,0.7908953428268433,-0.0629056245088577,-0.4326188862323761,-0.3275084495544433,0.1052250266075134,0.0,0.0,-0.8168243765830994,-0.5173516273498535
-0.0995629280805587,0.781012773513794,-0.0591053739190101,-0.4380472302436828,-0.3220576345920563,0.109016552567482,0.0,0.0,-0.8670598268508911,-0.8375242948532104
-0.1000817269086837,0.7710006237030029,-0.0577275827527046,-0.4436980187892914,-0.3159785270690918,0.12158203125,0.0,0.0,-0.8802394866943359,-0.8238193988800049
-0.1005808860063552,0.7608790397644043,-0.0565198436379432,-0.4484210312366485,-0.3091230094432831,0.1371103674173355,0.0,0.0,-0.8236355781555176,0.0022727251052856
-0.1010032668709755,0.7506101131439209,-0.048044316470623,-0.4551669061183929,-0.3031066656112671,0.1203264370560646,0.0,0.0,-0.7547708749771118,-0.0205796957015991
-0.1013484969735145,0.7401938438415527,-0.0395373255014419,-0.461911529302597,-0.2979302406311035,0.1035285964608192,0.0,0.0,-0.9686142206192015,-0.6552496552467346
-0.1016630157828331,0.7296527028083801,-0.0368828028440475,-0.4673938751220703,-0.2923284471035003,0.1120358854532241,0.0,0.0,-0.8874975442886353,-0.7073705196380615
-0.1019631400704383,0.7190008163452148,-0.0363390259444713,-0.4721615016460418,-0.2858146727085113,0.1302755177021026,0.0,0.0,-0.9720054268836976,-0.5815615653991699
-0.1022240668535232,0.7082186341285706,-0.0326209403574466,-0.4779521822929382,-0.2791055142879486,0.1341831982135772,0.0,0.0,-0.978900134563446,-0.9006083607673645
-0.102480411529541,0.697313129901886,-0.0332251973450183,-0.4832615256309509,-0.2713155448436737,0.1557995975017547,0.0,0.0,-0.9333757162094116,0.1010591983795166
-0.1026584655046463,0.6862599849700928,-0.0245995633304119,-0.4900060594081878,-0.2643672525882721,0.1389655768871307,0.0,0.0,-0.9948946833610536,-0.4066711068153381
-0.1027583107352256,0.6750592589378357,-0.0159556064754724,-0.4967491030693054,-0.2582606971263885,0.1221312284469604,0.0,0.0,-0.9494943022727966,-0.5335224270820618
-0.1028200164437294,0.6637314558029175,-0.0124086970463395,-0.502368688583374,-0.2518972754478454,0.1272688955068588,0.0,0.0,-0.9734002947807312,-0.1131803393363952
-0.1028031334280967,0.6522558927536011,-0.0037337667308747,-0.5091102719306946,-0.2463752329349517,0.1104406118392944,0.0,0.0,-0.8914827108383179,-0.6710993051528931
-0.1027672737836837,0.6406615972518921,-0.0026060261297971,-0.5142740607261658,-0.2400804758071899,0.1258955001831054,0.0,0.0,-0.9686353802680968,0.0475368499755859
-0.1026526466012001,0.628919243812561,0.0060935942456126,-0.5210148096084595,-0.2346263527870178,0.1090826019644737,0.0,0.0,-0.9714417457580566,0.3118624687194824
-0.1024591475725174,0.617028534412384,0.0148037765175104,-0.5277543663978577,-0.2300122827291488,0.0922810807824134,0.0,0.0,-0.9728546738624572,-0.7866203188896179
-0.1022572517395019,0.6050143241882324,0.0146346110850572,-0.5331084132194519,-0.2243851572275161,0.1125427633523941,0.0,0.0,-0.9700305461883544,-0.4722704887390136
-0.1019762009382247,0.5928517580032349,0.0233614481985569,-0.5398473143577576,-0.2195965647697448,0.0957717150449752,0.0,0.0,-0.992975890636444,-0.268618106842041
-0.1016162857413292,0.5805405974388123,0.0320950932800769,-0.546585202217102,-0.2156455665826797,0.0790200978517532,0.0,0.0,-0.961158275604248,-0.5529248118400574
-0.1012134552001953,0.568092942237854,0.0362479723989963,-0.5526479482650757,-0.2115793228149414,0.0813252404332161,0.0,0.0,-0.9744739532470704,0.010915994644165
-0.1007315665483474,0.5554965734481812,0.0449914969503879,-0.5593847632408142,-0.2083482891321182,0.0646208450198173,0.0,0.0,-0.9276217818260192,-0.506109356880188
-0.1002039909362793,0.5427582263946533,0.0495271645486354,-0.5656958222389221,-0.2050927728414535,0.0651104524731636,0.0,0.0,-0.9436622262001038,-0.7502705454826355
-0.099641129374504,0.5298845767974854,0.0527604334056377,-0.5716759562492371,-0.2015298306941986,0.0712585300207138,0.0,0.0,-0.9536844491958618,-0.7918339371681213
-0.099046804010868,0.5168706178665161,0.0555083975195884,-0.5778697729110718,-0.1975787878036499,0.0790207833051681,0.0,0.0,-0.7321310639381409,-0.7953393459320068
-0.0984345450997352,0.5037322640419006,0.0565155148506164,-0.5833097100257874,-0.192839577794075,0.094784215092659,0.0,0.0,-0.4119957685470581,-0.5684458613395691
-0.0977842360734939,0.4904614686965942,0.0600630640983581,-0.5891731977462769,-0.1878411620855331,0.0999683588743209,0.0,0.0,-0.3660376071929931,-0.708943784236908
-0.0970978736877441,0.4770569205284118,0.0633564740419387,-0.5950974822044373,-0.1825365722179412,0.1060919314622879,0.0,0.0,-0.3775327205657959,-0.7640239596366882
-0.0963826179504394,0.4635094106197357,0.0657915100455284,-0.6014201045036316,-0.1767828464508056,0.1150748282670974,0.0,0.0,-0.4272914528846741,-0.6531860828399658
-0.0956434234976768,0.4498259127140045,0.067566230893135,-0.6074105501174927,-0.1704252362251281,0.1271521598100662,0.0,0.0,0.3659591674804687,-0.7451828718185425
-0.0946839302778244,0.4370521008968353,0.0888061448931694,-0.5669246315956116,-0.1632710844278335,0.1430830657482147,0.0,0.0,-0.6060357689857483,-0.5056365132331848
-0.0936862006783485,0.4241393804550171,0.0923852771520614,-0.5731031894683838,-0.1558776497840881,0.147868350148201,0.0,0.0,-0.3079221248626709,-0.7098633646965027
-0.0926753059029579,0.4111001789569855,0.0927687659859657,-0.5786739587783813,-0.1475752145051956,0.1660486012697219,0.0,0.0,0.053715705871582,-0.4078376293182373
-0.0914649963378906,0.3985602557659149,0.1132591813802719,-0.55657958984375,-0.1398208141326904,0.1550883948802948,0.0,0.0,-0.5115983486175537,-0.6172581315040588
-0.0902277007699012,0.3858869075775146,0.115391656756401,-0.5624979138374329,-0.1315211802721023,0.165992796421051,0.0,0.0,-0.3036483526229858,-0.6574379205703735
-0.0889697074890136,0.3730810582637787,0.1167601943016052,-0.5683759450912476,-0.1225212961435318,0.1799973100423813,0.0,0.0,0.1541734933853149,-0.3591521978378296
-0.0876074805855751,0.3606474101543426,0.1280446648597717,-0.551958441734314,-0.1143923997879028,0.1625779122114181,0.0,0.0,-0.470588743686676,-0.6609963774681091
-0.0862284675240516,0.3480759263038635,0.1289264857769012,-0.558066725730896,-0.1054737493395805,0.1783730238676071,0.0,0.0,-0.0981160998344421,-0.5709786415100098
-0.0848269462585449,0.3353631794452667,0.1305145621299743,-0.5643604397773743,-0.0959112271666526,0.1912502199411392,0.0,0.0,0.156193733215332,-0.2272390127182006
-0.0832248702645301,0.3232415318489074,0.1509910374879837,-0.5381736755371094,-0.0867782309651374,0.1826598793268203,0.0,0.0,-0.459148645401001,-0.4668397903442383
-0.0815443992614746,0.3109706044197082,0.1595965474843979,-0.5449069738388062,-0.0784104391932487,0.1673561036586761,0.0,0.0,0.2869601249694824,-0.3794651627540588
-0.0796264633536338,0.2994256019592285,0.1835733354091644,-0.5127033591270447,-0.0702775195240974,0.1626585125923156,0.0,0.0,-0.0997452139854431,-0.1883718371391296
-0.0776306167244911,0.2877308130264282,0.1921315342187881,-0.5194340944290161,-0.0628936514258384,0.1476772427558899,0.0,0.0,0.0097337961196899,-0.3067423701286316
-0.0754368752241134,0.2766597867012024,0.2122420966625213,-0.4917640686035156,-0.055846482515335,0.1409433931112289,0.0,0.0,0.1483650207519531,-0.5471675992012024
-0.073127843439579,0.266040951013565,0.2233022153377533,-0.4716852903366089,-0.0483332872390747,0.150263711810112,0.0,0.0,-0.0811930894851684,-0.7362433075904846
-0.0708001106977462,0.2552838027477264,0.2244038879871368,-0.477848082780838,-0.0400560349225997,0.1655448377132415,0.0,0.0,0.266101598739624,-0.5493573546409607
-0.0683633834123611,0.2452857345342636,0.2347927987575531,-0.4441452920436859,-0.0312886796891689,0.1753469705581665,0.0,0.0,0.0592889785766601,-0.7641561627388
-0.0658413916826248,0.2355748564004898,0.2424486577510833,-0.4314213693141937,-0.0216623656451702,0.1925265491008758,0.0,0.0,0.4022518396377563,-0.8175323009490967
-0.0634130463004112,0.2265084832906723,0.2322790175676345,-0.4028273820877075,-0.0112430192530155,0.2083865851163864,0.0,0.0,-0.4176837205886841,-0.6878967881202698
-0.0609745979309082,0.217291846871376,0.2322903573513031,-0.4095761477947235,0.0001669526100158,0.2281992882490158,0.0,0.0,-0.1911525130271911,-0.7749395966529846
-0.0585238449275493,0.2079254984855651,0.2325663119554519,-0.4163285791873932,0.0125193009153008,0.2470466792583465,0.0,0.0,0.1420388221740722,-0.8383657336235046
-0.0560478195548057,0.1989607661962509,0.2340410649776458,-0.3986013233661651,0.0259123966097831,0.2678620517253876,0.0,0.0,-0.1213221549987793,-0.7454837560653687
-0.0535428039729595,0.1898384690284729,0.2363825738430023,-0.4057383239269256,0.0398469865322113,0.2786917388439178,0.0,0.0,0.4257405996322632,-0.8369067311286926
-0.0509584434330463,0.1814573109149933,0.243131011724472,-0.3729726076126098,0.0549635626375675,0.3023313879966736,0.0,0.0,-0.562371551990509,-0.846052885055542
-0.0483647361397743,0.1729305386543274,0.2430426627397537,-0.3796442151069641,0.0711097866296768,0.3229246139526367,0.0,0.0,-0.1206932067871093,-0.347914457321167
