x_pos,y_pos,x_vel,y_vel,angle,ang_vel,leg_1,leg_2,main_booster,lat_booster
-0.0015051842201501,1.403313159942627,-0.1524730026721954,-0.3380884230136871,0.0017484835116192,0.0344895273447036,0.0,0.0,-0.1308716197074471,-0.9746108865270776
-0.0030625343788415,1.395413160324097,-0.1592141091823578,-0.3511199355125427,0.0051992661319673,0.0690227821469307,0.0,0.0,-0.8166562683444463,0.6973254860462366
-0.0045351982116699,1.3871967792510986,-0.1490357369184494,-0.3651781678199768,0.00694649387151,0.0349476486444473,0.0,0.0,-0.256101627108984,0.758238174786385
-0.0059428215026855,1.3786669969558716,-0.14129039645195,-0.3791018724441528,0.0074695539660751,0.0104623204097151,0.0,0.0,0.8855029966316887,0.9171712396521888
-0.0071045877411961,1.3709477186203003,-0.1151625514030456,-0.3430744409561157,0.0064705344848334,-0.0199824664741754,0.0,0.0,-0.250205271036964,0.7114351861959125
-0.0081812860444188,1.3629164695739746,-0.1048984378576278,-0.3569298684597015,0.0037158105988055,-0.0550994649529457,0.0,0.0,0.5575411584144228,0.6041016337469516
-0.009220028296113,1.3553911447525024,-0.099789947271347,-0.3344603478908539,-0.0003223409003112,-0.0807705372571945,0.0,0.0,-0.6742527888646608,-0.5630032263034142
-0.0102770803496241,1.3475559949874878,-0.1024345755577087,-0.348232239484787,-0.0035560736432671,-0.0646803453564643,0.0,0.0,-0.1386782364124894,0.6680350336222363
-0.011268138885498,1.339416742324829,-0.094491608440876,-0.3617603480815887,-0.0081254802644252,-0.0913962572813034,0.0,0.0,0.6153940321789795,-0.9997673711834072
-0.0123194698244333,1.3320388793945312,-0.1024641990661621,-0.3279213905334472,-0.0107565643265843,-0.0526262708008289,0.0,0.0,0.874595650026855,-0.8401907331683292
-0.0133094787597656,1.3253611326217651,-0.0982070192694664,-0.2967931926250458,-0.0115440431982278,-0.0157514326274395,0.0,0.0,0.7512144221138701,0.7964619544023932
-0.0141359325498342,1.3192076683044434,-0.0803684666752815,-0.2735043168067932,-0.0137912863865494,-0.0449489876627922,0.0,0.0,-0.9607212068609834,0.5052062775008133
-0.0149025917053222,1.3127446174621582,-0.0731058344244957,-0.2872864902019501,-0.0173092782497406,-0.0703663527965545,0.0,0.0,-0.98128042273282,-0.8458831031805585
-0.0157179832458496,1.3059639930725098,-0.0794174596667289,-0.3013872802257538,-0.0193996094167232,-0.0418102480471134,0.0,0.0,0.8746807199303155,0.9387128052965146
-0.0162539482116699,1.3002774715423584,-0.0498646683990955,-0.2527887523174286,-0.023095428943634,-0.073923535645008,0.0,0.0,-0.8613871760766652,-0.6748713971780953
-0.016825009137392,1.294273018836975,-0.0544062852859497,-0.2669077217578888,-0.0257608350366354,-0.0533130653202533,0.0,0.0,0.3766658839402301,-0.8626845430014145
-0.0173074714839458,1.2890338897705078,-0.0473636426031589,-0.232864111661911,-0.0266351923346519,-0.0174885969609022,0.0,0.0,0.9618528536850246,-0.7730881547985772
-0.0176490787416696,1.2841391563415527,-0.0351867415010929,-0.2175339609384536,-0.0256191343069076,0.0203229561448097,0.0,0.0,0.31098475994939,-0.5935821431843848
-0.0179308895021677,1.2798922061920166,-0.0304978005588054,-0.1887140274047851,-0.0233311019837856,0.0457644835114479,0.0,0.0,0.7539897141081151,0.8195688941351197
-0.018223762512207,1.276235580444336,-0.0296844933182001,-0.162510484457016,-0.0229346100240945,0.0079304128885269,0.0,0.0,0.0289098974275492,-0.6653170028144677
-0.0184642784297466,1.2729732990264893,-0.0257964581251144,-0.144963726401329,-0.0212084893137216,0.0345256924629211,0.0,0.0,-0.0097229430886494,-0.767494973894339
-0.0187620166689157,1.2693971395492554,-0.0329420827329158,-0.1588919907808303,-0.0180768985301256,0.0626374930143356,0.0,0.0,-0.5934876490577805,0.7260299928235275
-0.0189888961613178,1.2655071020126345,-0.0239809397608041,-0.1728785634040832,-0.0167916491627693,0.0257072784006595,0.0,0.0,-0.7368836339745046,-0.663403815728593
-0.0192620269954204,1.2612996101379397,-0.0297055207192897,-0.1869799941778183,-0.014435239136219,0.0471324138343334,0.0,0.0,0.4127778193697666,0.714073464186705
-0.0196067802608013,1.257609724998474,-0.0350840203464031,-0.163985401391983,-0.0138263637199997,0.0121785998344421,0.0,0.0,0.212923254468464,-0.801796936590663
-0.0201325416564941,1.2543704509735107,-0.0545966103672981,-0.1439494639635086,-0.0118328807875514,0.039869736880064,0.0,0.0,-0.8085122343044517,-0.8887495755094315
-0.0207317359745502,1.2508268356323242,-0.0636054128408432,-0.1574704647064209,-0.008187860250473,0.0729002580046653,0.0,0.0,-0.7706527444160007,0.743923702132689
-0.0212894435971975,1.2469792366027832,-0.0581829324364662,-0.1709961146116256,-0.0058088824152946,0.0475795045495033,0.0,0.0,0.5057040461568099,-0.739105722735147
-0.0220391266047954,1.2438870668411257,-0.0785198882222175,-0.1374211460351944,-0.0023026573471724,0.0701247677206993,0.0,0.0,0.428452413290159,0.6845690102904801
-0.0227609630674123,1.241113305091858,-0.0742019712924957,-0.1232761368155479,-0.0003080570604652,0.03989202901721,0.0,0.0,0.9824591644673968,-0.6721446960194022
-0.0235199928283691,1.239559769630432,-0.0792264714837074,-0.0690477639436721,0.0029688265640288,0.0655378475785255,0.0,0.0,-0.9913292527198792,0.8918466567993164
-0.0242273323237895,1.2376900911331177,-0.0723696202039718,-0.0831008478999137,0.0045821806415915,0.0322670117020607,0.0,0.0,-0.9952670335769652,0.1497952938079834
-0.0249457359313964,1.235509157180786,-0.073348544538021,-0.0969372615218162,0.0060737770982086,0.0298319049179554,0.0,0.0,-0.9863677620887756,0.792680025100708
-0.0256201736629009,1.233010172843933,-0.067409336566925,-0.1110651642084121,0.0060318680480122,-0.0008381019579246,0.0,0.0,-0.9898404479026794,0.5102912187576294
-0.0262667648494243,1.230201244354248,-0.063428983092308,-0.1248331218957901,0.0048212325200438,-0.0242128167301416,0.0,0.0,-0.9958010911941528,0.894336462020874
-0.026855181902647,1.227088451385498,-0.0556259453296661,-0.1383420825004577,0.0016495432937517,-0.0634338706731796,0.0,0.0,-0.9912343621253968,0.0051822662353515
-0.0274595264345407,1.223664402961731,-0.0570883862674236,-0.1521791368722915,-0.0016529784770682,-0.0660503134131431,0.0,0.0,-0.989381730556488,0.6669716835021973
-0.0280247684568166,1.219934344291687,-0.0516257956624031,-0.1657958477735519,-0.0064984401687979,-0.0969090461730957,0.0,0.0,-0.9748228192329408,0.0216950178146362
-0.0286084171384573,1.215893268585205,-0.0533203072845935,-0.1796341240406036,-0.011478504166007,-0.0996012538671493,0.0,0.0,-0.9974461197853088,0.290311336517334
-0.0292116161435842,1.2115410566329956,-0.0551273897290229,-0.1934725791215896,-0.0165948756039142,-0.1023276448249816,0.0,0.0,-0.9759843349456788,0.1169862747192382
-0.0298353191465139,1.2068781852722168,-0.057044394314289,-0.2073111981153488,-0.0218491461127996,-0.105085514485836,0.0,0.0,-0.9729615449905396,0.6081006526947021
-0.0304225925356149,1.2019011974334717,-0.0517963543534278,-0.2213170677423477,-0.0287001430988311,-0.1370199024677276,0.0,0.0,-0.991769015789032,0.3644250631332397
-0.0310326572507619,1.1966135501861572,-0.0539244599640369,-0.2351575791835785,-0.0356917791068553,-0.1398326754570007,0.0,0.0,-0.9793684482574464,-0.7058995962142944
-0.0317130088806152,1.191016435623169,-0.0620064735412597,-0.2489233165979385,-0.0416527949273586,-0.1192203015089035,0.0,0.0,-0.9654005169868468,-0.0440593361854553
-0.0324181541800498,1.1851084232330322,-0.0643327087163925,-0.2627630233764648,-0.0477566644549369,-0.1220775991678237,0.0,0.0,-0.9803958535194396,0.3516374826431274
-0.03314895555377,1.1788896322250366,-0.06675286591053,-0.276602953672409,-0.0540043115615844,-0.1249529123306274,0.0,0.0,-0.9918001294136048,0.6915596723556519
-0.0338461883366107,1.172351598739624,-0.0617251619696617,-0.2908832132816314,-0.0619129128754138,-0.1581720858812332,0.0,0.0,-0.9848003387451172,0.6319328546524048
-0.034529972821474,1.1655064821243286,-0.0592004656791687,-0.3046348989009857,-0.0709882900118827,-0.1815078109502792,0.0,0.0,-0.9913357496261596,-0.6623687744140625
-0.0353054031729698,1.1583638191223145,-0.0698594227433204,-0.3178401589393616,-0.0785983800888061,-0.1522015333175659,0.0,0.0,-0.8558337688446045,-0.4951071739196777
-0.0361099243164062,1.15091073513031,-0.0726193338632583,-0.3316822350025177,-0.0863543823361396,-0.1551202237606048,0.0,0.0,-0.7666017413139343,0.1152702569961547
-0.0369441993534565,1.1431472301483154,-0.0754550397396087,-0.3455245792865753,-0.0942564979195594,-0.1580423712730407,0.0,0.0,-0.9587706327438354,-0.4283091425895691
-0.0378089919686317,1.13507342338562,-0.0783629566431045,-0.3593672215938568,-0.1023047566413879,-0.1609649658203125,0.0,0.0,-0.9462324380874634,-0.2408809661865234
-0.0387048721313476,1.1266894340515137,-0.081339530646801,-0.3732101023197174,-0.1104990020394325,-0.1638848185539245,0.0,0.0,-0.8848239183425903,-0.4050154685974121
-0.0396326072514057,1.117995262145996,-0.0843812674283981,-0.3870533406734466,-0.1188389435410499,-0.166798785328865,0.0,0.0,-0.978773593902588,0.3063573837280273
-0.040592860430479,1.1089909076690674,-0.0874847620725631,-0.4008968472480774,-0.127324104309082,-0.1697036176919937,0.0,0.0,-0.7961764931678772,-0.4502561092376709
-0.0415861122310161,1.0996763706207275,-0.0906466990709304,-0.4147406220436096,-0.1359539031982422,-0.1725959628820419,0.0,0.0,-0.9711438417434692,-0.2663782835006714
-0.0426128394901752,1.090051770210266,-0.0938638746738433,-0.4285847246646881,-0.1447275131940841,-0.1754723489284515,0.0,0.0,-0.5181400179862976,-0.2213172912597656
-0.0436734184622764,1.0801172256469729,-0.0971331968903541,-0.4424290955066681,-0.1536439657211303,-0.1783293634653091,0.0,0.0,-0.356819748878479,-0.597915530204773
-0.0448088645935058,1.0698882341384888,-0.1055288538336753,-0.4554725587368011,-0.16165092587471,-0.1601388752460479,0.0,0.0,-0.9334353804588318,-0.6090651750564575
-0.0460321418941021,1.059367299079895,-0.11556126922369,-0.4683517515659332,-0.1684215813875198,-0.1354127824306488,0.0,0.0,-0.7399536371231079,-0.6675976514816284
-0.0473390594124794,1.0485421419143677,-0.1250136494636535,-0.4817698299884796,-0.174110859632492,-0.1137855648994445,0.0,0.0,-0.8086510300636292,-0.51088547706604
-0.0487277992069721,1.0374212265014648,-0.1342602372169494,-0.494811087846756,-0.1787411719560623,-0.0926065519452095,0.0,0.0,0.8363221883773804,0.2342313528060913
-0.0499155037105083,1.026801586151123,-0.1146480590105056,-0.4724907875061035,-0.1828716844320297,-0.0826104059815406,0.0,0.0,-0.7297948002815247,-0.1416537165641784
-0.0511396415531635,1.0158710479736328,-0.118169829249382,-0.4863305389881134,-0.1871352642774582,-0.0852715969085693,0.0,0.0,-0.6817067265510559,-0.7410707473754883
-0.0524580962955951,1.0046404600143433,-0.128930389881134,-0.4995089471340179,-0.1900653839111328,-0.0586025044322013,0.0,0.0,-0.7423116564750671,-0.7962998151779175
-0.0538881309330463,0.9931207299232484,-0.1418739259243011,-0.5121274590492249,-0.1911963671445846,-0.0226198900490999,0.0,0.0,-0.8728110194206238,-0.8975637555122375
-0.0554212555289268,0.981320023536682,-0.1537976413965225,-0.524419903755188,-0.1907080262899398,0.0097667919471859,0.0,0.0,-0.9103994965553284,-0.8872119784355164
-0.0570528022944927,0.9692150354385376,-0.1650463938713073,-0.5377589464187622,-0.1888108551502227,0.0379434302449226,0.0,0.0,-0.8874784708023071,0.5342810153961182
-0.0586781501770019,0.9567925930023192,-0.1631921976804733,-0.5520210862159729,-0.1881490349769592,0.0132364826276898,0.0,0.0,-0.552922248840332,-0.2808629870414734
-0.0603415481746196,0.9440593123435974,-0.1668849885463714,-0.5658590793609619,-0.187602624297142,0.0109282778576016,0.0,0.0,-0.7096682786941528,0.8536453247070312
-0.0619866363704204,0.9310023188591005,-0.1634963452816009,-0.5804349184036255,-0.1886174380779266,-0.0202963929623365,0.0,0.0,-0.8393062353134155,0.2058740854263305
-0.0636701583862304,0.91763436794281,-0.1672321856021881,-0.5942728519439697,-0.1897398680448532,-0.0224485881626606,0.0,0.0,-0.8503890633583069,-0.171814739704132
-0.0653922110795974,0.9039553999900818,-0.1709872931241989,-0.608110785484314,-0.1909656226634979,-0.0245148874819278,0.0,0.0,-0.4833388328552246,-0.1795946359634399
-0.0671529769897461,0.8899654150009155,-0.1747603565454483,-0.6219486594200134,-0.1922901272773742,-0.0264901630580425,0.0,0.0,-0.7720490097999573,0.2312685251235962
-0.0689525604248046,0.8756641745567322,-0.17855004966259,-0.6357865929603577,-0.193708598613739,-0.0283690448850393,0.0,0.0,0.0073072910308837,-0.1204984784126281
-0.0707122832536697,0.8613317012786865,-0.1746613830327987,-0.637165904045105,-0.1950241029262542,-0.0263103879988193,0.0,0.0,-0.6955191493034363,0.7819737195968628
-0.0724546462297439,0.8466636538505554,-0.1713611781597137,-0.6522945165634155,-0.1979165077209472,-0.0578485205769538,0.0,0.0,-0.9397605657577516,-0.6216235756874084
-0.0742840766906738,0.8317047953605652,-0.1812580078840255,-0.6650674343109131,-0.19961678981781,-0.0340055897831916,0.0,0.0,-0.920016348361969,-0.8943217992782593
-0.0762115493416786,0.8164618611335754,-0.1925339698791504,-0.6774978637695312,-0.1998246908187866,-0.0041583487764,0.0,0.0,-0.8547186255455017,-0.5009960532188416
-0.0782235115766525,0.8009265065193176,-0.2021089494228363,-0.6903347373008728,-0.1989005655050277,0.0184823963791131,0.0,0.0,-0.3661980628967285,-0.700283408164978
-0.0803414359688758,0.7850928902626038,-0.2143523395061493,-0.7033739686012268,-0.1963315159082412,0.0513811483979225,0.0,0.0,-0.931580126285553,-0.4570156335830688
-0.0824987441301345,0.7689482569694519,-0.2182276248931884,-0.7172116637229919,-0.1938148289918899,0.0503337457776069,0.0,0.0,-0.4264765977859497,-0.2988449931144714
-0.0846952423453331,0.752492368221283,-0.2221112996339798,-0.7310491800308228,-0.1913434118032455,0.0494280308485031,0.0,0.0,-0.0421097874641418,-0.4382091760635376
-0.0869310349225997,0.7357255220413208,-0.2260025441646576,-0.7448864579200745,-0.1889099329710006,0.0486695915460586,0.0,0.0,-0.1876710653305053,-0.0534066557884216
-0.0892062187194824,0.7186473608016968,-0.2299005687236786,-0.7587236762046814,-0.186506763100624,0.0480638295412063,0.0,0.0,0.036313772201538,-0.335975706577301
-0.0913990959525108,0.7017807364463806,-0.2219134867191314,-0.7492979764938354,-0.1838729679584503,0.0526759251952171,0.0,0.0,-0.0403047204017639,0.0061579942703247
-0.0936311706900596,0.6846030354499817,-0.2258227318525314,-0.7631350159645081,-0.1812534034252166,0.0523914024233818,0.0,0.0,0.181464672088623,0.1861915588378906
-0.0957853347063064,0.6675208806991577,-0.2183256447315216,-0.7588504552841187,-0.1783328056335449,0.0584119968116283,0.0,0.0,0.5625742673873901,0.2822778224945068
-0.0977457985281944,0.6508880257606506,-0.1996079981327057,-0.7388209700584412,-0.1747657358646392,0.0713414624333381,0.0,0.0,0.2710237503051758,0.730320930480957
-0.0995176285505294,0.6343398690223694,-0.1794539093971252,-0.7352043390274048,-0.1724971532821655,0.0453715100884437,0.0,0.0,0.5202968120574951,0.5599377155303955
-0.1011712998151779,0.6184961199760437,-0.1665248870849609,-0.7040321230888367,-0.171341061592102,0.0231217183172702,0.0,0.0,-0.1241323351860046,0.4132797718048095
-0.1028639823198318,0.6023410558700562,-0.1704492717981338,-0.7178680300712585,-0.1701549291610717,0.0237223319709301,0.0,0.0,0.3132412433624267,0.2207275629043579
-0.1044081673026084,0.5866332650184631,-0.1560947597026825,-0.6979305148124695,-0.1684714555740356,0.0336694009602069,0.0,0.0,-0.1819690465927124,0.5203554630279541
-0.105944350361824,0.5705966353416443,-0.1541329622268676,-0.7126806378364563,-0.1679592579603195,0.0102437585592269,0.0,0.0,0.6415423154830933,0.2110501527786255
-0.1074861511588096,0.5550099015235901,-0.1545040160417556,-0.6927047967910767,-0.1676298379898071,0.0065884543582797,0.0,0.0,0.6564985513687134,0.1556271314620971
-0.1088383644819259,0.5403699278831482,-0.1360163390636444,-0.6505776643753052,-0.1668393909931183,0.0158094782382249,0.0,0.0,-0.6779806017875671,0.0684237480163574
-0.1102291122078895,0.5254185199737549,-0.1399376094341278,-0.6644129157066345,-0.1659704595804214,0.0173784010112285,0.0,0.0,0.5722696781158447,0.3255257606506347
-0.1116497963666915,0.5113048553466797,-0.1424785554409027,-0.6272285580635071,-0.1655609607696533,0.0081899929791688,0.0,0.0,-0.4824278354644775,0.6512660980224609
-0.113050177693367,0.4968682825565338,-0.1390553414821624,-0.6417327523231506,-0.1665441393852234,-0.0196632146835327,0.0,0.0,0.8476967811584473,-0.002512514591217
-0.1144084930419921,0.4833763539791107,-0.1346802413463592,-0.5997724533081055,-0.167695939540863,-0.0230361521244049,0.0,0.0,-0.3482096791267395,0.5798346996307373
-0.1157651916146278,0.4695669710636139,-0.1336403489112854,-0.6139774918556213,-0.169729009270668,-0.0406614206731319,0.0,0.0,0.4165987968444824,-0.4872815608978271
-0.117108441889286,0.456082820892334,-0.1323277652263641,-0.5995271801948547,-0.1717326194047927,-0.0400721691548824,0.0,0.0,0.2094873189926147,0.7406697273254395
-0.1184515953063964,0.4429483115673065,-0.1308608204126358,-0.5841580033302307,-0.1751896739006042,-0.0691412240266799,0.0,0.0,0.0545449256896972,0.7820746898651123
-0.1198228821158409,0.4300075471401214,-0.1322118192911148,-0.5757375955581665,-0.1801205426454544,-0.0986171960830688,0.0,0.0,-0.0913314819335937,0.0128315687179565
-0.1212311759591102,0.4167552888393402,-0.1360833197832107,-0.5895735621452332,-0.1848942637443542,-0.0954742804169654,0.0,0.0,0.3904696702957153,-0.5349147915840149
-0.122606560587883,0.4036409854888916,-0.1341431140899658,-0.5832822322845459,-0.1883018314838409,-0.0681513398885726,0.0,0.0,0.0069241523742675,-0.5548729300498962
-0.1238768547773361,0.3908889889717102,-0.1250635236501693,-0.5670076608657837,-0.190276563167572,-0.0394947007298469,0.0,0.0,-0.1974499225616455,0.2401976585388183
-0.1251836717128753,0.3778252005577087,-0.1288967132568359,-0.5808413028717041,-0.1920665651559829,-0.0358001179993152,0.0,0.0,0.3910372257232666,0.0532653331756591
-0.1262713372707367,0.3654745817184448,-0.1077379956841468,-0.5490502715110779,-0.1931073814630508,-0.0208165235817432,0.0,0.0,0.6389627456665039,-0.1818310022354126
-0.1272104233503341,0.3536368310451507,-0.093422032892704,-0.5261863470077515,-0.193596065044403,-0.0097735300660133,0.0,0.0,0.1215838193893432,0.6681129932403564
-0.1280313432216644,0.3422960937023163,-0.0804762989282608,-0.5042470097541809,-0.1952180415391922,-0.0324397794902324,0.0,0.0,0.724064826965332,-0.2502999901771545
-0.1286661177873611,0.3318344056606293,-0.0623721107840538,-0.4651107490062713,-0.1963288486003875,-0.0222158767282962,0.0,0.0,0.5572226047515869,-0.0610070824623107
-0.1291772872209549,0.3216743469238281,-0.050578523427248,-0.4516288638114929,-0.1968622356653213,-0.0106680756434798,0.0,0.0,0.5718692541122437,-0.8038647770881653
-0.1297968924045562,0.3121255934238434,-0.0630623251199722,-0.4242424070835113,-0.1957568824291229,0.0221068449318408,0.0,0.0,0.7826205492019653,0.8445112705230713
-0.1304276436567306,0.3031050860881805,-0.06244533136487,-0.4009951949119568,-0.1963877230882644,-0.0126167833805084,0.0,0.0,-0.2718111276626587,0.4892394542694092
-0.1310924589633941,0.2937726378440857,-0.0660993307828903,-0.414827436208725,-0.1967710256576538,-0.0076659573242068,0.0,0.0,-0.3302059769630432,0.4722359180450439
-0.1317909210920334,0.284128189086914,-0.0697201788425445,-0.4286595582962036,-0.1969002485275268,-0.002584530506283,0.0,0.0,-0.4982144832611084,0.6338667869567871
-0.1324638426303863,0.2741482257843017,-0.0658668205142021,-0.4437430500984192,-0.1983225643634796,-0.0284465197473764,0.0,0.0,-0.0587265491485595,0.8467001914978027
-0.1330926865339279,0.2638370394706726,-0.059783399105072,-0.4586940705776214,-0.2014524042606353,-0.0625968649983406,0.0,0.0,0.0059877634048461,-0.7475312352180481
-0.1336951255798339,0.2539551258087158,-0.0589075908064842,-0.4393771290779114,-0.2027951180934906,-0.0268544703722,0.0,0.0,0.6979753971099854,-0.582655668258667
