x_pos,y_pos,x_vel,y_vel,angle,ang_vel,leg_1,leg_2,main_booster,lat_booster
-0.0015006065368652,1.4031623601913452,-0.1528842747211456,-0.3448000252246856,0.0025206939317286,0.049779862165451,0.0,0.0,-0.1808362603187561,0.9368082284927368
-0.0028998374473303,1.3949609994888306,-0.1411452889442443,-0.364508181810379,0.0037310707848519,0.024210650473833,0.0,0.0,-0.1128102540969848,0.9377217292785645
-0.0041885375976562,1.3862905502319336,-0.1285846531391143,-0.3853557705879211,0.0034415572881698,-0.005790686700493,0.0,0.0,-0.1568292379379272,0.6114630699157715
-0.0054196356795728,1.3771557807922363,-0.1226068958640098,-0.4059861004352569,0.0029481647070497,-0.0098686497658491,0.0,0.0,-0.1748630404472351,0.8080449104309082
-0.0065558431670069,1.3675616979599,-0.111929677426815,-0.4264039993286133,0.0012826799647882,-0.0333128944039344,0.0,0.0,-0.158372700214386,0.2303133010864257
-0.0076754568144679,1.357505202293396,-0.1110538244247436,-0.4469535052776336,0.0003879303694702,-0.0178968273103237,0.0,0.0,0.0484657287597656,0.1729288101196289
-0.0087942127138376,1.3475360870361328,-0.1116842404007911,-0.4430713653564453,0.0001958118518814,-0.0038428022526204,0.0,0.0,-0.0396400690078735,0.1609746217727661
-0.0098990444093942,1.337104558944702,-0.1110603660345077,-0.4636252522468567,0.0007766105700284,0.0116169052198529,0.0,0.0,0.8402131795883179,0.7620818614959717
-0.0109462738037109,1.327617049217224,-0.1045286208391189,-0.4216619729995727,0.0005880377721041,-0.0037721530534327,0.0,0.0,-0.3265480399131775,0.025252342224121
-0.0119815822690725,1.317667007446289,-0.1041332632303237,-0.4422228932380676,0.0011755365412682,0.0117509756237268,0.0,0.0,0.081264853477478,0.8512396812438965
-0.0128736495971679,1.307839274406433,-0.0889035314321518,-0.4367908537387848,0.0008786750840954,-0.0059374887496232,0.0,0.0,-0.1343730688095092,0.6989734172821045
-0.0136943813413381,1.2975475788116455,-0.0809944346547126,-0.457404762506485,-0.0001878954790299,-0.0213335342705249,0.0,0.0,-0.5638449192047119,-0.3947194814682007
-0.0145063400268554,1.2867937088012695,-0.0809012576937675,-0.4779517948627472,-0.0004756905836984,-0.0057564354501664,0.0,0.0,-0.6795706152915955,0.1058535575866699
-0.0153102874755859,1.2755775451660156,-0.0809009671211242,-0.4985006153583526,1.526858250144869e-05,0.0098200989887118,0.0,0.0,-0.7144799828529358,-0.258052110671997
-0.0161072723567485,1.263898849487305,-0.0809873417019844,-0.519050121307373,0.0012858780100941,0.0254147555679082,0.0,0.0,-0.2247022986412048,-0.186062753200531
-0.0168981552124023,1.2517577409744265,-0.0811543613672256,-0.5395999550819397,0.0033366228453814,0.0410184971988201,0.0,0.0,-0.5954648852348328,-0.1256399750709533
-0.0176834110170602,1.2391546964645386,-0.0813957378268241,-0.5601499676704407,0.0061678187921643,0.0566290318965911,0.0,0.0,-0.74122154712677,0.0445793867111206
-0.0184638984501361,1.226089358329773,-0.0817050859332084,-0.5807005167007446,0.0097796870395541,0.0722441226243972,0.0,0.0,-0.6750531196594238,0.3163412809371948
-0.0192402843385934,1.212561845779419,-0.0820758193731308,-0.6012516617774963,0.0141723630949854,0.0878615006804466,0.0,0.0,-0.728006899356842,0.2054696083068847
-0.0200129505246877,1.1985727548599243,-0.0825012475252151,-0.6218035817146301,0.0193458180874586,0.1034782379865646,0.0,0.0,-0.7532180547714233,0.945427417755127
-0.0206920616328716,1.1841310262680054,-0.0716269165277481,-0.6419034600257874,0.0230235774070024,0.0735617205500602,0.0,0.0,-0.3675783276557922,0.2491899728775024
-0.021368408575654,1.1692276000976562,-0.0721341669559478,-0.662456214427948,0.0274830311536788,0.0891970545053482,0.0,0.0,-0.7187644839286804,0.6465493440628052
-0.0219799987971782,1.1538636684417725,-0.0648810788989067,-0.6829065084457397,0.0311604160815477,0.0735542401671409,0.0,0.0,-0.4600746631622314,0.6528050899505615
-0.0225316993892192,1.1380335092544556,-0.0582038760185241,-0.703632116317749,0.0341708920896053,0.0602147690951824,0.0,0.0,-0.7590786814689636,0.5651557445526123
-0.0230471603572368,1.1217447519302368,-0.0545025952160358,-0.7240179181098938,0.0371022596955299,0.058632455766201,0.0,0.0,-0.1059569120407104,0.7790523767471313
-0.0235133171081542,1.1049792766571045,-0.0491893030703067,-0.7451955676078796,0.0396377854049205,0.0507104322314262,0.0,0.0,-0.4815273284912109,0.2483381032943725
-0.0239775665104389,1.0877522230148315,-0.0497729815542697,-0.7657463550567627,0.0429522432386875,0.0662891641259193,0.0,0.0,0.1979963779449463,0.5900008678436279
-0.0245236400514841,1.0709624290466309,-0.0573767237365245,-0.7462939620018005,0.0456862151622772,0.0546794347465038,0.0,0.0,0.2453663349151611,0.8192811012268066
-0.0251419059932231,1.0545892715454102,-0.0636273473501205,-0.7277510762214661,0.0474640801548957,0.03555728495121,0.0,0.0,-0.1820743680000305,0.2176289558410644
-0.0257577896118164,1.0377544164657593,-0.0641724318265914,-0.7483021020889282,0.0500177964568138,0.0510742589831352,0.0,0.0,-0.1119002699851989,0.7721731662750244
-0.0263083465397357,1.0204710960388184,-0.0568224675953388,-0.7682034969329834,0.051760084927082,0.0348460488021373,0.0,0.0,0.1200145483016967,0.8015859127044678
-0.0268686302006244,1.003166675567627,-0.0569226071238517,-0.7691172361373901,0.0526431091129779,0.0176602210849523,0.0,0.0,0.8598822355270386,0.2691365480422973
-0.02756586112082,0.9867449402809144,-0.0709546953439712,-0.7299007773399353,0.0538671687245368,0.0244811698794364,0.0,0.0,-0.3896594643592834,0.6896893978118896
-0.0282100681215524,0.9698590636253356,-0.065206691622734,-0.7505102753639221,0.0546344071626663,0.0153447911143302,0.0,0.0,-0.6093478202819824,0.4146958589553833
-0.0288498885929584,0.9525114893913268,-0.0655379816889762,-0.7710614800453186,0.0561686791479587,0.0306856278330087,0.0,0.0,0.6099166870117188,0.8622567653656006
-0.0294384956359863,0.9358198642730712,-0.0594700761139392,-0.7418757677078247,0.0567802190780639,0.0122307147830724,0.0,0.0,0.1975297927856445,0.6177914142608643
-0.0300121307373046,0.919160008430481,-0.0574756972491741,-0.7404480576515198,0.0568903423845768,0.002202542964369,0.0,0.0,0.3880448341369629,0.3175742626190185
-0.030583668500185,0.9029986262321472,-0.0581800416111946,-0.7183177471160889,0.0579073578119277,0.0203400962054729,0.0,0.0,-0.9413159489631652,0.5764197111129761
-0.0311055183410644,0.8863856792449951,-0.0528897121548652,-0.7383785843849182,0.0586065538227558,0.0139837590977549,0.0,0.0,-0.0626339316368103,0.2671234607696533
-0.0316190719604492,0.8693110942840576,-0.0528212189674377,-0.758929967880249,0.0600580908358097,0.0290307160466909,0.0,0.0,-0.6119098663330078,0.7599567174911499
-0.0320742614567279,0.8517856001853943,-0.0464791283011436,-0.7789489030838013,0.0610122457146644,0.0190831683576107,0.0,0.0,0.2591724395751953,0.9555180072784424
-0.032358456403017,0.8344106078147888,-0.0282621048390865,-0.7722175717353821,0.0608544833958148,-0.0031551991123706,0.0,0.0,0.2248475551605224,0.7912347316741943
-0.0325004570186138,0.8169266581535339,-0.0132850836962461,-0.7770370244979858,0.0599425211548805,-0.0182390678673982,0.0,0.0,0.7248990535736084,0.5608816146850586
-0.0325078964233398,0.7998198866844177,0.0002709523832891,-0.7602579593658447,0.0589445494115352,-0.0199594348669052,0.0,0.0,-0.1311181187629699,0.3675651550292969
-0.0325015075504779,0.7822514772415161,0.000917438766919,-0.7808093428611755,0.0586759634315967,-0.0053717596456408,0.0,0.0,0.0118898153305053,0.3998415470123291
-0.0324637405574321,0.7645301222801208,0.0031774030067026,-0.7876351475715637,0.0592609979212284,0.0117005072534084,0.0,0.0,-0.4430892467498779,0.8451094627380371
-0.0323359481990337,0.746349036693573,0.0133453775197267,-0.8080265522003174,0.0587116070091724,-0.0109881460666656,0.0,0.0,0.4435254335403442,0.6995015144348145
-0.0322862640023231,0.7287998199462891,0.0064120488241314,-0.7799063920974731,0.0572838820517063,-0.0285546090453863,0.0,0.0,-0.4343335032463074,0.6215579509735107
-0.0321790687739849,0.7107977271080017,0.012421766296029,-0.8000304102897644,0.0555930212140083,-0.0338170751929283,0.0,0.0,0.7529504299163818,0.6578569412231445
-0.032053280621767,0.6931424736976624,0.0149736776947975,-0.7845887541770935,0.0532297454774379,-0.0472657643258571,0.0,0.0,-0.0221775770187377,0.6014668941497803
-0.0318461433053016,0.6750301718711853,0.0239092726260423,-0.804884672164917,0.0500698909163475,-0.0631969943642616,0.0,0.0,0.340656042098999,0.2783313989639282
-0.031691551208496,0.657348096370697,0.0181917194277048,-0.785780668258667,0.0473696440458297,-0.054004680365324,0.0,0.0,0.0213961601257324,-0.4906610250473022
-0.0314567573368549,0.6396207213401794,0.0252207107841968,-0.7878256440162659,0.0456473417580127,-0.0344458632171154,0.0,0.0,-0.1371510028839111,0.2959311008453369
-0.0311945918947458,0.6214315295219421,0.0272946842014789,-0.8083760738372803,0.0445790626108646,-0.021365825086832,0.0,0.0,0.4725561141967773,0.4774425029754638
-0.0307900421321392,0.603440523147583,0.0402625948190689,-0.7996072769165039,0.0447667874395847,0.0037543952930718,0.0,0.0,0.7314193248748779,0.5673624277114868
-0.030438994988799,0.5857208371162415,0.0357061624526977,-0.7875250577926636,0.0441703163087368,-0.0119295194745063,0.0,0.0,0.5109175443649292,0.6903986930847168
-0.029938792809844,0.5686476230621338,0.0512116625905036,-0.7587745785713196,0.0429964140057563,-0.0234780609607696,0.0,0.0,0.1788233518600464,0.6964194774627686
-0.0292589180171489,0.5518471598625183,0.0698338747024536,-0.7466341853141785,0.0411729551851749,-0.0364688262343406,0.0,0.0,0.1079471111297607,-0.0398309230804443
-0.0285155288875103,0.5354153513908386,0.0753589868545532,-0.7302747368812561,0.0401630625128746,-0.0201979484409093,0.0,0.0,-0.593265950679779,0.1630159616470337
-0.0277341846376657,0.5185214877128601,0.0785812139511108,-0.7508242130279541,0.0397169925272464,-0.0089210849255323,0.0,0.0,0.2041398286819458,0.159991979598999
-0.0268865581601858,0.5015723705291748,0.0844862833619117,-0.7533005475997925,0.0399879962205886,0.0054199574515223,0.0,0.0,0.7196953296661377,0.2474837303161621
-0.0261308662593364,0.4852493107318878,0.0752531662583351,-0.7254798412322998,0.0402998141944408,0.006236283108592,0.0,0.0,0.0471843481063842,0.1139075756072998
-0.0252667423337698,0.4689602255821228,0.0852156206965446,-0.7239928841590881,0.0414752550423145,0.0235090143978595,0.0,0.0,0.6022896766662598,0.6184298992156982
-0.0243085864931345,0.4531054496765136,0.0953320562839508,-0.7046685814857483,0.0419555529952049,0.0096057811751961,0.0,0.0,0.3073545694351196,-0.3058333396911621
-0.0233105663210153,0.4372644424438476,0.0988248363137245,-0.7040732502937317,0.0429170094430446,0.0192291550338268,0.0,0.0,0.7299747467041016,-0.1958569884300232
-0.0224200244992971,0.4218804538249969,0.0882637351751327,-0.6837559342384338,0.0437045246362686,0.0157502125948667,0.0,0.0,0.1812762022018432,-0.8490214347839355
-0.0215554237365722,0.4069580733776092,0.0835418477654457,-0.6633052229881287,0.0465875975787639,0.0576615706086158,0.0,0.0,0.5309919118881226,0.1907782554626464
-0.0205753333866596,0.3919851183891296,0.0943626835942268,-0.6655827760696411,0.0501899570226669,0.0720470994710922,0.0,0.0,0.3814857006072998,0.2149817943572998
-0.0195547100156545,0.3776213526725769,0.0979751273989677,-0.6385318040847778,0.054232720285654,0.0808554366230964,0.0,0.0,-0.4197090864181518,0.2167613506317138
-0.0184785835444927,0.362795740365982,0.1032129898667335,-0.6590821743011475,0.0585785582661628,0.0869169011712074,0.0,0.0,0.6819109916687012,0.5878812074661255
-0.017439842224121,0.3485381305217743,0.1006481498479843,-0.6338021159172058,0.0617683641612529,0.0637964010238647,0.0,0.0,0.4237220287322998,0.0437890291213989
-0.0163491256535053,0.3346238136291504,0.105488583445549,-0.618561863899231,0.0653138607740402,0.0709099173545837,0.0,0.0,0.6511378288269043,0.0594642162322998
-0.0153817180544137,0.3214983940124511,0.0935556888580322,-0.5834972262382507,0.0684600472450256,0.0629236623644828,0.0,0.0,0.1096585988998413,0.4323083162307739
-0.0143300052732229,0.3084963858127594,0.1016020774841308,-0.578035295009613,0.0719930455088615,0.0706597492098808,0.0,0.0,-0.2660821676254272,0.2859189510345459
-0.013215159997344,0.2950323522090912,0.1077914983034133,-0.5985847115516663,0.0756459236145019,0.0730577260255813,0.0,0.0,0.5924224853515625,0.3321820497512817
-0.011994075961411,0.2815823256969452,0.1180238276720047,-0.5979910492897034,0.0796825066208839,0.0807316973805427,0.0,0.0,0.7126224040985107,0.1491700410842895
-0.0107679367065429,0.2681923806667328,0.1186580061912536,-0.5953233242034912,0.083608254790306,0.0785147920250892,0.0,0.0,0.5411326885223389,0.1181151866912841
-0.0095440866425633,0.2554453015327453,0.1184581369161605,-0.5667590498924255,0.0874983891844749,0.0778028070926666,0.0,0.0,0.6307812929153442,-0.1659258604049682
-0.008243465796113,0.2434496730566024,0.1258114278316497,-0.5333921909332275,0.0917143747210502,0.0843195766210556,0.0,0.0,0.0138804912567138,0.3783214092254638
-0.0069876671768724,0.2317316383123397,0.1217316836118698,-0.5210431814193726,0.0955322235822677,0.0763569921255111,0.0,0.0,0.2926247119903564,-0.6197625994682312
-0.0058453558012843,0.2199089676141739,0.1094605922698974,-0.5257651805877686,0.1002656072378158,0.0946677699685096,0.0,0.0,0.7080649137496948,0.5134752988815308
-0.0046285628341138,0.2088610529899597,0.117981232702732,-0.4912717640399933,0.1039395779371261,0.073479451239109,0.0,0.0,0.9088540077209472,-0.3357019424438476
-0.0035239220596849,0.1983244717121124,0.1074943542480468,-0.4685006439685821,0.1068753823637962,0.0587162598967552,0.0,0.0,0.8734029531478882,-0.9280537366867064
-0.0025689124595373,0.1884528696537017,0.0910338908433914,-0.4390632510185241,0.1113076284527778,0.088645115494728,0.0,0.0,0.9198720455169678,-0.602222204208374
-0.001691436744295,0.1793229132890701,0.0823994800448417,-0.4061863720417022,0.1166293546557426,0.1064344272017479,0.0,0.0,0.8006224632263184,-0.8138334155082703
-0.000771808612626,0.1706824153661728,0.0850762799382209,-0.3845745027065277,0.1234741881489753,0.13689686357975,0.0,0.0,0.8328545093536377,-0.766278862953186
0.0001470565766794,0.1621317416429519,0.0837445706129074,-0.3807262778282165,0.1315746158361435,0.1620085090398788,0.0,0.0,0.463240385055542,0.4118571281433105
0.001178455306217,0.1536654084920883,0.0950021520256996,-0.3770217299461365,0.1396837532520294,0.1621826440095901,0.0,0.0,0.3238747119903564,0.1177566051483154
0.0023417472839355,0.1454411149024963,0.1080484241247177,-0.3663182556629181,0.1479360163211822,0.1650454103946685,0.0,0.0,0.4097263813018799,-0.0253658890724182
0.0036526680923998,0.1372801810503006,0.1227022558450698,-0.3635620474815368,0.1563070267438888,0.1674198806285858,0.0,0.0,0.4455794095993042,-0.2779587507247925
0.004936599638313,0.1296297460794448,0.1205097883939743,-0.3408699333667755,0.1641957461833953,0.1577745825052261,0.0,0.0,0.3249530792236328,-0.3293536901473999
0.0062267305329442,0.1224230378866195,0.1215070858597755,-0.3211480975151062,0.171713724732399,0.1503594815731048,0.0,0.0,0.2316434383392334,-0.8863039016723633
0.0075501441024243,0.1155014336109161,0.1235149353742599,-0.3086692988872528,0.1805576086044311,0.1768776029348373,0.0,0.0,-0.4066832065582275,-0.6777225732803345
0.0089130401611328,0.1080983951687812,0.1268787980079651,-0.3301979899406433,0.1900042295455932,0.1889325082302093,0.0,0.0,-0.0537914633750915,-0.2485777139663696
0.0103590013459324,0.1002326607704162,0.1357555091381073,-0.3507441282272339,0.1988958120346069,0.1778319031000137,0.0,0.0,-0.0090205669403076,-0.0172800421714782
0.0118886949494481,0.0919040739536285,0.144711896777153,-0.3712886571884155,0.2072121053934097,0.1663263142108917,0.0,0.0,0.5519824028015137,-0.7640286087989807
0.0133099555969238,0.0838710367679596,0.1329927146434784,-0.358330637216568,0.2164288163185119,0.1843338310718536,0.0,0.0,0.5963716506958008,0.0541849136352539
0.0145334247499704,0.0764622092247009,0.114397183060646,-0.3304661810398102,0.2244774550199508,0.1609732210636139,0.0,0.0,0.838781476020813,0.4264323711395263
0.0157638546079397,0.069758117198944,0.1152787432074546,-0.2991567254066467,0.2323460727930069,0.157372385263443,0.0,0.0,0.454805850982666,0.4082038402557373
0.0168821327388286,0.0635386779904365,0.1049220785498619,-0.2775258421897888,0.2393533736467361,0.1401459276676178,0.0,0.0,0.0260500907897949,0.5093204975128174
0.0179595947265625,0.0575306043028831,0.1026050820946693,-0.2678718566894531,0.2445760369300842,0.104453220963478,0.0,0.0,0.4014956951141357,0.3012040853500366
0.0190009120851755,0.051665436476469,0.0997577682137489,-0.2614087462425232,0.2490309476852417,0.0890979915857315,0.0,0.0,0.491585373878479,0.1970454454421997
0.0198933593928813,0.0460863672196865,0.086025483906269,-0.2485123723745346,0.2523165047168731,0.0657102614641189,0.0,0.0,0.51790452003479,-0.1469898223876953
0.0206192024052143,0.0406897626817226,0.0706726163625717,-0.2401750236749649,0.2542692422866821,0.0390551947057247,0.0,0.0,0.8564436435699463,0.73193359375
0.021409798413515,0.0360755771398544,0.07900270819664,-0.2050838470458984,0.2543250322341919,0.0011158356210216,0.0,0.0,0.4567745923995971,0.5979620218276978
0.0223099701106548,0.0315040200948715,0.0917183756828308,-0.2028864026069641,0.2525905966758728,-0.03468868881464,0.0,0.0,0.8718733787536621,0.0155001878738403
0.0232413299381732,0.0277848336845636,0.094802938401699,-0.1650112271308899,0.2508946657180786,-0.0339183323085308,0.0,0.0,0.0480316877365112,-0.4782484769821167
0.0240618698298931,0.0252079106867313,0.1024137139320373,-0.1111882627010345,0.2301894426345825,-0.4141124784946441,0.0,1.0,0.8591772317886353,-0.5626754760742188
0.0247061736881732,0.024183664470911,0.0959731414914131,-0.0409132502973079,0.1982903033494949,-0.6380072236061096,0.0,1.0,0.386138916015625,-0.719504714012146
0.0252958294004201,0.0233980994671583,0.0877256840467453,-0.0313116684556007,0.1693989485502243,-0.5778271555900574,0.0,1.0,0.3692837953567505,-0.5235756635665894
0.0257223136723041,0.0231544822454452,0.0705317631363868,-0.0078881653025746,0.1415372490882873,-0.5572346448898315,0.0,0.0,-0.996759593486786,-0.4255901575088501
0.0262361522763967,0.0224576089531183,0.0801109820604324,-0.0284916404634714,0.1129379346966743,-0.5719870328903198,0.0,0.0,-0.994154930114746,-0.4382243156433105
0.0268374439328908,0.0213083364069461,0.0897033512592315,-0.0491006188094615,0.0835941359400749,-0.5868765115737915,0.0,0.0,-0.9529895186424256,-0.8271210193634033
0.0274477954953908,0.0196984391659498,0.089445486664772,-0.0702040493488311,0.0554822944104671,-0.5622373819351196,0.0,0.0,-0.7834798693656921,-0.9284933805465698
0.0280570983886718,0.0176257714629173,0.087885282933712,-0.0913379713892936,0.0288566946983337,-0.5325125455856323,0.0,0.0,0.2833719253540039,-0.8915056586265564
0.0286520961672067,0.0157516580075025,0.0854631885886192,-0.0829933136701583,0.0032269367948174,-0.512595534324646,0.0,0.0,0.5832083225250244,-0.9411154985427856
0.0292871482670307,0.0141883231699466,0.0883220061659812,-0.0696092918515205,-0.0212660282850265,-0.4898599684238434,0.0,0.0,0.3511072397232055,-0.8234272599220276
0.0300722122192382,0.0126022435724735,0.1022951826453208,-0.070996880531311,-0.0447566322982311,-0.4698125422000885,0.0,0.0,0.7557674646377563,-0.93327796459198
0.0310196876525878,0.0116515252739191,0.1172316819429397,-0.0430774688720703,-0.0669905841350555,-0.4446791708469391,0.0,0.0,0.4716578722000122,-0.8166125416755676
0.0320640578866004,0.0113325929269194,0.1259962320327758,-0.0152785433456301,-0.0883432403206825,-0.4270533621311188,0.0,0.0,-0.2272509932518005,-0.7576974630355835
0.03314208984375,0.010556754656136,0.1287695318460464,-0.035848394036293,-0.1091298460960388,-0.4157323241233825,1.0,0.0,0.5245374441146851,-0.6927265524864197
0.0344091430306434,0.0108366347849369,0.1297545582056045,0.0119808427989482,-0.1114883422851562,-0.0462762862443923,1.0,0.0,-0.3059896826744079,-0.9391641616821288
