x_pos,y_pos,x_vel,y_vel,angle,ang_vel,leg_1,leg_2,main_booster,lat_booster
-0.0014970779884606,1.4035310745239258,-0.1516679227352142,-0.3284075856208801,0.0017631519585847,0.0347793400287628,0.0,0.0,0.4013429225828964,-0.8218590544998055
-0.0029827118851244,1.3966543674468994,-0.1520230770111084,-0.3056347072124481,0.0051876036450266,0.0684959143400192,0.0,0.0,-0.2562964367293474,-0.8719809035250945
-0.0044942856766283,1.3896770477294922,-0.1559785008430481,-0.3101254999637604,0.009962435811758,0.095505379140377,0.0,0.0,0.7934408731425846,-0.8702358331083891
-0.0061946869827806,1.3834142684936523,-0.1763345599174499,-0.2784048914909363,0.0161863807588815,0.1244903355836868,0.0,0.0,0.6839049440509546,0.7684882351597115
-0.0076730726286768,1.3780624866485596,-0.1529141664505005,-0.2379258126020431,0.0212026126682758,0.1003341451287269,0.0,0.0,0.2464452442845908,-0.5027860643285111
-0.0090589523315429,1.3732333183288574,-0.1449489742517471,-0.2147262841463089,0.0274923779070377,0.1258067041635513,0.0,0.0,0.4684316556050554,-0.8193269781763303
-0.0105175022035837,1.369077444076538,-0.1538298279047012,-0.1848708093166351,0.0353773720562458,0.1577148735523224,0.0,0.0,-0.016827482053801,-0.6008553497720656
-0.0119832037016749,1.3648288249969482,-0.1554583460092544,-0.1890637278556823,0.0441664867103099,0.1757982522249221,0.0,0.0,-0.8645142579085976,-0.7111240336305409
-0.0134778022766113,1.3604917526245115,-0.1597931087017059,-0.1930913478136062,0.0544008091092109,0.2047052383422851,0.0,0.0,0.0192907413760641,0.6419737919388876
-0.0149183273315429,1.3567416667938232,-0.1531131863594055,-0.1670182645320892,0.0633696690201759,0.1793936342000961,0.0,0.0,0.4019623061984627,-0.8398609966099864
-0.0163457877933979,1.3536566495895386,-0.1536003202199936,-0.1376043111085891,0.0741237550973892,0.2151015549898147,0.0,0.0,-0.6040868395272367,0.9116721585011373
-0.0176645275205373,1.350486397743225,-0.1406923532485962,-0.1413605064153671,0.0828651711344719,0.1748441308736801,0.0,0.0,0.8235896010793824,0.6631337431739255
-0.018812084570527,1.3484066724777222,-0.1226433143019676,-0.0928801670670509,0.0906953439116478,0.1566179692745208,0.0,0.0,0.8111496673869387,-0.7650049769863974
-0.019943619146943,1.3468120098114014,-0.1227647215127945,-0.071488469839096,0.1002417206764221,0.1909448355436325,0.0,0.0,0.5455432697035336,-0.6152258145887874
-0.021030044183135,1.3462966680526731,-0.1198160648345947,-0.0236894898116588,0.1113545596599578,0.2222767174243927,0.0,0.0,-0.4655892299569963,-0.7610926918979399
-0.0221364013850688,1.345672369003296,-0.1230502277612686,-0.0287165977060794,0.1237207502126693,0.2473462074995041,0.0,0.0,0.2227831075683102,-0.6191817579791481
-0.0232295989990234,1.3459186553955078,-0.1231662631034851,0.0097313914448022,0.1375250816345214,0.2761116027832031,0.0,0.0,-0.0253794015682879,-0.6473667278772323
-0.0243331901729106,1.346060276031494,-0.1251794546842575,0.0048588360659778,0.152328684926033,0.2960986196994781,0.0,0.0,-0.4335999974261777,0.7328383499157198
-0.0253437049686908,1.34613299369812,-0.1141495555639267,0.0018414027290418,0.1654396951198578,0.2622441351413727,0.0,0.0,-0.1538235107538443,0.8482906980809131
-0.0262697227299213,1.346128225326538,-0.1042143926024437,-0.0015514176338911,0.1770938783884048,0.2331048250198364,0.0,0.0,0.4776294349344168,0.7442707064564591
-0.0271052364259958,1.3470784425735474,-0.0938938409090042,0.0409724786877632,0.1874832510948181,0.207806184887886,0.0,0.0,-0.176384747286066,-0.8189473648540473
-0.0279756542295217,1.3479145765304563,-0.0989642292261123,0.0356028601527214,0.199498638510704,0.2403291463851928,0.0,0.0,0.3268694343510963,-0.9784650410418616
-0.0288632400333881,1.349313735961914,-0.1026796475052833,0.0602545328438282,0.213553100824356,0.2811146974563598,0.0,0.0,-0.3617328020983177,-0.7909312639075928
-0.0297775268554687,1.3505960702896118,-0.1067162305116653,0.0547079183161258,0.2290326505899429,0.3096187710762024,0.0,0.0,0.7606372199874487,0.9988640117513684
-0.0309114456176757,1.352760910987854,-0.1264156699180603,0.0941405594348907,0.2422828078269958,0.2650273144245147,0.0,0.0,0.8971713561319608,-0.5407535804230543
-0.0324247367680072,1.35591459274292,-0.1649286299943924,0.137865200638771,0.2561280727386474,0.2769045233726501,0.0,0.0,0.7718129705411805,0.7317164813075937
-0.0340510383248329,1.360135555267334,-0.1747456938028335,0.18543641269207,0.2685151398181915,0.2477419674396515,0.0,0.0,-0.9430761013209292,-0.5771899667578853
-0.0357070937752723,1.3642492294311523,-0.1790852546691894,0.1802911758422851,0.2823362946510315,0.2764231860637665,0.0,0.0,-0.8855151804466643,-0.746624457729373
-0.0374090187251567,1.3682479858398438,-0.1854190081357956,0.1747073531150818,0.2980122864246368,0.3135194182395935,0.0,0.0,0.0132939111442538,-0.9890162625186316
-0.0392641052603721,1.3725413084030151,-0.2026210129261016,0.18720044195652,0.315731942653656,0.35439333319664,0.0,0.0,-0.882062113735038,-0.990252272230428
-0.0411706939339637,1.376720666885376,-0.2095628082752227,0.1815183758735656,0.3354144990444183,0.3936516344547272,0.0,0.0,-0.8751157522201538,0.9955847263336182
-0.0429897308349609,1.3808395862579346,-0.199002668261528,0.1789784431457519,0.3533489406108856,0.3586887419223785,0.0,0.0,-0.9439839720726012,0.9810678958892822
-0.0447268486022949,1.3849116563796997,-0.1890811026096344,0.1771227419376373,0.3695551753044128,0.3241249918937683,0.0,0.0,-0.9322469830513,0.979254961013794
-0.0463766083121299,1.3889224529266355,-0.1785750389099121,0.174672782421112,0.3839911222457886,0.2887195646762848,0.0,0.0,-0.9653026461601256,0.8474738597869873
-0.0479429252445697,1.392881989479065,-0.168482631444931,0.1727340817451477,0.3966506123542785,0.2531896531581878,0.0,0.0,-0.9687307476997375,0.919148564338684
-0.049422264099121,1.3967993259429932,-0.1579269617795944,0.1712726056575775,0.4073652625083923,0.2142924517393112,0.0,0.0,-0.9360761642456056,0.6333390474319458
-0.0508374199271202,1.4006496667861938,-0.1503292173147201,0.1685657501220703,0.4168515801429748,0.1897261887788772,0.0,0.0,-0.9765750169754028,0.3766405582427978
-0.0522335059940815,1.404407978057861,-0.1484123766422271,0.1644028723239898,0.4263604581356048,0.1901773512363433,0.0,0.0,-0.9371904730796814,0.2017697095870971
-0.0536112785339355,1.408073902130127,-0.1465631425380706,0.1602399498224258,0.4358924031257629,0.1906386315822601,0.0,0.0,-0.9454275965690612,0.4667783975601196
-0.0549715049564838,1.4116474390029907,-0.1447829008102417,0.1560769826173782,0.4454478919506073,0.1911098659038543,0.0,0.0,-0.9777860641479492,0.2286027669906616
-0.056314755231142,1.4151289463043213,-0.1430728733539581,0.1519140154123306,0.4550274312496185,0.1915908008813858,0.0,0.0,-0.9462621212005616,0.7104964256286621
-0.0575812347233295,1.4185603857040403,-0.1337415277957916,0.1501807123422622,0.4628443121910095,0.1563378274440765,0.0,0.0,-0.9907121062278748,0.1874504089355468
-0.0588320717215538,1.4218995571136477,-0.1321769207715988,0.1460199803113937,0.4706861972808838,0.1568378508090973,0.0,0.0,-0.8929730653762817,0.2731274366378784
-0.0600679405033588,1.4251461029052734,-0.1306855380535125,0.1418592035770416,0.4785535335540771,0.1573466062545776,0.0,0.0,-0.9693537950515748,0.0465238094329834
-0.0612898841500282,1.428299903869629,-0.1292680203914642,0.1376983821392059,0.486446738243103,0.1578638255596161,0.0,0.0,-0.972001850605011,0.0607569217681884
-0.0624982826411724,1.431361198425293,-0.1279249340295791,0.1335375308990478,0.4943661987781524,0.1583891361951828,0.0,0.0,-0.9800441861152648,0.089707612991333
-0.0636941939592361,1.4343299865722656,-0.1266566067934036,0.129376620054245,0.5023123025894165,0.1589221805334091,0.0,0.0,-0.8858716487884521,0.4769985675811767
-0.0648781806230545,1.437206149101257,-0.1254632771015167,0.1252156943082809,0.5102854371070862,0.1594625264406204,0.0,0.0,-0.9196338653564452,0.1035192012786865
-0.0660511031746864,1.4399895668029783,-0.1243449598550796,0.1210547015070915,0.5182859301567078,0.1600096821784973,0.0,0.0,-0.9630019664764404,0.2867845296859741
-0.0672136321663856,1.442680597305298,-0.1233015432953834,0.1168936789035797,0.5263140797615051,0.1605632603168487,0.0,0.0,-0.9341036081314088,0.4224886894226074
-0.0683666244149208,1.445278882980347,-0.122332751750946,0.1127326190471649,0.5343702435493469,0.1611227095127105,0.0,0.0,-0.9698155522346495,0.2396107912063598
-0.069510743021965,1.4477847814559937,-0.1214381083846092,0.1085715219378471,0.5424546003341675,0.1616874784231186,0.0,0.0,-0.9345529675483704,0.1125780344009399
-0.0706466659903526,1.4501980543136597,-0.1206170096993446,0.1044103875756263,0.5505674481391907,0.1622569561004638,0.0,0.0,-0.9141899347305298,0.458892822265625
-0.0717752426862716,1.4525189399719238,-0.1198686584830284,0.1002492159605026,0.5587089657783508,0.1628305315971374,0.0,0.0,-0.9843080043792723,0.3614950180053711
-0.0728971511125564,0.0,-0.1191921085119247,0.096088021993637,0.5668793320655823,0.1634075492620468,0.0,0.0,-0.9594605565071106,0.6198660135269165
-0.0739777535200119,1.4569129943847656,-0.1141109839081764,0.093680590391159,0.5739670395851135,0.141753613948822,0.0,0.0,-0.9141296148300172,-0.0326724648475647
-0.0750531181693077,1.4589862823486328,-0.1135757192969322,0.0895205289125442,0.5810838341712952,0.1423354595899582,0.0,0.0,-0.960325300693512,-0.0204527974128723
-0.0761238113045692,1.4609668254852295,-0.1131085008382797,0.0853604301810264,0.588229775428772,0.1429184377193451,0.0,0.0,-0.9733682870864868,-0.4383585453033447
-0.0771905928850174,1.4628546237945557,-0.1127077490091323,,0.595404863357544,0.1435017436742782,0.0,0.0,-0.9865124225616456,-0.251775860786438
-0.0782539397478103,1.4646497964859009,-0.1123717203736305,0.0770401656627655,0.6026090979576111,0.1440844386816024,0.0,0.0,-0.9249150156974792,-0.2181655168533325
-0.0793147087097168,1.4663522243499756,-0.1120985746383667,0.0728799998760223,0.6098423600196838,0.1446656137704849,0.0,0.0,-0.9758563041687012,0.1033588647842407
-0.0803733840584755,1.4679620265960691,-0.1118863001465797,0.0687198117375373,0.6171045303344727,0.1452442705631256,0.0,0.0,-0.9878129363059998,0.014747142791748
-0.0814306288957595,1.4694788455963137,-0.1117327660322189,0.06455959379673,0.6243955492973328,0.1458194553852081,0.0,0.0,-0.949798345565796,0.0755252838134765
-0.0824870094656944,1.4709032773971558,-0.1116357073187828,0.0603993684053421,0.6317150592803955,0.1463900208473205,0.0,0.0,-0.9385987520217896,-0.1449726223945617
-0.0835430175065994,1.4722349643707275,-0.1115927323698997,0.0562391392886638,0.6390628218650818,0.1469548940658569,0.0,0.0,-0.9533957242965698,-0.2193939089775085
-0.0845992118120193,1.4734739065170288,-0.1116013526916503,0.0520789064466953,0.646438479423523,0.1475129425525665,0.0,0.0,-0.9254326820373536,-0.1581425666809082
-0.0856560692191124,1.4746201038360596,-0.1116589456796646,0.0479186661541461,0.6538416147232056,0.1480629593133926,0.0,0.0,-0.9907039403915404,0.4408770799636841
-0.0867140740156173,1.4756736755371094,-0.1117627844214439,0.0437584333121776,0.6612718105316162,0.1486036479473114,0.0,0.0,-0.9805818796157836,0.4423539638519287
-0.0877737998962402,1.4766346216201782,-0.1119100600481033,0.0395982041954994,0.6687284708023071,0.1491337716579437,0.0,0.0,-0.9572015404701232,0.3052291870117187
-0.0888354331254959,1.4775028228759766,-0.1120978593826294,0.035437986254692,0.6762110590934753,0.1496519744396209,0.0,0.0,-0.9802092909812928,0.2530252933502197
-0.0898995399475097,1.478278398513794,-0.1123231798410415,0.0312777943909168,0.6837189197540283,0.1501568704843521,0.0,0.0,-0.9725390076637268,0.3846701383590698
-0.0909663215279579,1.4789612293243408,-0.1125829368829727,0.027117621153593,0.691251277923584,0.1506470888853073,0.0,0.0,-0.9836840033531188,0.5841915607452393
-0.092011734843254,1.4795900583267212,-0.1096277832984924,0.0251253116875886,0.6977842450141907,0.1306593567132949,0.0,0.0,-0.9961901903152466,-0.0198618173599243
-0.0930604934692382,1.4801260232925415,-0.1099480018019676,0.0209661368280649,0.7043400406837463,0.1311160027980804,0.0,0.0,-0.9905349016189576,0.2828972339630127
-0.0941127762198448,1.4805692434310913,-0.1102929860353469,0.0168069973587989,0.7109177112579346,0.1315535604953766,0.0,0.0,-0.9760528802871704,0.0589591264724731
-0.0951687842607498,1.480919361114502,-0.1106593385338783,0.012647901661694,0.7175162434577942,0.1319705694913864,0.0,0.0,-0.969923973083496,0.6849938631057739
-0.0961880683898925,1.481221079826355,-0.1058754175901413,0.0110926330089569,0.7227084636688232,0.1038440465927124,0.0,0.0,-0.9602864980697632,0.13913094997406
-0.0972112640738487,1.4814296960830688,-0.1062756180763244,0.0069347070530056,0.7279192209243774,0.104215607047081,0.0,0.0,-0.9971977472305298,0.1724509000778198
-0.0982387512922287,1.4815452098846436,-0.1066867560148239,0.0027768402360379,0.7331473231315613,0.1045620664954185,0.0,0.0,-0.9964887499809264,0.473334789276123
-0.0992704406380653,0.0,-0.1071052774786949,-0.0013809613883495,0.7383913993835449,0.1048819869756698,0.0,0.0,-0.9903430938720704,0.284814715385437
-0.1003064140677452,0.0,-0.1075275763869285,-0.0055386913008987,0.7436500787734985,0.1051739305257797,0.0,0.0,-0.9972241520881652,0.6802377700805664
-0.1013082489371299,0.0,-0.1029022336006164,-0.0062343496829271,0.7472925186157227,0.0728492215275764,0.0,0.0,-0.9934504628181458,-0.0594557523727417
-0.1023143753409385,1.4811983108520508,-0.1033222898840904,-0.0103910248726606,0.750946581363678,0.073081150650978,0.0,0.0,-0.9774709939956664,0.3736616373062134
-0.103324607014656,1.4809091091156006,-0.1037350669503212,-0.0145476134493947,0.7546106576919556,0.0732810199260711,0.0,0.0,-0.9892961382865906,0.5090620517730713
-0.1043121367692947,1.4805678129196167,-0.1006341204047203,-0.0163500104099512,0.757162868976593,0.0510451905429363,0.0,0.0,-0.9754244685173036,0.2593389749526977
-0.105303481221199,1.4801331758499146,-0.1010216325521469,-0.0205059871077537,0.7597217559814453,0.0511775016784668,0.0,0.0,-0.9628700613975524,0.4573657512664795
-0.1062986403703689,1.4796050786972046,-0.1013905853033065,-0.0246618632227182,0.7622854709625244,0.0512744076550006,0.0,0.0,-0.9979725480079652,0.4882882833480835
-0.1072972267866134,1.4789836406707764,-0.101737156510353,-0.0288176331669092,0.7648522853851318,0.0513349995017051,0.0,0.0,-0.9976340532302856,0.077109694480896
-0.1082991585135459,1.47826886177063,-0.1020575389266014,-0.0329733006656169,0.7674201726913452,0.0513584688305854,0.0,0.0,-0.8673690557479858,0.7953450679779053
-0.1092468276619911,1.4775346517562866,-0.09504434466362,-0.0328085497021675,0.7678022980690002,0.0076419450342655,0.0,0.0,-0.9781404137611388,-0.4476209878921509
-0.1101970672607421,1.4767069816589355,-0.095301516354084,-0.0369636006653308,0.7681817412376404,0.0075892955064773,0.0,0.0,-0.9143424034118652,0.2469948530197143
-0.1111495047807693,0.0,-0.0955210998654365,-0.0411185435950756,0.7685566544532776,0.0074978456832468,0.0,0.0,-0.7426016330718994,0.4054545164108276
-0.1121038421988487,1.4747710227966309,-0.0956993252038955,-0.045273371040821,0.7689250111579895,0.0073673604056239,0.0,0.0,-0.9899609088897704,0.2783741950988769
-0.1130595207214355,1.4736628532409668,-0.095832422375679,-0.0494280867278575,0.7692849040031433,0.0071977199986577,0.0,0.0,-0.9492748379707336,0.1989328861236572
-0.1140162497758865,1.4724609851837158,-0.0959166809916496,-0.0535826832056045,0.7696343660354614,0.0069888955913484,0.0,0.0,-0.9990244507789612,0.4532102346420288
-0.1149732619524002,1.4711652994155884,-0.0959483906626701,-0.0577371716499328,0.7699714303016663,0.0067409863695502,0.0,0.0,-0.9846678972244264,0.2346049547195434
-0.1159300804138183,1.4697761535644531,-0.0959238931536674,-0.0618915408849716,0.7702941298484802,0.0064543187618255,0.0,0.0,-0.975339412689209,-0.0549091696739196
-0.1168863326311111,1.4682934284210205,-0.0958396047353744,-0.0660457983613014,0.7706006169319153,0.0061292392201721,0.0,0.0,-0.9878151416778564,-0.5736259818077087
-0.1178696602582931,1.466679573059082,-0.0993330180644989,-0.0723773464560508,0.7719847559928894,0.0276822261512279,0.0,0.0,-0.9843360781669616,0.1708714962005615
-0.118850901722908,1.4649722576141355,-0.0991184189915657,-0.0765314996242523,0.773348867893219,0.0272819157689809,0.0,0.0,-0.9988887310028076,0.3369739055633545
-0.119829460978508,1.463170886039734,-0.0988336279988288,-0.0806855261325836,0.774691104888916,0.026844996958971,0.0,0.0,-0.9896974563598632,0.5523664951324463
-0.1207747459411621,1.461317539215088,-0.0946197509765625,-0.0824379250407219,0.7748236656188965,0.0026507524307817,0.0,0.0,-0.9681687951087952,-0.1643920540809631
-0.1217158287763595,1.4593703746795654,-0.0941849201917648,-0.0865916311740875,0.7749308347702026,0.0021429397165775,0.0,0.0,-0.97153639793396,0.2448720932006836
-0.12265195697546,1.4573293924331665,-0.0936703011393547,-0.0907452404499054,0.775010883808136,0.001601023832336,0.0,0.0,-0.993933916091919,0.3227885961532593
-0.1235822662711143,1.4551948308944702,-0.0930729061365127,-0.0948987528681755,0.7750622034072876,0.0010258081601932,0.0,0.0,-0.9848031997680664,-0.0495835542678833
-0.1245059967041015,1.4529662132263184,-0.0923899039626121,-0.0990521684288978,0.7750831246376038,0.0004182733537163,0.0,0.0,-0.9937707781791688,-0.2711703181266784
-0.1254222840070724,0.0,-0.0916185900568962,-0.103205494582653,0.7750720977783203,-0.0002206485078204,0.0,0.0,-0.9874215722084044,0.1060953140258789
-0.126330092549324,0.0,-0.0907564088702201,-0.1073587387800216,0.7750275731086731,-0.000889943097718,0.0,0.0,-0.9797950387001038,0.0907012224197387
-999.0,1.4457180500030518,-0.089800976216793,-0.1115118935704231,0.7749481201171875,-0.0015887189656496,0.0,0.0,-0.9502229690551758,-0.3479295969009399
-0.1281169950962066,1.4431143999099731,-0.0887500718235969,-0.1156649589538574,0.7748323082923889,-0.0023158458061516,0.0,0.0,-0.9982643127441406,0.0753815174102783
-0.1289941817522049,1.4404168128967283,-0.0876016691327095,-0.1198179423809051,0.7746787667274475,-0.0030705502722412,0.0,0.0,-0.9991436004638672,-0.0736452341079711
-0.129859060049057,1.4376254081726074,-0.0863539204001426,-0.1239708513021469,0.7744861841201782,-0.0038517657667398,0.0,0.0,-0.9800498485565186,-0.1413785219192505
-0.1307107955217361,1.43474018573761,-0.0850051939487457,-0.1281237006187439,0.774253249168396,-0.0046587055549025,0.0,0.0,-0.9122039079666138,-0.1383497714996338
-0.1315483152866363,1.4317610263824463,-0.083554022014141,-0.1322764605283737,0.7739787101745605,-0.0054904092103242,0.0,0.0,-0.9943417310714722,-0.2746380567550659
-0.1323705613613128,1.4286881685256958,-0.081999197602272,-0.1364291459321975,0.7736614346504211,-0.006346030626446,0.0,0.0,-0.9603065848350524,-0.2202611565589904
-0.1331765204668045,1.4255211353302002,-0.0803397074341774,-0.1405817866325378,0.7733001708984375,-0.0072248578071594,0.0,0.0,-0.9954068064689636,0.1311311721801757
-0.1339652091264724,1.422260284423828,-0.0785747617483139,-0.1447343528270721,0.7728939056396484,-0.0081258220598101,0.0,0.0,-0.9245088696479796,-0.0561974048614501
-0.1347355842590332,1.41890549659729,-0.0767037943005561,-0.1488868594169616,0.7724415063858032,-0.0090483045205473,0.0,0.0,-0.9972352981567384,0.1585088968276977
-0.1354865133762359,1.415456771850586,-0.0747264698147773,-0.1530392915010452,0.7719419598579407,-0.0099915191531181,0.0,0.0,-0.9988040328025818,-0.1614009737968444
-0.1362168341875076,1.4119142293930054,-0.0726426616311073,-0.1571916937828064,0.7713942527770996,-0.0109547134488821,0.0,0.0,-0.9991782903671264,-0.1577379703521728
-0.1369256973266601,1.4082777500152588,-0.0704524889588356,-0.1613440364599228,0.7707973718643188,-0.0119374711066484,0.0,0.0,-0.9990050196647644,-0.2776355147361755
-0.1376119554042816,1.4045472145080566,-0.0681562796235084,-0.1654963493347168,0.7701504230499268,-0.0129387332126498,0.0,0.0,-0.9970198273658752,0.0227177143096923
