x_pos,y_pos,x_vel,y_vel,angle,ang_vel,leg_1,leg_2,main_booster,lat_booster
-0.0015554428100585,1.4031054973602295,-0.1572811752557754,-0.3473221361637115,0.0015486200572922,0.0305320359766483,0.0,0.0,0.0019340515136718,0.9819052219390868
-0.0030282021034508,1.3952099084854126,-0.1465620994567871,-0.3509150147438049,0.0008477994706481,-0.0140170427039265,0.0,0.0,0.2950502634048462,0.0101560354232788
-0.0044281957671046,1.3872697353363037,-0.1395304650068283,-0.3528953790664673,0.0003887746133841,-0.0091814175248146,0.0,0.0,-0.3003668189048767,0.4219508171081543
-0.0058595659211277,1.3788104057312012,-0.1424050629138946,-0.3759725689888,-0.0003402973234187,-0.0145828677341341,0.0,0.0,-0.2353361845016479,0.5861802101135254
-0.0072663305327296,1.3698337078094482,-0.1382285356521606,-0.3989620208740234,-0.0027535096742212,-0.0482687428593635,0.0,0.0,0.6109616756439209,0.5252664089202881
-0.0085177421569824,1.3611310720443726,-0.1217868775129318,-0.3867981731891632,-0.0060858731158077,-0.0666534453630447,0.0,0.0,-0.3183034062385559,0.3589528799057007
-0.009799862280488,1.3519092798233032,-0.1245531216263771,-0.4098770022392273,-0.0097086019814014,-0.0724609419703483,0.0,0.0,0.4178019762039184,0.5242100954055786
-0.0109271053224802,1.3430005311965942,-0.1080745458602905,-0.395987331867218,-0.0143115362152457,-0.0920671969652175,0.0,0.0,-0.4396586418151855,-0.0735512375831604
-0.012084293179214,1.3335726261138916,-0.1107568889856338,-0.4190675318241119,-0.0192163288593292,-0.0981047302484512,0.0,0.0,-0.1329110860824585,0.1903300285339355
-0.0132709499448537,1.3236262798309326,-0.1133936196565628,-0.4421386420726776,-0.0244285073131322,-0.1042529717087745,0.0,0.0,-0.2467568516731262,0.1990076303482055
-0.0144865987822413,1.3131611347198486,-0.1159814819693565,-0.4652120769023895,-0.0299530290067195,-0.1105008870363235,0.0,0.0,-0.1448583602905273,0.3934651613235473
-0.015730857849121,1.302177667617798,-0.118517056107521,-0.4882865250110626,-0.035794660449028,-0.1168430894613266,0.0,0.0,0.3026732206344604,-0.1797086000442505
-0.0168806072324514,1.291496992111206,-0.1092439442873001,-0.4748500883579254,-0.0414721705019474,-0.1135605797171592,0.0,0.0,-0.3343291878700256,-0.0923984050750732
-0.0180579181760549,1.2802975177764893,-0.1116650477051734,-0.4979323446750641,-0.0474756695330143,-0.1200809031724929,0.0,0.0,0.6187431812286377,-0.5868801474571228
-0.0191208831965923,1.26978862285614,-0.1014612913131713,-0.4672231674194336,-0.0522639453411102,-0.0957743749022483,0.0,0.0,-0.7933799028396606,-0.6189915537834167
-0.0202503204345703,1.2587568759918213,-0.1087867021560669,-0.4904560446739197,-0.0563821941614151,-0.0823723524808883,0.0,0.0,-0.5635284185409546,-0.386327862739563
-0.0214054100215435,1.2472063302993774,-0.1110086590051651,-0.5135261416435242,-0.0608370564877986,-0.0891050398349762,0.0,0.0,0.2463551759719848,-0.1031782031059265
-0.0224608425050973,1.2355507612228394,-0.1012158542871475,-0.5182073712348938,-0.0651276111602783,-0.0858188644051551,0.0,0.0,-0.4267216920852661,-0.1416366696357727
-0.0235404018312692,1.2233765125274658,-0.1032802015542984,-0.5412855744361877,-0.0697611942887306,-0.0926799848675727,0.0,0.0,-0.1879638433456421,-0.8874348998069763
-0.0247223861515522,1.2106918096542358,-0.1152079328894615,-0.5639158487319946,-0.0727391764521598,-0.0595647580921649,0.0,0.0,-0.0163759589195251,0.4481661319732666
-0.0259269718080759,1.1974881887435913,-0.1170993223786354,-0.5869904160499573,-0.0760659426450729,-0.0665413364768028,0.0,0.0,0.170167326927185,-0.677300751209259
-0.0271734241396188,1.18423593044281,-0.1223096400499343,-0.5891103148460388,-0.0783834606409072,-0.0463541373610496,0.0,0.0,-0.5436376333236694,-0.9500665664672852
-0.0284993164241313,1.1704704761505127,-0.1313858926296234,-0.6118609309196472,-0.0795707777142524,-0.0237486865371465,0.0,0.0,-0.1174476742744445,-0.5727683305740356
-0.0298850052058696,1.1561846733093262,-0.1380238831043243,-0.6349496841430664,-0.080106720328331,-0.0107199791818857,0.0,0.0,0.6001993417739868,-0.7948096394538879
-0.0314536094665527,1.1423404216766355,-0.1573003977537155,-0.6152827739715576,-0.0796801298856735,0.0085325855761766,0.0,0.0,-0.7999398112297058,0.7662346363067627
-0.0329947471618652,1.1279542446136477,-0.1530210673809051,-0.6394374370574951,-0.0807674378156662,-0.0217457730323076,0.0,0.0,-0.5080710649490356,-0.3870841264724731
-0.0345521941781044,1.1130496263504028,-0.1542798429727554,-0.6625096797943115,-0.082214668393135,-0.0289443247020244,0.0,0.0,-0.4081414937973022,0.5806188583374023
-0.0360884666442871,1.097627878189087,-0.1508857309818267,-0.6855621933937073,-0.0849272236227989,-0.0542510971426963,0.0,0.0,-0.6314530372619629,-0.8251009583473206
-0.0377171523869037,1.0817042589187622,-0.161793902516365,-0.7077696323394775,-0.0860004648566246,-0.0214643906801939,0.0,0.0,0.4336638450622558,0.0292789936065673
-0.0393403060734272,1.0658968687057495,-0.1607761234045028,-0.7026401162147522,-0.087521918118,-0.0304291434586048,0.0,0.0,-0.9228144884109496,-0.6599084138870239
-0.0410246849060058,1.0495848655700684,-0.1678152978420257,-0.7250131964683533,-0.0881319865584373,-0.0122014274820685,0.0,0.0,-0.5222226977348328,-0.1963436603546142
-0.0427188873291015,1.0327541828155518,-0.1684414446353912,-0.7480857372283936,-0.0891078785061836,-0.0195174720138311,0.0,0.0,0.6684302091598511,-0.7618014216423035
-0.0445005409419536,1.0166417360305786,-0.1781694144010543,-0.7161054611206055,-0.0891075432300567,6.775953806936741e-06,0.0,0.0,-0.5788936018943787,-0.7591069340705872
-0.0463561043143272,1.000012755393982,-0.1868721693754196,-0.7389888763427734,-0.0878036990761756,0.0260769519954919,0.0,0.0,0.7121644020080566,-0.0014596581459045
-0.0481438636779785,0.9838342666625975,-0.179794892668724,-0.7189882397651672,-0.0867892801761627,0.0202883072197437,0.0,0.0,0.0934873819351196,-0.6624940633773804
-0.0499311462044715,0.967894971370697,-0.1807297319173813,-0.708291232585907,-0.0848051533102989,0.0396825261414051,0.0,0.0,0.8331756591796875,-0.4747956991195678
-0.0517079345881938,0.952195942401886,-0.1791724413633346,-0.6976484656333923,-0.0833233520388603,0.0296359062194824,0.0,0.0,-0.4420640468597412,0.4645283222198486
-0.0534866340458393,0.9359782338142396,-0.1789985597133636,-0.7207210063934326,-0.0822090432047844,0.0222863629460334,0.0,0.0,-0.6191492080688477,-0.4167109727859497
-0.0552660003304481,0.9192419648170472,-0.1786944270133972,-0.7437933683395386,-0.0814618915319442,0.0149433389306068,0.0,0.0,0.0477774143218994,-0.4440937638282776
-0.0569955818355083,0.9025611877441406,-0.1734215021133422,-0.7413429617881775,-0.0809984430670738,0.0092686777934432,0.0,0.0,-0.7333608865737915,-0.4336104393005371
-0.058723259717226,0.8853617310523987,-0.1728640347719192,-0.7644153237342834,-0.0809009596705436,0.0019498520996421,0.0,0.0,-0.5947068929672241,-0.2365658283233642
-0.0604477897286415,0.8676435351371765,-0.1721843183040619,-0.7874874472618103,-0.0811685174703598,-0.00535120209679,0.0,0.0,0.770411491394043,-0.4415417313575744
-0.0620369911193847,0.8498966097831726,-0.1587690711021423,-0.788765549659729,-0.0813184455037117,-0.0029986726585775,0.0,0.0,0.1195610761642456,-0.4403833150863647
-0.063524529337883,0.8321581482887268,-0.1485526859760284,-0.7883827686309814,-0.0815198346972465,-0.0040278043597936,0.0,0.0,0.5148770809173584,0.2490099668502807
-0.0650206580758094,0.8143095374107361,-0.1488683968782425,-0.7933202385902405,-0.0822548195719719,-0.0146997272968292,0.0,0.0,0.9010934829711914,0.2126897573471069
-0.0664247497916221,0.7965102195739746,-0.1395542025566101,-0.7911215424537659,-0.0831047818064689,-0.0169990826398134,0.0,0.0,0.8658256530761719,-0.5532397627830505
-0.0677489265799522,0.7789401412010193,-0.1325208842754364,-0.7808883786201477,-0.0830040797591209,0.0020139687694609,0.0,0.0,0.3337007761001587,0.1808196306228637
-0.0690979957580566,0.7618686556816101,-0.1342231482267379,-0.7587655186653137,-0.0836785659193992,-0.0134896887466311,0.0,0.0,-0.1109505891799926,-0.33932626247406
-0.0704362839460372,0.7442788481712341,-0.1327957510948181,-0.7818377614021301,-0.0847062095999717,-0.0205527916550636,0.0,0.0,0.6769814491271973,-0.0818539857864379
-0.0717407241463661,0.7269444465637207,-0.1289491951465606,-0.7704992890357971,-0.0861838087439537,-0.0295521654188632,0.0,0.0,-0.1108409762382507,-0.0522693395614624
-0.0730325728654861,0.7090915441513062,-0.1273471415042877,-0.7935717105865479,-0.0880092531442642,-0.036508772522211,0.0,0.0,0.8066819906234741,-0.3758285641670227
-0.0743029564619064,0.691931962966919,-0.1245590299367904,-0.7627933025360107,-0.0904707610607147,-0.0492303669452667,0.0,0.0,-0.2062187194824218,-0.3551899790763855
-0.0755593329668045,0.6742538809776306,-0.1227999776601791,-0.7858661413192749,-0.0932738929986953,-0.0560625903308391,0.0,0.0,0.6293802261352539,-0.4993748664855957
-0.0767243355512619,0.6572317481040955,-0.1133398562669754,-0.7567392587661743,-0.0964005887508392,-0.0625340193510055,0.0,0.0,0.510383129119873,-0.80961674451828
-0.0777433365583419,0.6403408646583557,-0.1002670526504516,-0.7508146166801453,-0.0980181992053985,-0.0323520563542842,0.0,0.0,-0.1762195825576782,-0.7096227407455444
-0.0788108855485916,0.6229376792907715,-0.1064497232437133,-0.77349454164505,-0.0983283966779708,-0.0062038898468017,0.0,0.0,0.9264938831329346,0.0520150661468505
-0.0796612724661827,0.6063869595527649,-0.0849011614918708,-0.7355941534042358,-0.098457895219326,-0.002589602721855,0.0,0.0,0.8824189901351929,-0.2380093336105346
-0.0802619904279708,0.5904416441917419,-0.0603503212332725,-0.7086670398712158,-0.0981821045279502,0.0055158282630145,0.0,0.0,-0.1501549482345581,-0.5426381826400757
-0.0808815956115722,0.5739886164665222,-0.0628784745931625,-0.7311837673187256,-0.0972743481397628,0.0181552283465862,0.0,0.0,0.5262787342071533,-0.5628772974014282
-0.0815317183732986,0.5581231713294983,-0.0665533244609832,-0.7050305604934692,-0.0957391038537025,0.0307048857212066,0.0,0.0,0.6459691524505615,0.2978993654251098
-0.0820765495300293,0.5422826409339905,-0.0559585504233837,-0.7039300799369812,-0.0942756235599517,0.02926941588521,0.0,0.0,0.5494816303253174,0.3057615756988525
-0.0826333984732627,0.5269191265106201,-0.0564168877899646,-0.6827782988548279,-0.0935496315360069,0.014519864693284,0.0,0.0,0.3598464727401733,-0.1092941761016845
-0.0830291733145713,0.5116584300994873,-0.0404810011386871,-0.6781995296478271,-0.0926503613591194,0.0179851967841386,0.0,0.0,0.6771050691604614,0.0355070829391479
-0.0833230018615722,0.4968049228191376,-0.0301041342318058,-0.6601095795631409,-0.0919317677617073,0.0143717648461461,0.0,0.0,0.5259847640991211,-0.2037960290908813
-0.0835546478629112,0.4819846749305725,-0.0236359741538763,-0.6586450934410095,-0.0914651975035667,0.0093313604593276,0.0,0.0,0.4607446193695068,-0.5672233700752258
-0.0838800445199012,0.4674490988254547,-0.0335957929491996,-0.6459628343582153,-0.0904214531183242,0.0208750143647193,0.0,0.0,0.8385952711105347,-0.0830931663513183
-0.0840740203857421,0.4538143277168274,-0.0202812794595956,-0.605938732624054,-0.0895402505993843,0.0176238697022199,0.0,0.0,-0.2796733379364013,-0.0856867432594299
-0.084245964884758,0.4396606981754303,-0.0178105253726243,-0.6290104985237122,-0.0889256969094276,0.0122910244390368,0.0,0.0,0.4084097146987915,-0.3504478931427002
-0.0843079537153244,0.4260725677013397,-0.0066617848351597,-0.6038877964019775,-0.0884645581245422,0.0092226732522249,0.0,0.0,0.4929473400115967,-0.3875668048858642
-0.0843942612409591,0.412616103887558,-0.0084366388618946,-0.5980772376060486,-0.0886500030755996,-0.003709013806656,0.0,0.0,0.5587728023529053,-0.2620214223861694
-0.0844873413443565,0.3996068239212036,-0.0084644937887787,-0.5782383680343628,-0.0894825011491775,-0.0166499949991703,0.0,0.0,0.2910456657409668,-0.9490243792533876
-0.084560677409172,0.3868135213851928,-0.0081720864400267,-0.56854248046875,-0.0886479094624519,0.0166917163878679,0.0,0.0,0.253727912902832,0.3155813217163086
-0.0846511870622634,0.3744719326496124,-0.0092015601694583,-0.5485068559646606,-0.0884974673390388,0.0030090534128248,0.0,0.0,0.6406079530715942,-0.1157248020172119
-0.0845946297049522,0.3624586462974548,0.0053871213458478,-0.5339082479476929,-0.0882341042160987,0.0052673886530101,0.0,0.0,-0.2596582770347595,0.1535989046096801
-0.0845142379403114,0.3499265015125274,0.0079921120777726,-0.5569795966148376,-0.0881878212094307,0.0009255185723304,0.0,0.0,0.7904338836669922,0.0197643041610717
-0.0843052864074707,0.3373922109603882,0.0207100491970777,-0.5570696592330933,-0.0880101919174194,0.0035528857260942,0.0,0.0,0.7080399990081787,-0.3531006574630737
-0.0840739235281944,0.3248677253723144,0.0233219806104898,-0.556654691696167,-0.088185541331768,-0.0035074823535978,0.0,0.0,0.8581302165985107,-0.5138258337974548
-0.0837895423173904,0.3131686449050903,0.0277999304234981,-0.5199223756790161,-0.0875591561198234,0.0125276539474725,0.0,0.0,0.3465359210968017,-0.55088871717453
-0.0833948105573654,0.3019461631774902,0.0377628877758979,-0.4986808001995086,-0.0858639627695083,0.0339040979743003,0.0,0.0,-0.1747275590896606,-0.8653318285942078
-0.083055779337883,0.2902239561080932,0.0303085334599018,-0.5207842588424683,-0.0822994336485862,0.071290411055088,0.0,0.0,0.6820998191833496,0.2571539878845215
-0.082795426249504,0.2785033583641052,0.0232258532196283,-0.5207620859146118,-0.0795151442289352,0.0556856505572795,0.0,0.0,0.8678839206695557,0.4877357482910156
-0.0823935493826866,0.2675949335098266,0.0373231135308742,-0.4846703708171844,-0.0766829699277877,0.0566438138484954,0.0,0.0,-0.0521095395088195,-0.0969215035438537
-0.0819665938615799,0.2561676502227783,0.0399878919124603,-0.5077418088912964,-0.0740060806274414,0.0535379722714424,0.0,0.0,0.775559663772583,0.1254094839096069
-0.0815194100141525,0.2453177720308303,0.0424429811537265,-0.4821057319641113,-0.071749247610569,0.0451364107429981,0.0,0.0,0.6034750938415527,-0.5143473148345947
-0.081051155924797,0.2349728196859359,0.0436913184821605,-0.4596302211284637,-0.0686408206820488,0.0621686987578868,0.0,0.0,-0.1249464750289917,0.2532984018325805
-0.0805574432015419,0.224108949303627,0.0463580526411533,-0.4827016294002533,-0.0656646192073822,0.0595239773392677,0.0,0.0,0.5588743686676025,0.3167636394500732
-0.0799948722124099,0.2132075130939483,0.0532706566154956,-0.4843804240226745,-0.062709666788578,0.0590990968048572,0.0,0.0,0.7919211387634277,-0.35598886013031
-0.0792790427803993,0.2024315446615219,0.0682426542043685,-0.4787953495979309,-0.059406541287899,0.0660625845193862,0.0,0.0,0.6738078594207764,0.0561714172363281
-0.0783545523881912,0.1919898092746734,0.0885203629732132,-0.4639278352260589,-0.0555238202214241,0.0776542499661445,0.0,0.0,0.5336575508117676,-0.2121321558952331
-0.0772550553083419,0.1815668195486068,0.1055223122239112,-0.4630860686302185,-0.0511452294886112,0.0875717550516128,0.0,0.0,0.7527594566345215,-0.7055062651634216
-0.0761513710021972,0.1718291193246841,0.1046304851770401,-0.4326041340827942,-0.0454721711575984,0.1134611591696739,0.0,0.0,0.1543453931808471,-0.4155746698379516
-0.074976347386837,0.1623654961585998,0.1117406710982322,-0.4204427599906921,-0.0397879146039485,0.113685093820095,0.0,0.0,0.1140577793121337,-0.8997381329536438
-0.07373046875,0.1530593037605285,0.1170906201004982,-0.4134261012077331,-0.0323771089315414,0.1482162922620773,0.0,0.0,0.4975825548171997,-0.7602934837341309
-0.0724082961678505,0.1436686366796493,0.1230832114815712,-0.4171921610832214,-0.0233608782291412,0.180323988199234,0.0,0.0,0.4334790706634521,-0.948527455329895
-0.0711776763200759,0.1344244629144668,0.1121441349387168,-0.4107142388820648,-0.0125740384683012,0.2157367765903473,0.0,0.0,0.239809513092041,-0.0613709092140197
-0.0698498710989952,0.1256327480077743,0.1216154918074607,-0.3906841874122619,-0.0015565106878057,0.2203505337238311,0.0,0.0,0.1170017719268798,-0.0212346911430358
-0.068511962890625,0.1169007644057273,0.1227635741233825,-0.3881100118160248,0.0093308975920081,0.2177482396364212,0.0,0.0,0.4268612861633301,0.2395669221878051
-0.0672626495361328,0.1086801886558532,0.1144577041268348,-0.3654529154300689,0.019669696688652,0.2067760527133941,0.0,0.0,0.3540365695953369,0.4518035650253296
-0.0659281760454177,0.1008018553256988,0.1226941123604774,-0.3503208756446838,0.0302924904972314,0.2124560177326202,0.0,0.0,0.1224064826965332,0.3498039245605469
-0.0646203979849815,0.0931684374809265,0.1202325820922851,-0.339504987001419,0.0407062955200672,0.2082760035991668,0.0,0.0,0.4560338258743286,0.8180038928985596
-0.0633317977190017,0.0860112309455871,0.1201195493340492,-0.3183633685111999,0.0493423640727996,0.1727212518453598,0.0,0.0,0.1879118680953979,0.2168961763381958
-0.0620539672672748,0.0788709744811058,0.119162417948246,-0.3176543116569519,0.0578647069633007,0.1704471260309219,0.0,0.0,0.3870600461959839,0.8949253559112549
-0.0608214363455772,0.0719658210873603,0.1165645569562912,-0.3071694672107696,0.0644711405038833,0.1321286857128143,0.0,0.0,0.5048220157623291,0.755516529083252
-0.0596872344613075,0.0652454197406768,0.1085490584373474,-0.2989002168178558,0.0692934691905975,0.0964469462633133,0.0,0.0,0.3533098697662353,0.7544562816619873
-0.0584131255745887,0.0589078292250633,0.123941421508789,-0.2818371057510376,0.0727313533425331,0.0687577053904533,0.0,0.0,0.360055923461914,-0.0531179904937744
-0.0570865646004676,0.0525112263858318,0.1289603114128112,-0.2844784557819366,0.0763882920145988,0.0731384232640266,0.0,0.0,0.6607604026794434,-0.2948745489120483
-0.0556492805480957,0.0467594228684902,0.1393672376871109,-0.2558642029762268,0.0807085409760475,0.0864049643278122,0.0,0.0,0.3331754207611084,0.1140617132186889
-0.0542571060359478,0.0414227582514286,0.1349405348300933,-0.237418845295906,0.0849353745579719,0.0845367461442947,0.0,0.0,0.5266069173812866,-0.7853402495384216
-0.0528250709176063,0.0367674455046653,0.137132853269577,-0.2072632163763046,0.0909579992294311,0.1204524040222168,0.0,0.0,0.2720277309417724,-0.5050681233406067
-0.0513866432011127,0.0322634801268577,0.1366124302148819,-0.2006324380636215,0.0981287360191345,0.1434147357940673,0.0,0.0,0.4010336399078369,-0.680178165435791
-0.050053883343935,0.0282726380974054,0.1246932297945022,-0.1779528111219406,0.1066406443715095,0.1702383607625961,0.0,0.0,0.3725578784942627,0.0391386747360229
-0.0487180724740028,0.0247477144002914,0.1247644573450088,-0.1573156714439392,0.1153874471783638,0.1749360263347625,0.0,0.0,-0.0043677687644958,-0.1525406837463379
-0.0473600402474403,0.0207047313451766,0.1269884407520294,-0.1803918480873108,0.1241377368569374,0.1750060319900512,0.0,0.0,0.5675308704376221,0.0597002506256103
-0.0461680404841899,0.0169953443109989,0.1109400242567062,-0.1655722111463546,0.132356196641922,0.1643691509962082,0.0,0.0,0.2833185195922851,0.0522822141647338
-0.0451061241328716,0.0133425332605838,0.0983978062868118,-0.1630602926015854,0.1401196122169494,0.1552683413028717,0.0,1.0,0.9372680187225342,0.9937921762466432
-0.0441247932612896,0.0106048919260501,0.1019558906555175,-0.1216278374195098,0.135347306728363,-0.0967348143458366,0.0,1.0,0.635441780090332,0.7174218893051147
-0.0432216636836528,0.008619163185358,0.1092449873685836,-0.0866627246141433,0.1164577677845954,-0.3778625428676605,0.0,1.0,-0.017112910747528,0.0160542726516723
-0.0423775687813758,0.0065039373002946,0.113573208451271,-0.0920038595795631,0.0874623134732246,-0.579975426197052,0.0,1.0,0.4307577610015869,-0.4673114418983459
-0.0415312759578228,0.0049427486956119,0.1180265396833419,-0.0677789747714996,0.0543638542294502,-0.6620303392410278,0.0,1.0,0.1845825910568237,-0.6715407967567444
-0.0407357215881347,0.0037259196396917,0.1108316928148269,-0.0532450601458549,0.0234429351985454,-0.6184511780738831,0.0,1.0,0.2489073276519775,-0.7642500996589661
