x_pos,y_pos,x_vel,y_vel,angle,ang_vel,leg_1,leg_2,main_booster,lat_booster
-0.0016621589893475,1.4031507968902588,-0.1680342257022857,-0.34530770778656,0.0016304056625813,0.0321512855589389,0.0,0.0,0.48550208712862,0.8991270933507072
-0.0033403397537767,1.3955488204956057,-0.1674627512693405,-0.3378661274909973,0.0012798703974112,-0.0070106810890138,0.0,0.0,0.4400618032837808,-0.3573694419742393
-0.0050404546782374,1.3880008459091189,-0.1699810326099395,-0.335466206073761,0.0012549762614071,-0.0004979064688086,0.0,0.0,0.2533255454686229,-0.1620871619807139
-0.0069684027694165,1.380547285079956,-0.1920987069606781,-0.3312672674655914,0.0005620081210508,-0.0138609232380986,0.0,0.0,-0.9282702468934916,0.195161837001344
-0.0090326312929391,1.3726199865341189,-0.2054762095212936,-0.3523269593715668,-0.0003643447707872,-0.0185286216437816,0.0,0.0,0.7312597007645467,0.2041310773091896
-0.0110878944396972,1.36507248878479,-0.2050465047359466,-0.3354438841342926,-0.0008374695898965,-0.0094636138528585,0.0,0.0,0.3873451507225338,-0.3441559476427867
-0.0132958414033055,1.3577784299850464,-0.2199840247631073,-0.3241786658763885,-0.0016359799774363,-0.0159715563058853,0.0,0.0,-0.7759233276608415,0.1696965378877968
-0.015636634081602,1.350010633468628,-0.2330395877361297,-0.3452381789684295,-0.0026685544289648,-0.0206535868346691,0.0,0.0,0.4609485239308388,-0.5029595883609481
-0.0181583408266305,1.3428846597671509,-0.2518513798713684,-0.3167064785957336,-0.0029705313500016,-0.0060403533279895,0.0,0.0,0.58373413148948,0.9585080309208684
-0.02073335647583,1.3363349437713623,-0.2550440728664398,-0.2911047637462616,-0.0054078088141977,-0.0487498864531517,0.0,0.0,-0.3079257626415548,0.1746466709306896
-0.023437213152647,1.3293113708496094,-0.2676731944084167,-0.312166303396225,-0.0080789271742105,-0.0534273982048034,0.0,0.0,0.6856135512449613,0.0595386932070888
-0.026191521435976,1.3226218223571775,-0.2728276550769806,-0.2973278164863586,-0.0106440838426351,-0.0513079985976219,0.0,0.0,-0.588678788038262,0.2451417170922533
-0.0290708541870117,1.3154584169387815,-0.2851066887378692,-0.3183923065662384,-0.0134451035410165,-0.0560257546603679,0.0,0.0,0.3382323252904791,0.6746670820753758
-0.0319543853402137,1.3082444667816162,-0.2840375900268554,-0.3206649720668793,-0.0177095402032136,-0.0852966383099556,0.0,0.0,0.2451478849011732,-0.8113237658975949
-0.0348904617130756,1.3014956712722778,-0.2908069491386413,-0.2999873161315918,-0.0204757507890462,-0.0553290024399757,0.0,0.0,-0.5268945904103768,0.1595806051303487
-0.0379450805485248,1.294273018836975,-0.3024302124977112,-0.3210514783859253,-0.0234804172068834,-0.0600988790392875,0.0,0.0,0.5501354016443345,0.2890232099656876
-0.0409677512943744,1.2877758741378784,-0.2995939552783966,-0.2888051867485046,-0.0261156912893056,-0.0527101941406726,0.0,0.0,-0.8397815111643872,0.4193310104495132
-0.0441036224365234,1.2808048725128174,-0.3106778860092163,-0.3098732531070709,-0.028990613296628,-0.0575035288929939,0.0,0.0,0.9218762520776158,0.8412180744930647
-0.0471323952078819,1.2747602462768557,-0.2982955276966095,-0.2687425315380096,-0.0335156433284282,-0.0905093997716903,0.0,0.0,-0.0401743820326911,-0.353868154503707
-0.0502679832279682,1.268242120742798,-0.3087378144264221,-0.2898136079311371,-0.0382816232740879,-0.0953281968832016,0.0,0.0,-0.0170219657521308,0.4401529907504233
-0.0535067543387413,1.2612504959106443,-0.3188214600086212,-0.3108693957328796,-0.0432905741035938,-0.100188136100769,0.0,0.0,-0.922617806641738,-0.7617723301876539
-0.0569041259586811,1.2537851333618164,-0.3359317481517792,-0.3319080471992492,-0.0470598749816417,-0.0753925368189811,0.0,0.0,0.6981245419142228,0.1017938533671618
-0.0602373108267784,1.2466754913330078,-0.32988241314888,-0.3160994350910187,-0.0504558533430099,-0.0679257959127426,0.0,0.0,-0.1522489037540779,0.5927285899679996
-0.0636093169450759,1.2390817403793335,-0.3321900963783264,-0.3376795351505279,-0.0554178021848201,-0.099247857928276,0.0,0.0,0.3529223871123046,-0.6135455319457754
-0.0672142058610916,1.2318203449249268,-0.3562069833278656,-0.3228935301303863,-0.0596599280834198,-0.0848499536514282,0.0,0.0,0.5422015010704735,-0.8836750840461962
-0.0710842162370681,1.225072741508484,-0.3840300440788269,-0.300015240907669,-0.062600277364254,-0.0588068477809429,0.0,0.0,-0.3915244692241808,0.7741160219015824
-0.0749683380126953,1.217850923538208,-0.3836138844490051,-0.3211810886859894,-0.0673480704426765,-0.0949561819434166,0.0,0.0,0.0230227416751989,0.5894616890312732
-0.0789322853088378,1.2109313011169434,-0.3900210559368133,-0.3078366816043854,-0.0736491233110427,-0.1260212957859039,0.0,0.0,-0.6011104278462853,0.0964359571894577
-0.0829603224992752,1.2035386562347412,-0.3961713016033172,-0.3288972079753876,-0.0802154764533042,-0.1313270926475525,0.0,0.0,-0.5690657117211289,0.985163907343672
-0.0869714766740799,1.1956608295440674,-0.3922975659370422,-0.3506269454956054,-0.0889461562037468,-0.1746135056018829,0.0,0.0,0.6260184986356887,0.9532139198408944
-0.090863324701786,1.1885534524917605,-0.3782182931900024,-0.316566526889801,-0.0998201295733451,-0.2174799740314483,0.0,0.0,-0.8575692176818848,-0.8897380232810974
-0.0948790535330772,1.1809810400009155,-0.3923515677452087,-0.3372011184692383,-0.1089705675840377,-0.1830089539289474,0.0,0.0,-0.4477282762527466,-0.6473779678344727
-0.0989894866943359,1.172951579093933,-0.4030369818210602,-0.3574675917625427,-0.1169323101639747,-0.1592346727848053,0.0,0.0,-0.9038614630699158,0.365687608718872
-0.1031301468610763,1.1644498109817505,-0.4057705402374267,-0.3785311579704284,-0.1251805126667022,-0.1649637818336486,0.0,0.0,-0.8293173909187317,0.6718106269836426
-0.1072392463684082,1.1554670333862305,-0.4009493887424469,-0.4001039266586303,-0.1350966840982437,-0.1983236521482467,0.0,0.0,-0.4547845125198364,0.4577888250350952
-0.1113636046648025,1.146012306213379,-0.4021815359592438,-0.4211709201335907,-0.1453082412481308,-0.2042308151721954,0.0,0.0,-0.4550178050994873,0.8156411647796631
-0.1154346466064453,1.13606858253479,-0.3950235843658447,-0.4431702494621277,-0.1573816239833831,-0.2414677888154983,0.0,0.0,-0.7078534960746765,0.6740820407867432
-0.1194491386413574,1.125645637512207,-0.3876405656337738,-0.4647577702999115,-0.1711906790733337,-0.2761812806129455,0.0,0.0,-0.8661122918128967,0.8903193473815918
-0.1233896240592002,1.1147456169128418,-0.3783206045627594,-0.4863387942314148,-0.186969518661499,-0.3155772089958191,0.0,0.0,-0.8476902842521667,-0.4678679704666137
-0.1273145675659179,1.1033759117126465,-0.3764976263046264,-0.507419764995575,-0.2030606418848037,-0.3218227624893188,0.0,0.0,-0.6900511384010315,0.668118953704834
-0.1311729401350021,1.0915294885635376,-0.3685031533241272,-0.5289906859397888,-0.2205687314271927,-0.3501614928245544,0.0,0.0,-0.7980260252952576,0.5937501192092896
-0.1349459588527679,1.0791945457458496,-0.3582834601402282,-0.5511720180511475,-0.2398382276296615,-0.3853903114795685,0.0,0.0,-0.7002238035202026,-0.0822035670280456
-0.138681024312973,1.0663920640945437,-0.3542648553848266,-0.5722641348838806,-0.2594306170940399,-0.3918479084968567,0.0,0.0,0.1951940059661865,-0.4580733776092529
-0.142203614115715,1.0536483526229858,-0.3331248462200165,-0.5698874592781067,-0.2790166437625885,-0.3917203545570373,0.0,0.0,-0.2729544639587402,-0.6250683069229126
-0.1457264870405197,1.0404515266418457,-0.3342525064945221,-0.5900813937187195,-0.2975847721099853,-0.3713628053665161,0.0,0.0,0.0079264640808105,-0.2028253078460693
-0.1491048783063888,1.0270664691925049,-0.3196979761123657,-0.5987020134925842,-0.3163540661334991,-0.3753861784934997,0.0,0.0,0.1584985256195068,-0.2287939190864563
-0.15228071808815,1.013640522956848,-0.2994390726089477,-0.6007859110832214,-0.3352581262588501,-0.378081351518631,0.0,0.0,-0.2888776063919067,-0.923105776309967
-0.1554656028747558,0.9997982382774352,-0.3022859394550323,-0.6190752387046814,-0.35224449634552,-0.3397273123264313,0.0,0.0,0.6714327335357666,-0.7981958985328674
-0.1584961861371994,0.9867253303527832,-0.2879380583763122,-0.5848080515861511,-0.3681806921958923,-0.3187237679958343,0.0,0.0,0.9603173732757568,-0.6182305812835693
-0.1612996160984039,0.9740667343139648,-0.2661358416080475,-0.5663300156593323,-0.3832546770572662,-0.3014797270298004,0.0,0.0,0.8339443206787109,-0.9570339322090148
-0.1636860817670822,0.961763083934784,-0.226305291056633,-0.5502085089683533,-0.396424800157547,-0.2634021937847137,0.0,0.0,0.4142335653305053,-0.7865802645683289
-0.1658456772565841,0.9499343037605286,-0.204820916056633,-0.5288788080215454,-0.4083701968193054,-0.2389078438282013,0.0,0.0,0.369387149810791,-0.9687739014625548
-0.1677402555942535,0.9381203055381776,-0.1799763441085815,-0.5278313159942627,-0.4185955226421356,-0.2045065909624099,0.0,0.0,0.7412853240966797,-0.93366140127182
-0.1692564040422439,0.9270379543304444,-0.1436530947685241,-0.494932621717453,-0.4271992743015289,-0.1720750331878662,0.0,0.0,0.7501978874206543,-0.9871854186058044
-0.1703673303127288,0.9161242842674256,-0.1049585491418838,-0.4869328737258911,-0.4338647425174713,-0.13330939412117,0.0,0.0,0.7810968160629272,-0.9828903079032898
-0.1713356971740722,0.9055476784706116,-0.0921422392129898,-0.471528559923172,-0.4389710128307342,-0.1021254807710647,0.0,0.0,0.520336389541626,-0.9686644673347472
-0.1718614548444748,0.8954889178276062,-0.0495326295495033,-0.4480152130126953,-0.4422874450683594,-0.0663284584879875,0.0,0.0,0.4501048326492309,-0.9569163918495178
-0.171964555978775,0.885723352432251,-0.0089107286185026,-0.4344622492790222,-0.4438227415084839,-0.0307056102901697,0.0,0.0,-0.1425010561943054,-0.9000795483589172
-0.1720072776079177,0.8755341172218323,-0.0040937946178019,-0.4529131650924682,-0.4440191984176636,-0.0039290590211749,0.0,0.0,0.1025314331054687,-0.938152015209198
-0.171827033162117,0.8656765818595886,0.016680009663105,-0.4376861155033111,-0.4425490200519562,0.029403394088149,0.0,0.0,-0.3177261352539062,-0.8830348253250122
-0.1715879440307617,0.8553810715675354,0.0213017500936985,-0.4567680060863495,-0.4397136270999908,0.0567079074680805,0.0,0.0,-0.1765614748001098,-0.8492841124534607
-0.171297550201416,0.8446671366691589,0.0248165167868137,-0.4748624265193939,-0.435110479593277,0.0920628756284713,0.0,0.0,-0.8631753325462341,-0.7426577210426331
-0.1709274351596832,0.8335086703300476,0.0319311022758483,-0.4943566620349884,-0.4295773208141327,0.1106630340218544,0.0,0.0,-0.796548068523407,-0.8217676281929016
-0.1704889237880706,0.8219185471534729,0.0374882332980632,-0.5131958723068237,-0.4226897060871124,0.137752503156662,0.0,0.0,-0.8355615735054016,-0.8731853365898132
-0.1699882447719574,0.8098926544189453,0.042314488440752,-0.5321840643882751,-0.4143024384975433,0.1677462011575698,0.0,0.0,-0.9837625622749328,-0.721390962600708
-0.1694224327802658,0.7974368929862976,0.0473689995706081,-0.5509176254272461,-0.4043842554092407,0.1983630061149597,0.0,0.0,-0.9501347541809082,-0.5560739040374756
-0.168764591217041,0.7845407128334045,0.0557240657508373,-0.5703261494636536,-0.39361172914505,0.215450569987297,0.0,0.0,-0.9635531902313232,-0.0908479690551757
-0.1679766625165939,0.7711735963821411,0.0689283162355423,-0.5913988351821899,-0.3830934464931488,0.2103654891252517,0.0,0.0,-0.9518093466758728,0.4157836437225342
-0.1670575141906738,0.7573352456092834,0.0822413712739944,-0.6124705672264099,-0.3728187978267669,0.2054931819438934,0.0,0.0,-0.9724047780036926,0.0494325160980224
-0.1660059988498687,0.7430258393287659,0.0956535339355468,-0.6335414052009583,-0.36277636885643,0.2008488178253173,0.0,0.0,-0.960959255695343,0.2616469860076904
-0.1648213416337967,0.7282447814941406,0.1091559305787086,-0.6546114087104797,-0.3529540598392486,0.1964470446109771,0.0,0.0,-0.9487202167510986,-0.4379578232765198
-0.1635024100542068,0.712992250919342,0.1227404251694679,-0.6756804585456848,-0.3433389365673065,0.1923019886016845,0.0,0.0,-0.9588743448257446,-0.7164624333381653
-0.1621108055114746,0.6973099708557129,0.1284405887126922,-0.6944735050201416,-0.3321270942687988,0.2242366969585418,0.0,0.0,-0.951696276664734,-0.6163205504417419
-0.160623550415039,0.6811772584915161,0.1370831429958343,-0.7143751978874207,-0.3199887573719024,0.2427673786878585,0.0,0.0,-0.9029394388198853,-0.5029846429824829
-0.1590399742126464,0.6645894646644592,0.1457778513431549,-0.7345059514045715,-0.3069359958171844,0.2610552906990051,0.0,0.0,-0.894930362701416,-0.8893213272094727
-0.1573801040649414,0.6475503444671631,0.1519589722156524,-0.7543988823890686,-0.2924366295337677,0.2899872362613678,0.0,0.0,-0.8110436797142029,-0.6879183650016785
-0.1556379348039627,0.6300590634346008,0.1588306725025177,-0.7743843197822571,-0.2766076624393463,0.3165796399116516,0.0,0.0,-0.6569380164146423,-0.5620472431182861
-0.1537990570068359,0.6121211647987366,0.1674118191003799,-0.7942147850990295,-0.2597376406192779,0.3374002575874328,0.0,0.0,-0.330157995223999,-0.1668481826782226
-0.1518206596374511,0.5937134027481079,0.1813875436782837,-0.8152955174446106,-0.2429711669683456,0.3353295624256134,0.0,0.0,-0.0996183156967163,-0.4115533232688904
-0.1497023552656173,0.5748358368873596,0.1954012066125869,-0.8363756537437439,-0.2262922674417495,0.3335781097412109,0.0,0.0,0.4248254299163818,-0.7322065830230713
-0.1475578248500824,0.555959939956665,0.1967720091342926,-0.8363122940063477,-0.2084146589040756,0.3575521111488342,0.0,0.0,0.4483143091201782,0.0959577560424804
-0.1450943052768707,0.5376206040382385,0.2284876853227615,-0.8126615881919861,-0.1904293447732925,0.3597064614295959,0.0,0.0,-0.086776316165924,-0.6400172114372253
-0.142547607421875,0.5188289880752563,0.235300064086914,-0.8328096270561218,-0.1709832698106765,0.3889214396476745,0.0,0.0,0.7574424743652344,-0.0692763328552246
-0.1397939622402191,0.5006492733955383,0.2562220394611358,-0.8058993220329285,-0.1518317908048629,0.3830296695232391,0.0,0.0,0.345618724822998,-0.1075894832611084
-0.136821836233139,0.4828472137451172,0.2780709266662597,-0.7893596887588501,-0.1327351629734039,0.3819326758384704,0.0,0.0,0.7134526968002319,0.0045142173767089
-0.1335379630327224,0.4654555320739746,0.3087728917598724,-0.771333634853363,-0.1132153794169426,0.390395313501358,0.0,0.0,0.3872182369232178,-0.0812325477600097
-0.1300593316555023,0.4480200409889221,0.3280929923057556,-0.7735252380371094,-0.09358461946249,0.3926151096820831,0.0,0.0,0.6116912364959717,-0.7802795767784119
-0.1263633668422699,0.430692046880722,0.3479936718940735,-0.7689235210418701,-0.0721890851855278,0.427910566329956,0.0,0.0,0.5375180244445801,-0.4013015627861023
-0.1223495453596115,0.4136767387390136,0.3790595829486847,-0.755308210849762,-0.0501149334013462,0.4414833188056946,0.0,0.0,0.7341065406799316,-0.3211230039596557
-0.1180258765816688,0.3968034982681274,0.4092891216278076,-0.7493075132369995,-0.0273063145577907,0.456172227859497,0.0,0.0,0.9140756130218506,-0.7319092154502869
-0.1135999709367752,0.3807769119739532,0.4179543852806091,-0.71202152967453,-0.0029887554701417,0.4863511919975281,0.0,0.0,0.896997332572937,0.0315933227539062
-0.1089926734566688,0.3655909597873688,0.4358468055725097,-0.6750686168670654,0.0215735044330358,0.4912455081939697,0.0,0.0,0.8948140144348145,-0.3021165728569031
-0.1041158661246299,0.3510914444923401,0.4620591998100281,-0.6449874043464661,0.046887245029211,0.5062747001647949,0.0,0.0,0.9278333187103271,-0.5955873727798462
-0.0990350693464279,0.3366972804069519,0.480835348367691,-0.6408124566078186,0.0738335773348808,0.5389269590377808,0.0,0.0,0.987130880355835,0.3463649749755859
-0.0939192771911621,0.3227483630180359,0.4845700263977051,-0.6215039491653442,0.1005973741412162,0.5352762341499329,0.0,0.0,0.9886281490325928,0.3826693296432495
-0.0886632949113845,0.3099007308483124,0.4980652332305908,-0.573086142539978,0.1279509216547012,0.5470708608627319,0.0,0.0,0.9837517738342284,-0.2637617588043213
-0.083379365503788,0.2976007461547851,0.5009618997573853,-0.5492465496063232,0.1553016901016235,0.5470157265663147,0.0,0.0,0.9931811094284058,-0.0118213295936584
-0.0782492607831955,0.2862243950366974,0.486243337392807,-0.5086297392845154,0.1820926368236541,0.5358189344406128,0.0,0.0,0.8578596115112305,0.7189619541168213
-0.0729588493704795,0.275589108467102,0.5034611821174622,-0.4760236442089081,0.2078250646591186,0.5146490335464478,0.0,0.0,0.95554780960083,0.7508985996246338
-0.0677187889814376,0.2657944858074188,0.5000563859939575,-0.4388655126094818,0.2320332825183868,0.4841650426387787,0.0,0.0,0.9109647274017334,0.6789450645446777
-0.0625842064619064,0.2567856907844543,0.4910958409309387,-0.4040742218494415,0.2547692656517029,0.4547199606895447,0.0,0.0,0.8941113948822021,0.4571596384048462
-0.0574785247445106,0.2481282353401184,0.4883099198341369,-0.3887996673583984,0.2775346636772156,0.4553080201148987,0.0,0.0,0.9490081071853638,0.6681325435638428
-0.0525164604187011,0.2399889081716537,0.4756130278110504,-0.3658023774623871,0.298737108707428,0.4240497648715973,0.0,0.0,0.6635210514068604,0.1654677391052246
-0.0477118492126464,0.2320712357759475,0.4604963660240173,-0.3561312854290008,0.3194109201431274,0.413476288318634,0.0,0.0,0.7256813049316406,0.1276583671569824
-0.0428956970572471,0.2248072475194931,0.4611299037933349,-0.3275081515312195,0.3407732248306274,0.4272467195987701,0.0,0.0,0.8307151794433594,0.233327031135559
-0.0380103103816509,0.2176882326602935,0.4677454531192779,-0.3214712738990783,0.362631231546402,0.4371606707572937,0.0,0.0,0.7896606922149658,-0.3288741111755371
-0.0331295952200889,0.2113452106714248,0.4665878713130951,-0.2875154316425323,0.3854014575481415,0.4554044306278229,0.0,0.0,0.9299499988555908,0.3751685619354248
-0.0284732822328805,0.2057807296514511,0.4442854821681976,-0.2532537579536438,0.4082376062870025,0.4567230641841888,0.0,0.0,0.8374794721603394,-0.1344264149665832
-0.0239078514277935,0.2011530250310897,0.4345524907112121,-0.2122009694576263,0.4320010244846344,0.4752681255340576,0.0,0.0,0.4042444229125976,0.4503664970397949
-0.0193495750427246,0.1967715173959732,0.4336257576942444,-0.2017553448677063,0.4562612771987915,0.4852051138877868,0.0,0.0,0.1293287277221679,0.3644082546234131
-0.0149019239470362,0.1926728039979934,0.4226730465888977,-0.1895993053913116,0.480699211359024,0.4887586534023285,0.0,0.0,-0.319215178489685,0.5224370956420898
-0.0102763175964355,0.1881435960531234,0.4416280388832092,-0.2087630927562713,0.5041258335113525,0.4685321748256683,0.0,0.0,0.089752197265625,0.3988358974456787
-0.0056114196777343,0.1835840493440628,0.4454429745674133,-0.2105831205844879,0.5280054211616516,0.4775921702384949,0.0,0.0,-0.0676153898239135,0.4660489559173584
-0.0008079528925009,0.1785588860511779,0.4593913555145263,-0.2316892296075821,0.5520952939987183,0.4817988872528076,0.0,0.0,0.5237504243850708,0.8601052761077881
0.0038293837569653,0.1736202538013458,0.4446022510528564,-0.2275242060422897,0.5744110345840454,0.4463142454624176,0.0,0.0,0.0713863372802734,0.3904827833175659
0.00839405041188,0.1686640381813049,0.4374758601188659,-0.228646844625473,0.5968785881996155,0.449352890253067,0.0,0.0,0.3296743631362915,0.402069091796875
0.0128715513274073,0.1637917160987854,0.4287946820259094,-0.225328043103218,0.6196622252464294,0.4556725919246673,0.0,0.0,0.2810006141662597,0.586374044418335
0.0174530986696481,0.158925399184227,0.4401927590370178,-0.2250058501958847,0.641599714756012,0.4387503564357757,0.0,0.0,0.4649263620376587,0.6978689432144165
0.021925926208496,0.1544569879770279,0.4305311739444732,-0.2071050554513931,0.6623910665512085,0.4158267378807068,0.0,0.0,0.0430922508239746,0.3936370611190796
0.0262331962585449,0.1501382738351822,0.4140096604824066,-0.2008103728294372,0.6834831237792969,0.4218417704105377,0.0,0.0,-0.1055742502212524,0.9235177040100098
0.0307406429201364,0.1454188674688339,0.4358598589897156,-0.2179819643497467,0.7025784850120544,0.3819077908992767,0.0,0.0,0.4876927137374878,0.7580351829528809
