x_pos,y_pos,x_vel,y_vel,angle,ang_vel,leg_1,leg_2,main_booster,lat_booster
-0.001457977341488,1.4033339023590088,-0.1476248204708099,-0.3371663391590118,0.0016405899077653,0.0323530510067939,0.0,0.0,0.0608597993850708,0.823958158493042
-0.002744770143181,1.395920753479004,-0.1285858452320099,-0.329473465681076,0.0015456882538273,-0.0018975265556946,0.0,0.0,0.0307786464691162,0.1113950014114379
-0.0038785934448242,1.388594627380371,-0.1136113554239273,-0.3256042599678039,0.0017689244123175,0.0044651799835264,0.0,0.0,-0.2618199586868286,0.4915797710418701
-0.0049406052567064,1.3809778690338137,-0.1063452586531639,-0.3385249674320221,0.0019124494865536,0.0028708726167678,0.0,0.0,-0.5446397066116333,0.5251586437225342
-0.0058788298629224,1.3730722665786743,-0.0926136374473571,-0.3513582646846771,0.0007192405755631,-0.0238665230572223,0.0,0.0,-0.6667850613594055,-0.4133132696151733
-0.0067415237426757,1.3648761510849,-0.0849948301911354,-0.3642742931842804,-0.0005456865183077,-0.0253009591251611,0.0,0.0,-0.5512611269950867,-0.197459876537323
-0.0075271604582667,1.356389403343201,-0.0772101804614067,-0.3771903812885284,-0.0018795594805851,-0.0266799330711364,0.0,0.0,-0.5038639903068542,0.1135401725769043
-0.0082339290529489,1.3476120233535769,-0.0692649036645889,-0.3901064991950989,-0.0032783464994281,-0.0279783997684717,0.0,0.0,-0.7948142886161804,-0.15586918592453
-0.0088603971526026,1.3385441303253174,-0.0611647441983222,-0.4030227065086365,-0.0047381487675011,-0.0291988737881183,0.0,0.0,-0.8883079290390015,-0.5524842143058777
-0.0094485282897949,1.3291893005371094,-0.0583811178803443,-0.4157687723636627,-0.0051589827053248,-0.008417697623372,0.0,0.0,-0.653685450553894,-0.4333655834197998
-0.0099532129243016,1.319543957710266,-0.0499918833374977,-0.4286850988864898,-0.0056333513930439,-0.009488402865827,0.0,0.0,0.2431851625442505,-0.6578831076622009
-0.0103634838014841,1.3102028369903564,-0.0419155284762382,-0.4151598215103149,-0.0047534410841763,0.0175997838377952,0.0,0.0,-0.7535953521728516,0.0132321119308471
-0.010687637142837,1.300571084022522,-0.0332608148455619,-0.4280808269977569,-0.0039191334508359,0.0166877601295709,0.0,0.0,-0.7437598705291748,-0.8312259316444397
-0.0109825134277343,1.290641188621521,-0.0317636802792549,-0.441319853067398,-0.001665745745413,0.0450718663632869,0.0,0.0,-0.5957324504852295,-0.6746203303337097
-0.0112296100705862,1.2804279327392578,-0.0279801189899444,-0.4539205729961395,0.0015753199113532,0.0648272186517715,0.0,0.0,-0.7863309383392334,-0.8449114561080933
-0.0114414216950535,1.2699142694473269,-0.0258130878210067,-0.4672859907150268,0.0061550145037472,0.0916018038988113,0.0,0.0,-0.8872491717338562,-0.2077580690383911
-0.0115624424070119,1.2591102123260498,-0.0166980121284723,-0.4802039563655853,0.0107053508982062,0.0910148471593856,0.0,0.0,-0.9102472066879272,-0.2643978595733642
-0.0115914344787597,1.2480158805847168,-0.0074785761535167,-0.4931217432022095,0.0152308903634548,0.0905188173055648,0.0,0.0,-0.928566038608551,0.2457578182220459
-0.0115275382995605,1.236631155014038,0.0018393339123576,-0.5060398578643799,0.0197351332753896,0.0900929644703865,0.0,0.0,-0.9101560711860656,0.6931319236755371
-0.0113222124055027,1.2249571084976196,0.0172006580978631,-0.5188944935798645,0.0230293441563844,0.0658901780843734,0.0,0.0,-0.8835099339485168,-0.4779898524284363
-0.0110219959169626,1.2129924297332764,0.026703655719757,-0.5318119525909424,0.0263100564479827,0.0656199008226394,0.0,0.0,-0.7931885123252869,-0.5951015949249268
-0.0106721874326467,1.2007324695587158,0.0305099822580814,-0.5449806451797485,0.0307396836578845,0.0886002257466316,0.0,0.0,-0.902918815612793,0.880325436592102
-0.0101410867646336,1.1881844997406006,0.0507828965783119,-0.5577357411384583,0.0330340974032878,0.0458923801779747,0.0,0.0,-0.8606799244880676,0.184213638305664
-0.0095127103850245,1.17534601688385,0.0605228468775749,-0.5706527233123779,0.03532500192523,0.045822225511074,0.0,0.0,-0.8023256063461304,-0.4432665109634399
-0.0087862014770507,1.1622169017791748,0.0703301280736923,-0.5835698843002319,0.037613533437252,0.0457747504115104,0.0,0.0,-0.9135075211524964,0.2883636951446533
-0.0079605104401707,1.1487758159637451,0.0802551731467247,-0.5974400639533997,0.0399028174579143,0.0457856208086013,0.0,0.0,-0.962283492088318,-0.4430127739906311
-0.0070354463532567,1.1350442171096802,0.090190902352333,-0.6103548407554626,0.0421959944069385,0.0458637475967407,0.0,0.0,-0.8105238080024719,-0.6719154715538025
-0.0060751913115382,1.1210252046585083,0.0920489877462387,-0.6231881380081177,0.046121634542942,0.078512892127037,0.0,0.0,-0.9288048148155212,-0.3028431534767151
-0.0050145150162279,1.1067157983779907,0.1020882129669189,-0.6361038684844971,0.0500566847622394,0.0787011533975601,0.0,0.0,-0.8538874387741089,-0.8025869131088257
-0.0039184568449854,1.092108130455017,0.103945717215538,-0.6494289040565491,0.0556568801403045,0.112003780901432,0.0,0.0,-0.6605019569396973,-0.4726868867874145
-0.0027209282852709,1.0772103071212769,0.1140707954764366,-0.6623460054397583,0.0612712800502777,0.1122878640890121,0.0,0.0,-0.6417151689529419,-0.7124441266059875
-0.0014851570595055,1.0620125532150269,0.1162760034203529,-0.6757736206054688,0.0685042515397071,0.1446593254804611,0.0,0.0,-0.6615745425224304,-0.5129756927490234
-0.0001934051542775,1.0465251207351685,0.1206695660948753,-0.6887431740760803,0.0769157260656356,0.168229341506958,0.0,0.0,-0.8002968430519104,-0.3850195407867431
0.0012005806202068,1.0307480096817017,0.130891352891922,-0.7016635537147522,0.0853474289178848,0.1686341166496276,0.0,0.0,-0.8533134460449219,0.1844791173934936
0.0026973723433911,1.0146815776824951,0.1411368548870086,-0.7145839929580688,0.0938011407852172,0.1690741330385208,0.0,0.0,0.1177788972854614,0.352394700050354
0.0042612077668309,0.99909108877182,0.1477780640125274,-0.6934667229652405,0.1023353785276413,0.1706850826740265,0.0,0.0,-0.3436368703842163,-0.2277825474739074
0.0059280395507812,0.9832112789154052,0.1580584347248077,-0.7063873410224915,0.1108947843313217,0.1711884886026382,0.0,0.0,-0.7455161213874817,-0.28909832239151
0.0076980590820312,0.9670419096946716,0.1683499217033386,-0.7193080186843872,0.1194808110594749,0.1717205345630645,0.0,0.0,-0.5453593730926514,0.4650361537933349
0.0095711704343557,0.9505829215049744,0.1786483377218246,-0.732228696346283,0.1280947774648666,0.1722795367240905,0.0,0.0,-0.4678536653518677,-0.2503498196601867
0.011547565460205,0.9338343143463136,0.1889494359493255,-0.7451494932174683,0.13673797249794,0.1728638857603073,0.0,0.0,-0.7532373666763306,0.1634901762008667
0.0136271473020315,0.9167963862419128,0.1992488950490951,-0.7580702900886536,0.1454115957021713,0.173472374677658,0.0,0.0,-0.7010429501533508,-0.1941242814064026
0.0158099178224802,0.8994688391685486,0.2095424234867096,-0.770991325378418,0.1541167348623275,0.1741035282611847,0.0,0.0,-0.8469275832176208,-0.6402466893196106
0.0180542953312397,0.8818351030349731,0.2146283388137817,-0.7847691178321838,0.1639328300952911,0.1963218301534652,0.0,0.0,-0.5510783791542053,-0.223101258277893
0.0204016678035259,0.8639122247695923,0.2248969823122024,-0.7976919412612915,0.1737826019525528,0.1969954371452331,0.0,0.0,0.112945556640625,-0.4815321564674377
0.0227904319763183,0.8459860682487488,0.229146122932434,-0.7978891134262085,0.1835404336452484,0.1951563358306884,0.0,0.0,0.2543736696243286,0.1659944057464599
0.025269603356719,0.828154444694519,0.2380101680755615,-0.7937778234481812,0.193495288491249,0.1990972310304641,0.0,0.0,-0.3285747766494751,0.6154220104217529
0.027903938665986,0.810045599937439,0.2548547983169555,-0.8059849143028259,0.2021281421184539,0.1726570129394531,0.0,0.0,-0.6581083536148071,0.760084867477417
0.0306867603212595,0.7916697859764099,0.2709227502346039,-0.8177286982536316,0.2095502465963363,0.1484422385692596,0.0,0.0,-0.7669615149497986,-0.2476359605789184
0.0335710532963275,0.7730040550231934,0.2810436487197876,-0.8306482434272766,0.2170109003782272,0.1492129862308502,0.0,0.0,-0.957991361618042,0.5024377107620239
0.0365940108895301,0.7540596723556519,0.295842558145523,-0.8429394960403442,0.2235362529754638,0.130506694316864,0.0,0.0,-0.5297274589538574,-0.353021502494812
0.0397174842655658,0.7348253130912781,0.3058674335479736,-0.8558580875396729,0.2301019132137298,0.131313219666481,0.0,0.0,-0.6198258399963379,-0.214722454547882
0.0429409965872764,0.715300977230072,0.3158357739448547,-0.8687766790390015,0.2367087751626968,0.1321373879909515,0.0,0.0,-0.7110147476196289,-0.633687436580658
0.0462245941162109,0.6954692006111145,0.3207881450653076,-0.8826533555984497,0.2444069981575012,0.1539642810821533,0.0,0.0,0.1720229387283325,0.2701516151428222
0.0494721420109272,0.6761720180511475,0.3171432614326477,-0.8589341044425964,0.2521586716175079,0.1550337523221969,0.0,0.0,-0.044037640094757,0.5058290958404541
0.0528661720454692,0.6566019058227539,0.3330054581165313,-0.870893657207489,0.2586805522441864,0.1304373294115066,0.0,0.0,0.4661499261856079,-0.9018126726150512
0.0560894012451171,0.6372805833816528,0.3142077624797821,-0.8601838946342468,0.2669724225997925,0.1658373475074768,0.0,0.0,0.5944117307662964,0.6207747459411621
0.0593468658626079,0.6188461184501648,0.318625807762146,-0.8206247091293335,0.2742710709571838,0.1459733247756958,0.0,0.0,0.1818797588348388,-0.3340557217597961
0.0626639351248741,0.6008588671684265,0.3241061568260193,-0.8008824586868286,0.2820732891559601,0.1560442298650741,0.0,0.0,-0.0154998898506164,-0.2128251791000366
0.0660751312971115,0.5825818777084351,0.3334876596927643,-0.8138028383255005,0.2899234294891357,0.1570026576519012,0.0,0.0,0.3541260957717895,-0.26422119140625
0.069335363805294,0.5649142861366272,0.3186419010162353,-0.786712110042572,0.2975338101387024,0.1522074341773986,0.0,0.0,0.8538190126419067,0.4716166257858276
0.0726203918457031,0.5475782155990601,0.3208370506763458,-0.7720779180526733,0.3054600059986114,0.1585240215063095,0.0,0.0,0.0546306371688842,0.4481436014175415
0.075800135731697,0.5305641889572144,0.3105606436729431,-0.7577531337738037,0.3131413757801056,0.1536276489496231,0.0,0.0,0.4209537506103515,0.9291629791259766
0.0791172981262207,0.5139828324317932,0.3259862065315246,-0.7381966710090637,0.3190865516662597,0.1189034581184387,0.0,0.0,0.9064958095550536,-0.4202516078948974
0.0823258385062217,0.4981318712234497,0.3149654865264892,-0.7057986855506897,0.3252113163471222,0.1224950402975082,0.0,0.0,0.6677556037902832,0.0767803192138671
0.0854983329772949,0.4825699627399444,0.3112882971763611,-0.6929947733879089,0.331427663564682,0.1243267208337783,0.0,0.0,0.6296641826629639,0.0535082817077636
0.0884496718645095,0.4674853682518005,0.2896727919578552,-0.671687662601471,0.3371356129646301,0.1141582876443862,0.0,0.0,0.5442711114883423,0.9523484706878662
0.0913081169128418,0.4533020555973053,0.2821914553642273,-0.6312294602394104,0.3409634828567505,0.0765573233366012,0.0,0.0,0.5924291610717773,-0.1177854537963867
0.0942271202802658,0.4392668008804321,0.2878337502479553,-0.624755322933197,0.3452166318893432,0.0850630849599838,0.0,0.0,0.5667574405670166,0.6227986812591553
0.0970206260681152,0.4261298477649688,0.2764050364494324,-0.58457350730896,0.3483075797557831,0.061819028109312,0.0,0.0,0.018888235092163,-0.296619713306427
0.0997355431318283,0.4130845963954925,0.2687509655952453,-0.5804559588432312,0.3511925041675567,0.0576985701918602,0.0,0.0,0.2286343574523925,0.4700461626052856
0.1022864356637001,0.400423139333725,0.2525781095027923,-0.5633441209793091,0.3538256287574768,0.0526627302169799,0.0,0.0,0.5765661001205444,0.3461493253707886
0.1047295555472374,0.388322502374649,0.2416239529848098,-0.5384743213653564,0.356660395860672,0.0566956028342247,0.0,0.0,0.5777051448822021,0.8182929754257202
0.1068888679146766,0.3770357668399811,0.2149768620729446,-0.5018681287765503,0.3576624691486358,0.0200416035950183,0.0,0.0,0.8735784292221069,0.9715673923492432
0.1090420708060264,0.3664677143096924,0.2160617411136627,-0.4695065319538116,0.3568814694881439,-0.0156198889017105,0.0,0.0,0.8527865409851074,0.7836732864379883
0.1111244186758995,0.3562309145927429,0.2105033844709396,-0.4544079601764679,0.3544857203960418,-0.0479148216545581,0.0,0.0,0.9632543325424194,0.1458883285522461
0.113206960260868,0.3462893664836883,0.2100995481014251,-0.4413913786411285,0.3525373637676239,-0.0389670431613922,0.0,0.0,0.7451190948486328,0.0951441526412963
0.1151892691850662,0.3365449905395508,0.2001685202121734,-0.4326080679893493,0.3505103886127472,-0.0405399166047573,0.0,0.0,0.8808872699737549,0.3715249300003052
0.1169040650129318,0.3277778327465057,0.1733800172805786,-0.3891912996768951,0.3485172688961029,-0.0398618839681148,0.0,0.0,0.8580514192581177,-0.2596733570098877
0.1184378638863563,0.3200600743293762,0.1548034101724624,-0.3426681458950043,0.3470208644866943,-0.0299279186874628,0.0,0.0,0.8728796243667603,0.4790810346603393
0.1195806488394737,0.3132942616939544,0.1161820292472839,-0.3002462685108185,0.3450188338756561,-0.0400408133864402,0.0,0.0,0.9181900024414062,0.6545453071594238
0.1205310821533203,0.3067191243171692,0.098533920943737,-0.2913958430290222,0.3413621783256531,-0.0731329247355461,0.0,0.0,0.9468646049499512,0.0115326642990112
0.1212497726082801,0.3011945486068725,0.0750658884644508,-0.2447839230298996,0.3380133807659149,-0.0669751390814781,0.0,0.0,0.6745650768280029,0.1819225549697876
0.121708869934082,0.2961543798446655,0.0494861230254173,-0.2231777012348175,0.3342802822589874,-0.0746620595455169,0.0,0.0,0.536524772644043,0.2349004745483398
0.1219392791390419,0.291692316532135,0.0267519056797027,-0.1974586397409439,0.3304048776626587,-0.0775078237056732,0.0,0.0,0.5008058547973633,0.8546328544616699
0.1220361739397049,0.2878726422786712,0.0150081040337681,-0.1685591638088226,0.3248586356639862,-0.1109248399734497,0.0,0.0,0.1334985494613647,0.9539262056350708
0.1221603378653526,0.2844005823135376,0.0195296220481395,-0.1527296751737594,0.3174581229686737,-0.148010104894638,0.0,0.0,-0.0243069529533386,0.8192501068115234
0.1223615631461143,0.2806630730628967,0.0288150068372488,-0.1642314940690994,0.3084318041801452,-0.1805265396833419,0.0,0.0,-0.1264012455940246,0.9889038801193236
0.1226563453674316,0.2766708135604858,0.0403405502438545,-0.1751672178506851,0.2971937954425812,-0.2247601747512817,0.0,0.0,-0.5512998104095459,0.9666019678115844
0.1230428665876388,0.2724317014217376,0.051836185157299,-0.18577241897583,0.2836186289787292,-0.2715031504631042,0.0,0.0,-0.1828657984733581,0.6866346597671509
0.1234905272722244,0.2679280936717987,0.0595474243164062,-0.1973618566989898,0.2684441208839416,-0.3034903407096863,0.0,0.0,-0.2785378694534302,0.3499618768692016
0.1239290237426757,0.2631371617317199,0.0585760883986949,-0.2102973163127899,0.2533846795558929,-0.3011888265609741,0.0,0.0,0.3812581300735473,0.4677572250366211
0.1242191344499588,0.2589896917343139,0.0435734167695045,-0.1818912476301193,0.2385631203651428,-0.296431303024292,0.0,0.0,-0.8185063600540161,0.6857744455337524
0.1245527267456054,0.2545806169509887,0.0495060458779335,-0.1934194713830948,0.2221907079219818,-0.3274483680725097,0.0,0.0,-0.6489914655685425,-0.2592460513114929
0.1248617172241211,0.2498849034309387,0.0469744354486465,-0.206357941031456,0.2059428542852401,-0.3249571025371551,0.0,0.0,-0.4735374450683594,-0.1624382734298706
0.1251408606767654,0.2449023574590683,0.0439303182065486,-0.2192960530519485,0.189822643995285,-0.3224046528339386,0.0,0.0,-0.3585236072540283,-0.3026584982872009
0.1253852844238281,0.2396329194307327,0.0403812527656555,-0.23223377764225,0.1738330274820327,-0.3197925686836242,0.0,0.0,0.5838589668273926,-0.5904411673545837
0.1254262924194336,0.2348638921976089,0.0188064984977245,-0.2103018313646316,0.1591027975082397,-0.2946042716503143,0.0,0.0,-0.7256191372871399,-0.1032193303108215
0.1254229545593261,0.2298073172569275,0.0142770959064364,-0.2232358753681183,0.144508808851242,-0.2918798327445984,0.0,0.0,-0.2534932494163513,-0.2023887634277343
0.125370591878891,0.2244632840156555,0.0092765279114246,-0.2361695170402526,0.1300536841154098,-0.2891024947166443,0.0,0.0,0.4517264366149902,-0.8170013427734375
0.1250625550746917,0.2197948843240738,-0.0179848559200763,-0.2064137607812881,0.1172964423894882,-0.2551450431346893,0.0,0.0,-0.7110100984573364,-0.7415761351585388
0.1246300712227821,0.2148316502571106,-0.0322433859109878,-0.2197615355253219,0.1063638255000114,-0.2186521589756012,0.0,0.0,-0.6937699317932129,-0.938284993171692
0.1240591034293174,0.2095638662576675,-0.0481929443776607,-0.2335119694471359,0.0975267589092254,-0.1767412424087524,0.0,0.0,-0.5544125437736511,-0.6900654435157776
0.1233572959899902,0.2039977461099624,-0.0630700886249542,-0.2469344437122345,0.0904791727662086,-0.1409510672092437,0.0,0.0,-0.1636692881584167,-0.7707375288009644
0.122510053217411,0.1981297880411148,-0.0797072872519493,-0.2605071365833282,0.0855012387037277,-0.0995586663484573,0.0,0.0,-0.2298707962036132,-0.4950807094573974
0.1215893775224685,0.1919715702533722,-0.0871989279985427,-0.2734246551990509,0.0806741341948509,-0.0965418815612793,0.0,0.0,0.050921082496643,-0.5640498995780945
0.1205720901489257,0.1858691573143005,-0.0982132479548454,-0.2710345685482025,0.0771901756525039,-0.0696789696812629,0.0,0.0,-0.2734077572822571,0.2340823411941528
0.1194745078682899,0.1794764846563339,-0.1063898429274559,-0.2839508950710296,0.0738594233989715,-0.0666152238845825,0.0,0.0,-0.4847269058227539,0.4156287908554077
0.1182935684919357,0.1727934926748275,-0.1148809641599655,-0.2968670725822449,0.0706826820969581,-0.0635350197553634,0.0,0.0,0.1072454452514648,0.6005878448486328
0.1171396225690841,0.1667004376649856,-0.1112928390502929,-0.2706141769886017,0.0666217431426048,-0.0812185481190681,0.0,0.0,-0.3495844602584839,0.3003640174865722
0.1158965080976486,0.1603171378374099,-0.1203585863113403,-0.2835308015346527,0.0627157315611839,-0.0781203657388687,0.0,0.0,-0.2923109531402588,0.0359145402908325
0.1145617514848709,0.1536436676979065,-0.1296853572130203,-0.296447217464447,0.0589647069573402,-0.0750205740332603,0.0,0.0,-0.260894238948822,0.3697589635848999
0.113132856786251,0.1466798633337021,-0.1392563283443451,-0.3093635141849518,0.0553684793412685,-0.0719246342778205,0.0,0.0,-0.4291487336158752,0.6626579761505127
0.1116669625043869,0.1394275277853012,-0.1415940225124359,-0.3221510052680969,0.0504319630563259,-0.0987303704023361,0.0,0.0,-0.4948397874832153,0.7181739807128906
0.1101477593183517,0.1318897306919098,-0.1459337621927261,-0.3348224759101867,0.0445099510252475,-0.1184400767087936,0.0,0.0,-0.6495217680931091,-0.5003268718719482
0.1084799766540527,0.1240573227405548,-0.1621601283550262,-0.3479775190353393,0.0399483628571033,-0.0912317410111427,0.0,0.0,-0.2859777212142944,0.6856528520584106
0.1067620292305946,0.1159375309944152,-0.1659924387931823,-0.3607368767261505,0.0342228487133979,-0.114510454237461,0.0,0.0,0.0642642974853515,-0.4109508395195007
0.1049449890851974,0.1080436110496521,-0.1761373579502105,-0.3507224917411804,0.0287244115024805,-0.1099685654044151,0.0,0.0,0.4138977527618408,0.0389515161514282
0.1031250953674316,0.1003257855772972,-0.1770936399698257,-0.342928022146225,0.0238907933235168,-0.0966725796461105,0.0,0.0,0.282730221748352,0.2325994968414306
0.1012609452009201,0.0931165069341659,-0.1820174604654312,-0.3203472197055816,0.0195528641343116,-0.0867585912346839,0.0,0.0,0.3624783754348755,-0.4723455309867859
0.0992959961295127,0.086615189909935,-0.1923499852418899,-0.2888984680175781,0.0154537241905927,-0.0819827765226364,0.0,0.0,0.4854612350463867,0.407811164855957
0.0972739234566688,0.080245554447174,-0.1984554827213287,-0.2830605804920196,0.0117598427459597,-0.0738778561353683,0.0,0.0,0.406282901763916,-0.2681090831756592
0.0952182784676551,0.0743751600384712,-0.2023553401231765,-0.2608839869499206,0.0085896747186779,-0.0634032040834426,0.0,0.0,-0.2479311227798462,0.8202986717224121
