x_pos,y_pos,x_vel,y_vel,angle,ang_vel,leg_1,leg_2,main_booster,lat_booster
-0.0015135764842852,1.4029446840286257,-0.1542191207408905,-0.3544729351997375,0.0025598604697734,0.050555270165205,0.0,0.0,-0.6062634935775579,0.6036542089797702
-0.0029663085006177,1.3943095207214355,-0.1472905874252319,-0.3837876617908478,0.0045540216378867,0.039887573570013,0.0,0.0,-0.5115876137493245,-0.971416610518099
-0.0044694901444017,1.3849866390228271,-0.1546507775783538,-0.4143701791763305,0.0088385175913572,0.085698053240776,0.0,0.0,0.7294568394673975,0.7204157468134017
-0.0060482025146484,1.375765085220337,-0.1612382531166076,-0.4098715782165527,0.0121752535924315,0.0667406544089317,0.0,0.0,-0.0447922956153665,-0.9910443216136362
-0.0076802251860499,1.3658658266067505,-0.1689415276050567,-0.4400263428688049,0.0178521983325481,0.1135491579771041,0.0,0.0,-0.3351097337347766,-0.8823368361514778
-0.0093584060668945,1.3552846908569336,-0.1757357567548751,-0.4703854322433471,0.0256752967834472,0.1564765870571136,0.0,0.0,0.7131958841486754,-0.8310074725396447
-0.0111364368349313,1.344919204711914,-0.1881266981363296,-0.4608885943889618,0.0358917787671089,0.2043485194444656,0.0,0.0,-0.7586451042740814,-0.9143786339155814
-0.0129622463136911,1.33387553691864,-0.1950893700122833,-0.491172194480896,0.0482696741819381,0.2475805282592773,0.0,0.0,0.4081061145570595,0.9969807815825268
-0.0147503856569528,1.323238730430603,-0.1901106238365173,-0.4731523692607879,0.05945985019207,0.2238240242004394,0.0,0.0,0.7956644429006092,-0.6893793988040015
-0.0166351310908794,1.313105821609497,-0.2019470483064651,-0.4509390890598297,0.0728155970573425,0.2671397030353546,0.0,0.0,0.4665656367374724,-0.7612345032840143
-0.018527889624238,1.3030893802642822,-0.2052287310361862,-0.4460334777832031,0.0886287540197372,0.3162917494773865,0.0,0.0,0.8194219178529507,-0.6597177007787293
-0.0204356200993061,1.2932696342468262,-0.209025889635086,-0.437614232301712,0.1067681610584259,0.3628215193748474,0.0,0.0,-0.0199293772493074,-0.6445951411341593
-0.0223788265138864,1.282772660255432,-0.2143551856279373,-0.4680829346179962,0.1267118453979492,0.3989098966121673,0.0,0.0,0.4279897866680267,0.795057931274211
-0.0242276191711425,1.2720764875411987,-0.2041945159435272,-0.477150946855545,0.1459767818450927,0.3853341937065124,0.0,0.0,0.9581102891089708,-0.8952600598983592
-0.0261038783937692,1.2621910572052002,-0.2098250091075897,-0.4416785538196563,0.16819429397583,0.4443904459476471,0.0,0.0,-0.2671036581138286,-0.7484268622620824
-0.0280234329402446,1.251613736152649,-0.2160919904708862,-0.4730255305767059,0.1924400925636291,0.4849597513675689,0.0,0.0,0.240317700871258,0.6040788328418131
-0.0299050323665142,1.24136483669281,-0.2119736224412918,-0.458780437707901,0.2164797633886337,0.4808374941349029,0.0,0.0,-0.5216446456327384,-0.9574529806146876
-0.031839083880186,1.230419635772705,-0.2193312644958496,-0.4904668033123016,0.2427951246500015,0.5263545513153076,0.0,0.0,0.3153967428103885,-0.7537063264396208
-0.0338992103934288,1.219754338264465,-0.2341430932283401,-0.478921115398407,0.2715390026569366,0.5749294757843018,0.0,0.0,-0.3461423616713044,-0.9100729496598248
-0.0360361114144325,1.2083901166915894,-0.2443880289793014,-0.5110927820205688,0.303168773651123,0.6326525807380676,0.0,0.0,0.6868494750068082,0.6498934738366743
-0.0382189750671386,1.197551131248474,-0.2484874725341797,-0.4883513748645782,0.3345957696437835,0.6285971403121948,0.0,0.0,-0.8475183457452447,0.8755646895138476
-0.0403337478637695,1.1860768795013428,-0.2403814494609832,-0.516965925693512,0.365000456571579,0.6081485152244568,0.0,0.0,-0.5869159718696011,-0.9180338182016418
-0.0425005927681922,1.1739070415496826,-0.2473870515823364,-0.5490521192550659,0.3976823091506958,0.6536955833435059,0.0,0.0,0.091458646666465,-0.6671045541112692
-0.0447457320988178,1.1613529920578003,-0.2568599581718445,-0.5674089193344116,0.4325993955135345,0.6984047889709473,0.0,0.0,0.0610204286228845,-0.7380070785412951
-0.0473136901855468,1.1486010551452637,-0.2906668782234192,-0.5776441097259521,0.469779908657074,0.7436766624450684,0.0,0.0,0.6537700737084686,-0.9701143337418248
-0.0504115112125873,1.135956048965454,-0.3454241156578064,-0.5745948553085327,0.5095970630645752,0.7963427901268005,0.0,0.0,0.9754011310456028,-0.8126640059438848
-0.0539883598685264,1.123754858970642,-0.3947135806083679,-0.5566889047622681,0.5519271492958069,0.8466022610664368,0.0,0.0,0.3989992974356506,0.6057883813109061
-0.0579999908804893,1.1117392778396606,-0.4366076588630676,-0.5492003560066223,0.5935139656066895,0.8317378163337708,0.0,0.0,0.2849486561067327,0.7558297734948501
-0.0624000541865825,1.099775791168213,-0.4736983180046081,-0.5474650263786316,0.6341354846954346,0.8124312162399292,0.0,0.0,-0.2006994329423672,-0.6363158416781817
-0.0668440833687782,1.087109923362732,-0.4788748323917389,-0.5805131196975708,0.6769803762435913,0.8568984866142273,0.0,0.0,-0.9649289439916516,-0.7844870853391273
-0.0713431388139724,1.0737425088882446,-0.4850685000419616,-0.6137503981590271,0.722263514995575,0.9056626558303832,0.0,0.0,-0.2941472175139867,0.8505182356167207
-0.0758031830191612,1.0597749948501587,-0.4791726171970367,-0.641061544418335,0.7666947841644287,0.8886271715164185,0.0,0.0,0.1878414721220092,-0.6701966430727266
-0.0807579010725021,1.0456587076187134,-0.5287939310073853,-0.6497023701667786,0.8133292198181152,0.9326902627944946,0.0,0.0,0.4152238913756665,-0.9902283891590866
-0.0860365852713584,1.031052589416504,-0.5616080164909363,-0.674029529094696,0.8629865646362305,0.9931475520133972,0.0,0.0,-0.4139087943440243,0.9408996037801411
-0.0912779793143272,1.0158805847167969,-0.5550812482833862,-0.6995022892951965,0.9111984968185424,0.9642399549484252,0.0,0.0,0.7294400786256732,0.6730650286831441
-0.0971130356192588,1.0008715391159058,-0.6121455430984497,-0.692815363407135,0.9586541056632996,0.9491137266159058,0.0,0.0,-0.5537164627194711,0.917779077438516
-0.1029160469770431,0.985286831855774,-0.6063815951347351,-0.7185449600219727,1.0048314332962036,0.9235472679138184,0.0,0.0,-0.0815583730212079,0.8762413322430653
-0.1086932197213172,0.9691383242607116,-0.6012418866157532,-0.7435276508331299,1.049561619758606,0.8946064114570618,0.0,0.0,-0.7485354570984195,0.9909944415005248
-0.1144493073225021,0.9524282813072203,-0.5966838002204895,-0.768301784992218,1.0928292274475098,0.8653534054756165,0.0,0.0,0.9483342519393184,-0.7995367938640561
-0.1208613365888595,0.9355219006538392,-0.6617847084999084,-0.7792729139328003,1.138840913772583,0.9202343821525574,0.0,0.0,-0.4593049144326024,-0.8907105335813735
-0.1273211538791656,0.9178526401519777,-0.6658738851547241,-0.8158285617828369,1.1881372928619385,0.9859308004379272,0.0,0.0,-0.8122548460960388,0.9998586177825928
-0.1337560713291168,0.8996493816375732,-0.6603811979293823,-0.8387851715087891,1.2352439165115356,0.9421359300613404,0.0,0.0,-0.8018673658370972,0.9989553689956664
-0.1401642858982086,0.8809045553207397,-0.6549578905105591,-0.8619984984397888,1.2802571058273315,0.9002630114555359,0.0,0.0,-0.7851729393005371,0.9993979930877686
-0.1465531289577484,0.8616215586662292,-0.6505287885665894,-0.8849284648895264,1.3231358528137207,0.8575758934020996,0.0,0.0,-0.6683694124221802,0.988860845565796
-0.1529230177402496,0.8417711853981018,-0.6464914083480835,-0.9094236493110656,1.3644713163375854,0.8267098665237427,0.0,0.0,-0.6942782998085022,0.9990921020507812
-0.1592735350131988,0.821370542049408,-0.642542839050293,-0.9328179955482484,1.4038646221160889,0.7878686189651489,0.0,0.0,-0.6117730736732483,0.9946030378341676
-0.1656091660261154,0.8004230856895447,-0.6392253041267395,-0.955966293811798,1.4412477016448977,0.747663140296936,0.0,0.0,-0.8242722153663635,0.9593160152435304
-0.1719448119401931,0.7788950800895691,-0.6376994848251343,-0.9810487031936646,1.4773893356323242,0.722835898399353,0.0,0.0,-0.7327499389648438,0.9974216222763062
-0.178280159831047,0.75678551197052,-0.6362932920455933,-1.0061442852020264,1.5122876167297363,0.6979655027389526,0.0,0.0,-0.6934750080108643,0.9482455253601074
-0.1846078932285308,0.7341083288192749,-0.6342440843582153,-1.030351996421814,1.545591115951538,0.6660689115524292,0.0,0.0,-0.7603485584259033,0.8921947479248047
-0.1909299790859222,0.7108839750289917,-0.6325534582138062,-1.0532749891281128,1.5768121480941772,0.6244204640388489,0.0,0.0,-0.6255524158477783,0.9607925415039062
-0.1972516030073166,0.6870858073234558,-0.6315762400627136,-1.0777647495269775,1.6065343618392944,0.5944439768791199,0.0,0.0,-0.8047046661376953,0.962120771408081
-0.2035659849643707,0.6627433896064758,-0.6301027536392212,-1.1004605293273926,1.634074091911316,0.5507935881614685,0.0,0.0,-0.7416406273841858,0.8908168077468872
-0.2098819762468338,0.6378288865089417,-0.6296325325965881,-1.1248005628585815,1.6600308418273926,0.519133985042572,0.0,0.0,-0.7426249980926514,0.8349392414093018
-0.216193288564682,0.6123582124710083,-0.6287027597427368,-1.1481454372406006,1.6840252876281738,0.4798883497714996,0.0,0.0,-0.4814479351043701,0.7742390632629395
-0.2224969863891601,0.5862881541252136,-0.6274983882904053,-1.174083948135376,1.7070255279541016,0.4600039422512054,0.0,0.0,-0.6381973624229431,0.5665000677108765
-0.2287988662719726,0.5596174001693726,-0.626951277256012,-1.2000588178634644,1.7290146350860596,0.4397825598716736,0.0,0.0,-0.6399847269058228,0.4516971111297607
-0.2350882589817047,0.5322736501693726,-0.6251029968261719,-1.2303245067596436,1.75161612033844,0.452029138803482,0.0,0.0,-0.6537355184555054,0.6406792402267456
-0.2413783520460128,0.5043348670005798,-0.6249059438705444,-1.2559199333190918,1.7730190753936768,0.4280590415000915,0.0,0.0,-0.5891693830490112,0.4185577630996704
-0.2476543933153152,0.4757223129272461,-0.6229168176651001,-1.286181092262268,1.7950012683868408,0.439642995595932,0.0,0.0,-0.5275096893310547,0.5913172960281372
-0.2539229989051819,0.446506917476654,-0.6219466924667358,-1.312220335006714,1.8159433603286743,0.4188421368598938,0.0,0.0,-0.5183144807815552,0.634884238243103
-0.2601875364780426,0.4166740179061889,-0.6213182210922241,-1.339092254638672,1.83611524105072,0.4034385085105896,0.0,0.0,-0.5291373133659363,0.4262584447860718
-0.2664356231689453,0.386166363954544,-0.6191299557685852,-1.3693467378616333,1.8568079471588133,0.4138553142547607,0.0,0.0,-0.4913020133972168,0.4238903522491455
-0.272666871547699,0.3549835085868835,-0.6168738603591919,-1.3995980024337769,1.8779995441436768,0.4238330721855163,0.0,0.0,-0.5067690014839172,0.4594082832336426
-0.2788808345794678,0.3231247961521148,-0.614551842212677,-1.4298460483551023,1.8996669054031368,0.4333474040031433,0.0,0.0,-0.4427613019943237,0.3913452625274658
-0.2850770056247711,0.2905897498130798,-0.6121659874916077,-1.4600905179977417,1.921785593032837,0.4423741400241852,0.0,0.0,-0.3117397427558899,0.3750979900360107
-0.2912549078464508,0.2573777735233307,-0.6097183227539062,-1.4903314113616943,1.944330096244812,0.4508894383907318,0.0,0.0,-0.2336925268173217,0.3449048995971679
-0.2974140048027038,0.2234883904457092,-0.607211172580719,-1.5205683708190918,1.9672735929489136,0.4588701725006103,0.0,0.0,-0.3106352090835571,0.446408748626709
-0.303553968667984,0.188920721411705,-0.6046469807624817,-1.550801396369934,1.9905883073806765,0.4662938117980957,0.0,0.0,-0.2023074030876159,0.1446976661682129
-0.3096742033958435,0.1536742746829986,-0.6020281910896301,-1.5810301303863523,2.0142452716827397,0.473139226436615,0.0,0.0,-0.1746928095817566,0.0536741018295288
-0.3157743513584137,0.1177483424544334,-0.5993574261665344,-1.6112549304962158,2.038214683532715,0.4793868660926819,0.0,0.0,-0.0896958112716674,-0.2182285785675048
-0.3218537867069244,0.0811422690749168,-0.5966373085975647,-1.6414756774902344,2.0624656677246094,0.4850187301635742,0.0,0.0,0.0032806396484375,-0.2629840970039367
-0.3215493261814117,0.0799410641193389,0.041284255683422,-0.0082246605306863,2.058521509170532,-0.129303902387619,0.0,1.0,0.0032806396484375,-0.2629840970039367
