x_pos,y_pos,x_vel,y_vel,angle,ang_vel,leg_1,leg_2,main_booster,lat_booster
-0.0015135764842852,1.4031970500946045,-0.1533487141132354,-0.3432475626468658,0.0017844546819105,0.0352012254297733,0.0,0.0,-0.0769985914230346,0.5077896118164062
-0.0029728889930993,1.3950672149658203,-0.1465999782085418,-0.3613205850124359,0.0024504722096025,0.0133223189041018,0.0,0.0,0.1635107994079589,0.8992985486984253
-0.0042403219267725,1.3869304656982422,-0.1256966888904571,-0.3616317212581634,0.0014113268116489,-0.0207846835255622,0.0,0.0,-0.050336480140686,0.6618043184280396
-0.005453014280647,1.3783642053604126,-0.1191654354333877,-0.3807269930839538,-0.000665555417072,-0.0415415242314338,0.0,0.0,0.01287841796875,0.2994776964187622
-0.0065724374726414,1.3699700832366943,-0.1102334260940551,-0.3730730414390564,-0.0023535371292382,-0.0337627567350864,0.0,0.0,-0.6155908107757568,-0.2743488550186157
-0.0076772691681981,1.3611485958099363,-0.1087728589773178,-0.3920751214027405,-0.0040348703041672,-0.0336299762129783,0.0,0.0,-0.2316312193870544,0.3888485431671142
-0.0087665561586618,1.3518993854522705,-0.1072341203689575,-0.4110706448554992,-0.0057121692225337,-0.0335490107536315,0.0,0.0,-0.4047086238861084,0.8427467346191406
-0.0097568510100245,1.3422248363494873,-0.0952372699975967,-0.4299984574317932,-0.0094707794487476,-0.075179174542427,0.0,0.0,-0.5108527541160583,0.0609232187271118
-0.0107303615659475,1.3321231603622437,-0.0935484021902084,-0.4489966034889221,-0.0132315633818507,-0.0752223283052444,0.0,0.0,-0.6935549378395081,0.184198260307312
-0.0116863250732421,1.32159423828125,-0.091794267296791,-0.4679948389530182,-0.0169999003410339,-0.0753733292222023,0.0,0.0,-0.1372010707855224,-0.4362295269966125
-0.0126242637634277,1.3106380701065063,-0.08997842669487,-0.4869930446147918,-0.0207796208560466,-0.0756012126803398,0.0,0.0,-0.7892019152641296,-0.2483435869216919
-0.0135436058044433,1.2992544174194336,-0.0881048142910003,-0.5059913396835327,-0.0245752595365047,-0.0759192258119583,0.0,0.0,0.6637837886810303,-0.716063916683197
-0.0143396379426121,1.2885003089904783,-0.0774975344538688,-0.4779940843582153,-0.0266580078750848,-0.0416584089398384,0.0,0.0,-0.4906600713729858,-0.8108939528465271
-0.015173053368926,1.277313470840454,-0.0826407894492149,-0.497209757566452,-0.0273442491888999,-0.0137262195348739,0.0,0.0,-0.8085352182388306,0.0652716159820556
-0.0159866325557231,1.26569926738739,-0.0806257054209709,-0.5162028670310974,-0.0280619822442531,-0.0143559696152806,0.0,0.0,-0.7881727814674377,-0.6664098501205444
-0.0168231017887592,1.25365149974823,-0.0839781537652015,-0.5354472994804382,-0.0277350079268217,0.0065397778525948,0.0,0.0,-0.5753995776176453,-0.681751012802124
-0.0176804549992084,1.241186022758484,-0.0870760455727577,-0.553994357585907,-0.0264063980430364,0.0265744868665933,0.0,0.0,-0.6391443610191345,-0.2462275028228759
-0.0185170173645019,1.2282930612564087,-0.0849499478936195,-0.5729921460151672,-0.0251264460384845,0.0256012231111526,0.0,0.0,0.1374844312667846,0.4837123155593872
-0.0192517284303903,1.21579909324646,-0.0750323086977005,-0.5552623867988586,-0.0235877111554145,0.0307775028049945,0.0,0.0,-0.7209335565567017,0.7116363048553467
-0.0199166294187307,1.2028756141662598,-0.0667390003800392,-0.5743781924247742,-0.0233340803533792,0.0050732176750898,0.0,0.0,-0.8075366020202637,-0.2744284868240356
-0.0205599777400493,1.1895246505737305,-0.0645234435796737,-0.5933727622032166,-0.0231463816016912,0.0037542874924838,0.0,0.0,-0.6771912574768066,-0.8079872131347656
-0.0212443359196186,1.1757439374923706,-0.070148579776287,-0.6124523282051086,-0.0214579403400421,0.033771812915802,0.0,0.0,-0.5089495182037354,-0.448677122592926
-0.0219070427119731,1.1615358591079712,-0.0678973719477653,-0.6314504146575928,-0.0198497883975505,0.0321660749614238,0.0,0.0,-0.4380384087562561,-0.3785895705223083
-0.0225480087101459,1.146900296211243,-0.0656300336122512,-0.6504484415054321,-0.0183275062590837,0.0304484106600284,0.0,0.0,-0.7303666472434998,-0.298182725906372
-0.0231670383363962,1.131837248802185,-0.0633502453565597,-0.6694462895393372,-0.0168980453163385,0.0285918116569519,0.0,0.0,-0.4624561071395874,0.038561463356018
-0.0237644203007221,1.1163254976272583,-0.0610843822360038,-0.6893977522850037,-0.0155680179595947,0.0266006886959075,0.0,0.0,-0.2633565664291382,-0.4915668368339538
-0.0243398658931255,1.100386381149292,-0.0587846636772155,-0.7083935141563416,-0.0143440123647451,0.0244799833744764,0.0,0.0,-0.6581341624259949,0.2229429483413696
-0.0248934738337993,1.084019899368286,-0.0564818158745765,-0.7273892164230347,-0.0132327238097786,0.0222258046269416,0.0,0.0,-0.3190547823905945,0.0302212238311767
-0.0254251472651958,1.0672260522842407,-0.0541787669062614,-0.7463847994804382,-0.0122408512979745,0.0198375266045331,0.0,0.0,0.2489634752273559,-0.6809667348861694
-0.026002312079072,1.0505564212799072,-0.0599381811916828,-0.7408539652824402,-0.0100473249331116,0.0438704900443553,0.0,0.0,-0.2125248312950134,-0.2865983247756958
-0.0265578273683786,1.0334595441818235,-0.0576433613896369,-0.7598498463630676,-0.0079866666346788,0.0412131287157535,0.0,0.0,0.4540952444076538,-0.4796813130378723
-0.0271573066711425,1.016514778137207,-0.0615736544132232,-0.75309818983078,-0.0063823466189205,0.0320866182446479,0.0,0.0,0.4160270690917969,-0.4316648840904236
-0.0278018955141305,1.0001736879348757,-0.0656026154756546,-0.7262620329856873,-0.0052516674622893,0.0226135607808828,0.0,0.0,0.1355712413787841,-0.1426995396614074
-0.0284679420292377,0.983777642250061,-0.0673861280083656,-0.7287163138389587,-0.0044765849597752,0.0155017776414752,0.0,0.0,-0.1255844831466674,-0.4132606387138366
-0.0291131027042865,0.9669541120529176,-0.065140925347805,-0.7477117776870728,-0.0038609609473496,0.0123123507946729,0.0,0.0,0.1653505563735962,-0.6832783818244934
-0.0297752376645803,0.9505086541175842,-0.0680626630783081,-0.7308998703956604,-0.0020343230571597,0.0365327857434749,0.0,0.0,0.2013622522354126,0.2732114791870117
-0.0304354671388864,0.934132754802704,-0.0676085948944091,-0.7278213500976562,-0.0004683857841882,0.0313189700245857,0.0,0.0,0.1521303653717041,0.5852160453796387
-0.0309996604919433,0.9181300401687622,-0.0566929802298545,-0.7112306952476501,-0.0001957242784556,0.0054529937915503,0.0,0.0,-0.6792809367179871,0.620154857635498
-0.0314982421696186,0.9017067551612854,-0.0487835593521595,,-0.0012607085518538,-0.0212995149195194,0.0,0.0,0.5125308036804199,-0.7977032661437988
-0.0320111289620399,0.8856920599937439,-0.0516697838902473,-0.7117665410041809,-0.0008853150648064,0.007507765199989,0.0,0.0,-0.2278521656990051,-0.6650885343551636
-0.0325671210885047,0.8692556023597717,-0.0573510602116584,-0.7305083870887756,0.0008500404655933,0.0347071439027786,0.0,0.0,-0.0970463156700134,0.2334517240524292
-0.0331045165657997,0.8523917198181152,-0.055291898548603,-0.749504029750824,0.0023825401440262,0.0306499302387237,0.0,0.0,0.4914968013763428,0.3566205501556396
-0.0335367210209369,0.8355255722999573,-0.0449753552675247,-0.749611496925354,0.0041122296825051,0.034593679010868,0.0,0.0,0.2598185539245605,0.3783433437347412
-0.033877182751894,0.8188371062278748,-0.0359389185905456,-0.7417144775390625,0.0059780715964734,0.0373172089457511,0.0,0.0,-0.4057304859161377,0.0611358880996704
-0.0342004783451557,0.8017212748527527,-0.0339947566390037,-0.7607100605964661,0.0076245530508458,0.0329295173287391,0.0,0.0,-0.04120934009552,0.4989850521087646
-0.0345069877803325,0.7841780781745911,-0.0320932082831859,-0.7797056436538696,0.0090464791283011,0.0284386724233627,0.0,0.0,-0.1896976232528686,0.910531520843506
-0.0347178466618061,0.7662035822868347,-0.0202765502035617,-0.7988622784614563,0.0082449438050389,-0.0160306766629219,0.0,0.0,0.2028315067291259,0.1092835664749145
-0.0349997505545616,0.748711109161377,-0.0267639495432376,-0.7774331569671631,0.0068305702880024,-0.0282872915267944,0.0,0.0,-0.0422761440277099,-0.5218300819396973
-0.0353170409798622,0.7307953834533691,-0.0313269011676311,-0.7962526679039001,0.0064434837549924,-0.0077416845597326,0.0,0.0,0.5262490510940552,-0.3743993043899536
-0.0356420502066612,0.7131567597389221,-0.0317799821496009,-0.7839313745498657,0.0057226908393204,-0.014415742829442,0.0,0.0,-0.0756478309631347,0.1855530738830566
-0.0359530448913574,0.6950909495353699,-0.0301204733550548,-0.8029267191886902,0.0047545367851853,-0.0193631313741207,0.0,0.0,0.2617268562316894,0.0641006231307983
-0.0362971313297748,0.6774411797523499,-0.0329713970422744,-0.7844283580780029,0.0033316516783088,-0.0284576658159494,0.0,0.0,0.5817657709121704,-0.6578889489173889
-0.0365676879882812,0.6599990725517273,-0.0269306357949972,-0.7752008438110352,0.0032086733262985,-0.0024594655260443,0.0,0.0,0.6098991632461548,0.3961702585220337
-0.0368252769112587,0.6432955861091614,-0.0253863986581563,-0.7423760294914246,0.0028415857814252,-0.0073415888473391,0.0,0.0,0.0211161375045776,0.2319446802139282
-0.0369799621403217,0.6266171336174011,-0.0152569059282541,-0.741265058517456,0.0026387902908027,-0.0040559638291597,0.0,0.0,-0.551979124546051,0.3535988330841064
-0.0371233932673931,0.6095111966133118,-0.0138796074315905,-0.7602604627609253,0.0021712752059102,-0.009350286796689,0.0,0.0,0.0925459861755371,0.5656808614730835
-0.0371437072753906,0.5927740931510925,-0.0002558371634222,-0.7438704371452332,0.0004232804640196,-0.0349597558379173,0.0,0.0,0.5038352012634277,-0.3960108757019043
-0.0370287895202636,0.5765306353569031,0.0129495132714509,-0.7219358682632446,-0.0010136101627722,-0.0287380423396825,0.0,0.0,0.0234570503234863,-0.1252113580703735
-0.0368577949702739,0.5606245994567871,0.018608858808875,-0.7069321274757385,-0.002508704084903,-0.0299017317593097,0.0,0.0,-0.1623235940933227,-0.3331674337387085
-0.0366783142089843,0.5442913174629211,0.0197403561323881,-0.7259278893470764,-0.0042780837975442,-0.0353875420987606,0.0,0.0,0.3625644445419311,-0.0759751200675964
-0.0364474281668663,0.5279885530471802,0.0249645002186298,-0.7245747447013855,-0.0061282310634851,-0.0370028130710125,0.0,0.0,0.4385156631469726,-0.1514803171157837
-0.036292839795351,0.5121753215789795,0.0180236976593732,-0.702821671962738,-0.0086598368361592,-0.0506322383880615,0.0,0.0,0.6059677600860596,-0.6303865909576416
-0.0360469818115234,0.4966862499713897,0.0258682426065206,-0.6884125471115112,-0.0099185379222035,-0.0251740664243698,0.0,0.0,-0.0876892805099487,0.2456449270248413
-0.0357951149344444,0.4807698130607605,0.0267448313534259,-0.7074082493782043,-0.0114570651203393,-0.0307705495506525,0.0,0.0,0.6598114967346191,0.2421915531158447
-0.0355254188179969,0.4650299549102783,0.0287689268589019,-0.6995639204978943,-0.0132398325949907,-0.0356551073491573,0.0,0.0,0.2653496265411377,0.143121600151062
-0.0353399291634559,0.449543684720993,0.0210820734500885,-0.6883057355880737,-0.0157421994954347,-0.0500472784042358,0.0,0.0,0.5430114269256592,-0.5812826752662659
-0.0351621620357036,0.4348361492156982,0.0193804018199443,-0.6536839008331299,-0.0173179768025875,-0.031515572220087,0.0,0.0,0.2114326953887939,-0.595820963382721
-0.0349578857421875,0.4200153350830078,0.0209928322583436,-0.6587097644805908,-0.0178735572844743,-0.0111117986962199,0.0,0.0,-0.2721812725067138,0.3067489862442016
-0.0347507484257221,0.404767245054245,0.021551463752985,-0.6777057647705078,-0.0187099482864141,-0.0167276728898286,0.0,0.0,0.940303921699524,-0.6001723408699036
-0.0346966758370399,0.3899275362491607,0.0056647458113729,-0.6595458984375,-0.0189578998833894,-0.004958776757121,0.0,0.0,0.8213901519775391,0.0745720863342285
-0.0347279533743858,0.3757829368114471,-0.0021297568455338,-0.6286628842353821,-0.0199534371495246,-0.0199106223881244,0.0,0.0,0.7960689067840576,0.5777980089187622
-0.0346634872257709,0.3622243404388428,0.0088151348754763,-0.6026373505592346,-0.0222800783812999,-0.0465328209102153,0.0,0.0,0.2946195602416992,-0.6380909085273743
-0.0347458831965923,0.3492435216903686,-0.0066901333630084,-0.5769517421722412,-0.0238092727959156,-0.0305840484797954,0.0,0.0,0.4685792922973633,0.4138891696929931
-0.0347509384155273,0.3366027176380157,0.0010151864262297,-0.5618354082107544,-0.0253111142665147,-0.0300368424504995,0.0,0.0,0.4266285896301269,0.6321358680725098
-0.0347301475703716,0.3240355253219604,0.0052134739235043,-0.5585974454879761,-0.0284076333045959,-0.0619302876293659,0.0,0.0,0.2432965040206909,-0.50742107629776
-0.0346882827579975,0.311401903629303,0.0064532821998,-0.561538815498352,-0.0306429881602525,-0.0447071269154548,0.0,0.0,0.862440824508667,-0.3236368298530578
-0.0346719734370708,0.2989163994789123,0.0043258718214929,-0.5549688935279846,-0.0333107188344001,-0.0533542819321155,0.0,0.0,0.8835184574127197,-0.882966935634613
-0.034708023071289,0.2873713970184326,-0.0023936429060995,-0.5131417512893677,-0.0345054902136325,-0.023895476013422,0.0,0.0,0.6931349039077759,-0.0001373291015625
-0.0346359238028526,0.2766480445861816,0.0082979509606957,-0.4766165912151336,-0.0355819873511791,-0.0215299315750598,0.0,0.0,0.0004060268402099,-0.1625565290451049
-0.0346173271536827,0.2662431001663208,0.0035306916106492,-0.4624859094619751,-0.0372302457690238,-0.0329653546214103,0.0,0.0,-0.0011437535285949,-0.3858349323272705
-0.0346023552119731,0.2554108202457428,0.0034277860540896,-0.4814823269844055,-0.03913189843297,-0.0380330272018909,0.0,0.0,-0.0062271952629089,-0.5287756323814392
-0.0346302017569541,0.2441583424806594,-0.0016014950815588,-0.5001415014266968,-0.0403004772961139,-0.0233715120702981,0.0,0.0,0.4620256423950195,-0.2220863103866577
-0.0347314849495887,0.2332473397254943,-0.008275905624032,-0.4849835038185119,-0.0421281084418296,-0.0365526340901851,0.0,0.0,0.3567348718643188,-0.8739132285118103
-0.0349342338740825,0.2227545380592346,-0.0198928397148847,-0.4663553237915039,-0.042505744844675,-0.0075527392327785,0.0,0.0,0.2665524482727051,-0.1890468001365661
-0.0351283065974712,0.2126384526491165,-0.0187506973743438,-0.4496211111545563,-0.0431594289839267,-0.0130737023428082,0.0,0.0,0.0418800115585327,0.3284482955932617
-0.0352569594979286,0.2026414722204208,-0.0122286919504404,-0.4443309903144836,-0.0437864772975444,-0.0125409215688705,0.0,0.0,0.2652604579925537,-0.4532868266105652
-0.0353614799678325,0.1926087886095047,-0.0096823098137974,-0.4459179937839508,-0.0445510186254978,-0.015290655195713,0.0,0.0,0.2790505886077881,-0.2679418325424194
-0.0353861823678016,0.1826111674308776,-0.0018141129985451,-0.4443568289279938,-0.0451980978250503,-0.0129416612908244,0.0,0.0,0.2259802818298339,-0.4786772131919861
-0.0352886207401752,0.1728139519691467,0.0101113440468907,-0.4354453682899475,-0.0455478429794311,-0.0069948597811162,0.0,0.0,0.3508000373840332,-0.8966794013977051
-0.0351233482360839,0.163061648607254,0.0151671599596738,-0.4333942532539367,-0.0442006364464759,0.0269440412521362,0.0,0.0,0.2328834533691406,-0.7086085081100464
-0.0350000374019146,0.153731420636177,0.0097326273098587,-0.4146022200584411,-0.0416414402425289,0.0511841289699077,0.0,0.0,0.068956971168518,-0.6419754028320312
-0.0348907485604286,0.144716203212738,0.0072071328759193,-0.400576502084732,-0.0379612892866134,0.0736029744148254,0.0,0.0,0.0665189027786254,-0.6771993637084961
-0.0347335822880268,0.135919839143753,0.0107131889089941,-0.3908324241638183,-0.0330155156552791,0.0989154204726219,0.0,0.0,0.4250848293304443,-0.4360561370849609
-0.0344864837825298,0.127114325761795,0.0194548778235912,-0.3912514150142669,-0.0278331991285085,0.1036462038755416,0.0,0.0,0.3883683681488037,-0.3685821890830993
-0.034278105944395,0.1185252517461776,0.0159549601376056,-0.3816532790660858,-0.0230113565921783,0.0964369103312492,0.0,0.0,0.4862778186798095,-0.1919729113578796
-0.0339820869266986,0.1106704548001289,0.0245077274739742,-0.349031388759613,-0.0179834067821502,0.1005588769912719,0.0,0.0,0.2058216333389282,-0.6881588101387024
-0.0337585434317588,0.1030134260654449,0.0160437319427728,-0.3402473032474518,-0.0117482477799057,0.1247031241655349,0.0,0.0,0.4181315898895263,0.5369377136230469
-0.0336061492562294,0.0959598645567894,0.0104077709838747,-0.3134623765945434,-0.0069787092506885,0.0953906923532486,0.0,0.0,0.0278670787811279,0.7295458316802979
-0.0333364494144916,0.0891327485442161,0.0236759148538112,-0.3034153282642364,-0.0037321601994335,0.064931109547615,0.0,0.0,-0.2749673724174499,0.229622483253479
-0.0330726616084575,0.0818783342838287,0.0231920219957828,-0.3224116563796997,-0.0005868012085556,0.0629070550203323,0.0,0.0,0.5334690809249878,-0.3844963908195495
-0.0328908935189247,0.0752393305301666,0.0154419895261526,-0.295071005821228,0.0021144312340766,0.0540245585143566,0.0,0.0,0.0498876571655273,0.707160472869873
-0.0326773636043071,0.0686453878879547,0.0201406367123127,-0.2930678129196167,0.0033181835897266,0.0240749269723892,0.0,0.0,0.0890202522277832,0.555090069770813
-0.0325116142630577,0.0622190348803997,0.0166799612343311,-0.2856170833110809,0.0032130181789398,-0.0021030658390372,0.0,0.0,0.1834840774536132,0.9463181495666504
-0.0324033722281456,0.0559256412088871,0.0129103315994143,-0.2797020375728607,0.0011479674139991,-0.0413010343909263,0.0,0.0,0.0613473653793334,0.0757761001586914
-0.0322320945560932,0.0498974658548831,0.0189423784613609,-0.2679165303707123,-0.0006381587591022,-0.0357223413884639,0.0,0.0,0.0092784166336059,-0.2160282731056213
-0.0320270545780658,0.0437800996005535,0.0221533365547657,-0.2718867361545563,-0.0022725989110767,-0.0326887816190719,0.0,0.0,0.3626388311386108,0.1375671625137329
-0.0317046158015728,0.0381787866353988,0.0333546735346317,-0.2489505410194397,-0.0033608356025069,-0.0217648595571517,0.0,0.0,-0.0781757831573486,-0.5619915127754211
-0.0314313881099224,0.0321549735963344,0.0272497273981571,-0.2677253782749176,-0.0032815402373671,0.0015857338439673,0.0,0.0,0.7029139995574951,0.8218860626220703
-0.0309301372617483,0.0270333141088485,0.0513789542019367,-0.2276320606470108,-0.0045210397802293,-0.0247900411486625,0.0,0.0,0.1555079221725464,-0.2378699779510498
-0.0303757674992084,0.0220919698476791,0.0564109869301319,-0.2196177691221237,-0.0054760160855948,-0.0190996062010526,0.0,0.0,0.067212700843811,-0.6995691061019897
-0.029880428686738,0.0175218433141708,0.0490352734923362,-0.2031144946813583,-0.0049916920252144,0.0096867019310593,0.0,0.0,0.1280939579010009,-0.1352673768997192
-0.0293418876826763,0.0133306598290801,0.0531038232147693,-0.1862727701663971,-0.0042472244240343,0.0148892682045698,0.0,0.0,0.0806943178176879,-0.6718063950538635
-0.0287955291569232,0.0091585731133818,0.05237627774477,-0.1854216903448104,-0.0020177995320409,0.0445883907377719,0.0,0.0,0.3066999912261963,-0.3454822897911072
-0.0283443443477153,0.0052929376251995,0.0432075299322605,-0.1718031913042068,-0.0001362073235213,0.0376317203044891,0.0,0.0,0.2821683883666992,0.4312844276428222
-0.0279915817081928,0.0015992140397429,0.0337264090776443,-0.1641653627157211,0.0013998611830174,0.0307211335748434,0.0,0.0,0.5218822956085205,0.3430922031402588
-0.0276573188602924,-0.0017429613508284,0.0318305902183055,-0.1485440284013748,0.0029749886598438,0.0315024070441722,0.0,0.0,0.3975495100021362,0.7129518985748291
-0.0272398944944143,-0.0035068534780293,0.0414472743868827,-0.0784087404608726,0.0032137737143784,0.0047075073234736,1.0,1.0,0.5249488353729248,-0.6309007406234741
-0.0268509872257709,-0.0040398621931672,0.037406001240015,-0.0237037129700183,0.0046343826688826,0.028356596827507,1.0,1.0,-0.4009401202201843,-0.7172613143920898
-0.0266199111938476,-0.0038469575811177,0.0209039263427257,0.0085539473220705,0.0067672007717192,0.0426105745136737,1.0,1.0,-0.5951622128486633,0.0014190673828125
-0.0263905525207519,-0.0030463004950433,0.020861504599452,0.0355648957192897,0.0087884282693266,0.0403834655880928,1.0,1.0,-0.368295669555664,0.2933875322341919
