x_pos,y_pos,x_vel,y_vel,angle,ang_vel,leg_1,leg_2,main_booster,lat_booster
-0.0015384673606604,1.4032576084136963,-0.1561010032892227,-0.3405523300170898,0.0020189997740089,0.0398459807038307,0.0,0.0,-0.1415170994641206,0.5948123062885675
-0.0030409812461584,1.3952487707138062,-0.1512167751789093,-0.3559468686580658,0.00296117272228,0.0188455879688262,0.0,0.0,-0.2594889805062375,-0.840878987729698
-0.0046097757294774,1.3868664503097534,-0.1593998372554779,-0.3725566864013672,0.0054630939848721,0.050043236464262,0.0,0.0,-0.0192109882408066,-0.949307921585618
-0.0062823295593261,1.3781137466430664,-0.1723386347293853,-0.3890410959720611,0.0104901958256959,0.1005512252449989,0.0,0.0,-0.5193624549630826,0.8850384688791423
-0.0078848842531442,1.3689985275268557,-0.16347636282444,-0.4051472544670105,0.0136812673881649,0.0638271793723106,0.0,0.0,-0.5675484752296145,0.9537112113657328
-0.0094094276428222,1.3595170974731443,-0.153645247220993,-0.4214056432247162,0.0148595133796334,0.0235670134425163,0.0,0.0,-0.2474840765998969,-0.7275365089011894
-0.0110072139650583,1.34966778755188,-0.1628053337335586,-0.4377815127372741,0.0178463403135538,0.0597420111298561,0.0,0.0,-0.0638690312102152,-0.8523928949188213
-0.0126694682985544,1.3394529819488523,-0.1708479672670364,-0.4540494978427887,0.0224262066185474,0.091605320572853,0.0,0.0,-0.2940664341396966,0.6222377148086635
-0.0142972944304347,1.3288801908493042,-0.1665343046188354,-0.4699627757072449,0.0261313375085592,0.0741095691919326,0.0,0.0,0.7650054993531368,-0.6951188806322735
-0.0160145759582519,1.319106936454773,-0.1772071421146392,-0.4344781041145324,0.0315553061664104,0.1084890365600586,0.0,0.0,-0.0501452603639624,-0.9116656343141252
-0.0178066249936819,1.3089649677276611,-0.1866016387939453,-0.4509263932704925,0.0388789549469947,0.146486297249794,0.0,0.0,0.1231712955777926,0.6889284603157473
-0.0195168498903512,1.2990003824234009,-0.1774742901325225,-0.4430527985095978,0.0452633798122406,0.1277001500129699,0.0,0.0,-0.0953284959203046,0.7531228200256697
-0.0211678501218557,1.2886782884597778,-0.1700740605592727,-0.4589195549488067,0.0501985065639019,0.0987113267183303,0.0,0.0,0.9858128704641556,0.8254290343528778
-0.0226967819035053,1.2786333560943604,-0.1568153202533722,-0.4465726912021637,0.0540758743882179,0.0775544643402099,0.0,0.0,-0.6494261372029275,-0.53596649713474
-0.0242704395204782,1.268225073814392,-0.1624763756990432,-0.4627828299999237,0.059147723019123,0.1014459580183029,0.0,0.0,-0.8046415478564992,-0.7241024891399706
-0.0259019844233989,1.2574383020401,-0.1698589920997619,-0.4796949625015259,0.0657832026481628,0.1327216476202011,0.0,0.0,-0.9532238851364035,-0.5279268229502468
-0.0275774002075195,1.2462886571884155,-0.1754459142684936,-0.4959070384502411,0.0736166313290596,0.1566830575466156,0.0,0.0,0.9013354999331572,0.9134182371294264
-0.0290428157895803,1.235438585281372,-0.1533545106649398,-0.4825778603553772,0.0803708061575889,0.1350957304239273,0.0,0.0,0.836019971534298,0.558663808953721
-0.030432129278779,1.225580811500549,-0.145352765917778,-0.4384832680225372,0.0867379382252693,0.1273540556430816,0.0,0.0,-0.6961672603422284,-0.9761099179792592
-0.031918715685606,1.2153453826904297,-0.1577088981866836,-0.45545494556427,0.0957098975777626,0.1794554740190506,0.0,0.0,0.1801877298632828,-0.5839111373247827
-0.0334125533699989,1.2055591344833374,-0.1601648479700088,-0.4356684982776642,0.1064259558916091,0.2143406122922897,0.0,0.0,-0.3727383023846167,-0.534418413779121
-0.034956932067871,1.1953985691070557,-0.1666706651449203,-0.4524932205677032,0.1185941025614738,0.2433846890926361,0.0,0.0,-0.2220838272763161,-0.8543915898207177
-0.0365631096065044,1.184863805770874,-0.1745829284191131,-0.4693875014781952,0.132508173584938,0.2783063650131225,0.0,0.0,0.2213553075038814,-0.8571356413802128
-0.0382160171866416,1.174297571182251,-0.1813965737819671,-0.4711121320724487,0.1485888212919235,0.3216415047645569,0.0,0.0,0.8251920038344933,-0.7565207437090703
-0.0402112007141113,1.164374828338623,-0.2171391993761062,-0.4428691864013672,0.1662198603153228,0.3526522517204284,0.0,0.0,-0.770230617093679,-0.879065127380439
-0.0422976501286029,1.154052495956421,-0.2288212478160858,-0.4611429274082184,0.186446875333786,0.4045403599739074,0.0,0.0,-0.9676091978692962,0.9691715963122416
-0.0443163886666297,1.143397092819214,-0.2204423397779464,-0.4760217368602752,0.2051247656345367,0.3735581338405609,0.0,0.0,-0.8775032842110779,-0.6741965487448451
-0.0464064590632915,1.1323679685592651,-0.2295210063457489,-0.4931594133377075,0.2258585542440414,0.4146757125854492,0.0,0.0,0.8629572510515591,0.5711799277674303
-0.0488080009818077,1.1222225427627563,-0.2594255805015564,-0.4539775848388672,0.245416522026062,0.391159176826477,0.0,0.0,-0.5641788661781413,0.7899952654052053
-0.0511563308537006,1.111735463142395,-0.2529041767120361,-0.4692186713218689,0.2638458907604217,0.3685871362686157,0.0,0.0,-0.4394198311520243,-0.6016502872329796
-0.0535552985966205,1.1008763313293457,-0.259416401386261,-0.4862707257270813,0.2838559448719024,0.4002009034156799,0.0,0.0,-0.8278722167015076,0.9704654216766356
-0.0558937080204486,1.0896791219711304,-0.2519808411598205,-0.5012867450714111,0.3025602996349334,0.3740877211093902,0.0,0.0,-0.8200795650482178,0.9712728261947632
-0.0581746101379394,1.0781593322753906,-0.2448671758174896,-0.515583336353302,0.3199509084224701,0.3478122651576996,0.0,0.0,-0.763476550579071,0.9651046991348268
-0.0603919029235839,1.0663015842437744,-0.2371236830949783,-0.5304902791976929,0.335988312959671,0.3207481801509857,0.0,0.0,-0.806023359298706,0.9940731525421144
-0.0625360459089279,1.0541234016418457,-0.2280904352664947,-0.544504702091217,0.3503293991088867,0.2868218719959259,0.0,0.0,-0.7379828095436096,0.968075394630432
-0.0646093338727951,1.041629672050476,-0.2193642407655716,-0.5582613348960876,0.3630075454711914,0.253562867641449,0.0,0.0,-0.7210543155670166,0.978590726852417
-0.0666128173470497,1.028807282447815,-0.210884690284729,-0.5725919008255005,0.3741545379161834,0.2229405641555786,0.0,0.0,-0.5756900310516357,0.9828906059265136
-0.0685410499572753,1.015673279762268,-0.2016475647687912,-0.5860692858695984,0.3835219740867615,0.1873483955860138,0.0,0.0,-0.533763587474823,0.9648571014404296
-0.0704047232866287,1.002225041389465,-0.1937598884105682,-0.599709689617157,0.3913921415805816,0.1574042439460754,0.0,0.0,-0.7385086417198181,0.9874849319458008
-0.072191335260868,0.988460123538971,-0.1843607127666473,-0.6133614182472229,0.3974961638450622,0.1220807060599327,0.0,0.0,-0.8452895283699036,0.8944401741027832
-0.073923110961914,0.9743710160255432,-0.1777849048376083,-0.6274793148040771,0.4024335443973541,0.0987477004528045,0.0,0.0,-0.90138179063797,0.9604854583740234
-0.075566291809082,0.959968626499176,-0.1670235395431518,-0.6408781409263611,0.4053369760513305,0.0580688491463661,0.0,0.0,-0.8629464507102966,0.970780611038208
-0.0771199241280555,0.9452439546585084,-0.1562283188104629,-0.6546833515167236,0.406271755695343,0.0186955463141202,0.0,0.0,-0.7285364270210266,0.9917094707489014
-0.0785833373665809,0.9302060008049012,-0.1453127264976501,-0.668052613735199,0.4051613211631775,-0.0222087241709232,0.0,0.0,-0.8794309496879578,0.996129870414734
-0.0799694061279296,0.9148355722427368,-0.1361052244901657,-0.6824206709861755,0.4024801850318908,-0.0536228902637958,0.0,0.0,-0.8265713453292847,0.9988685846328736
-0.0812669768929481,0.8991404175758362,-0.1254954785108566,-0.6963585019111633,0.3979168832302093,-0.0912663042545318,0.0,0.0,-0.9090143442153932,0.998481273651123
-0.0824745148420333,0.8831257224082947,-0.1146652251482009,-0.7100710272789001,0.391408234834671,-0.130173847079277,0.0,0.0,-0.9056520462036132,0.9947593212127686
-0.0836162567138671,0.8667926788330078,-0.1067861765623092,-0.7238996624946594,0.3835276961326599,-0.1576105058193206,0.0,0.0,-0.8359500765800476,0.99890398979187
-0.0846927613019943,0.8501378297805786,-0.0990100726485252,-0.7379191517829895,0.3743340373039245,-0.1838729977607727,0.0,0.0,-0.7310711145401001,0.9998400211334229
-0.0856865867972374,0.8331576585769653,-0.0890995860099792,-0.7520170211791992,0.3634529411792755,-0.217621773481369,0.0,0.0,-0.4041153192520141,0.9994347095489502
-0.0865771323442459,0.8158656358718872,-0.0765811949968338,-0.7654312252998352,0.350315123796463,-0.2627561092376709,0.0,0.0,0.2571604251861572,0.9940458536148072
-0.087623119354248,0.7990203499794006,-0.0903827100992202,-0.7452847957611084,0.3354001045227051,-0.298299640417099,0.0,0.0,-0.5319780707359314,0.999732494354248
-0.0885664001107215,0.7818533778190613,-0.0779619961977005,-0.7592679858207703,0.3183422982692718,-0.3411560952663421,0.0,0.0,-0.4918066263198852,0.9977067708969116
-0.0894221290946006,0.7643705010414124,-0.0673741698265075,-0.773129403591156,0.2994857132434845,-0.3771318793296814,0.0,0.0,-0.4819262623786926,0.9960613250732422
-0.0901681929826736,0.7465669512748718,-0.0540966801345348,-0.7871952056884766,0.278352677822113,-0.422660768032074,0.0,0.0,-0.6332362294197083,0.3933316469192505
-0.0908983200788497,0.7284030318260193,-0.0525941327214241,-0.803536593914032,0.2574570775032043,-0.4179120659828186,0.0,0.0,-0.4468888640403747,0.4024447202682495
-0.0916112884879112,0.7098787426948547,-0.0510035380721092,-0.8198767900466919,0.2367884814739227,-0.413371741771698,0.0,0.0,-0.2977578639984131,0.587165117263794
-0.0922514945268631,0.691016435623169,-0.0423948839306831,-0.8349915146827698,0.2148782461881637,-0.4382043480873108,0.0,0.0,-0.7797985672950745,-0.636259138584137
-0.0929169654846191,0.6717860698699951,-0.0461337901651859,-0.851836621761322,0.1942905634641647,-0.4117537438869476,0.0,0.0,0.198909044265747,-0.6209861040115356
-0.0937821418046951,0.653007447719574,-0.0673548728227615,-0.8322106003761292,0.1750433146953582,-0.3849453330039978,0.0,0.0,-0.2331734895706176,0.5816766023635864
-0.0945773124694824,0.6338755488395691,-0.0592055842280387,-0.8480371236801147,0.1547182947397232,-0.4065005183219909,0.0,0.0,-0.2170180678367614,-0.0297021865844726
-0.0953514128923416,0.6143826842308044,-0.0572101883590221,-0.8643735647201538,0.1345667690038681,-0.4030307233333587,0.0,0.0,0.7400515079498291,-0.934223175048828
-0.0961058586835861,0.5953498482704163,-0.057448036968708,-0.8443790078163147,0.1166643351316452,-0.3580485880374908,0.0,0.0,0.39449143409729,-0.2311845421791076
-0.096878245472908,0.576728880405426,-0.0594483502209186,-0.8263037204742432,0.0990055054426193,-0.3531768023967743,0.0,0.0,0.8328254222869873,-0.7825392484664917
-0.0977231040596962,0.5583953261375427,-0.0684092864394187,-0.8138371706008911,0.0830695033073425,-0.3187201619148254,0.0,0.0,0.7402558326721191,0.5047821998596191
-0.0986942276358604,0.5406174063682556,-0.0797229930758476,-0.7892537713050842,0.0658613070845604,-0.3441641926765442,0.0,0.0,0.8289902210235596,-0.5322389602661133
-0.0997203812003135,0.5238990783691406,-0.0864766836166381,-0.7424039840698242,0.0499026104807853,-0.3191739916801452,0.0,0.0,-0.7900862097740173,0.6153757572174072
-0.1006661430001258,0.5068145394325256,-0.0771282464265823,-0.7588212490081787,0.0326625183224678,-0.3448017239570617,0.0,0.0,-0.3874891400337219,-0.5958206057548523
-0.1016317382454872,0.4893717765808105,-0.0803452208638191,-0.7749632596969604,0.016651889309287,-0.3202126920223236,0.0,0.0,0.9366743564605712,-0.4853224754333496
-0.102691076695919,0.4723951816558838,-0.0892820507287979,-0.7544146180152893,0.0002189554797951,-0.3286586105823517,0.0,0.0,-0.8834609985351562,0.1873582601547241
-0.1037240996956825,0.4550553560256958,-0.0867330431938171,-0.7707374095916748,-0.0161361116915941,-0.3271015584468841,0.0,0.0,-0.3310352563858032,0.1473888158798217
-0.104730412364006,0.4373522996902466,-0.0841362401843071,-0.7870598435401917,-0.0324233174324035,-0.3257439732551574,0.0,0.0,0.6169047355651855,-0.696182906627655
-0.105875588953495,0.4205421209335327,-0.0991927236318588,-0.7475224137306213,-0.0475537218153476,-0.3026080131530761,0.0,0.0,-0.0560376048088073,-0.7722970843315125
-0.1070467978715896,0.4033716320991516,-0.1032331585884094,-0.7636281847953796,-0.0612864308059215,-0.2746545672416687,0.0,0.0,0.665438175201416,-0.7113158702850342
-0.1082596778869628,0.3864299356937408,-0.1087924838066101,-0.7535201907157898,-0.0736432671546936,-0.2471368014812469,0.0,0.0,0.8456695079803467,0.148013949394226
-0.1093419045209884,0.369658350944519,-0.0961344093084335,-0.7460440993309021,-0.0856186598539352,-0.2395080626010894,0.0,0.0,0.9015543460845948,-0.6015159487724304
-0.1104489341378212,0.3531106114387512,-0.0997439175844192,-0.7361164689064026,-0.096481442451477,-0.2172556817531585,0.0,0.0,0.991918444633484,-0.8013391494750977
-0.1115087494254112,0.3376432657241821,-0.0966357290744781,-0.6880677342414856,-0.1057559922337532,-0.1854905039072036,0.0,0.0,0.9121770858764648,0.0572040081024169
-0.1123480796813964,0.3232039213180542,-0.0750196948647499,-0.6424033641815186,-0.114597387611866,-0.1768281161785125,0.0,0.0,0.7561079263687134,-0.8486648797988892
-0.1132558807730674,0.3097358644008636,-0.0833490863442421,-0.5991666913032532,-0.1219811365008354,-0.1476748883724212,0.0,0.0,-0.3760132193565368,-0.3847517967224121
-0.1141344085335731,0.2959018051624298,-0.0804249793291091,-0.6154714822769165,-0.1293753683567047,-0.1478850394487381,0.0,0.0,0.5473753213882446,-0.8663330674171448
-0.1149132698774337,0.2828155755996704,-0.072242796421051,-0.5821093916893005,-0.1349946111440658,-0.1123846992850303,0.0,0.0,0.4826457500457763,-0.7197281122207642
-0.1157489791512489,0.2701624035835266,-0.0791780576109886,-0.5627704858779907,-0.1393788009881973,-0.0876836329698562,0.0,0.0,-0.4730379581451416,-0.5656670928001404
-0.1166031807661056,0.257155179977417,-0.0822275131940841,-0.5784002542495728,-0.1425589621067047,-0.0636028051376342,0.0,0.0,0.94437837600708,-0.3550050854682922
-0.1173245459794998,0.2450063526630401,-0.0688410624861717,-0.5402671694755554,-0.1458408534526825,-0.0656379088759422,0.0,0.0,0.7481017112731934,-0.3821249008178711
-0.1178350448608398,0.2333844453096389,-0.0481529273092746,-0.5168167948722839,-0.1487381756305694,-0.057946503162384,0.0,0.0,0.8196666240692139,-0.6594389081001282
-0.1182840317487716,0.2219541668891906,-0.0433316081762313,-0.5081714987754822,-0.1502983570098877,-0.0312040094286203,0.0,0.0,0.685212254524231,-0.0169007778167724
-0.1185476332902908,0.2107450366020202,-0.0251883566379547,-0.4983010590076446,-0.1514727622270584,-0.023488251492381,0.0,0.0,0.7637853622436523,-0.3333402276039123
-0.1185336112976074,0.200037732720375,0.0019030885305255,-0.4759309887886047,-0.1519767642021179,-0.0100800236687064,0.0,0.0,0.6715371608734131,-0.7425682544708252
-0.118334487080574,0.1895280480384826,0.0186796747148036,-0.4669721722602844,-0.1507496684789657,0.0245420169085264,0.0,0.0,0.3927185535430908,-0.4982504844665527
-0.1180144324898719,0.1795919984579086,0.0308612771332263,-0.4414864778518677,-0.1496077477931976,0.0228380672633647,0.0,0.0,0.6705846786499023,-0.8245673775672913
-0.117578886449337,0.1704400181770324,0.0407570414245128,-0.4064736664295196,-0.1468192040920257,0.0557711906731128,0.0,0.0,0.6026908159255981,-0.951771080493927
-0.1169570907950401,0.1618720442056656,0.0573778375983238,-0.3803340196609497,-0.1420285999774933,0.0958122760057449,0.0,0.0,-0.1365507841110229,-0.8880586624145508
-0.1163631454110145,0.1529409289360046,0.0531746670603752,-0.3963550925254822,-0.1358348131179809,0.123875617980957,0.0,0.0,0.4396164417266845,-0.3414878845214844
-0.1157236099243164,0.1443125754594802,0.0580229945480823,-0.3829555213451385,-0.1299242824316024,0.1182105541229248,0.0,0.0,0.516384482383728,-0.5284386873245239
-0.1149084120988845,0.1364941149950027,0.0743797868490219,-0.3468832969665527,-0.1228168159723281,0.1421490162611007,0.0,0.0,0.1146949529647827,-0.6568379402160645
-0.1140841469168663,0.128893956542015,0.0740490332245826,-0.3371159434318542,-0.1144929006695747,0.1664784997701645,0.0,0.0,-0.3866008520126343,-0.4140487909317016
-0.1132287010550499,0.1209281533956527,0.0772335901856422,-0.3534224927425384,-0.1062415912747383,0.1650263369083404,0.0,0.0,-0.1817454099655151,-0.7430146336555481
-0.1123916655778884,0.1126084402203559,0.0741743892431259,-0.3691170811653137,-0.0967931225895881,0.1889692544937133,0.0,0.0,0.6342401504516602,0.1834108829498291
-0.1115043610334396,0.1050388216972351,0.0795209929347038,-0.3358553946018219,-0.087660476565361,0.1826528757810592,0.0,0.0,0.0041111707687377,0.1492209434509277
-0.1105958968400955,0.0977902039885521,0.0819330960512161,-0.3216603100299835,-0.0788295865058898,0.1766178160905838,0.0,0.0,0.1787972450256347,0.8559165000915527
-0.1095811873674392,0.0906987264752388,0.0943586006760597,-0.3148193657398224,-0.071783073246479,0.1409304291009903,0.0,0.0,0.0063352584838867,0.5255227088928223
-0.1085460633039474,0.0837937220931053,0.0976384654641151,-0.3066194653511047,-0.0659730955958366,0.1161994487047195,0.0,0.0,0.1382666826248169,-0.3115413188934326
-0.1075591072440147,0.0770727470517158,0.0933685153722763,-0.298484206199646,-0.0607036128640174,0.1053895205259323,0.0,0.0,0.3434312343597412,0.5673470497131348
-0.1063663512468338,0.0708509534597396,0.1149480491876602,-0.2763537168502807,-0.0564202703535556,0.085666611790657,0.0,0.0,0.1388012170791626,0.4051723480224609
-0.1050854697823524,0.0646401047706604,0.1236198991537094,-0.2758786380290985,-0.0519942753016948,0.0885196477174758,0.0,0.0,0.1753516197204589,-0.0947964191436767
-0.1036416068673133,0.0588677041232585,0.1394778192043304,-0.2563867270946502,-0.0471391975879669,0.0971016436815261,0.0,0.0,-0.2045484781265258,-0.3774402141571045
-0.1021659821271896,0.0527289472520351,0.1426903009414672,-0.2726889252662658,-0.0423268787562847,0.0962462201714515,0.0,0.0,0.7885141372680664,-0.463939905166626
-0.100465103983879,0.0476003512740135,0.1645285636186599,-0.2277923673391342,-0.0368371866643428,0.1097937449812889,0.0,0.0,0.1146284341812133,-0.8028609752655029
-0.0987220779061317,0.0426919087767601,0.1671249568462371,-0.2179897874593734,-0.0297453049570322,0.1418376564979553,0.0,0.0,0.5274970531463623,-0.974196434020996
-0.0970091819763183,0.0385630950331687,0.1621787548065185,-0.183351069688797,-0.0207461528480052,0.1799831092357635,0.0,0.0,0.3336051702499389,-0.6515148878097534
-0.0952485054731369,0.035027727484703,0.1655612289905548,-0.1570145189762115,-0.0103713823482394,0.207495242357254,0.0,0.0,0.2554600238800049,-0.8874310851097107
-0.0934518799185752,0.0316454283893108,0.1673234105110168,-0.1502824276685714,0.0018064213218167,0.2435561865568161,0.0,0.0,0.1369049549102783,-0.7018113732337952
-0.0917751342058181,0.0285375695675611,0.1540358662605285,-0.1381958127021789,0.0152736818417906,0.269345611333847,0.0,0.0,-0.245569109916687,0.7251254320144653
-0.0900212302803993,0.0250643584877252,0.1628922671079635,-0.1545380502939224,0.0276149213314056,0.2468245923519134,0.0,0.0,-0.088214635848999,-0.4188648462295532
-0.0882353782653808,0.0212264396250247,0.1660754233598709,-0.1708509176969528,0.0399740636348724,0.247182697057724,0.0,0.0,0.5730421543121338,0.3129854202270508
-0.0864130035042762,0.0177865605801343,0.1695780456066131,-0.1532674133777618,0.0524751506745815,0.2500217854976654,0.0,0.0,0.1609609127044677,0.2232053279876709
-0.084480382502079,0.0143678523600101,0.1801566183567047,-0.1524520516395568,0.0654385238885879,0.2592674195766449,0.0,0.0,0.1667786836624145,0.3749866485595703
-0.0824785232543945,0.0113142821937799,0.1867066323757171,-0.1363559812307357,0.0787686854600906,0.2666037380695343,0.0,0.0,0.0791829824447631,0.2333185672760009
-0.0804699882864952,0.0086862538009881,0.187267392873764,-0.1175716817378997,0.0922340899705886,0.2693082690238952,0.0,1.0,-0.6787341833114624,0.8338963985443115
-0.078525923192501,0.0060862638056278,0.1951082944869995,-0.1157043427228927,0.0909134894609451,-0.0272283945232629,0.0,1.0,0.1217193603515625,0.138890266418457
