x_pos,y_pos,x_vel,y_vel,angle,ang_vel,leg_1,leg_2,main_booster,lat_booster
-0.0015010833740234,1.4035382270812988,-0.1524840891361236,-0.3280844092369079,0.0021277484484016,0.0419989638030529,0.0,0.0,0.0927963083851581,0.770252264563448
-0.0028800009749829,1.3965474367141724,-0.1388689577579498,-0.3107008337974548,0.0030869396869093,0.0191863123327493,0.0,0.0,0.6298182807870261,-0.7015027099452078
-0.0041484832763671,1.3900630474090576,-0.1299307197332382,-0.2882046997547149,0.0061354283243417,0.0609755739569664,0.0,0.0,-0.2797104467974736,-0.8707331869697172
-0.0054759979248046,1.383489012718201,-0.1383030712604522,-0.292214572429657,0.0116237457841634,0.109776459634304,0.0,0.0,0.1133559438495042,-0.9499912414441424
-0.0067576407454907,1.3774919509887695,-0.1360108256340026,-0.2666149437427521,0.0193871539086103,0.1552827805280685,0.0,0.0,0.0436127251885167,-0.9416128631506416
-0.0079936031252145,1.3719236850738523,-0.1337046474218368,-0.2476385682821273,0.0293882191181182,0.2000394612550735,0.0,0.0,-0.037116143978314,-0.6411394052682818
-0.0092590330168604,1.366268515586853,-0.1383747160434723,-0.2516106367111206,0.0410912930965423,0.2340830117464065,0.0,0.0,0.7614265220402787,0.7089718413751174
-0.0103013990446925,1.361579179763794,-0.1154437065124511,-0.2087616473436355,0.0521883331239223,0.2219613045454025,0.0,0.0,0.1212826108267111,-0.7310503437962159
-0.0114175798371434,1.357659101486206,-0.1246775612235069,-0.1747344434261322,0.0651126131415367,0.2585095167160034,0.0,0.0,0.0322783348336981,0.6435741927743931
-0.0124909402802586,1.354343295097351,-0.1194722205400466,-0.1479410231113433,0.0771491304039955,0.2407524138689041,0.0,0.0,-0.7865018132339687,0.8536762363193662
-0.0134649276733398,1.3509527444839478,-0.1079745665192604,-0.1512685269117355,0.0876427516341209,0.209891676902771,0.0,0.0,0.8510649879423651,0.810389243198011
-0.0143177984282374,1.348380208015442,-0.094824306666851,-0.1149172931909561,0.097108855843544,0.1893395781517028,0.0,0.0,-0.3892087784062261,0.925885768073471
-0.0150599479675292,1.3457403182983398,-0.081885389983654,-0.1178401559591293,0.1047317013144493,0.1524707376956939,0.0,0.0,0.5237743363400409,-0.6151575245639338
-0.0157924648374319,1.3435020446777344,-0.0827132016420364,-0.1001685038208961,0.1141387298703193,0.1881578266620636,0.0,0.0,0.7201109635552312,0.8196256291977264
-0.0163755416870117,1.3425050973892212,-0.0668337345123291,-0.0449729412794113,0.1226182356476783,0.1696057021617889,0.0,0.0,-0.3661510721263981,0.7497437574175488
-0.0168659202754497,1.3414273262023926,-0.0561845600605011,-0.0484994985163211,0.1297367960214615,0.1423843801021576,0.0,0.0,-0.7592082813403958,-0.8367563259508912
-0.0173850059509277,1.340264916419983,-0.0607425980269908,-0.0524599812924861,0.1385385394096374,0.1760507225990295,0.0,0.0,0.7232917663488494,0.914461701211351
-0.0176994316279888,1.3396397829055786,-0.0391042158007621,-0.0285092573612928,0.1461853384971618,0.1529499590396881,0.0,0.0,0.0075106396011699,-0.6262102167121377
-0.0180458072572946,1.3396661281585691,-0.0440111979842186,0.0002306254464201,0.1555575132369995,0.1874605119228363,0.0,0.0,0.4998648475246976,0.6212571937470219
-0.0184799190610647,1.3403620719909668,-0.0517593026161193,0.0300364978611469,0.1639136224985122,0.1671374589204788,0.0,0.0,0.6857177883335219,0.8104058648426646
-0.0188128463923931,1.342165231704712,-0.0406726337969303,0.0793137326836586,0.1713131815195083,0.1480043083429336,0.0,0.0,0.4542692035196267,-0.7313871059529296
-0.0192352291196584,1.344443440437317,-0.051494050770998,0.100168228149414,0.1806026995182037,0.1858067512512207,0.0,0.0,-0.3270955975650333,0.9745444680784172
-0.0195437427610158,1.3466613292694092,-0.0381244197487831,0.0976662337779998,0.1879219263792038,0.1463976502418518,0.0,0.0,0.6362060814297088,0.8571733126230386
-0.0197447780519723,1.3492811918258667,-0.0261947847902774,0.1156562566757202,0.1940554231405258,0.1226810663938522,0.0,0.0,0.3476865725262958,0.8624566154228122
-0.0200883857905864,1.3525727987289429,-0.038995936512947,0.1456751823425293,0.1987319886684417,0.0935391634702682,0.0,0.0,-0.8862650212708774,-0.6729091522785091
-0.0204727165400981,1.355742335319519,-0.0451450571417808,0.1399572342634201,0.2054915130138397,0.1351903975009918,0.0,0.0,-0.0774833441587827,0.745347524167407
-0.0207784660160541,1.3588500022888184,-0.0361698754131794,0.1373301446437835,0.2111464738845825,0.1130988448858261,0.0,0.0,-0.8768237393398577,-0.6093538178818256
-0.0211210250854492,1.361860990524292,-0.0417365990579128,0.1327338963747024,0.2186957448720932,0.1509852856397628,0.0,0.0,-0.7322138816391153,-0.8916189053945595
-0.0215274803340435,1.36476731300354,-0.0506599470973014,0.1276505291461944,0.2288310229778289,0.2027053385972976,0.0,0.0,0.9463957419130888,0.8213425589678753
-0.0220062248408794,1.3684388399124146,-0.0565929040312767,0.1617989391088485,0.2376644164323806,0.1766679286956787,0.0,0.0,-0.7020149549678172,-0.9178036210004572
-0.0225346572697162,1.37201189994812,-0.063689187169075,0.1570129543542862,0.2486917823553085,0.2205475270748138,0.0,0.0,0.3918336567321314,0.8969484986268246
-0.0231369026005268,1.3760316371917725,-0.0696015879511833,0.1770405322313308,0.2582509517669678,0.1911832839250564,0.0,0.0,0.9506042141321728,-0.7741271419154611
-0.0241238586604595,1.3812835216522217,-0.1097395271062851,0.2314379215240478,0.2695420980453491,0.2258226424455642,0.0,0.0,-0.1611397639726635,0.6814767995762459
-0.0250441543757915,1.386465549468994,-0.1022363156080246,0.2283953875303268,0.2800136506557464,0.2094314992427826,0.0,0.0,0.3921957657962474,-0.7129038292544587
-0.026131248101592,1.3923108577728271,-0.1207126230001449,0.2574431002140045,0.2923636734485626,0.2470003813505172,0.0,0.0,-0.977714180423142,0.8302914909722183
-0.0271367076784372,1.3981083631515503,-0.1112065538764,0.2554865181446075,0.3033786118030548,0.2202988415956497,0.0,0.0,0.3797868045054173,0.7663307307640297
-0.0282025337219238,1.4043793678283691,-0.1160856336355209,0.2766944766044616,0.313213974237442,0.1967073529958725,0.0,0.0,0.4977162667174808,-0.872668463538148
-0.029493236914277,1.4115444421768188,-0.1406785398721695,0.3159010708332062,0.3252780437469482,0.2412817925214767,0.0,0.0,0.8028240814518341,0.92009470451081
-0.0310396198183298,1.4199550151824951,-0.1646983027458191,0.371508777141571,0.3357857763767242,0.2101546078920364,0.0,0.0,0.1592001994461007,-0.6196269687837102
-0.0327351577579975,1.4288744926452637,-0.1812158972024917,0.3936615884304046,0.3480024039745331,0.2443324327468872,0.0,0.0,0.1471908715956069,-0.9595677066656
-0.034754179418087,1.4383987188339231,-0.2157723009586334,0.4198683202266693,0.3625922203063965,0.2917964458465576,0.0,0.0,-0.994170308113098,0.5074295997619629
-0.0367128364741802,1.4478654861450195,-0.208857923746109,0.4173961281776428,0.3763371109962463,0.2748978734016418,0.0,0.0,-0.9982846975326538,0.926155686378479
-0.0385756492614746,1.457287073135376,-0.1975195556879043,0.415731817483902,0.3882894515991211,0.2390470951795578,0.0,0.0,-0.996453583240509,0.7877707481384277
-0.0403572097420692,1.4666653871536257,-0.1879531443119049,0.4141110479831695,0.3987599313259125,0.2094088345766067,0.0,0.0,-0.999951422214508,-0.0351603031158447
-0.0421252250671386,1.4759610891342163,-0.1869350373744964,0.4102568626403808,0.4096404016017914,0.2176093310117721,0.0,0.0,-0.9990974068641664,-0.3233876228332519
-0.0438804626464843,1.4851740598678589,-0.1859842389822006,0.4064016938209533,0.4209307432174682,0.225806787610054,0.0,0.0,-0.998883843421936,-0.1622253060340881
-0.0456236824393272,1.494304895401001,-0.1851040124893188,0.4025454819202423,0.4326307475566864,0.2340001314878463,0.0,0.0,-0.9996232390403748,0.3922648429870605
-0.0473555549979209,1.503353238105774,-0.1842975467443466,0.39868825674057,0.4447401762008667,0.2421882152557373,0.0,0.0,-0.9924120903015136,-0.3483871221542358
-0.0490771308541297,1.5123196840286257,-0.1835680305957794,0.3948300182819366,0.4572586715221405,0.2503697574138641,0.0,0.0,-0.9841862916946412,0.7279808521270752
-0.0507391914725303,1.5212385654449463,-0.1765907555818557,0.3929423391819,0.468720018863678,0.2292270362377166,0.0,0.0,-0.9772801399230956,-0.3551077842712402
-0.0523924827575683,1.530075192451477,-0.1760261356830597,0.3890846669673919,0.4805895984172821,0.237391784787178,0.0,0.0,-0.9920498132705688,0.6651294231414795
-0.053997803479433,1.53886616230011,-0.1703792512416839,0.387244701385498,0.49159637093544,0.2201356440782547,0.0,0.0,-0.9933193922042848,-0.444809079170227
-0.0555960647761821,1.5475751161575315,-0.1699906289577484,0.3833872079849243,0.5030101537704468,0.2282761633396148,0.0,0.0,-0.978954553604126,-0.1167722344398498
-0.0571885108947753,1.5562018156051636,-0.1696928441524505,0.3795288205146789,0.5148302316665649,0.236401081085205,0.0,0.0,-0.9980893731117249,-0.2166640758514404
-0.0587759017944335,1.5647468566894531,-0.1694879233837127,0.3756694495677948,0.5270556211471558,0.2445078194141388,0.0,0.0,-0.640110433101654,-0.1450051665306091
-0.0603595748543739,1.5732100009918213,-0.1693775951862335,0.3718091547489166,0.5396853089332581,0.2525935471057892,0.0,0.0,-0.9957917332649232,0.1677887439727783
-0.0619403831660747,1.5815914869308472,-0.1693632453680038,0.367947906255722,0.5527180433273315,0.2606552243232727,0.0,0.0,-0.9998699426651,-0.4280488491058349
-0.0635194778442382,1.5898916721343994,-0.1694458425045013,0.3640856742858886,0.5661525130271912,0.26868936419487,0.0,0.0,-0.9947344064712524,0.1297216415405273
-0.0650980025529861,1.5981104373931885,-0.1696260273456573,0.3602224886417389,0.579987108707428,0.2766921818256378,0.0,0.0,-0.9926229119300842,0.0015122890472412
-0.0666770935058593,1.6062482595443726,-0.169903963804245,0.3563583493232727,0.5942201614379883,0.2846593558788299,0.0,0.0,-0.9890828728675842,-0.4416183829307556
-0.06825752556324,1.6143049001693726,-0.1702794581651687,0.3524932265281677,0.6088494658470154,0.2925862669944763,0.0,0.0,-0.9408226609230042,-0.5804569125175476
-0.06988525390625,1.6222383975982666,-0.1763933151960373,0.3461683094501495,0.6253306865692139,0.3296241760253906,0.0,0.0,-0.9941365718841552,0.8211455345153809
-0.0714537650346756,1.630157232284546,-0.1688926368951797,0.3460665643215179,0.6400606632232666,0.2945994138717651,0.0,0.0,-0.946356475353241,-0.1028658151626586
-0.0730270370841026,1.6379950046539309,-0.1695567667484283,0.3422000706195831,0.6551793217658997,0.3023732900619507,0.0,0.0,-0.9950541257858276,-0.2457207441329956
-0.0746063217520713,1.645752191543579,-0.1703135669231414,0.3383327126502991,0.6706835031509399,0.3100833296775818,0.0,0.0,-0.9961854219436646,0.0571850538253784
-0.0761925727128982,1.6534290313720703,-0.171160876750946,0.3344645798206329,0.6865696310997009,0.3177222013473511,0.0,0.0,-0.9754418134689332,0.5935297012329102
-0.0777530670166015,1.6610758304595947,-0.1676539778709411,0.3334206342697143,0.7014690637588501,0.2979887425899505,0.0,0.0,-0.9936579465866088,0.475621223449707
-0.0793222412467002,1.6686418056488037,-0.1686779558658599,0.3295536935329437,0.716742217540741,0.3054622411727905,0.0,0.0,-0.9923093914985656,0.2278662919998169
-0.0809013396501541,1.676127314567566,-0.1697843223810196,0.3256861865520477,0.7323841452598572,0.3128389716148376,0.0,0.0,-0.9772688746452332,0.4002916812896728
-0.0824912041425705,1.6835319995880127,-0.1709698736667633,0.321818083524704,0.7483896017074585,0.3201089203357696,0.0,0.0,-0.9641287326812744,0.9176739454269408
-0.084050752222538,1.690920352935791,-0.1667275726795196,0.321588933467865,0.7630096077919006,0.2924000918865204,0.0,0.0,-0.9781226515769958,0.400861382484436
-0.0856224074959755,1.6982275247573853,-0.1680658459663391,0.3177231848239898,0.7779808640480042,0.2994255423545837,0.0,0.0,-0.9825580716133118,0.2461090087890625
-0.0872074142098426,1.7054537534713743,-0.1694730371236801,0.3138570487499237,0.7932963967323303,0.3063101470470428,0.0,0.0,-0.9798282384872437,0.6392316818237305
-0.088767722249031,1.7126579284667969,-0.1659325063228607,0.3133858740329742,0.8073304891586304,0.2806816697120666,0.0,0.0,-0.8965338468551636,0.5756394863128662
-0.0903112441301345,1.719822883605957,-0.1635112464427948,0.3119913637638092,0.8204710483551025,0.2628121376037597,0.0,0.0,-0.919331967830658,-0.0131700038909912
-0.0918700248003006,1.726906418800354,-0.1651110798120498,0.3081294298171997,0.8339308500289917,0.2691966295242309,0.0,0.0,-0.9628106355667114,0.7489945888519287
-0.0934040993452072,1.7339634895324707,-0.1616452485322952,0.3075356483459472,0.846097469329834,0.2433321177959442,0.0,0.0,-0.8929939866065979,0.6364092826843262
-0.0949254035949707,1.7409961223602295,-0.1594948768615722,0.3069685101509094,0.8571195006370544,0.220440074801445,0.0,0.0,-0.9883588552474976,0.3315138816833496
-0.0964633002877235,1.7479465007781982,-0.1612561643123626,0.30311119556427,0.8684290647506714,0.2261901795864105,0.0,0.0,-0.997053325176239,0.8012993335723877
-0.0979904159903526,1.7548764944076538,-0.1592722982168197,0.3027938604354858,0.8785030245780945,0.2014786750078201,0.0,0.0,-0.7849103212356567,0.4754598140716553
-0.0995351821184158,1.7617239952087402,-0.1611236035823822,0.2989391386508941,0.8888392448425293,0.2067238837480545,0.0,0.0,-0.9740280508995056,0.707655668258667
-0.1010650619864463,1.768559455871582,-0.158595010638237,0.2991587519645691,0.8976715803146362,0.1766467541456222,0.0,0.0,-0.928860068321228,0.7113072872161865
-0.102585032582283,1.7753647565841677,-0.156844288110733,0.2983800768852234,0.905370831489563,0.1539847701787948,0.0,0.0,-0.9992640614509584,0.5456609725952148
-0.1041016578674316,1.7821325063705444,-0.1558765470981598,0.2971871197223663,0.9121362566947936,0.1353085041046142,0.0,0.0,-0.9970719218254088,0.3890116214752197
-0.1056373566389083,1.7888165712356567,-0.1578748822212219,0.2933389544486999,0.9191033840179444,0.1393424868583679,0.0,0.0,-0.9752837419509888,0.5332863330841064
-0.1071643829345703,1.7954721450805664,-0.1562145948410034,0.2927212417125702,0.9248377680778505,0.1146871447563171,0.0,0.0,-0.9987550377845764,0.8822840452194214
-0.1086644157767295,1.8021221160888672,-0.1523036360740661,0.2935104966163635,0.9286226630210876,0.0756981447339057,0.0,0.0,-0.998091161251068,0.4263393878936767
-0.1101843863725662,1.808687448501587,-0.1543854773044586,0.2896674573421478,0.9325556755065918,0.0786597430706024,0.0,0.0,-0.9972346425056458,0.349631667137146
-0.111724853515625,1.8151681423187256,-0.1564897894859314,0.28582563996315,0.9366175532341005,0.0812377780675888,0.0,0.0,-0.9987382888793944,0.4369592666625976
-0.113286018371582,1.821563959121704,-0.1586147546768188,0.2819851040840149,0.9407886266708374,0.0834215432405471,0.0,0.0,-0.9926785826683044,0.7316991090774536
-0.1148386001586914,1.8279446363449097,-0.156786173582077,0.2821799516677856,0.943349063396454,0.0512103252112865,0.0,0.0,-0.9983749389648438,0.3300808668136596
-0.1164124459028244,1.8342397212982176,-0.1589485257863998,0.278342604637146,0.9459781050682068,0.0525815598666667,0.0,0.0,-0.9985930323600768,0.7822127342224121
-0.1179675087332725,1.840538024902344,-0.1557780504226684,0.2796740531921386,0.9464460015296936,0.0093583269044756,0.0,0.0,-0.9742228984832764,0.3875737190246582
-0.1195444092154502,1.846750378608704,-0.1579715311527252,0.2758398652076721,0.9469409584999084,0.0098992642015218,0.0,0.0,-0.9968141913414,-0.1148890852928161
-0.1211432442069053,1.8528770208358765,-0.1601782739162445,0.2720070481300354,0.94744211435318,0.0100236246362328,0.0,0.0,-0.9993900656700134,0.1037650108337402
-0.122764304280281,1.8589168787002563,-0.162397101521492,0.2681756615638733,0.947928786277771,0.0097335921600461,0.0,0.0,-0.9075315594673156,0.3926002979278564
-0.1244078651070594,1.8648700714111328,-0.1646269559860229,0.2643456757068634,0.9483804702758788,0.0090336836874485,0.0,0.0,-0.9999399781227112,0.3123296499252319
-0.1260742247104644,1.8707369565963743,-0.1668668538331985,0.2605170607566833,0.9487769603729248,0.0079298801720142,0.0,0.0,-0.9943036437034608,0.456059455871582
-0.1277634650468826,1.8765162229537964,-0.1691158562898636,0.2566897869110107,0.9490984678268432,0.0064304866828024,0.0,0.0,-0.9853235483169556,-0.0157296061515808
-999.0,1.8822084665298464,-0.1713731586933136,0.2528638243675232,0.9493257403373718,0.0045456518419086,0.0,0.0,-0.9998541474342346,0.1788792610168457
-0.1312115639448166,1.8878132104873655,-0.1736379712820053,0.2490391582250595,0.949440062046051,0.00228684511967,0.0,0.0,-0.9873723983764648,0.5104885101318359
-0.1329481154680252,1.893374800682068,-0.1729761511087417,0.2478174120187759,0.9482828378677368,-0.0231444146484136,0.0,0.0,-0.5836647748947144,-0.1780591607093811
-0.1347084045410156,1.8988487720489504,-0.1752538383007049,0.2439950853586197,0.9469772577285768,-0.0261112600564956,0.0,0.0,-0.9991831183433532,0.1852550506591797
-0.1364925354719162,1.9042346477508545,-0.1775370687246322,0.2401738464832306,0.945506751537323,-0.0294101648032665,0.0,0.0,-0.9051888585090636,0.4731608629226684
-0.1383006125688552,1.9095324277877808,-0.1798253059387207,0.2363536655902862,0.9438554644584656,-0.0330257415771484,0.0,0.0,-0.9964799284934998,-0.320439338684082
-0.1401327103376388,1.9147415161132808,-0.1821179986000061,0.2325344532728195,0.942008376121521,-0.0369421653449535,0.0,0.0,-0.9999990463256836,0.2415735721588134
-0.1419891417026519,1.9198623895645144,-0.1844146996736526,0.2287161648273468,0.9399511814117432,-0.0411434508860111,0.0,0.0,-0.9994849562644958,-0.6041201949119568
-0.1439007818698883,1.9248394966125488,-0.1906732618808746,0.2216644883155822,0.9391238689422609,-0.0165457855910062,0.0,0.0,-0.538621187210083,0.3486256599426269
-0.1458369195461273,1.9297280311584477,-0.1929771155118942,0.2178480625152588,0.9380604028701782,-0.021269291639328,0.0,0.0,-0.9992795586586,0.316819429397583
-0.1477976739406585,1.9345277547836304,-0.195283830165863,0.2140324115753173,0.9367488622665404,-0.026230588555336,0.0,0.0,-0.9999069571495056,0.1727615594863891
-0.149783045053482,1.9392380714416504,-0.1975930035114288,0.2102174758911132,0.9351781606674194,-0.0314144790172576,0.0,0.0,-0.9994544982910156,0.2436145544052124
-0.1517930924892425,1.9438598155975344,-0.1999043375253677,0.2064031809568405,0.9333378672599792,-0.0368063002824783,0.0,0.0,-0.9889547228813172,0.1805737018585205
-0.1538280546665191,1.948391914367676,-0.2022174298763275,0.2025894522666931,0.9312182664871216,-0.0423919484019279,0.0,0.0,-0.9999036192893982,0.1163409948348999
-0.1558879911899566,1.9528350830078125,-0.2045320272445678,0.1987762302160263,0.9288102984428406,-0.0481578968465328,0.0,0.0,-0.9999964833259584,0.0177096128463745
-0.157972902059555,1.9571890830993648,-0.2068477869033813,0.1949634999036789,0.9261056780815125,-0.0540914013981819,0.0,0.0,-0.9719700217247008,-0.0174682140350341
-0.1600829064846038,1.961453437805176,-0.2091644257307052,0.1911511570215225,0.9230966567993164,-0.0601801872253418,0.0,0.0,-0.5788822174072266,-0.4290028214454651
-0.1622180044651031,1.9656285047531128,-0.2114816457033157,0.1873392015695572,0.9197759628295898,-0.0664128586649894,0.0,0.0,-0.9995561242103576,-0.1914650201797485
-0.164378359913826,1.9697136878967283,-0.2137991189956665,0.1835274845361709,0.9161370396614076,-0.0727785229682922,0.0,0.0,-0.6864768266677856,-0.6087998151779175
-0.1665890663862228,1.9736651182174685,-0.2193574607372284,0.1770990937948227,0.9133524298667908,-0.0556904152035713,0.0,0.0,-0.9872822761535645,-0.2317264080047607
-0.1688251495361328,1.9775266647338867,-0.2216754704713821,0.1732882559299469,0.9102377891540528,-0.0622927173972129,0.0,0.0,-0.9999055862426758,-0.2368553280830383
-0.1710865050554275,1.981298565864563,-0.2239930331707,0.1694775968790054,0.9067878127098083,-0.0689998492598533,0.0,0.0,-0.9821107387542723,-0.2912895679473877
-0.1733733117580413,1.984981060028076,-0.2263098508119583,0.1656670719385147,0.902997612953186,-0.0758035331964492,0.0,0.0,-0.9961771368980408,-0.3133813142776489
