x_pos,y_pos,x_vel,y_vel,angle,ang_vel,leg_1,leg_2,main_booster,lat_booster
-0.001486015273258,1.4029529094696045,-0.1499153226613998,-0.3540977537631988,0.0011668007355183,0.0229723267257213,0.0,0.0,0.2141841650009155,0.5978816747665405
-0.002843189286068,1.3948431015014648,-0.1351771503686905,-0.3604380786418915,0.0006297951913438,-0.0107403900474309,0.0,0.0,-0.0701760649681091,0.2504202127456665
-0.004157543182373,1.3860610723495483,-0.1303234100341797,-0.3903126418590545,-0.0004737343406304,-0.0220726076513528,0.0,0.0,0.0260833501815795,0.438179612159729
-0.0055005075410008,1.377072811126709,-0.1322493404150009,-0.3994719088077545,-0.0024925656616687,-0.0403800830245018,0.0,0.0,0.1469672918319702,-0.3673893213272095
-0.0067048072814941,1.3680919408798218,-0.1182658299803733,-0.3991561532020569,-0.0046360371634364,-0.0428736768662929,0.0,0.0,-0.2311791181564331,0.2335768938064575
-0.0078588481992483,1.358439564704895,-0.1126731038093566,-0.4290071427822113,-0.0073269354179501,-0.0538231208920478,0.0,0.0,-0.4590950012207031,-0.2030293345451355
-0.0089598651975393,1.3481159210205078,-0.1068362742662429,-0.4588528573513031,-0.0105575285851955,-0.0646179169416427,0.0,0.0,0.1737751960754394,0.4112015962600708
-0.0098944660276174,1.3378084897994995,-0.090166799724102,-0.4581307172775268,-0.0138146886602044,-0.0651494488120079,0.0,0.0,-0.5330131649971008,0.0214041471481323
-0.0107711795717477,1.3268296718597412,-0.0838508978486061,-0.487984836101532,-0.017597060650587,-0.0756538286805152,0.0,0.0,-0.1902788877487182,-0.8656337857246399
-0.0116559024900197,1.3151869773864746,-0.0858563035726547,-0.5174906253814697,-0.0201784204691648,-0.0516320690512657,0.0,0.0,-0.4002877473831177,-0.7273434996604919
-0.0125270839780569,1.3028748035430908,-0.0852373614907264,-0.5472333431243896,-0.0220337063074111,-0.0371094942092895,0.0,0.0,0.4497902393341064,-0.5532763004302979
-0.0132995601743459,1.2905845642089844,-0.0761319398880004,-0.5462524890899658,-0.0231275185942649,-0.021878058090806,0.0,0.0,-0.8283785581588745,-0.3906311988830566
-0.0140046123415231,1.2776226997375488,-0.0689061507582664,-0.5761063098907471,-0.0247131418436765,-0.0317154005169868,0.0,0.0,-0.6676617860794067,-0.6425998210906982
-0.0146851539611816,1.2639853954315186,-0.0670975819230079,-0.6061248183250427,-0.025652652606368,-0.0187920220196247,0.0,0.0,-0.2407832145690918,-0.8716906905174255
-0.0153463361784815,1.2496875524520874,-0.0660306736826896,-0.6354594826698303,-0.0257399603724479,-0.0017463912954553,0.0,0.0,-0.1832346320152282,-0.7475849390029907
-0.0159819610416889,1.2347114086151123,-0.064234510064125,-0.6655954718589783,-0.0250779427587986,0.0132416440173983,0.0,0.0,0.1053433418273925,-0.8267796039581299
-0.0164851192384958,1.2199300527572632,-0.0522502586245536,-0.6569135785102844,-0.023169856518507,0.0381650850176811,0.0,0.0,-0.6642007827758789,-0.8500689268112183
-0.0169615745544433,1.2044719457626345,-0.0504305958747863,-0.6869907379150391,-0.0204175375401973,0.0550513751804828,0.0,0.0,-0.3076086044311523,-0.7345344424247742
-0.0174064636230468,1.1883509159088137,-0.048074897378683,-0.7164444327354431,-0.0168742947280406,0.0708712190389633,0.0,0.0,-0.7162423133850098,-0.2729216814041137
-0.017769431695342,1.1715586185455322,-0.0394409038126468,-0.7462936043739319,-0.0137536125257611,0.0624191462993621,0.0,0.0,0.0612819194793701,-0.3480224609375
-0.0179597847163677,1.1548175811767578,-0.022151093930006,-0.7440174221992493,-0.010661638341844,0.0618448033928871,0.0,0.0,-0.5141773819923401,-0.0391597747802734
-0.0180641170591115,1.1374051570892334,-0.0131614748388528,-0.773871660232544,-0.0079702353104949,0.0538328662514686,0.0,0.0,0.1161270141601562,-0.0011026859283447
-0.0179902072995901,1.1198718547821045,0.0046488526277244,-0.7792413234710693,-0.0052597913891077,0.0542139485478401,0.0,0.0,0.0584287643432617,-0.0775710940361023
-0.0177810676395893,1.1019667387008667,0.018340528011322,-0.7957771420478821,-0.0027194134891033,0.0508122146129608,0.0,0.0,-0.1223801374435424,-0.3528705239295959
-0.0174808502197265,1.0833901166915894,0.0278169028460979,-0.8256255984306335,-0.0005450149765238,0.0434922203421592,0.0,0.0,0.0200066566467285,-0.6566393375396729
-0.0172422416508197,1.0647761821746826,0.0207927711308002,-0.8272858262062073,0.002480863360688,0.0605175867676734,0.0,0.0,-0.6147562265396118,0.5263837575912476
-0.0168674476444721,1.0454943180084229,0.0358269214630126,-0.8569771647453308,0.0041116937063634,0.03261648863554,0.0,0.0,-0.2333796620368957,-0.4709342718124389
-0.0163969043642282,1.025540828704834,0.045737374573946,-0.8868226408958435,0.0054133711382746,0.0260334070771932,0.0,0.0,0.4615156650543213,-0.0084795355796813
-0.0159482955932617,1.0059428215026855,0.0444056913256645,-0.8710266947746277,0.0058643813244998,0.0090202493593096,0.0,0.0,0.5770843029022217,0.1241382360458374
-0.0154238697141408,0.9863711595535278,0.0523866713047027,-0.8698513507843018,0.0059185209684073,0.0010828243102878,0.0,0.0,-0.2706843018531799,-0.3411729335784912
-0.014799689874053,0.9661278128623962,0.0626673474907875,-0.8996966481208801,0.0056809741072356,-0.0047509432770311,0.0,0.0,0.731348991394043,-0.8123680353164673
-0.0142310140654444,0.9458959698677064,0.0559229627251625,-0.8992006182670593,0.0066112368367612,0.0186050757765769,0.0,0.0,0.7810633182525635,0.5327351093292236
-0.0136183742433786,0.9262932538986206,0.0619301125407218,-0.8712301850318909,0.0059485714882612,-0.0132530350238084,0.0,0.0,0.2910088300704956,0.1311904191970825
-0.0129538532346487,0.9064411520957948,0.0676121637225151,-0.8823056817054749,0.004800846800208,-0.0229543820023536,0.0,0.0,0.71132493019104,-0.489970326423645
-0.0121711734682321,0.8868922591209412,0.0795984044671058,-0.8688334822654724,0.0034885611385107,-0.0262457765638828,0.0,0.0,0.3589251041412353,-0.7133989334106445
-0.011325073428452,0.8676102161407471,0.0847163945436477,-0.8569801449775696,0.0033905480522662,-0.0019602046813815,0.0,0.0,-0.3294768333435058,-0.6471033096313477
-0.0104259494692087,0.8476531505584717,0.088872343301773,-0.8869879245758057,0.004416577052325,0.0205205343663692,0.0,0.0,0.5100237131118774,0.4907341003417969
-0.0093877790495753,0.828068196773529,0.1028205975890159,-0.8704423904418945,0.0053963051177561,0.0195947159081697,0.0,0.0,-0.7013559937477112,0.4594732522964477
-0.0082415584474802,0.8078118562698364,0.1138291582465171,-0.9002877473831177,0.0061800736002624,0.0156755894422531,0.0,0.0,-0.019197940826416,-0.3040695190429687
-0.0069864271208643,0.7868838906288147,0.1249037533998489,-0.9301331639289856,0.0067789712920784,0.0119776371866464,0.0,0.0,0.0844902992248535,-0.7218933701515198
-0.0057625770568847,0.7660557627677917,0.120572805404663,-0.9257038235664368,0.0085693607106804,0.0358077213168144,0.0,0.0,-0.0437712669372558,-0.5571596622467041
-0.0044634817168116,0.744554340839386,0.1273664236068725,-0.9556305408477784,0.0110769970342516,0.0501525774598121,0.0,0.0,0.706312894821167,-0.6060030460357666
-0.0029970169998705,0.7228619456291199,0.1427726298570633,-0.9641488194465636,0.0149062685668468,0.0765853971242904,0.0,0.0,0.9396092891693116,-0.7677225470542908
-0.0013624191051349,0.7014287114143372,0.1578817665576934,-0.952648937702179,0.020406138151884,0.1099974513053894,0.0,0.0,0.872525691986084,-0.8928085565567017
0.0002558708074502,0.6798108220100403,0.1546924114227295,-0.9609083533287048,0.0274549107998609,0.1409755051136016,0.0,0.0,0.926737904548645,-0.9546249508857728
0.0019598961807787,0.6580960750579834,0.1613572686910629,-0.9652872681617736,0.0363812185823917,0.1785259544849395,0.0,0.0,0.9635225534439088,-0.6661084294319153
0.0037824630271643,0.6365050673484802,0.1717958301305771,-0.9598931074142456,0.0467178001999855,0.2067317068576812,0.0,0.0,0.987281084060669,-0.3984286785125732
0.005536270327866,0.6157369017601013,0.1656635403633117,-0.923359990119934,0.056321021169424,0.1920642107725143,0.0,0.0,0.9135621786117554,-0.4036135673522949
0.0071986196562647,0.5956525206565857,0.1573455035686493,-0.8930016756057739,0.0651133880019187,0.175847128033638,0.0,0.0,0.9850772619247437,-0.0789047479629516
0.0089094163849949,0.5758097767829895,0.162409633398056,-0.8823020458221436,0.073695607483387,0.171644702553749,0.0,0.0,0.8694363832473755,-0.4198861718177795
0.0108484271913766,0.5562809109687805,0.1845510601997375,-0.8684332966804504,0.0829433053731918,0.1849540174007415,0.0,0.0,0.9873168468475342,-0.4387719631195068
0.012758731842041,0.5373976230621338,0.1821082979440689,-0.839775800704956,0.0917919501662254,0.1769730299711227,0.0,0.0,0.9602676630020142,0.4305943250656128
0.0148639678955078,0.5186495184898376,0.2010622471570968,-0.8338539004325867,0.1011682227253913,0.1875253617763519,0.0,0.0,0.906496524810791,0.3756232261657715
0.0169938094913959,0.5006052851676941,0.2035910189151764,-0.8026293516159058,0.1104950383305549,0.1865362226963043,0.0,0.0,0.913055658340454,0.1993932723999023
0.019346809014678,0.4827609360218048,0.225176140666008,-0.7938637137413025,0.1205588057637214,0.2012753188610077,0.0,0.0,0.9260649681091307,-0.0499924421310424
0.021636962890625,0.4650441408157348,0.219481274485588,-0.7882123589515686,0.1300510764122009,0.1898454129695892,0.0,0.0,0.9767906665802002,0.3183580636978149
0.0240287780761718,0.4480970799922943,0.2291803807020187,-0.7541006803512573,0.1400120258331298,0.1992187350988388,0.0,0.0,0.8591508865356445,0.0424338579177856
0.026581859216094,0.4316397607326507,0.2446554452180862,-0.7324748635292053,0.1506437361240387,0.2126342356204986,0.0,0.0,0.912333607673645,0.3243190050125122
0.0291906353086233,0.4159451127052307,0.2498835772275924,-0.6986899971961975,0.1616315394639969,0.2197559773921966,0.0,0.0,0.910248041152954,0.6777434349060059
0.031724739819765,0.400921106338501,0.2440628707408905,-0.6687738299369812,0.1709823757410049,0.1870168149471283,0.0,0.0,0.1714922189712524,0.2865689992904663
0.0343623161315918,0.3856241405010223,0.2543044686317444,-0.6809833645820618,0.1804630905389785,0.1896143555641174,0.0,0.0,0.7706385850906372,0.741169810295105
0.0369188301265239,0.3707538247108459,0.2479789704084396,-0.6618563532829285,0.1881695240736007,0.154128611087799,0.0,0.0,0.8081289529800415,-0.6434065103530884
0.0395743362605571,0.3560717701911926,0.2562764585018158,-0.6537359952926636,0.1974948644638061,0.1865065246820449,0.0,0.0,0.8495728969573975,-0.2764770984649658
0.0422319397330284,0.3417364060878753,0.2564166188240051,-0.6384016275405884,0.2069097310304641,0.1882974505424499,0.0,0.0,0.7769243717193604,0.3737632036209106
0.0449194908142089,0.3273661136627197,0.2594143748283386,-0.6400148868560791,0.2163320332765579,0.1884461939334869,0.0,0.0,0.9189761877059937,-0.2925253510475158
0.0474287047982215,0.3132846057415008,0.2422895729541778,-0.6271292567253113,0.2250583320856094,0.1745259761810302,0.0,0.0,0.734479546546936,-0.518790602684021
0.0498285293579101,0.2998465895652771,0.2303137481212616,-0.5987505316734314,0.2348612546920776,0.196058839559555,0.0,0.0,0.7336734533309937,0.7743914127349854
0.0524174682796001,0.2862310409545898,0.2506223022937774,-0.6064764261245728,0.2432642728090286,0.1680608838796615,0.0,0.0,0.8551664352416992,-0.6804776191711426
0.0548605918884277,0.2733405828475952,0.2346736639738083,-0.5745342969894409,0.2530815601348877,0.1963455975055694,0.0,0.0,0.7057715654373169,0.1950583457946777
0.0571929924190044,0.2604529559612274,0.224086731672287,-0.574388861656189,0.2624165713787079,0.18670055270195,0.0,0.0,0.6749138832092285,0.3414739370346069
0.0593618378043174,0.247852936387062,0.2082095891237259,-0.5615776777267456,0.2712867558002472,0.1774041354656219,0.0,0.0,0.8692355155944824,0.7110816240310669
0.0615351684391498,0.2356386482715606,0.2100401222705841,-0.544226348400116,0.2787661552429199,0.1495879739522934,0.0,0.0,0.5984280109405518,-0.288625955581665
0.063465692102909,0.2238802760839462,0.1863721162080764,-0.5238850116729736,0.2856308221817016,0.1372931152582168,0.0,0.0,0.3800903558731079,0.5935606956481934
0.0654698386788368,0.2121931463479995,0.1948296725749969,-0.5205351114273071,0.2913863658905029,0.1151107400655746,0.0,0.0,0.7871861457824707,0.226448655128479
0.0674163848161697,0.2004268914461136,0.189274325966835,-0.5240325331687927,0.2969293594360351,0.1108597964048385,0.0,0.0,0.8785505294799805,-0.1391422748565673
0.0694256797432899,0.1885533630847931,0.1952647119760513,-0.5288788676261902,0.3027828633785248,0.1170705556869506,0.0,0.0,0.7626893520355225,-0.3859833478927612
0.0713899582624435,0.1765119582414627,0.1909736841917038,-0.5363197922706604,0.3084296584129333,0.1129360422492027,0.0,0.0,0.971359372138977,-0.7110559344291687
0.0730951279401779,0.1651278138160705,0.1637624204158783,-0.5074160695075989,0.3154373168945312,0.1401539593935012,0.0,0.0,0.8315355777740479,0.7748265266418457
0.0747592002153396,0.1544427424669265,0.1610502302646637,-0.4760673940181732,0.3209981918334961,0.1112174019217491,0.0,0.0,0.9271807670593262,0.2070796489715576
0.076086901128292,0.1443813145160675,0.1280758678913116,-0.448223739862442,0.3258901834487915,0.0978395789861679,0.0,0.0,0.4544686079025268,0.4072557687759399
0.0772996917366981,0.1340080350637436,0.1171594262123107,-0.461969643831253,0.3301869928836822,0.0859366208314895,0.0,0.0,0.8806602954864502,0.5599193572998047
0.07839135825634,0.1242898553609848,0.1060853451490402,-0.4326255023479461,0.333396315574646,0.0641863122582435,0.0,0.0,0.9248311519622804,0.8522648811340332
0.0792857185006141,0.114819586277008,0.0883473604917526,-0.4211514592170715,0.3345315158367157,0.0227039363235235,0.0,0.0,0.849360466003418,0.9086065292358398
0.080011561512947,0.105757862329483,0.0734718143939971,-0.402539312839508,0.3336052894592285,-0.0185247249901294,0.0,0.0,0.7922894954681396,0.767242431640625
0.0806067436933517,0.097125731408596,0.0620247647166252,-0.3830714225769043,0.3309869468212127,-0.0523669198155403,0.0,0.0,0.2595632076263428,0.914201021194458
0.08127012103796,0.0885237753391265,0.0706963390111923,-0.3813161253929138,0.3264407515525818,-0.0909236818552017,0.0,0.0,0.9279792308807372,0.8997130393981934
0.0819713622331619,0.0798582434654235,0.0762946009635925,-0.3837596178054809,0.3200201988220215,-0.1284109055995941,0.0,0.0,0.9923303127288818,0.8698447942733765
0.0827668160200119,0.0712966993451118,0.0873039439320564,-0.3788191974163055,0.3119673728942871,-0.1610563695430755,0.0,0.0,0.9160783290863036,-0.7013326287269592
0.0835422500967979,0.063068613409996,0.0836322456598281,-0.3644032776355743,0.3056696951389313,-0.1259540021419525,0.0,0.0,0.9875452518463136,-0.4869988560676574
0.0843914970755577,0.0549232810735702,0.0903828293085098,-0.3608772158622741,0.3000268340110779,-0.1128579825162887,0.0,0.0,0.9956268072128296,0.2354006767272949
0.085018441081047,0.0474037267267704,0.0683089420199394,-0.3330552875995636,0.2942248284816742,-0.1160392165184021,0.0,0.0,0.9867383241653442,-0.3637793064117431
0.0854643806815147,0.0405382737517356,0.0501835122704505,-0.3040152192115783,0.2884611189365387,-0.1152744516730308,0.0,0.0,0.895888090133667,-0.3135289549827575
0.0858728438615799,0.0341628417372703,0.0459449216723442,-0.2823521196842193,0.2832180857658386,-0.1048603877425193,0.0,0.0,0.9944448471069336,-0.2057448625564575
0.0863266959786415,0.0277343373745679,0.0500802211463451,-0.2848093211650848,0.2783913016319275,-0.0965355187654495,0.0,1.0,0.9991968870162964,0.8634781837463379
0.0865815132856369,0.02252191118896,0.0487213358283042,-0.2278394252061844,0.253604382276535,-0.4972069859504699,0.0,1.0,0.9964687824249268,-0.3260359764099121
0.0865461379289627,0.0189318284392356,0.0380009412765502,-0.1529742330312729,0.2113448977470398,-0.8453253507614136,0.0,1.0,0.9609394073486328,-0.8485114574432373
0.0862090140581131,0.0160904750227928,0.0170961841940879,-0.119854137301445,0.1601683050394058,-1.0236815214157104,0.0,1.0,0.901707649230957,-0.7487545013427734
0.0855031013488769,0.0139449927955865,-0.0198321342468261,-0.0906984806060791,0.1094903498888015,-1.0136897563934326,0.0,1.0,0.811920166015625,-0.0282715559005737
0.0848451629281044,0.0122680040076375,-0.0172244869172573,-0.0716751143336296,0.0613550953567028,-0.9627068638801576,0.0,1.0,0.4753156900405884,-0.8362591862678528
0.0840250998735427,0.0109473560005426,-0.034903272986412,-0.0574241355061531,0.0148158390074968,-0.930786907672882,0.0,0.0,-0.9366536140441896,-0.9444021582603456
0.0831533446907997,0.0089874481782317,-0.0420511811971664,-0.0872586742043495,-0.0297348052263259,-0.8910142183303833,0.0,0.0,-0.155258297920227,-0.998387098312378
0.0822282806038856,0.0063816285692155,-0.0493712201714515,-0.1172175779938697,-0.0723721235990524,-0.8527477979660034,0.0,0.0,0.7577357292175293,-0.9989724159240724
0.0813377350568771,0.0047254180535674,-0.0670941472053527,-0.0748827904462814,-0.0938844829797744,-0.4299402832984924,1.0,0.0,0.6603951454162598,-0.2326116561889648
0.0805789977312088,0.0037635779008269,-0.0725566744804382,-0.0431263521313667,-0.0966257750988006,-0.0540933832526207,1.0,0.0,-0.2554097175598144,0.5765997171401978
-999.0,0.00268912082538,-0.0662180930376052,-0.0469027310609817,-0.0824067816138267,0.2844275832176208,1.0,0.0,-0.631565272808075,0.7114970684051514
0.0796772986650466,0.0013989066937938,-0.0639714747667312,-0.0561314634978771,-0.0569435805082321,0.5092955827713013,1.0,0.0,-0.4982208013534546,0.6867480278015137
0.0794043540954589,-0.0002767944242805,-0.058977473527193,-0.0735744759440422,-0.0256043318659067,0.6268246173858643,1.0,0.0,0.1541850566864013,0.7441544532775879
0.0791961699724197,-0.0017314100405201,-0.0527669414877891,-0.0644096434116363,0.005945673212409,0.6310357451438904,1.0,1.0,0.7921769618988037,0.9354085922241212
0.0791569724678993,-0.0020453357137739,-0.0220716819167137,-0.0144080007448792,0.0227181762456893,0.333976686000824,1.0,1.0,-0.2525177001953125,0.999313235282898
0.0791006088256836,-0.002494909800589,-0.0049201631918549,-0.0199827440083026,0.0219680164009332,-0.0150594664737582,0.0,1.0,-0.7793476581573486,-0.0771673917770385
0.0789612755179405,-0.0031350636854767,0.0005553755909204,-0.0283075477927923,0.0076338527724146,-0.2867174446582794,0.0,1.0,-0.5989290475845337,-0.1327550411224365
0.0788807868957519,-0.003487970912829,0.0014208208303898,-0.0157040525227785,-0.0016103951493278,-0.1847507506608963,1.0,1.0,-0.8127759099006653,-0.4590767621994018
0.0788762122392654,-0.003470983589068,0.0028889314271509,0.0007284187595359,-0.0048710578121244,-0.0651541203260421,1.0,1.0,-0.7371150851249695,-0.1734449863433838
0.0789071097970008,-0.0031573795713484,0.0035026217810809,0.0139178223907947,-0.0052378787659108,-0.0072860391810536,1.0,1.0,-0.7163577079772949,-0.0618510842323303
0.078955553472042,-0.0025208019651472,0.0038130381144583,0.0282794591039419,-0.0041806208901107,0.0211875475943088,1.0,1.0,-0.6513108611106873,-0.0054556131362915
0.0790040045976638,-0.0015894675161689,0.0038237951230257,0.0413842312991619,-0.0031405526679009,0.0208359528332948,1.0,1.0,-0.8037553429603577,0.1451835632324218
0.0791221633553505,-0.0006938600563444,0.0050022331997752,0.0397970601916313,0.003594959154725,0.1347381174564361,1.0,1.0,-0.7511889934539795,0.7500078678131104
0.079274371266365,-0.0004416251322254,0.0132255088537931,0.0112017961218953,0.0055577186867594,0.0392475314438343,1.0,1.0,-0.5219298601150513,0.045791745185852
0.0793699249625206,-0.000444128527306,0.0095443669706583,-0.0001107689531636,0.0055565722286701,-2.7808802769868635e-05,1.0,1.0,-0.7117641568183899,-0.2174863815307617
0.0794019699096679,-0.0004454159643501,0.0032018329948186,-5.6075452448567376e-05,0.0055558532476425,-1.881025491456967e-05,1.0,1.0,-0.8015607595443726,0.1047612428665161
0.0793919563293457,-0.0004453444562386,-0.0010274408850818,-1.3085386854072567e-06,0.0055719069205224,0.0003084771742578,1.0,1.0,-0.7988404631614685,0.291448712348938
