x_pos,y_pos,x_vel,y_vel,angle,ang_vel,leg_1,leg_2,main_booster,lat_booster
-0.001601219177246,1.4030773639678955,-0.1620882004499435,-0.3485662043094635,0.001761907711625,0.0347551666200161,0.0,0.0,-0.126471459881702,-0.8102261977323364
-0.0033396719954907,1.3947066068649292,-0.1770067065954208,-0.3720384240150451,0.0048866854049265,0.0625022500753402,0.0,0.0,0.73718572231996,0.6680110117861968
-0.0049552917480468,1.3864221572875977,-0.1637284159660339,-0.3682044446468353,0.007019851822406,0.0426672175526618,0.0,0.0,0.539684646906591,-0.9749145116196024
-0.0068575860932469,1.3782836198806765,-0.1941264569759369,-0.3617329001426697,0.0108837597072124,0.0772851705551147,0.0,0.0,0.6329373441660613,-0.9170529121821688
-0.0087771415710449,1.3705692291259766,-0.1978833377361297,-0.3429227769374847,0.0167432241141796,0.1171999126672744,0.0,0.0,0.8689460215009455,0.8920491458340126
-0.0105474470183253,1.3632338047027588,-0.1814708262681961,-0.3260645866394043,0.0211415383964777,0.0879741609096527,0.0,0.0,-0.8992488556911227,0.6853426089977216
-0.0123480800539255,1.3553533554077148,-0.1831526160240173,-0.3502933084964752,0.0242049172520637,0.0612731948494911,0.0,0.0,0.7243011709260545,0.5293082540586205
-0.0140397073701024,1.347947597503662,-0.1716718673706054,-0.3291906714439392,0.0266801491379737,0.0495092123746871,0.0,0.0,0.6933637223928328,-0.8230426410213676
-0.0159160606563091,1.3412864208221436,-0.191734105348587,-0.29612597823143,0.03074043802917,0.0812131613492965,0.0,0.0,0.2610605982479419,-0.6341930993681659
-0.0179436691105365,1.3349113464355469,-0.2081164866685867,-0.2834579646587372,0.0360429137945175,0.1060590967535972,0.0,0.0,0.7647653428046424,0.9526991140840008
-0.0199003219604492,1.3289514780044556,-0.1992728263139724,-0.2649727761745453,0.0396170541644096,0.0714896395802497,0.0,0.0,-0.0890677380445972,0.604477234645302
-0.0218877792358398,1.3224464654922483,-0.2010150849819183,-0.289173275232315,0.0418530665338039,0.0447240695357322,0.0,0.0,0.9498684783430702,0.6967598806144374
-0.0237740520387887,1.3166491985321045,-0.1899217665195465,-0.2576977014541626,0.0431412123143672,0.0257653947919607,0.0,0.0,-0.5924283785465898,-0.990157399114536
-0.0258137695491313,1.310290813446045,-0.2070396393537521,-0.2826829850673675,0.0461824648082256,0.060830432921648,0.0,0.0,-0.3463966563762504,0.607541406524511
-0.0278794281184673,1.3033961057662964,-0.2081596553325653,-0.3064876198768616,0.0477521009743213,0.0313955880701541,0.0,0.0,0.1830048624149001,-0.8750924759165835
-0.0300181396305561,1.2962645292282104,-0.2172878980636596,-0.3170736730098724,0.0511393211781978,0.0677505582571029,0.0,0.0,0.0719084997581518,0.9247193399923002
-0.0320919975638389,1.289441704750061,-0.2089811265468597,-0.3032892644405365,0.0527169853448867,0.0315561033785343,0.0,0.0,0.0142431397520927,0.7114377937864542
-0.0341064445674419,1.2824227809906006,-0.2017296999692917,-0.3119672536849975,0.0529958195984363,0.0055771907791495,0.0,0.0,-0.3120735980146591,0.8179358724961103
-0.0361318588256835,1.2748702764511108,-0.2009536027908325,-0.3356080651283264,0.0514283888041973,-0.0313516110181808,0.0,0.0,-0.5268008043132033,-0.9400385418903524
-0.0383269302546978,1.2667638063430786,-0.2201099097728729,-0.3603052496910095,0.0520279854536056,0.0119929993525147,0.0,0.0,-0.2969282056348541,-0.6067266492610801
-0.0406455993652343,1.258111834526062,-0.2334918230772018,-0.3845893144607544,0.0536297634243965,0.0320385433733463,0.0,0.0,-0.2488726802228817,-0.7032026528733604
-0.0431045517325401,1.2489044666290283,-0.2489537894725799,-0.4093270897865295,0.0566624626517295,0.0606592819094657,0.0,0.0,-0.9178364534754624,0.8679456042151219
-0.0455660820007324,1.2391560077667236,-0.2471652925014495,-0.4333027899265289,0.0576610341668129,0.0199730768799781,0.0,0.0,-0.6958368559465635,0.7365092831895718
-0.0480483993887901,1.2288579940795898,-0.2476612776517868,-0.4576694369316101,0.0570971965789794,-0.0112775405868887,0.0,0.0,-0.9893801538420356,0.5746914141040967
-0.0505820289254188,1.2180174589157104,-0.2519920468330383,-0.4817494451999664,0.0557348877191543,-0.0272486768662929,0.0,0.0,-0.6422702067253321,0.813871190906853
-0.0531524643301963,1.2066168785095217,-0.2544964253902435,-0.5065991878509521,0.053224503993988,-0.0502076148986816,0.0,0.0,-0.3751466413543987,0.5088217479458272
-0.0557685866951942,1.1946758031845093,-0.2581271529197693,-0.5305927991867065,0.0497794263064861,-0.0689016953110694,0.0,0.0,-0.4448316521030571,-0.7700589930148025
-0.0585453025996685,1.1821904182434082,-0.2761513590812683,-0.5548619627952576,0.0482867658138275,-0.0298534668982028,0.0,0.0,-0.2881536044912189,-0.8887750897800961
-0.0614937767386436,1.169158935546875,-0.2956096231937408,-0.5791961550712585,0.0490375608205795,0.0150159951299428,0.0,0.0,0.5215490556738915,-0.9669004588600424
-0.064648725092411,1.1562424898147583,-0.3182776570320129,-0.5741571187973022,0.0517875328660011,0.0549994632601738,0.0,0.0,0.5203688684897585,-0.908625568508608
-0.0679829567670822,1.1439526081085205,-0.3381533324718475,-0.5463912487030029,0.0564678348600864,0.0936060175299644,0.0,0.0,-0.9407659769058228,0.996556520462036
-0.071334458887577,1.1311159133911133,-0.338250070810318,-0.5706413984298706,0.0595264732837677,0.0611728839576244,0.0,0.0,-0.9017625451087952,0.9961906671524048
-0.0747046470642089,1.1177475452423096,-0.3384903073310852,-0.594202995300293,0.0609798096120357,0.0290669854730367,0.0,0.0,-0.7942595481872559,0.8552289009094238
-0.0781003013253212,1.103830099105835,-0.339605301618576,-0.618553876876831,0.0610237270593643,0.0008784861420281,0.0,0.0,-0.9562203288078308,0.9837894439697266
-0.0815022438764572,1.0893752574920654,-0.3383252918720245,-0.6423695087432861,0.0591701529920101,-0.0370714627206325,0.0,0.0,-0.824447751045227,0.9689748287200928
-0.0849117264151573,1.0743876695632937,-0.3371838927268982,-0.6659712195396423,0.0554451867938041,-0.0744994059205055,0.0,0.0,-0.8859268426895142,0.9717949628829956
-0.0883337035775184,1.0588544607162476,-0.336674302816391,-0.690166711807251,0.0499913357198238,-0.10907693952322,0.0,0.0,-0.8945468664169312,0.9277074337005616
-0.0917638763785362,1.042788028717041,-0.3356370627880096,-0.7138403654098511,0.0426960252225399,-0.145906314253807,0.0,0.0,-0.9886614680290222,0.984734058380127
-0.0952075943350792,1.026190996170044,-0.3352546989917755,-0.7374134063720703,0.0336929485201835,-0.180061787366867,0.0,0.0,-0.9779236316680908,0.9728864431381226
-0.0986565575003624,1.0090535879135132,-0.3338627219200134,-0.7614523768424988,0.0227911230176687,-0.2180363237857818,0.0,0.0,-0.964333713054657,0.8384823799133301
-0.1021368950605392,0.9913800954818726,-0.3357334733009338,-0.7853584885597229,0.0106464950367808,-0.2428924590349197,0.0,0.0,-0.9557164907455444,0.9036033153533936
-0.1056167632341384,0.973160684108734,-0.3336230814456939,-0.8096990585327148,-0.0035314138513058,-0.2835582792758941,0.0,0.0,-0.8788015246391296,0.8697081804275513
-0.1091022491455078,0.9543874859809875,-0.3322908580303192,-0.8344808220863342,-0.0195841062813997,-0.3210538923740387,0.0,0.0,-0.3213576674461365,0.7688766717910767
-0.1126024276018142,0.9350674152374268,-0.3320875763893127,-0.8590022325515747,-0.0372824594378471,-0.3539672493934631,0.0,0.0,0.9375280141830444,0.8465688228607178
-0.1161603927612304,0.9157114624977112,-0.3362079262733459,-0.860861599445343,-0.0566357187926769,-0.3870652914047241,0.0,0.0,0.8741719722747803,0.8761117458343506
-0.1196557059884071,0.896361768245697,-0.3284540772438049,-0.8609133362770081,-0.0774874985218048,-0.4170361161231994,0.0,0.0,0.8719685077667236,0.3252671957015991
-0.123127743601799,0.8772198557853699,-0.3266205191612243,-0.8519473671913147,-0.0978792458772659,-0.4078348577022552,0.0,0.0,0.9683043956756592,0.7572859525680542
-0.1266714036464691,0.8590399026870728,-0.3321148455142975,-0.809596598148346,-0.1199741512537002,-0.4418982863426208,0.0,0.0,0.888638973236084,0.3996109962463379
-0.1303422003984451,0.841688334941864,-0.3443101346492767,-0.7731638550758362,-0.1426281034946441,-0.4530791640281677,0.0,0.0,0.9049956798553468,0.9503183364868164
-0.1339659690856933,0.8246546983718872,-0.3379001021385193,-0.7595803737640381,-0.1670860648155212,-0.489159882068634,0.0,0.0,0.8072137832641602,-0.1746278405189514
-0.137414738535881,0.8079659342765808,-0.321360170841217,-0.744536817073822,-0.1906740218400955,-0.4717596173286438,0.0,0.0,0.8493587970733643,-0.2392168641090393
-0.1408538818359375,0.7919699549674988,-0.3203384578227997,-0.7141389846801758,-0.2144154906272888,-0.474829763174057,0.0,0.0,0.5941064357757568,0.1260291337966919
-0.1441815346479416,0.776028573513031,-0.3099424242973327,-0.7119808197021484,-0.2375240921974182,-0.4621723592281341,0.0,0.0,0.6600654125213623,-0.8567340970039368
-0.1474641859531402,0.7607449889183044,-0.3074179291725158,-0.6827803254127502,-0.2587468922138214,-0.4244559407234192,0.0,0.0,0.2170577049255371,-0.576507568359375
-0.1506648063659668,0.7454087734222412,-0.3008179068565368,-0.6851231455802917,-0.2784413397312164,-0.3938884735107422,0.0,0.0,0.4511994123458862,-0.6331415772438049
-0.1539706289768219,0.7301822900772095,-0.312660813331604,-0.6802547574043274,-0.2968939840793609,-0.3690530061721802,0.0,0.0,0.5101156234741211,-0.8359457850456238
-0.1571148931980133,0.715451180934906,-0.2985021471977234,-0.6580561399459839,-0.3133623600006103,-0.3293676376342773,0.0,0.0,0.7666395902633667,-0.5707731246948242
-0.1600106209516525,0.701154351234436,-0.2753952145576477,-0.6385449767112732,-0.3281047642230987,-0.2948478162288666,0.0,0.0,0.8014732599258423,-0.6884680390357971
-0.1626646965742111,0.6875773668289185,-0.2529853880405426,-0.6062977910041809,-0.3410867750644684,-0.2596400678157806,0.0,0.0,0.8551849126815796,-0.1625580787658691
-0.1651852577924728,0.6747449636459351,-0.2394557297229766,-0.573368489742279,-0.3543212711811065,-0.264690101146698,0.0,0.0,0.8653895854949951,-0.2769265174865722
-0.1675872802734375,0.6619251370429993,-0.2280396670103073,-0.5728241801261902,-0.3671458661556244,-0.256492018699646,0.0,0.0,0.6828958988189697,-0.9027423858642578
-0.1699843406677246,0.6496633887290955,-0.2293387204408645,-0.5476606488227844,-0.3781300187110901,-0.2196832597255706,0.0,0.0,0.9336667060852052,-0.7368483543395996
-0.1721466034650802,0.6376428008079529,-0.2077850103378296,-0.5365129709243774,-0.3871002197265625,-0.1794042885303497,0.0,0.0,0.8529083728790283,-0.8675556182861328
-0.174164205789566,0.6260532140731812,-0.1952174752950668,-0.5168873071670532,-0.3940864503383636,-0.1397247314453125,0.0,0.0,0.6901540756225586,-0.9288449883461
-0.176163762807846,0.6145148277282715,-0.1953619718551635,-0.514103353023529,-0.3990113437175751,-0.0984974205493927,0.0,0.0,0.9809356927871704,-0.2933290004730224
-0.1781027764081955,0.6034950613975525,-0.1887933909893036,-0.4912192523479461,-0.4044847786426544,-0.1094686016440391,0.0,0.0,0.9589390754699708,-0.9621978402137756
-0.1797598898410797,0.593364953994751,-0.1626567393541336,-0.4511001706123352,-0.4077683687210083,-0.0656711757183075,0.0,0.0,0.976306676864624,-0.9271680116653442
-0.1813250482082367,0.5831378102302551,-0.1555419415235519,-0.4548235833644867,-0.4088182151317596,-0.0209969393908977,0.0,0.0,0.8997266292572021,-0.8180326819419861
-0.1826004087924957,0.5737404823303223,-0.1283273547887802,-0.4174265265464782,-0.4079591035842895,0.0171820688992738,0.0,0.0,0.9933676719665528,-0.4067877531051636
-0.1838274896144867,0.5646493434906006,-0.123144045472145,-0.4039239883422851,-0.4074925184249878,0.0093315774574875,0.0,0.0,0.9879846572875975,-0.7352267503738403
-0.1849662810564041,0.5562406182289124,-0.115596555173397,-0.3732311427593231,-0.4056470096111297,0.0369108542799949,0.0,0.0,0.9922304153442384,-0.6377385854721069
-0.1858898103237152,0.5483257174491882,-0.0955207869410514,-0.3508697748184204,-0.4022460579872131,0.0680192783474922,0.0,0.0,0.9938818216323853,-0.794372022151947
-0.1866948157548904,0.5414139628410339,-0.084994375705719,-0.3059236109256744,-0.3974299132823944,0.0963229984045028,0.0,0.0,0.9840924739837646,-0.770869791507721
-0.1872676908969879,0.5348936319351196,-0.0635986775159835,-0.2880405485630035,-0.3906809687614441,0.1349789798259735,0.0,0.0,0.8418666124343872,-0.9618880152702332
-0.187851995229721,0.5284912586212158,-0.0666666477918624,-0.2823143303394317,-0.3818947076797485,0.1757245063781738,0.0,0.0,0.8036317825317383,-0.7262636423110962
-0.1883490532636642,0.5220159888267517,-0.0596629977226257,-0.2851613461971283,-0.3713253736495971,0.2113862782716751,0.0,0.0,0.9137444496154784,-0.6699910759925842
-0.1888538300991058,0.515588104724884,-0.0618021003901958,-0.2827933132648468,-0.3593637645244598,0.239231988787651,0.0,0.0,0.6449484825134277,-0.1622428297996521
-0.1891496628522873,0.5097277164459229,-0.041025836020708,-0.2576431930065155,-0.3473245501518249,0.2407840937376022,0.0,0.0,-0.0195803642272949,-0.212435245513916
-0.1895042359828949,0.5033215880393982,-0.0470566675066947,-0.2819653749465942,-0.3351719081401825,0.2430532425642013,0.0,0.0,-0.0156415104866027,-0.118060827255249
-0.1899150907993316,0.4963698387145996,-0.0528455153107643,-0.3062880337238312,-0.3229086995124817,0.2452639788389206,0.0,0.0,0.0984027385711669,-0.4860962629318237
-0.1903915405273437,0.4892265796661377,-0.0591621212661266,-0.3149547278881073,-0.3109359741210937,0.2394548207521438,0.0,0.0,-0.451373815536499,-0.6505014896392822
-0.1909631788730621,0.4815652370452881,-0.0700386017560958,-0.3378017544746399,-0.2976162433624267,0.2663947939872741,0.0,0.0,0.3253451585769653,-0.5634699463844299
-0.1915747672319412,0.4740795195102691,-0.0751202329993248,-0.3299114406108856,-0.2832332253456116,0.2876611351966858,0.0,0.0,0.067408800125122,0.0604927539825439
-0.1921429634094238,0.4666945934295654,-0.0707724764943122,-0.3255794942378998,-0.2689171135425567,0.2863222360610962,0.0,0.0,0.0021523237228393,0.5684241056442261
-0.1926042586565017,0.4593661427497864,-0.059103287756443,-0.3233804702758789,-0.2556674778461456,0.264992743730545,0.0,0.0,-0.7054786086082458,0.6893192529678345
-0.193043902516365,0.4514690041542053,-0.0554925017058849,-0.349023163318634,-0.2439245283603668,0.2348591983318328,0.0,0.0,-0.3848866820335388,0.7655973434448242
-0.1934589445590973,0.442995935678482,-0.0515561513602733,-0.3749448359012604,-0.233709916472435,0.2042922675609588,0.0,0.0,0.10621178150177,0.7396218776702881
-0.1937179565429687,0.4343199729919433,-0.0346236564218997,-0.3842388391494751,-0.2248534113168716,0.1771301627159118,0.0,0.0,0.0808852910995483,0.6445685625076294
-0.1937655508518219,0.4255903363227844,-0.0124308681115508,-0.3868338465690613,-0.2170918136835098,0.1552319526672363,0.0,0.0,-0.6539397835731506,0.7092999219894409
-0.1937701255083084,0.4162864983081817,-0.0064787468872964,-0.4126335680484772,-0.2110213935375213,0.1214082837104797,0.0,0.0,-0.2744321227073669,0.6313002109527588
-0.1937455236911773,0.4064247608184814,-0.0023705181665718,-0.4376169741153717,-0.2061391025781631,0.0976459011435508,0.0,0.0,0.6906251907348633,0.6910461187362671
-0.1934894621372223,0.3971335291862488,0.0220014378428459,-0.4124480485916137,-0.2025058269500732,0.0726653710007667,0.0,0.0,0.4057228565216064,0.2960114479064941
-0.1930266320705413,0.388097196817398,0.0421332046389579,-0.40105140209198,-0.1983258128166198,0.0835999324917793,0.0,0.0,0.1007220745086669,0.3368105888366699
-0.1924619674682617,0.3788138926029205,0.0519514195621013,-0.4119925200939178,-0.1937834471464157,0.0908473506569862,0.0,0.0,-0.4960631132125854,0.0674405097961425
-0.1918998658657074,0.3689837157726288,0.051639549434185,-0.4363074898719787,-0.1891945451498031,0.0917779430747032,0.0,0.0,0.5744860172271729,0.2457534074783325
-0.1911023110151291,0.3597952425479889,0.0747791677713394,-0.4077494442462921,-0.1841912120580673,0.1000667810440063,0.0,0.0,-0.7142733931541443,0.4048116207122803
-0.1902987509965896,0.3500599861145019,0.0753335505723953,-0.4320649206638336,-0.1791515350341797,0.1007938608527183,0.0,0.0,0.2156469821929931,0.0940572023391723
-0.1894707679748535,0.3406662344932556,0.0781597793102264,-0.4169460833072662,-0.1745040863752365,0.0929488986730575,0.0,0.0,-0.1171926856040954,0.4737855195999145
-0.1886284798383712,0.3307256698608398,0.0795613378286361,-0.4412614703178406,-0.1698303669691085,0.0934743583202362,0.0,0.0,0.9419540166854858,-0.0719315409660339
-0.1876808106899261,0.3215580284595489,0.0903704762458801,-0.4069550633430481,-0.1654264479875564,0.0880784839391708,0.0,0.0,-0.1866159439086914,0.290283203125
-0.1867108345031738,0.3118435144424438,0.0925834625959396,-0.4312704205513,-0.1610060781240463,0.0884073823690414,0.0,0.0,0.73940110206604,0.0536996126174926
-0.1856563538312912,0.302364706993103,0.1011271029710769,-0.4208196699619293,-0.1566952168941497,0.0862172096967697,0.0,0.0,0.5621836185455322,0.1173374652862548
-0.1845923364162445,0.293207436800003,0.1025930196046829,-0.4065953195095062,-0.1528875976800918,0.0761523395776748,0.0,0.0,-0.3186527490615845,-0.0364046096801757
-0.1834949553012848,0.2835032045841217,0.1059279888868331,-0.4309104979038238,-0.1490775346755981,0.0762013345956802,0.0,0.0,0.5318968296051025,0.3936241865158081
-0.182164579629898,0.2742186188697815,0.128763273358345,-0.4122245013713836,-0.1448152065277099,0.0852465331554412,0.0,0.0,-0.0942035317420959,-0.0871728062629699
-0.1807941496372223,0.2643872797489166,0.1327700167894363,-0.4365401268005371,-0.1405591070652008,0.0851217433810234,0.0,0.0,0.2981791496276855,-0.5965735912322998
-0.1792188584804535,0.2548877000808716,0.1518349945545196,-0.4216758906841278,-0.1348787099123001,0.1136078387498855,0.0,0.0,-0.7330315709114075,0.3014101982116699
-0.1775974333286285,0.2448415607213974,0.1564474105834961,-0.4459927678108215,-0.1292126774787902,0.113320842385292,0.0,0.0,0.5290052890777588,-0.1398861408233642
-0.1756943762302398,0.2353996187448501,0.1840120255947113,-0.4191093742847442,-0.1229540631175041,0.1251720637083053,0.0,0.0,-0.4074972867965698,-0.4402111768722534
-0.1737401038408279,0.2254112064838409,0.1891638338565826,-0.4434269070625305,-0.1167172938585281,0.1247354596853256,0.0,0.0,0.1039949655532836,-0.1193253397941589
-0.1716731041669845,0.2156898826360702,0.2004602253437042,-0.4315838515758514,-0.11052817851305,0.1237822398543357,0.0,0.0,0.4994392395019531,-0.7542362809181213
-0.1694694459438324,0.2064941972494125,0.2125439941883087,-0.4081375896930694,-0.102757416665554,0.1554152071475982,0.0,0.0,-0.5026407837867737,-0.6414279341697693
-0.1672514975070953,0.1967559903860092,0.2128751724958419,-0.4322210550308227,-0.0939117819070816,0.1769127994775772,0.0,0.0,0.4641821384429931,-0.1851489543914795
-0.1650300025939941,0.1873053163290023,0.213769719004631,-0.4195259213447571,-0.0856023877859115,0.1661877483129501,0.0,0.0,0.1923621892929077,-0.7226867079734802
-0.1628763228654861,0.1778828203678131,0.2056916654109954,-0.4182541072368622,-0.0760130137205123,0.1917873173952102,0.0,0.0,0.1675456762313842,0.3423264026641845
-0.1606438606977462,0.1685119718313217,0.2136714160442352,-0.4160208404064178,-0.0665344521403312,0.1895712316036224,0.0,0.0,0.4856202602386474,0.0466331243515014
-0.1582909524440765,0.1593109965324401,0.2256428748369217,-0.4085332155227661,-0.0569908283650875,0.1908723562955856,0.0,0.0,0.2430667877197265,-0.497600793838501
-0.1557578146457672,0.1499610245227813,0.2432439029216766,-0.4152026772499084,-0.0470380038022995,0.1990565210580825,0.0,0.0,0.7269660234451294,-0.4115023612976074
-0.1530212461948394,0.1411290466785431,0.2631532251834869,-0.3922326266765594,-0.0366614535450935,0.2075309753417968,0.0,0.0,0.4485385417938232,-0.9195868968963624
-0.150236889719963,0.1328233629465103,0.2660902142524719,-0.3688839077949524,-0.0244785565882921,0.2436583787202835,0.0,0.0,0.3490591049194336,-0.7040506601333618
-0.1473739594221115,0.1243470013141632,0.2724961936473846,-0.3765597641468048,-0.0108550824224948,0.2724693417549133,0.0,0.0,0.5886259078979492,-0.4307811856269836
