x_pos,y_pos,x_vel,y_vel,angle,ang_vel,leg_1,leg_2,main_booster,lat_booster
-0.0015311241149902,1.4030685424804688,-0.1553360223770141,-0.3489614427089691,0.0019954377785325,0.0393790677189827,0.0,0.0,-0.0825257301330566,0.7477402687072754
-0.0030060769058763,1.3946806192398071,-0.1480660736560821,-0.3727963268756866,0.0025626583956182,0.0113459872081875,0.0,0.0,0.4583377838134765,0.696305513381958
-0.0043045999482274,1.3862667083740234,-0.1295400559902191,-0.3739484548568725,0.0022514262236654,-0.0062250806950032,0.0,0.0,-0.4837847948074341,0.682441234588623
-0.0055675506591796,1.3772947788238523,-0.1251275837421417,-0.3987583816051483,0.0011030869791284,-0.0229690782725811,0.0,0.0,-0.0658099055290222,0.4451547861099243
-0.0068378448486328,1.3677666187286377,-0.1261255890130996,-0.4234671592712402,0.0002112021902576,-0.0178392995148897,0.0,0.0,0.1672835350036621,0.8374824523925781
-0.0079377172514796,1.3582570552825928,-0.1077661365270614,-0.4226476550102234,-0.0019860742613673,-0.0439496412873268,0.0,0.0,-0.2265071868896484,0.6243929862976074
-0.0089976312592625,1.3481913805007937,-0.1028407961130142,-0.4473716020584106,-0.0050976769998669,-0.0622379668056964,0.0,0.0,0.0494972467422485,0.684349536895752
-0.0099003789946436,1.3381870985031128,-0.0861741155385971,-0.44465371966362,-0.0091631095856428,-0.0813162326812744,0.0,0.0,-0.6071646213531494,-0.333486795425415
-0.010810375213623,1.3276269435882568,-0.0871866792440414,-0.4693706631660461,-0.0129352631047368,-0.0754498541355133,0.0,0.0,-0.6114282011985779,-0.0858755111694336
-0.0117275239899754,1.3165109157562256,-0.0882028266787529,-0.4940808415412903,-0.0164058282971382,-0.069417580962181,0.0,0.0,-0.3135648965835571,-0.6000998020172119
-0.0126922605559229,1.304840326309204,-0.0943044573068618,-0.5187180638313293,-0.0185469202697277,-0.0428258404135704,0.0,0.0,-0.3012675046920776,-0.9611518383026124
-0.0137309078127145,1.292613506317139,-0.1037176623940467,-0.5434139966964722,-0.0186885744333267,-0.0028332902584224,0.0,0.0,-0.0421608686447143,-0.2166136503219604
-0.0147765157744288,1.2798306941986084,-0.1047452315688133,-0.5681247711181641,-0.0185048338025808,0.003675204468891,0.0,0.0,0.230279803276062,-0.6193692684173584
-0.0158159248530864,1.266882300376892,-0.1058171987533569,-0.5754575133323669,-0.0166572351008653,0.0369552969932556,0.0,0.0,-0.1481994986534118,0.1013376712799072
-0.0168622974306345,1.253377914428711,-0.1068453341722488,-0.6001715064048767,-0.0144694363698363,0.0437601134181022,0.0,0.0,0.0239295959472656,-0.0601711273193359
-0.0178447719663381,1.2395925521850586,-0.1011315807700157,-0.6126624941825867,-0.0116136977449059,0.0571200549602508,0.0,0.0,-0.8084123134613037,-0.0545905828475952
-0.018833827227354,1.2252509593963623,-0.1021526083350181,-0.637376606464386,-0.0084032537415623,0.0642146840691566,0.0,0.0,0.0225380659103393,-0.0201398730278015
-0.0197392459958791,1.210700511932373,-0.0945738703012466,-0.6466752290725708,-0.0044177211821079,0.0797177553176879,0.0,0.0,-0.1917526125907898,0.5509157180786133
-0.0206006057560443,1.195598840713501,-0.0892436131834983,-0.6711777448654175,-0.0013345244806259,0.0616693012416362,0.0,0.0,-0.0578240752220153,0.2067427635192871
-0.0214680675417184,1.1799414157867432,-0.0902416706085205,-0.6958885192871094,0.0021237551700323,0.0691716745495796,0.0,0.0,-0.0639314651489257,0.6279487609863281
-0.0222813598811626,1.1637327671051023,-0.0836877599358558,-0.7203862071037292,0.0044505433179438,0.0465398356318473,0.0,0.0,0.0615943670272827,0.647907018661499
-0.023042107000947,1.1473915576934814,-0.0775195881724357,-0.7262858748435974,0.0058868369087576,0.0287284813821315,0.0,0.0,0.2920957803726196,0.1012649536132812
-0.0237092971801757,1.131133794784546,-0.0690554156899452,-0.7225748300552368,0.0081870816648006,0.0460092276334762,0.0,0.0,0.1073883771896362,-0.2603712081909179
-0.024337101727724,1.1146345138549805,-0.0657145082950592,-0.7333175539970398,0.0111008398234844,0.0582801289856433,0.0,0.0,0.3806518316268921,0.5683103799819946
-0.0250603668391704,1.098386287689209,-0.0742524340748786,-0.7221583724021912,0.0130023285746574,0.0380331203341484,0.0,0.0,-0.0167542099952697,-0.0822656154632568
-0.0257884971797466,1.0815606117248535,-0.0751541182398796,-0.7478263974189758,0.0153109906241297,0.046173520386219,0.0,0.0,0.769373893737793,0.3097542524337768
-0.026529312133789,1.0653462409973145,-0.0768528580665588,-0.7206719517707825,0.0180496294051408,0.054772812873125,0.0,0.0,0.1264560222625732,0.3604627847671509
-0.027373980730772,1.0494176149368286,-0.0872404649853706,-0.7079776525497437,0.0207913592457771,0.0548343434929847,0.0,0.0,-0.6238791942596436,0.5791587829589844
-0.0281871799379587,1.0329389572143557,-0.0836078152060508,-0.7324133515357971,0.0230496954172849,0.0451666750013828,0.0,0.0,0.0157551765441894,0.3110039234161377
-0.029024314135313,1.0163538455963137,-0.0863740593194961,-0.7371635437011719,0.025671187788248,0.052430160343647,0.0,0.0,-0.7727089524269104,0.5664052963256836
-0.029819393530488,0.9992210268974304,-0.0814138501882553,-0.7614914178848267,0.02755693718791,0.0377149917185306,0.0,0.0,0.5950601100921631,0.6581020355224609
-0.0306594856083393,0.9821618795394896,-0.0848448202013969,-0.75820392370224,0.0283854082226753,0.0165689773857593,0.0,0.0,0.4485864639282226,0.1307176351547241
-0.0315953269600868,0.9655975699424744,-0.0945195257663726,-0.7362064123153687,0.0293115600943565,0.0185231640934944,0.0,0.0,-0.567191481590271,0.5498509407043457
-0.0324953086674213,0.9484743475914,-0.0903927087783813,-0.7610435485839844,0.0296958275139331,0.0076855025254189,0.0,0.0,0.7852398157119751,-0.1767538785934448
-0.033400822430849,0.9318119883537292,-0.0914685055613517,-0.7405570149421692,0.0305994320660829,0.0180718787014484,0.0,0.0,-0.6466571688652039,0.5265185832977295
-0.0342662818729877,0.9146000742912292,-0.086809828877449,-0.7649824619293213,0.030864143744111,0.0052941390313208,0.0,0.0,-0.4278213381767273,0.1342334747314453
-0.0351341255009174,0.8968324065208435,-0.0875030308961868,-0.7896929383277893,0.0315715111792087,0.0141473291441798,0.0,0.0,0.5865293741226196,0.5343220233917236
-0.0359458923339843,0.8796126246452332,-0.0813648253679275,-0.7653216123580933,0.0317620448768138,0.0038108550943434,0.0,0.0,0.8439071178436279,0.3680653572082519
-0.0368331894278526,0.8632451891899109,-0.0891762673854827,-0.7274587154388428,0.0321957729756832,0.0086746430024504,0.0,0.0,-0.7512561082839966,-0.2962703704833984
-0.0377223007380962,0.8463217616081238,-0.0897951275110244,-0.7521693110466003,0.0330775603652,0.0176355950534343,0.0,0.0,0.500724196434021,0.4531599283218384
-0.0387330055236816,0.8298980593681335,-0.1019645184278488,-0.7299585342407227,0.0339600890874862,0.0176505893468856,0.0,0.0,-0.8034783601760864,0.8685755729675293
-0.0396620742976665,0.8129209280014038,-0.0921409130096435,-0.7545212507247925,0.033211700618267,-0.0149679156020283,0.0,0.0,-0.4426020383834839,0.4392155408859253
-0.0405918136239051,0.7953879833221436,-0.092681884765625,-0.7792319655418396,0.0329150259494781,-0.005933326203376,0.0,0.0,-0.2146414518356323,0.3421838283538818
-0.0415222160518169,0.7772994637489319,-0.0931963697075843,-0.8039425611495972,0.0330709517002105,0.0031185725238174,0.0,0.0,0.845142126083374,0.7964543104171753
-0.0424501411616802,0.7591394186019897,-0.0917034223675727,-0.8070911169052124,0.0319939441978931,-0.021540317684412,0.0,0.0,0.934823513031006,0.8074734210968018
-0.0432679168879985,0.7410079836845398,-0.079646810889244,-0.805799126625061,0.029891837388277,-0.0420423112809658,0.0,0.0,0.8659539222717285,0.4735457897186279
-0.0440316200256347,0.7230806350708008,-0.0750236958265304,-0.7967459559440613,0.0285624843090772,-0.0265872832387685,0.0,0.0,0.6730172634124756,0.3993481397628784
-0.0449326522648334,0.705858588218689,-0.0886833518743515,-0.7653981447219849,0.0271608158946037,-0.0280334167182445,0.0,0.0,0.6041187047958374,0.9050283432006836
-0.0459267608821392,0.6892333030700684,-0.0964231193065643,-0.7388520836830139,0.0242130495607852,-0.0589553602039814,0.0,0.0,0.2461628913879394,0.9367554187774658
-0.0468734726309776,0.6726270914077759,-0.0902489870786666,-0.737993597984314,0.0198479741811752,-0.0873015746474266,0.0,0.0,-0.0331262946128845,0.185850977897644
-0.0478188507258892,0.6554650664329529,-0.0905763953924179,-0.762705385684967,0.0159364473074674,-0.0782306492328643,0.0,0.0,0.6107003688812256,0.4598264694213867
-0.048830222338438,0.638823390007019,-0.0973695293068885,-0.7395980954170227,0.0122181233018636,-0.0743664354085922,0.0,0.0,0.4855304956436157,0.233096957206726
-0.0497464165091514,0.622227132320404,-0.088763453066349,-0.7375854849815369,0.0094066401943564,-0.0562298111617565,0.0,0.0,0.4479351043701172,0.4988441467285156
-0.0506641380488872,0.6061239838600159,-0.089401438832283,-0.7156898379325867,0.0070591988041996,-0.0469487085938453,0.0,0.0,-0.1239873170852661,0.8349878787994385
-0.0514971725642681,0.5894625782966614,-0.0792820677161216,-0.7404911518096924,0.0030905187595635,-0.0793735161423683,0.0,0.0,-0.3791022896766662,0.9533164501190186
-0.0522641167044639,0.5722416639328003,-0.0715168267488479,-0.7653743028640747,-0.0020244738552719,-0.102299727499485,0.0,0.0,0.8516454696655273,0.7550861835479736
-0.0528520569205284,0.55581134557724,-0.0527959167957305,-0.7302535772323608,-0.0079410197213292,-0.1183310896158218,0.0,0.0,0.7086567878723145,0.0448948144912719
-0.0532886497676372,0.539870023727417,-0.0387881807982921,-0.7085380554199219,-0.0127522302791476,-0.0962241441011428,0.0,0.0,0.4283738136291504,0.4920473098754883
-0.0536483749747276,0.52443927526474,-0.0318503603339195,-0.6858502626419067,-0.0168215446174144,-0.0813862606883049,0.0,0.0,0.3252534866333008,-0.7480310201644897
-0.0541216842830181,0.5094076991081238,-0.0450751110911369,-0.6680960059165955,-0.0190566387027502,-0.0447016656398773,0.0,0.0,0.0546525716781616,0.8653122186660767
-0.0544800758361816,0.4941641986370086,-0.0322831608355045,-0.6775404810905457,-0.0225699599832296,-0.0702665448188781,0.0,0.0,0.3718682527542114,0.9061678647994996
-0.0548450462520122,0.4792437553405761,-0.0314603373408317,-0.6632149815559387,-0.0275347642600536,-0.0992961600422859,0.0,0.0,0.0214340686798095,-0.2273235321044922
-0.0551207549870014,0.4642436802387237,-0.0233477428555488,-0.6667509078979492,-0.0317139104008674,-0.0835829600691795,0.0,0.0,0.322603702545166,0.1784282922744751
-0.0553580299019813,0.4494225084781647,-0.020018046721816,-0.6588023900985718,-0.0353767201304435,-0.0732561349868774,0.0,0.0,0.7249264717102051,-0.5597035884857178
-0.0556118972599506,0.4346704483032226,-0.0232569072395563,-0.6557013392448425,-0.0374779589474201,-0.0420250706374645,0.0,0.0,0.857292652130127,0.0047115087509155
-0.0559755340218544,0.420365959405899,-0.0340097062289714,-0.635815441608429,-0.0398015081882476,-0.0464709624648094,0.0,0.0,0.8043570518493652,0.4526325464248657
-0.0562740340828895,0.40690478682518,-0.0280275382101535,-0.5983222723007202,-0.0415994599461555,-0.0359589606523513,0.0,0.0,0.2808740139007568,0.9480993747711182
-0.0564100258052349,0.393206775188446,-0.0103237191215157,-0.6088960766792297,-0.0448355004191398,-0.0647208839654922,0.0,0.0,0.2212177515029907,-0.9392430782318116
-0.056563664227724,0.3799124658107757,-0.0144000677391886,-0.5908873081207275,-0.045785091817379,-0.0189918354153633,0.0,0.0,0.5417104959487915,0.1845588684082031
-0.056779958307743,0.3667298555374145,-0.0206682626157999,-0.5859228372573853,-0.046738788485527,-0.0190738700330257,0.0,0.0,0.6784250736236572,0.8391687870025635
-0.0569961555302143,0.3540279865264892,-0.019186045974493,-0.5646085739135742,-0.0491422601044178,-0.0480695031583309,0.0,0.0,0.0673279762268066,0.0961636304855346
-0.0571678169071674,0.3413707613945007,-0.0152240768074989,-0.5626075267791748,-0.051063735038042,-0.0384293086826801,0.0,0.0,0.8588559627532959,0.3648537397384643
-0.0574307441711425,0.3295919895172119,-0.0240640398114919,-0.5235812664031982,-0.0532723106443882,-0.0441716350615024,0.0,0.0,0.4407335519790649,0.8911622762680054
-0.0575189590454101,0.317999929189682,-0.0052547152154147,-0.5153342485427856,-0.0567981787025928,-0.0705171972513198,0.0,0.0,-0.2147673368453979,-0.908050775527954
-0.0576783195137977,0.305851012468338,-0.0146669866517186,-0.539997398853302,-0.0580485798418521,-0.0250081606209278,0.0,0.0,0.7688790559768677,-0.1150597929954528
-0.0577398315072059,0.2936607599258423,-0.0055918036960065,-0.5418103337287903,-0.0586019046604633,-0.011066410690546,0.0,0.0,0.6925945281982422,0.5704309940338135
-0.0577658638358116,0.2814284563064575,-0.0011661803582683,-0.5437166094779968,-0.0600304938852787,-0.0285715758800506,0.0,0.0,0.8944070339202881,-0.7635947465896606
-0.057802964001894,0.270015001296997,-0.0041290186345577,-0.5072497129440308,-0.0596189424395561,0.0082310922443866,0.0,0.0,0.7254551649093628,0.4899435043334961
-0.0577012076973915,0.259313553571701,0.009043039754033,-0.4755765795707702,-0.0584885887801647,0.0226070769131183,0.0,0.0,0.2740342617034912,-0.1826370954513549
-0.0576441772282123,0.2490072846412658,0.0046365740709006,-0.4580162763595581,-0.0574370324611663,0.0210310369729995,0.0,0.0,0.3602491617202759,0.4576308727264404
-0.0576733574271202,0.2385623306035995,-0.0037923238705843,-0.4641852080821991,-0.0565679892897605,0.0173807479441165,0.0,0.0,0.7660267353057861,0.2692606449127197
-0.0576071739196777,0.2288230508565902,0.0052323238924145,-0.4328056275844574,-0.0552012249827384,0.0273354314267635,0.0,0.0,0.2378573417663574,-0.4583584666252136
-0.057588767260313,0.2191796898841858,0.0005263813072815,-0.4285449981689453,-0.0539000295102596,0.0260237548500299,0.0,0.0,-0.1787604093551635,0.5899825096130371
-0.0575237274169921,0.2089792042970657,0.0059882174246013,-0.4533344507217407,-0.0533933863043785,0.01013302244246,0.0,0.0,-0.1581714749336242,-0.5774454474449158
-0.0575013160705566,0.1982293426990509,0.0002903150743804,-0.4777039289474487,-0.0514561273157596,0.0387447923421859,0.0,0.0,0.5787632465362549,0.2849159240722656
-0.0573632232844829,0.1877497732639312,0.0112083163112401,-0.4656697809696197,-0.0488902553915977,0.0513173267245292,0.0,0.0,0.617518424987793,0.5558304786682129
-0.0571367256343364,0.1772057563066482,0.0208861846476793,-0.4685655832290649,-0.047139972448349,0.0350057519972324,0.0,0.0,0.741165041923523,0.1614692211151123
-0.0567893013358116,0.1667346358299255,0.0323046706616878,-0.4653091430664062,-0.044726263731718,0.0482740774750709,0.0,0.0,0.5625184774398804,-0.0743822455406189
-0.0562756545841693,0.1565074771642685,0.0480702258646488,-0.454444944858551,-0.0414748638868331,0.0650281980633735,0.0,0.0,0.6135449409484863,-0.5986562371253967
-0.0556438453495502,0.146291047334671,0.0581457503139972,-0.4539345204830169,-0.0365029349923133,0.0994386374950409,0.0,0.0,0.7163479328155518,-0.7961928844451904
-0.0550504699349403,0.1366985440254211,0.0525512583553791,-0.4261840879917145,-0.0298012848943471,0.1340330094099044,0.0,0.0,0.6213548183441162,-0.3560481071472168
-0.0544025413691997,0.1276654303073883,0.0577273182570934,-0.4013486504554748,-0.0228208769112825,0.1396081745624542,0.0,0.0,0.5494918823242188,-0.5432748794555664
-0.0536559112370014,0.119014486670494,0.0660602748394012,-0.3843781352043152,-0.014324621297419,0.1699252873659134,0.0,0.0,0.3497581481933594,-0.1297734379768371
-0.0528216361999511,0.1102068275213241,0.0743273198604583,-0.3913908302783966,-0.005349283106625,0.1795066595077514,0.0,0.0,0.4932808876037597,-0.3841820955276489
-0.0520315170288085,0.1015351414680481,0.0700623542070388,-0.3854063153266907,0.0034832248929888,0.1766503453254699,0.0,0.0,0.8136008977890015,0.8029916286468506
-0.0510787963867187,0.093739353120327,0.0876786187291145,-0.346513956785202,0.0109794298186898,0.1499242186546325,0.0,0.0,0.3901152610778808,-0.6892462372779846
-0.0502074249088764,0.0861053541302681,0.0781521722674369,-0.3393816649913788,0.0198419895023107,0.1772513091564178,0.0,0.0,0.4906812906265259,0.9017075300216676
-0.0494064316153526,0.078999288380146,0.0730769038200378,-0.3159374296665191,0.0267729684710502,0.1386198997497558,0.0,0.0,0.0792338848114013,0.3046330213546753
-0.0485616698861122,0.0720236897468566,0.0772075876593589,-0.3101743459701538,0.0339557155966758,0.1436551511287689,0.0,0.0,0.2414679527282714,0.6883254051208496
-0.0477279648184776,0.0653433427214622,0.0775844529271125,-0.2970488369464874,0.0396703258156776,0.1142920702695846,0.0,0.0,0.0501946210861206,0.9892334938049316
-0.046900175511837,0.0588285773992538,0.0790217742323875,-0.2896469235420227,0.0433863997459411,0.074321411550045,0.0,0.0,0.607464075088501,0.7961912155151367
-0.0460593216121196,0.0524837598204612,0.0820549130439758,-0.2820523083209991,0.045393019914627,0.0401323959231376,0.0,0.0,0.4664176702499389,0.1828482151031494
-0.0453487411141395,0.0463757626712322,0.0696051865816116,-0.2715102434158325,0.0468188263475894,0.0285161174833774,0.0,0.0,0.4626539945602417,0.662216305732727
-0.0447568893432617,0.0403984412550926,0.0594866573810577,-0.2656493484973907,0.0465161800384521,-0.0060527804307639,0.0,0.0,0.610910177230835,0.7133040428161621
-0.0440320968627929,0.0349310263991355,0.0741442963480949,-0.2429456710815429,0.0448756143450737,-0.0328112170100212,0.0,0.0,0.2573525905609131,-0.0267409682273864
-0.0432774536311626,0.0293315034359693,0.0770736038684845,-0.2488198727369308,0.043283388018608,-0.0318443551659584,0.0,0.0,0.6586570739746094,0.0222915410995483
-0.0424152389168739,0.0243332237005233,0.0873404294252395,,0.0421760194003582,-0.0221474524587392,0.0,0.0,0.4937593936920166,-0.0146347880363464
-0.0416086204349994,0.0198291167616844,0.0820935666561126,-0.2001441419124603,0.0407636724412441,-0.0282469596713781,0.0,0.0,0.0937075614929199,-0.4434372186660766
-0.0407364852726459,0.0156225534155964,0.0884319394826889,-0.1869277507066726,0.0395590588450431,-0.0240920148789882,0.0,0.0,0.0610454082489013,-0.6606552600860596
-0.0398820862174034,0.0114179942756891,0.0855151861906051,-0.1868650019168853,0.039480410516262,-0.0015729792648926,0.0,0.0,0.3889172077178955,0.03074312210083
-0.0390678420662879,0.0076857898384332,0.081808403134346,-0.1658646911382675,0.0391067825257778,-0.0074726743623614,0.0,0.0,-0.0795143842697143,-0.014453113079071
-0.0382610335946083,0.0033975101541727,0.0813505873084068,-0.1905731707811355,0.038448516279459,-0.0131654012948274,0.0,0.0,0.8644782304763794,0.4795516729354858
-0.0374858863651752,5.182981476536952e-05,0.0972496345639228,-0.1483048945665359,0.0189506448805332,-0.3899603188037872,0.0,1.0,0.7786693572998047,0.2556129693984985
-0.0369520187377929,-0.0023185992613434,0.0887089595198631,-0.1052863672375679,-0.0159662198275327,-0.6983961462974548,1.0,1.0,0.3971138000488281,-0.9400774240493774
-0.0365219116210937,-0.0040018819272518,0.0598204620182514,-0.0753327086567878,-0.0314839445054531,-0.3089811205863952,1.0,1.0,0.8997057676315308,-0.5788325071334839
-0.0361004844307899,-0.0044010304845869,0.0452628508210182,-0.0178156178444623,-0.034535102546215,-0.0609924085438251,1.0,1.0,0.1902105808258056,-0.93748676776886
-0.0357493385672569,-0.0038378380704671,0.0308381952345371,0.025121146813035,-0.0303001664578914,0.0847195610404014,1.0,1.0,-0.6614415049552917,-0.9037265777587892
-0.0354508385062217,-0.0029792808927595,0.0232416223734617,0.0382902957499027,-0.0237940028309822,0.1301011443138122,1.0,1.0,-0.3891860246658325,0.2115415334701538
-0.0351449958980083,-0.0020263099577277,0.0234161932021379,0.0424501299858093,-0.0166975799947977,0.1419409215450287,1.0,1.0,-0.8468660712242126,0.4803273677825928
-0.0348443984985351,-0.0011406088015064,0.0233345869928598,0.0394263081252574,-0.0100574530661106,0.1328123211860656,1.0,1.0,-0.5919930338859558,0.544440507888794
-0.034502126276493,-0.0004520320799201,0.028979267925024,0.0306245684623718,-0.0048534548841416,0.1040945425629615,1.0,1.0,-0.8230951428413391,0.0208622217178344
