x_pos,y_pos,x_vel,y_vel,angle,ang_vel,leg_1,leg_2,main_booster,lat_booster
-0.001450729323551,1.4029722213745115,-0.147282212972641,-0.3532411158084869,0.0019877832382917,0.0392274186015129,0.0,0.0,-0.3671890497207641,0.9610965251922609
-0.0027456283569335,1.3943908214569092,-0.1296388357877731,-0.3813985884189605,0.0021330581512302,0.0029063746333122,0.0,0.0,-0.252872884273529,-0.0975103378295898
-0.0039662360213696,1.385156512260437,-0.1224937587976455,-0.4104127883911133,0.0025563666131347,0.0084671964868903,0.0,0.0,0.1081724166870117,0.34632408618927
-0.0051931380294263,1.37577223777771,-0.1230165734887123,-0.4170775711536407,0.0028804661706089,0.0064826272428035,0.0,0.0,0.5673751831054688,0.5292236804962158
-0.0061739920638501,1.3666660785675049,-0.0980226770043373,-0.4047208726406097,0.0028106961399316,-0.0013953360030427,0.0,0.0,-0.3888330459594726,0.6824684143066406
-0.0070138932205736,1.356906771659851,-0.0825452581048011,-0.4337453246116638,0.0013798533473163,-0.0286190994083881,0.0,0.0,-0.666078507900238,0.3250743150711059
-0.0077784536406397,1.3464953899383545,-0.0753134936094284,-0.4627322554588318,0.0002518973196856,-0.0225614178925752,0.0,0.0,-0.4607928991317749,-0.3519930839538574
-0.0084673883393406,1.335431694984436,-0.0680673271417617,-0.4917222261428833,-0.0005693578277714,-0.0164263099431991,0.0,0.0,-0.88531494140625,-0.6895538568496704
-0.0091361049562692,1.3237231969833374,-0.0677558779716491,-0.5203774571418762,0.000313976110192,0.0176683589816093,0.0,0.0,-0.3034354448318481,-0.948571801185608
-0.0098036769777536,1.3113683462142944,-0.0698752030730247,-0.5491073727607727,0.0033937746193259,0.0616016760468483,0.0,0.0,-0.1320409178733825,-0.2901292443275451
-0.0103953359648585,1.2983614206314087,-0.0626037567853927,-0.5780988931655884,0.006792040541768,0.0679716914892196,0.0,0.0,-0.4781821966171264,-0.5903579592704773
-0.0109520908445119,1.284700870513916,-0.060475505888462,-0.6071677803993225,0.0115460958331823,0.0950898081064224,0.0,0.0,-0.7845068573951721,-0.6233639717102051
-0.0114711765199899,1.270390868186951,-0.0580264925956726,-0.6360560059547424,0.0175938364118337,0.1209658980369567,0.0,0.0,-0.808160126209259,0.4838683605194092
-0.0119140623137354,1.2554292678833008,-0.0507378056645393,-0.6650503873825073,0.0239694211632013,0.1275235414505005,0.0,0.0,-0.9222508668899536,0.7469719648361206
-0.012208079919219,1.2398263216018677,-0.0343359187245368,-0.6935561895370483,0.0288466233760118,0.0975532755255699,0.0,0.0,-0.1147854924201965,-0.0968754291534423
-0.0124257085844874,1.2235714197158811,-0.0270317085087299,-0.7225496768951416,0.0340577624738216,0.1042323112487793,0.0,0.0,-0.6918301582336426,0.5328125953674316
-0.0125153539702296,1.2066736221313477,-0.0132599147036671,-0.7511212825775146,0.0383034795522689,0.0849219635128974,0.0,0.0,-0.5367226004600525,0.5760570764541626
-0.0124722477048635,1.1891220808029177,0.0011156307300552,-0.7801524996757507,0.0414733588695526,0.0634031221270561,0.0,0.0,-0.2255167961120605,0.303555965423584
-0.0123524665832519,1.170918583869934,0.0084343040362,-0.8091458678245544,0.0449824035167694,0.0701870992779731,0.0,0.0,0.0161701440811157,0.6354470252990723
-0.0121777532622218,1.1525840759277344,0.0149175841361284,-0.8149474859237671,0.0475058481097221,0.050473541021347,0.0,0.0,0.2719640731811523,0.4937478303909302
-0.0118558881804347,1.1344718933105469,0.0288418587297201,-0.8051004409790039,0.0508296005427837,0.0664810091257095,0.0,0.0,-0.6803964376449585,0.3159892559051513
-0.0114572523161768,1.115707516670227,0.0361612550914287,-0.8340991139411926,0.0544948875904083,0.0733121261000633,0.0,0.0,-0.2100104689598083,0.5625526905059814
-0.0109278680756688,1.0962951183319092,0.0502546355128288,-0.8628779649734497,0.0571434646844863,0.0529764667153358,0.0,0.0,0.3010443449020386,0.2750363349914551
-0.0102810859680175,1.0766035318374634,0.0614042803645134,-0.8753103017807007,0.060391616076231,0.0649690926074981,0.0,0.0,0.4337987899780273,0.7718619108200073
-0.0096678733825683,1.0570913553237915,0.0594557449221611,-0.8672813177108765,0.0622373409569263,0.0369178354740142,0.0,0.0,0.3493216037750244,0.5589854717254639
-0.0090984348207712,1.037761688232422,0.0561462938785553,-0.8591312766075134,0.0630334019660949,0.0159209705889225,0.0,0.0,0.5878500938415527,0.48900306224823
-0.0084925647825002,1.0188255310058594,0.0594127178192138,-0.8416540622711182,0.064191535115242,0.023162618279457,0.0,0.0,0.5486640930175781,0.7396167516708374
-0.0079365726560354,1.0003957748413086,0.0558149740099906,-0.8190901875495911,0.0639738887548446,-0.0043527241796255,0.0,0.0,-0.0198162198066711,0.2024180889129638
-0.0073040961287915,0.9813140034675598,0.0631159096956253,-0.8480810523033142,0.0641022101044654,0.0025663075502961,0.0,0.0,0.5097742080688477,0.4997475147247314
-0.0066429139114916,0.9622455835342408,0.0657307356595993,-0.8475066423416138,0.0644877701997757,0.0077111287973821,0.0,0.0,0.7496247291564941,0.5241618156433105
-0.0059009552933275,0.9438790678977966,0.0744552388787269,-0.816274881362915,0.0642336830496788,-0.0050819907337427,0.0,0.0,0.3074986934661865,-0.347320556640625
-0.0051664351485669,0.9253738522529602,0.0736485570669174,-0.8224431276321411,0.0640405789017677,-0.0038619358092546,0.0,0.0,0.3505175113677978,0.6352527141571045
-0.0044219968840479,0.90720134973526,0.0757075473666191,-0.8076159358024597,0.0627880617976188,-0.0250504128634929,0.0,0.0,0.1344759464263916,-0.1236275434494018
-0.0036607743240892,0.8887435793876648,0.0772416070103645,-0.8203029036521912,0.061678010970354,-0.022201232612133,0.0,0.0,0.2412499189376831,0.3635060787200928
-0.002840518951416,0.8703403472900391,0.0827385634183883,-0.8178901076316833,0.0609687529504299,-0.0141851101070642,0.0,0.0,-0.3878334760665893,0.4939954280853271
-0.0019446372753009,0.8512852191925049,0.0899608954787254,-0.8468809127807617,0.0606029964983463,-0.0073153190314769,0.0,0.0,0.4361693859100342,0.8568155765533447
-0.0009551048278808,0.8321701884269714,0.1007403954863548,-0.8494880795478821,0.0588439814746379,-0.0351802930235862,0.0,0.0,0.4763083457946777,-0.5414747595787048
6.361007399391383e-05,0.8134251832962036,0.1021220833063125,-0.8330968022346497,0.058592315763235,-0.0050334567204117,0.0,0.0,0.2040404081344604,0.9204585552215576
0.0011603354942053,0.7949613928794861,0.1114553213119506,-0.8205392360687256,0.0568334981799125,-0.0351764485239982,0.0,0.0,-0.1190353035926818,-0.252894639968872
0.0023319243919104,0.7758457660675049,0.1186005100607872,-0.8495301008224487,0.0554133616387844,-0.0284028947353363,0.0,0.0,-0.4767944812774658,-0.0756597518920898
0.0035782814957201,0.7560781240463257,0.1257216334342956,-0.8785208463668823,0.0543302968144416,-0.021661227568984,0.0,0.0,0.1254183053970337,-0.626961350440979
0.0049241064116358,0.7361948490142822,0.133945807814598,-0.8837250471115112,0.0549636855721473,0.0126676065847277,0.0,0.0,0.2015541791915893,-0.5884042978286743
0.0063632009550929,0.7159973382949829,0.1416156888008117,-0.8977545499801636,0.0572406910359859,0.0455398745834827,0.0,0.0,0.3013038635253906,-0.8106853365898132
0.00787696801126,0.6957718729972839,0.1470067650079727,-0.8990787267684937,0.0615584887564182,0.0863562002778053,0.0,0.0,0.7988368272781372,-0.3818209171295166
0.0094001768156886,0.6753708124160767,0.1478265523910522,-0.9069082736968994,0.0660006925463676,0.0888442248106002,0.0,0.0,0.9151716232299804,-0.7606092095375061
0.010968780145049,0.6548898816108704,0.1503753662109375,-0.91056090593338,0.0724165365099906,0.1283165663480758,0.0,0.0,0.9619910717010498,-0.660582959651947
0.0125970840454101,0.6345508694648743,0.1544869244098663,-0.9043793082237244,0.0806747376918792,0.1651638597249984,0.0,0.0,0.9732389450073242,-0.0999664068222045
0.0140832904726266,0.6150336861610413,0.1405932605266571,-0.8678905963897705,0.0886334255337715,0.1591734290122985,0.0,0.0,0.7598428726196289,0.6710999011993408
0.0154668809846043,0.5961121916770935,0.1317228823900222,-0.841364324092865,0.0952123403549194,0.13157819211483,0.0,0.0,0.8133283853530884,0.7756738662719727
0.0169043540954589,0.5773757696151733,0.1384089589118957,-0.833078920841217,0.10050830245018,0.1059191972017288,0.0,0.0,0.9078414440155028,0.1203910112380981
0.0185108184814453,0.5589970350265503,0.1542304754257202,-0.8172761797904968,0.1068828627467155,0.1274912655353546,0.0,0.0,0.7441890239715576,0.3298172950744629
0.0200437549501657,0.5411173105239868,0.1468426138162613,-0.7951293587684631,0.1132851466536521,0.1280459314584732,0.0,0.0,0.8952531814575195,0.8487637042999268
0.0217918399721384,0.5233762860298157,0.1694882810115814,-0.7889003157615662,0.1185739412903785,0.1057757511734962,0.0,0.0,0.6459286212921143,0.0385416746139526
0.0235174186527729,0.5061681866645813,0.166922926902771,-0.7652629017829895,0.1241790950298309,0.1121032088994979,0.0,0.0,0.8772432804107666,0.4739203453063965
0.0254099853336811,0.4891649186611175,0.182531327009201,-0.7562758326530457,0.130865216255188,0.1337223351001739,0.0,0.0,0.7521235942840576,0.4816336631774902
0.027203369885683,0.4722338020801544,0.172809287905693,-0.7530823349952698,0.1373763084411621,0.1302216202020645,0.0,0.0,0.7791537046432495,0.7358152866363525
0.0291113853454589,0.4559680223464966,0.1852097064256668,-0.7234488725662231,0.1429417431354522,0.1113089323043823,0.0,0.0,0.4916037321090698,0.0613894462585449
0.0311205871403217,0.4399816989898681,0.1944807022809982,-0.7111358046531677,0.1493685990571975,0.1285371482372284,0.0,0.0,0.5930140018463135,0.8202610015869141
0.033217716962099,0.4245623648166656,0.2045173346996307,-0.6858348250389099,0.154560312628746,0.1038343757390976,0.0,0.0,0.0363401174545288,-0.2762558460235595
0.0352542884647846,0.4092112779617309,0.1984059512615203,-0.6828280687332153,0.1598067581653595,0.1049287691712379,0.0,0.0,0.5787169933319092,-0.3036177158355713
0.0373440757393837,0.3937444984912872,0.2032346725463867,-0.6880382895469666,0.1655502915382385,0.114870861172676,0.0,0.0,0.5059839487075806,-0.2970838546752929
0.0392982475459575,0.3785499036312103,0.1898345351219177,-0.6759480834007263,0.1711367219686508,0.1117285043001174,0.0,0.0,0.791635274887085,-0.2259361743927002
0.0413473136723041,0.3635672926902771,0.1984556168317794,-0.6666505336761475,0.1776032000780105,0.1293295323848724,0.0,0.0,0.3857312202453613,-0.6866806745529175
0.0433304794132709,0.3486852645874023,0.1902118921279907,-0.6624169945716858,0.1857383996248245,0.1627039611339569,0.0,0.0,0.9455316066741944,0.3041577339172363
0.0452909469604492,0.3338508605957031,0.187648206949234,-0.6603790521621704,0.1941657811403274,0.1685477197170257,0.0,0.0,0.9790159463882446,0.8011274337768555
0.0470719337463378,0.3193796575069427,0.1714425384998321,-0.644052267074585,0.2008727490901947,0.134139746427536,0.0,0.0,0.893369197845459,0.5760986804962158
0.0487784370779991,0.3057270050048828,0.1648394465446472,-0.6075859665870667,0.206727921962738,0.1171038523316383,0.0,0.0,0.884343147277832,0.7355966567993164
0.0506237968802452,0.2919533252716064,0.1797318160533905,-0.6128435730934143,0.2115741968154907,0.0969256311655044,0.0,0.0,0.8256356716156006,-0.7677021026611328
0.0522901527583599,0.2789117097854614,0.1600263267755508,-0.5805863738059998,0.2182533144950866,0.1335824728012085,0.0,0.0,0.8318197727203369,0.0686501264572143
0.0537866577506065,0.2659538388252258,0.143308475613594,-0.576859176158905,0.2246699184179306,0.1283320784568786,0.0,0.0,0.6647404432296753,0.8965309858322144
0.0551422126591205,0.2533351480960846,0.1309506446123123,-0.5615390539169312,0.2293386459350586,0.0933746621012687,0.0,0.0,0.8650994300842285,0.8178863525390625
0.0564788803458213,0.2411278039216995,0.1304026842117309,-0.5430590510368347,0.2326415181159973,0.0660575777292251,0.0,0.0,0.8791995048522949,0.8073322772979736
0.0575373657047748,0.2296463847160339,0.1043319478631019,-0.5105240345001221,0.2341807186603546,0.0307841394096612,0.0,0.0,0.9782249927520752,0.853935718536377
0.0586305633187294,0.2185792326927185,0.1091208085417747,-0.4919085204601288,0.2343892902135849,0.0041710971854627,0.0,0.0,0.9476280212402344,0.9194158315658568
0.0596793182194232,0.2075360417366027,0.1063845381140708,-0.4905676543712616,0.2328575700521469,-0.0306340605020523,0.0,0.0,0.9957454204559326,0.971318244934082
0.0608326904475688,0.1964623779058456,0.1184395402669906,-0.4916764497756958,0.2297160625457763,-0.0628303289413452,0.0,0.0,0.9983444213867188,-0.4941707849502563
0.0618833526968956,0.1853237003087997,0.1081622019410133,-0.4945708811283111,0.2265729159116745,-0.062862679362297,0.0,0.0,0.9955267906188964,-0.8450861573219299
0.0626667961478233,0.1749149411916732,0.0796336457133293,-0.4624132215976715,0.2252720296382904,-0.0260181091725826,0.0,0.0,0.998271942138672,0.9703471660614014
0.0634294524788856,0.1653681397438049,0.0791388675570488,-0.4238677322864532,0.2223582118749618,-0.058276355266571,0.0,0.0,0.984220027923584,-0.0466469526290893
0.0638631805777549,0.1565612703561782,0.046718917787075,-0.3909181952476501,0.2189763188362121,-0.0676379576325416,0.0,0.0,0.9958947896957396,0.8265607357025146
0.0641247779130935,0.1476460993289947,0.0313573367893695,-0.3954655230045318,0.2137200981378555,-0.1051245331764221,0.0,0.0,0.9486534595489502,0.8716020584106445
0.0643185600638389,0.139492467045784,0.0260929502546787,-0.361429363489151,0.2069489508867263,-0.1354231834411621,0.0,0.0,0.9460140466690063,0.9359850883483888
0.0643263831734657,0.1316649317741394,0.0094586163759231,-0.34669890999794,0.1981960535049438,-0.1750580817461013,0.0,0.0,0.9212182760238647,0.4628663063049316
0.0641232505440712,0.1243268325924873,-0.0114603238180279,-0.3249746561050415,0.1892775148153305,-0.1783706396818161,0.0,0.0,0.7238531112670898,0.5790771245956421
0.0638176947832107,0.1174249053001403,-0.0205999165773391,-0.3055119812488556,0.1792828738689422,-0.1998928487300872,0.0,0.0,0.722670316696167,0.8994907140731812
0.0635739341378212,0.1108141541481018,-0.0128716332837939,-0.2924629151821136,0.1677602976560592,-0.2304513901472091,0.0,0.0,0.5014097690582275,-0.5572547912597656
0.0632559806108474,0.1040024161338806,-0.0215614959597587,-0.3016210198402405,0.1575233340263366,-0.2047392427921295,0.0,0.0,0.644974946975708,0.1049823760986328
0.0629609078168869,0.0971555560827255,-0.0197872091084718,-0.303303450345993,0.147817775607109,-0.1941110789775848,0.0,0.0,0.5093421936035156,-0.1475425362586975
0.0627137199044227,0.0904615521430969,-0.0157171282917261,-0.2966432273387909,0.138832077383995,-0.1797143220901489,0.0,0.0,0.7076849937438965,-0.8671169281005859
0.0624899864196777,0.083734281361103,-0.0154492035508155,-0.2983608841896057,0.1319401562213897,-0.1378384083509445,0.0,0.0,0.8099098205566406,-0.8049178719520569
0.0620738044381141,0.0775710642337799,-0.0363848730921745,-0.273465484380722,0.126725971698761,-0.104283906519413,0.0,0.0,0.9062396287918092,-0.6773272156715393
0.0615148544311523,0.0720605924725532,-0.0521818809211254,-0.2446015924215316,0.1230381205677986,-0.0737572312355041,0.0,0.0,0.5714960098266602,-0.2417382001876831
0.0609764084219932,0.066864475607872,-0.0507608838379383,-0.2306876182556152,0.1199731901288032,-0.0612987577915191,0.0,0.0,0.800917387008667,-0.0134376883506774
0.0604827888309955,0.0615659318864345,-0.0468640103936195,-0.2352901399135589,0.1174863278865814,-0.0497370772063732,0.0,0.0,0.7082562446594238,0.8677934408187866
0.0599116310477256,0.0563987828791141,-0.0528346821665763,-0.2293191850185394,0.1132326126098632,-0.0850744172930717,0.0,0.0,0.8525749444961548,0.1140213012695312
0.0592988021671772,0.0520376525819301,-0.0574937537312507,-0.1935444623231887,0.1094770282506942,-0.0751117095351219,0.0,0.0,0.2943364381790161,-0.2174991965293884
0.0585903152823448,0.047686394304037,-0.0670341104269027,-0.1931144893169403,0.1056911572813987,-0.0757175758481025,0.0,0.0,0.5839693546295166,0.8553392887115479
0.0577045455574989,0.0438182912766933,-0.0828891023993492,-0.1715233027935028,0.1000463888049125,-0.1128953471779823,0.0,0.0,-0.1583613157272339,0.9335098266601562
0.0568694099783897,0.0393159724771976,-0.0757144317030906,-0.1996005326509475,0.0923145562410354,-0.1546367555856704,0.0,0.0,0.1844518184661865,-0.136616826057434
0.0559115409851074,0.034960351884365,-0.0878559499979019,-0.1931131482124328,0.0844456925988197,-0.1573771089315414,0.0,0.0,0.6980648040771484,0.6946601867675781
0.0548139587044715,0.0311040505766868,-0.1002426296472549,-0.1708830744028091,0.0750244855880737,-0.1884240955114364,0.0,0.0,0.3132888078689575,0.4002959728240967
0.0536283478140831,0.027186594903469,-0.108983114361763,-0.1736586242914199,0.0655443146824836,-0.1896035820245742,0.0,0.0,0.1466363668441772,0.7082600593566895
0.0523392669856548,0.0232401713728904,-0.1178192943334579,-0.1749465763568878,0.0545813217759132,-0.2192597091197967,0.0,0.0,0.3086721897125244,0.8154528141021729
0.0509150512516498,0.0192571971565485,-0.1295653134584427,-0.1766026467084884,0.0418752841651439,-0.2541210055351257,0.0,0.0,0.4970715045928955,0.262037992477417
0.0495161041617393,0.0156059600412845,-0.1275048106908798,-0.1619766354560852,0.0296353064477443,-0.2447996437549591,0.0,0.0,0.6287760734558105,0.1999901533126831
0.0481220260262489,0.0118525121361017,-0.1273121237754821,-0.1666243523359298,0.0176941528916358,-0.2388229668140411,0.0,0.0,0.6906793117523193,0.035382866859436
0.0468165390193462,0.0086233476176857,-0.1191657930612564,-0.1434184908866882,0.0064558717422187,-0.2247657477855682,0.0,0.0,0.2873485088348388,-0.0790764689445495
0.0454421043395996,0.0056504583917558,-0.125994399189949,-0.1321141868829727,-0.0048512076027691,-0.2261415421962738,0.0,0.0,0.3326233625411987,0.1737184524536132
0.0441375747323036,0.0030599809251725,-0.119541510939598,-0.1152000203728675,-0.0156145226210355,-0.2152664214372635,0.0,0.0,0.0799517631530761,-0.1529096961021423
0.0428395271301269,0.000385818479117,-0.1191548332571983,-0.1189929097890853,-0.0261378586292266,-0.2104664742946624,1.0,0.0,0.4664440155029297,0.7681224346160889
0.0417353622615337,-0.0015134001150727,-0.1091670170426368,-0.084567479789257,-0.0268260184675455,-0.0130667984485626,1.0,0.0,0.5043530464172363,0.6643297672271729
0.040928266942501,-0.0026171111967414,-0.092184841632843,-0.0488962121307849,-0.0154734179377555,0.2270761281251907,1.0,0.0,0.2043763399124145,0.8181965351104736
0.0403156280517578,-0.0028381610754877,-0.0660469084978103,-0.0097831301391124,-0.0107327839359641,0.0948354005813598,1.0,1.0,-0.5064147114753723,0.8479709625244141
0.0398269668221473,-0.00263796094805,-0.049381960183382,0.0088971816003322,-0.0102088889107108,0.0104987798258662,1.0,1.0,-0.6207934021949768,0.9327453374862672
0.0394902229309082,-0.0019975209143012,-0.0319993533194065,0.0284495260566473,-0.0118538495153188,-0.0328810438513755,1.0,1.0,-0.710178554058075,0.3711740970611572
0.0392394065856933,-0.0013245367445051,-0.0301244910806417,0.029952198266983,-0.0068465289659798,0.1001814231276512,1.0,1.0,-0.5925230383872986,0.9922797679901124
0.0390966422855854,-0.0006392502691596,-0.0195225775241851,0.0304725766181945,-0.0016661471454426,0.1036150082945823,1.0,1.0,-0.3387566208839416,0.98052716255188
0.0390283577144146,-0.0005753064178861,-0.0073342723771929,0.0028405815828591,-0.0011700622271746,0.0099219074472785,1.0,1.0,-0.9616946578025818,-0.0274311304092407
0.0390081405639648,-0.0005790972500108,-0.0020668362267315,-0.0001683212758507,-0.0011380615178495,0.0006230812286958,1.0,1.0,-0.8949294090270996,0.0581060647964477
0.0390189178287982,-0.0005795979523099,0.0011004873085767,-2.2722546418663114e-05,-0.001154503901489,-0.0003196758625563,1.0,1.0,-0.8452146649360657,0.0699291229248046
0.0390326492488384,-0.0005795979523099,0.0013952187728136,7.970932642820117e-07,-0.0011755032464861,-0.0004084390529897,1.0,1.0,-0.8893788456916809,0.276249885559082
0.0390380844473838,-0.0005795979523099,0.0005524985026568,1.4217275179362332e-07,-0.0011838267091661,-0.0001617310335859,1.0,1.0,-0.6903887391090393,-0.0917514562606811
