x_pos,y_pos,x_vel,y_vel,angle,ang_vel,leg_1,leg_2,main_booster,lat_booster
-0.0015570640098303,1.4034191370010376,-0.1570898592472076,-0.3333719670772552,0.0012350290780887,0.0243229921907186,0.0,0.0,-0.3994143605232239,0.0747183561325073
-0.0031500817276537,1.3957362174987793,-0.1599458456039428,-0.3414655327796936,0.0018721236847341,0.0127435568720102,0.0,0.0,-0.2752292156219482,0.0856420993804931
-0.0047809602692723,1.3878474235534668,-0.1631518751382827,-0.3506101667881012,0.001936586224474,0.0012894822284579,0.0,0.0,-0.3858938813209533,0.5971038341522217
-0.006414127536118,1.379751682281494,-0.1618323326110839,-0.3598154783248901,0.0004746958147734,-0.0292405486106872,0.0,0.0,-0.148050308227539,0.2079519033432006
-0.0080892564728856,1.3714505434036257,-0.1654423177242279,-0.3689368069171905,-0.001570438616909,-0.0409066006541252,0.0,0.0,0.0763468742370605,0.3695542812347412
-0.0097185131162405,1.363474726676941,-0.1606923639774322,-0.3544787466526031,-0.0037769116461277,-0.0441339388489723,0.0,0.0,-0.3002524375915527,0.8056416511535645
-0.0113329887390136,1.35529363155365,-0.1570590287446975,-0.3636240363121032,-0.0081118354573845,-0.0867064967751503,0.0,0.0,-0.2675018906593323,0.363016128540039
-0.0129956249147653,1.346907615661621,-0.1612838208675384,-0.3727447688579559,-0.0130423456430435,-0.0986192673444747,0.0,0.0,0.1029565334320068,0.6629306077957153
-0.0146583560854196,1.3391612768173218,-0.1593290567398071,-0.3443566262722015,-0.0198976080864667,-0.1371181309223175,0.0,0.0,-0.6050321459770203,0.5933113098144531
-0.016326617449522,1.3312129974365234,-0.1581027209758758,-0.3534022569656372,-0.0285281985998153,-0.1726275533437729,0.0,0.0,-0.6811944246292114,0.0160374641418457
-0.0180493351072073,1.3230605125427246,-0.1629367619752884,-0.3625271022319793,-0.0377629771828651,-0.1847126185894012,0.0,0.0,-0.7746639251708984,-0.1113695502281189
-0.0198284145444631,1.3147045373916626,-0.1679743230342865,-0.3716560006141662,-0.0476043932139873,-0.1968462020158767,0.0,0.0,-0.6984079480171204,0.277714729309082
-0.0216660499572753,1.3061450719833374,-0.1732132881879806,-0.3807873129844665,-0.0580538623034954,-0.2090083807706833,0.0,0.0,-0.5607015490531921,0.1944119930267334
-0.0235642436891794,1.297382354736328,-0.1786513924598693,-0.3899202346801758,-0.0691126883029937,-0.2211967408657074,0.0,0.0,-0.5791869759559631,0.6583719253540039
-0.0254605300724506,1.2884172201156616,-0.1762333214282989,-0.3991234600543976,-0.0823936164379119,-0.2656424939632416,0.0,0.0,-0.4189313650131225,0.3336350917816162
-0.0274209976196289,1.2792500257492063,-0.1820566952228546,-0.4082637429237366,-0.0962846651673317,-0.2778466045856476,0.0,0.0,-0.5937632918357849,-0.0272292494773864
-0.0294477455317974,1.269881010055542,-0.188071072101593,-0.4174060523509979,-0.1107874512672424,-0.2900823056697845,0.0,0.0,-0.8134739995002747,-0.7001588940620422
-0.0315847396850585,1.2603113651275637,-0.1995805203914642,-0.4264239370822906,-0.1248395591974258,-0.2810676693916321,0.0,0.0,-0.2667986154556274,-0.556056797504425
-0.0338275916874408,1.2505522966384888,-0.2105114459991455,-0.4349543452262878,-0.1385719627141952,-0.2746731638908386,0.0,0.0,-0.7526473999023438,-0.0796818137168884
-0.036142062395811,1.240591526031494,-0.2170809209346771,-0.4441007673740387,-0.1529167741537094,-0.2869225144386291,0.0,0.0,-0.7037274837493896,-0.826166033744812
-0.0385799407958984,1.2304470539093018,-0.2301458567380905,-0.4523288607597351,-0.1665686517953872,-0.2730624377727508,0.0,0.0,-0.8891030550003052,-0.9888466596603394
-0.0411688797175884,1.2201141119003296,-0.2466093003749847,-0.4606597125530243,-0.1788959056138992,-0.2465672045946121,0.0,0.0,-0.3638650178909302,-0.4447428584098816
-0.0438344962894916,1.209579586982727,-0.2536974549293518,-0.4698064029216766,-0.1918356120586395,-0.2588170766830444,0.0,0.0,-0.8168730139732361,-0.8748294711112976
-0.0466395393013954,1.1988511085510254,-0.268603503704071,-0.4784046113491058,-0.2038408070802688,-0.2401252537965774,0.0,0.0,-0.3984686136245727,-0.76920485496521
-0.049597643315792,1.1879456043243408,-0.2852258086204529,-0.4861862361431122,-0.2145455032587051,-0.2141131162643432,0.0,0.0,-0.8502430319786072,-0.4408533573150635
-0.0526404380798339,1.1768171787261963,-0.2930927276611328,-0.4962643980979919,-0.2258618474006652,-0.226326510310173,0.0,0.0,-0.6723310947418213,-0.3885393142700195
-0.0557664856314659,1.1654870510101318,-0.3008321225643158,-0.5054060220718384,-0.2377902716398239,-0.2385685443878173,0.0,0.0,-0.6349760890007019,-0.8620269298553467
-0.0590559020638465,1.1539933681488037,-0.3187015652656555,-0.5125261545181274,-0.2482065558433532,-0.2083252966403961,0.0,0.0,-0.1775628328323364,-0.8680769205093384
-0.0625108703970909,1.1423351764678955,-0.3367722630500793,-0.5196399688720703,-0.2570947408676147,-0.1777635514736175,0.0,0.0,-0.3873582482337951,-0.492527961730957
-0.066053107380867,1.1304750442504885,-0.3449202179908752,-0.5287790894508362,-0.2665945291519165,-0.1899955719709396,0.0,0.0,-0.8829604387283325,-0.2785696983337402
-0.0696836486458778,1.1184132099151611,-0.353194385766983,-0.5379195809364319,-0.2767056226730346,-0.2022219896316528,0.0,0.0,-0.693665087223053,-0.2517924308776855
-0.0734038352966308,1.1061495542526243,-0.3615895211696625,-0.5470613837242126,-0.287427693605423,-0.2144416272640228,0.0,0.0,-0.5479611158370972,-0.3689673542976379
-0.077214814722538,1.0936845541000366,-0.3701003193855285,-0.5562048554420471,-0.2987603843212127,-0.226653903722763,0.0,0.0,-0.3082896471023559,-0.7615398168563843
-0.0811821967363357,1.0810410976409912,-0.3868526816368103,-0.5640020966529846,-0.3089973330497741,-0.2047391235828399,0.0,0.0,-0.5730639696121216,-0.5947150588035583
-0.0852856636047363,1.0682181119918823,-0.4010295271873474,-0.5719277262687683,-0.318664014339447,-0.1933333426713943,0.0,0.0,-0.3532941937446594,-0.3870466947555542
-0.089482881128788,1.0551936626434326,-0.4098535478115082,-0.5810708403587341,-0.3289400041103363,-0.2055199444293975,0.0,0.0,-0.6264051198959351,-0.7064156532287598
-0.0938305854797363,1.041992425918579,-0.4257819056510925,-0.5887901186943054,-0.3383224010467529,-0.1876478493213653,0.0,0.0,-0.6957062482833862,-0.3480632305145263
-0.098273754119873,1.0285900831222534,-0.4347890019416809,-0.5979336500167847,-0.3483130633831024,-0.1998129934072494,0.0,0.0,-0.4992102384567261,-0.4902037978172302
-0.1028132438659668,1.014986515045166,-0.4438806176185608,-0.6070786118507385,-0.3589113652706146,-0.2119659632444381,0.0,0.0,-0.2876707911491394,0.1807702779769897
-0.1074498146772384,1.001181960105896,-0.4530518054962158,-0.616225004196167,-0.3701166808605194,-0.2241061478853225,0.0,0.0,-0.4536962509155273,-0.1960662603378296
-0.1121840476989746,0.9871768355369568,-0.4622978270053863,-0.6253728270530701,-0.3819283246994018,-0.2362329512834549,0.0,0.0,-0.7488154172897339,0.5857628583908081
-0.1169654875993728,0.9729393720626832,-0.4651370942592621,-0.6363200545310974,-0.3958024680614471,-0.2774820923805237,0.0,0.0,-0.1846238374710083,0.3029831647872925
-0.1218457221984863,0.958502471446991,-0.4745205044746399,-0.6454741954803467,-0.4102814495563507,-0.2895796000957489,0.0,0.0,-0.748759388923645,-0.4104006290435791
-0.1268250495195388,0.9438661932945251,-0.4839648604393005,-0.6546302437782288,-0.4253645539283752,-0.3016621768474579,0.0,0.0,-0.5129215717315674,-0.7386012077331543
-0.131962776184082,0.9290608763694764,-0.5008446574211121,-0.6619870066642761,-0.439424455165863,-0.2811978459358215,0.0,0.0,0.5091031789779663,-0.7840341925621033
-0.1370866745710373,0.91447252035141,-0.5005307197570801,-0.6521427631378174,-0.4523948729038238,-0.2594075798988342,0.0,0.0,0.2094281911849975,-0.6816116571426392
-0.1421722471714019,0.9001244902610779,-0.4975821077823639,-0.6412971019744873,-0.4644859731197357,-0.2418216913938522,0.0,0.0,0.8766593933105469,-0.5212929844856262
-0.1470905244350433,0.8869699239730835,-0.4810006022453308,-0.5883079767227173,-0.4764646887779236,-0.2395742386579513,0.0,0.0,0.8549997806549072,-0.1006882190704345
-0.1518365889787674,0.874897837638855,-0.4627017378807068,-0.5406970977783203,-0.489731878042221,-0.265343576669693,0.0,0.0,-0.3994069099426269,-0.3230425119400024
-0.1566842049360275,0.8626264929771423,-0.4724093079566955,-0.5498534440994263,-0.5035972595214844,-0.2773081064224243,0.0,0.0,0.9280637502670288,-0.0474427938461303
-0.1611652374267578,0.8509101271629333,-0.4360094666481018,-0.5252329707145691,-0.5172852277755737,-0.2737598717212677,0.0,0.0,-0.0966503620147705,-0.884529173374176
-0.1658121049404144,0.8390556573867798,-0.4539541602134704,-0.5309851765632629,-0.5295078158378601,-0.2444521486759185,0.0,0.0,-0.4521359205245971,-0.6707285046577454
-0.1705993711948394,0.8270308971405029,-0.4685702323913574,-0.538445770740509,-0.5411649942398071,-0.2331441193819046,0.0,0.0,0.8565083742141724,-0.6332831382751465
-0.1750641763210296,0.8159989714622498,-0.4370631277561188,-0.4941257834434509,-0.5520479679107666,-0.2176598012447357,0.0,0.0,-0.4677512645721435,-0.8138232231140137
-0.179673284292221,0.8048020601272583,-0.4521600604057312,-0.5012661218643188,-0.5622197985649109,-0.2034371644258499,0.0,0.0,0.4736592769622803,-0.4949896335601806
-0.1842329055070877,0.7940070033073425,-0.4464358687400818,-0.4838261902332306,-0.5733741521835327,-0.2230875492095947,0.0,0.0,0.3797593116760254,-0.7121421694755554
-0.1885047852993011,0.7838305830955505,-0.4186390936374664,-0.4560045897960663,-0.5834525227546692,-0.2015668898820877,0.0,0.0,0.3897311687469482,-0.5290820002555847
-0.1924954354763031,0.7740962505340576,-0.3912643790245056,-0.4360880851745605,-0.5926977396011353,-0.1849046051502227,0.0,0.0,0.5608351230621338,-0.9613510370254515
-0.1961458176374435,0.7651336789131165,-0.3586133122444153,-0.4012505114078522,-0.6003679037094116,-0.1534031927585601,0.0,0.0,0.833066463470459,-0.7591277956962585
-0.1995279341936111,0.7571830153465271,-0.3325604200363159,-0.3559621274471283,-0.6071513891220093,-0.1356696635484695,0.0,0.0,0.8255492448806763,-0.1769090294837951
-0.2027323693037033,0.7494877576828003,-0.314554214477539,-0.3447601497173309,-0.6142475605010986,-0.1419231593608856,0.0,0.0,0.8227612972259521,-0.8185027837753296
-0.2057419717311859,0.7427039742469788,-0.2959166169166565,-0.30389404296875,-0.6203532814979553,-0.122116133570671,0.0,0.0,0.9489781856536864,-0.2280313968658447
-0.2083800733089447,0.7363371849060059,-0.2588679194450378,-0.2853321135044098,-0.6263517141342163,-0.1199703365564346,0.0,0.0,0.9832017421722412,-0.594026505947113
-0.2107006013393402,0.7306787967681885,-0.2278059422969818,-0.2535445988178253,-0.6315419673919678,-0.1038055419921875,0.0,0.0,0.9860199689865112,-0.5268659591674805
-0.2128641605377197,0.7254275679588318,-0.212612122297287,-0.2352222651243209,-0.6361235976219177,-0.0916322842240333,0.0,0.0,0.9919285774230956,-0.0419590473175048
-0.214824765920639,0.72096848487854,-0.1913269311189651,-0.2005241513252258,-0.6419479250907898,-0.116486094892025,0.0,0.0,0.9663008451461792,-0.983302354812622
-0.2163090258836746,0.7175846099853516,-0.1450497806072235,-0.1520850211381912,-0.6461164355278015,-0.0833701565861702,0.0,0.0,0.852939248085022,-0.8763799071311951
-0.2176727354526519,0.714354395866394,-0.1342316567897796,-0.1446455866098404,-0.6487685441970825,-0.0530410297214984,0.0,0.0,0.7391707897186279,-0.9419673681259156
-0.2186205387115478,0.7120432257652283,-0.0939108431339263,-0.1031541302800178,-0.6498421430587769,-0.0214714258909225,0.0,0.0,-0.4322376847267151,-0.9321447610855104
-0.2197344303131103,0.7096037864685059,-0.1119896918535232,-0.1081174239516258,-0.6490986943244934,0.01486905105412,0.0,0.0,0.0961732864379882,-0.6048539876937866
-0.2207644432783126,0.7076063752174377,-0.1041840314865112,-0.0881785005331039,-0.6476312875747681,0.0293486267328262,0.0,0.0,0.1815154552459716,-0.6791322231292725
-0.2216439247131347,0.705966591835022,-0.0899426192045211,-0.071879431605339,-0.6451652646064758,0.0493210479617118,0.0,0.0,-0.1006348133087158,-0.7864765524864197
-0.2226741313934326,0.7041991949081421,-0.1063143238425254,-0.0769020542502403,-0.6411048173904419,0.081208661198616,0.0,0.0,0.4563405513763428,-0.7472469210624695
-0.2234829366207122,0.7028303146362305,-0.0851888954639434,-0.0587087422609329,-0.6358077526092529,0.1059414893388748,0.0,0.0,-0.1379225850105285,-0.7984475493431091
-0.2244399040937423,0.7013136744499207,-0.10111765563488,-0.0647556111216545,-0.629168689250946,0.1327810287475586,0.0,0.0,-0.1256700158119201,-0.6874247193336487
-0.2255297601222992,0.6996319890022278,-0.1151274591684341,-0.0717823356389999,-0.6216872334480286,0.1496296226978302,0.0,0.0,-0.0835224390029907,-0.7882428169250488
-0.2267653942108154,0.6977995038032532,-0.1308403015136718,-0.0780071914196014,-0.6128779053688049,0.1761870831251144,0.0,0.0,-0.1254585981369018,0.3276649713516235
-0.2280899584293365,0.6957659125328064,-0.139407530426979,-0.0871534869074821,-0.6045117378234863,0.1673236340284347,0.0,0.0,-0.045869767665863,-0.021450936794281
-0.2295019626617431,0.6935309767723083,-0.1478324085474014,-0.0962983816862106,-0.5965746641159058,0.158741295337677,0.0,0.0,0.1116689443588256,-0.1393582820892334
-0.2307533323764801,0.6918407082557678,-0.1311596184968948,-0.0724162980914115,-0.5894010663032532,0.1434725821018219,0.0,0.0,0.2887442111968994,-0.3672565221786499
-0.2320291548967361,0.6903550028800964,-0.1329019218683242,-0.063674971461296,-0.5830926895141602,0.1261672526597976,0.0,0.0,0.504209041595459,-0.2725052833557129
-0.2329603731632232,0.689538300037384,-0.0982820615172386,-0.0340479016304016,-0.5769961476325989,0.1219294443726539,0.0,0.0,-0.1035987138748169,-0.704517126083374
-0.2340255230665207,0.6885716915130615,-0.112893246114254,-0.0402110144495964,-0.5694985389709473,0.1499521732330322,0.0,0.0,0.2280259132385254,-0.3438950777053833
-0.234931468963623,0.6880724430084229,-0.0965444222092628,-0.0196679290384054,-0.5625352263450623,0.1392664015293121,0.0,0.0,0.1846789121627807,-0.0935002565383911
-0.2356531620025634,0.6880137920379639,-0.0778278186917305,-0.0002387237473158,-0.5559380650520325,0.1319432258605957,0.0,0.0,0.3132883310317993,-0.4880521893501282
-0.2361453473567962,0.6882870197296143,-0.0549173764884471,0.0144887398928403,-0.5493265986442566,0.1322294175624847,0.0,0.0,0.0456509590148925,-0.5795837640762329
-0.236621618270874,0.6886522173881531,-0.0541767962276935,0.0188846327364444,-0.5417532324790955,0.1514673978090286,0.0,0.0,0.1779568195343017,-0.7499166131019592
-0.2370054721832275,0.689166247844696,-0.046181920915842,0.0259398762136697,-0.5327959656715393,0.1791458427906036,0.0,0.0,0.0662558078765869,-0.5996699929237366
-0.2372159510850906,0.6899082064628601,-0.0299008879810571,0.0364230722188949,-0.522678017616272,0.2023592740297317,0.0,0.0,-0.1470301151275634,-0.6904840469360352
-0.2375260889530182,0.6904741525650024,-0.0407136529684066,0.0288389716297388,-0.5116612315177917,0.2203358709812164,0.0,0.0,-0.1447201371192932,-0.6429586410522461
-0.2379375398159027,0.6908789873123169,-0.0519542582333087,0.0219911094754934,-0.4994585514068603,0.2440533936023712,0.0,0.0,-0.374097466468811,-0.6515621542930603
-0.2384448945522308,0.6911207437515259,-0.0626426190137863,0.0150094777345657,-0.4861141145229339,0.2668889760971069,0.0,0.0,-0.3210822343826294,-0.2488945126533508
-0.2390039414167404,0.6911600828170776,-0.0677612423896789,0.0058710323646664,-0.4729142487049103,0.2639971375465393,0.0,0.0,-0.3060097098350525,-0.2984246015548706
-0.2396109104156494,0.6909970045089722,-0.072530597448349,-0.0032661198638379,-0.4598338603973388,0.2616081535816192,0.0,0.0,-0.4662380218505859,-0.1200475692749023
-0.2402619868516922,0.6906313300132751,-0.0769346728920936,-0.0124020660296082,-0.4468475878238678,0.2597257792949676,0.0,0.0,-0.2668639421463012,0.127943754196167
-0.2409531623125076,0.6900629997253418,-0.0809576362371444,-0.021536897867918,-0.433929979801178,0.2583518922328949,0.0,0.0,-0.1351892352104187,0.1976311206817627
-0.2416803389787674,0.6892916560173035,-0.0845840126276016,-0.0306707099080085,-0.4210556745529175,0.2574859261512756,0.0,0.0,-0.4843608140945434,0.3839631080627441
-0.2424391210079193,0.6883172392845154,-0.0877988561987876,-0.039803609251976,-0.4081993997097015,0.2571253180503845,0.0,0.0,-0.3582251071929931,0.3642675876617431
-0.24322509765625,0.6871394515037537,-0.0905878618359565,-0.0489356853067874,-0.3953361511230469,0.2572651505470276,0.0,0.0,0.1794021129608154,0.1637582778930664
-0.243862584233284,0.6865220665931702,-0.0756709724664688,-0.0241802390664815,-0.3826179802417755,0.2543638348579407,0.0,0.0,0.0584515333175659,-0.0956502556800842
-0.2443879544734954,0.6863983273506165,-0.0643434524536132,-0.00238489639014,-0.3700889945030212,0.2505797147750854,0.0,0.0,-0.2300766706466674,0.3167113065719604
-0.2449264079332351,0.6860708594322205,-0.0657780617475509,-0.0115143563598394,-0.357480376958847,0.2521724104881286,0.0,0.0,-0.3699017167091369,0.416750431060791
-0.2454728633165359,0.6855399012565613,-0.0667398795485496,-0.0206434354186058,-0.3447690606117248,0.2542269825935364,0.0,0.0,-0.1837632060050964,0.288095474243164
-0.2460223734378814,0.6848050355911255,-0.0672205761075019,-0.0297722481191158,-0.3319325745105743,0.2567298114299774,0.0,0.0,-0.2868316769599914,0.1759166717529297
-0.2465699166059494,0.6838664412498474,-0.0672134459018707,-0.0389009043574333,-0.318949282169342,0.2596659660339355,0.0,0.0,0.0072627067565917,-0.0292709469795227
-0.2470042258501052,0.6830270290374756,-0.0562738664448261,-0.0345343090593814,-0.305625319480896,0.2664795815944671,0.0,0.0,-0.0718437433242797,0.3765774965286255
-0.2474262714385986,0.6819840669631958,-0.0552783906459808,-0.0436633750796318,-0.2921136319637298,0.270233690738678,0.0,0.0,-0.3886312246322632,0.040730595588684
-0.2478308230638504,0.6807373762130737,-0.053786002099514,-0.0527926422655582,-0.2783950865268707,0.2743710577487945,0.0,0.0,-0.5873650312423706,0.511833667755127
-0.2481636554002761,0.679271936416626,-0.045641578733921,-0.0628205761313438,-0.2657298743724823,0.253304123878479,0.0,0.0,-0.0585164427757263,-0.0747371912002563
-0.2484688311815261,0.6776028275489807,-0.043158795684576,-0.0719478279352188,-0.252822071313858,0.2581559717655182,0.0,0.0,-0.4078463912010193,-0.5284412503242493
-0.2487812489271164,0.675750732421875,-0.0452431514859199,-0.0799618959426879,-0.2385695576667785,0.2850502431392669,0.0,0.0,-0.651362955570221,0.3327304124832153
-0.2490559518337249,0.6736955046653748,-0.0417911745607852,-0.0890926197171211,-0.2240423858165741,0.2905433773994446,0.0,0.0,-0.7618580460548401,0.9194586277008056
-0.2492085993289947,0.6714045405387878,-0.0278369523584842,-0.0999565869569778,-0.2113295942544937,0.2542557716369629,0.0,0.0,-0.9047468304634094,0.5401887893676758
-0.249280646443367,0.6688998937606812,-0.0192532986402511,-0.1096418797969818,-0.1991787850856781,0.243016317486763,0.0,0.0,-0.8677395582199097,0.8638863563537598
-0.2492485493421554,0.6661729216575623,-0.0078228078782558,-0.1197579279541969,-0.1880788654088974,0.2219984233379364,0.0,0.0,-0.9583532214164734,0.594666600227356
-0.2491157054901123,0.6632283329963684,0.0030489866621792,-0.1296074241399765,-0.1778012067079544,0.2055530548095703,0.0,0.0,-0.9404186606407166,0.558720588684082
-0.2488770484924316,0.6600658893585205,0.0144401844590902,-0.1394583880901336,-0.1683524399995803,0.1889752447605133,0.0,0.0,-0.8563367128372192,0.9383711814880372
-0.2484855651855468,0.656667172908783,0.0316409841179847,-0.1502227634191513,-0.1608452349901199,0.1501441746950149,0.0,0.0,-0.9157409071922302,0.8375976085662842
-0.2479490786790847,0.6530482172966003,0.0477301701903343,-0.1602104753255844,-0.1549229770898819,0.1184453144669532,0.0,0.0,-0.9880619645118712,0.8328827619552612
-0.2472712993621826,0.6492157578468323,0.0632108077406883,-0.1698632985353469,-0.1503615975379943,0.091227576136589,0.0,0.0,-0.9848548769950868,0.6317468881607056
