x_pos,y_pos,x_vel,y_vel,angle,ang_vel,leg_1,leg_2,main_booster,lat_booster
-0.0015280724037438,1.4034459590911863,-0.1544868499040603,-0.3321827352046966,0.0014972580829635,0.0295151975005865,0.0,0.0,0.8397012896341738,0.5485735094881414
-0.0029569626785814,1.3965845108032229,-0.1431730687618255,-0.3049514889717102,0.0017809137934818,0.0056741451844573,0.0,0.0,-0.8168326531336545,0.7988750148504611
-0.0043135643936693,1.389538288116455,-0.1337127536535263,-0.3131601214408874,-0.0001385238283546,-0.0383923165500164,0.0,0.0,0.0178907620616217,0.5450690858417979
-0.005713271908462,1.382773756980896,-0.1365251839160919,-0.3006494641304016,-0.0035465126857161,-0.0681662708520889,0.0,0.0,-0.1490807470482731,-0.5705824111843665
-0.0071522714570164,1.3758329153060913,-0.141089916229248,-0.308496356010437,-0.0063360002823174,-0.0557945482432842,0.0,0.0,-0.7587421662394533,0.6878038796929637
-0.0085289953276515,1.368712067604065,-0.1328924596309662,-0.3165064752101898,-0.0110644558444619,-0.0945780649781227,0.0,0.0,-0.7967182387731571,-0.7118579002797738
-0.0099677089601755,1.361414074897766,-0.1403043419122696,-0.3243867754936218,-0.0145952068269252,-0.0706212371587753,0.0,0.0,0.0551944187397361,-0.8397613970926299
-0.011358642950654,1.3545589447021484,-0.136973425745964,-0.304694801568985,-0.0166837256401777,-0.0417740195989608,0.0,0.0,-0.921803702591317,0.5426246154158166
-0.0127113340422511,1.3475302457809448,-0.1318301856517791,-0.3124293088912964,-0.0200861953198909,-0.0680557563900947,0.0,0.0,0.2151843806836557,-0.9830915791657308
-0.0141348838806152,1.3411329984664917,-0.1406331956386566,-0.2843454778194427,-0.0217972937971353,-0.034224733710289,0.0,0.0,-0.6135886040821841,-0.5534536210153969
-0.0155995367094874,1.3345587253570557,-0.1454231441020965,-0.2921993434429168,-0.022823816165328,-0.0205327123403549,0.0,0.0,0.2049203466341569,-0.5721557155622516
-0.0170471183955669,1.32838237285614,-0.1447234004735946,-0.2745029032230377,-0.0228563845157623,-0.0006510598468594,0.0,0.0,0.3094291228916623,0.7618174739535536
-0.0183091163635253,1.322856903076172,-0.1245473474264144,-0.245607241988182,-0.024485494941473,-0.0325853154063224,0.0,0.0,-0.8918871202480718,-0.5984312075506852
-0.0196161270141601,1.3171486854553225,-0.1298743188381195,-0.253707081079483,-0.0253069885075092,-0.0164313577115535,0.0,0.0,-0.6139848678869053,-0.6094921628511207
-0.0209630019962787,1.3112698793411257,-0.1345534771680832,-0.2612786889076233,-0.0254416782408952,-0.0026940505485981,0.0,0.0,0.5120670890380155,-0.5950963188656604
-0.0222442634403705,1.3056113719940186,-0.1292001008987426,-0.251471072435379,-0.0243739355355501,0.0213566534221172,0.0,0.0,-0.9018988733771072,0.9002609345959276
-0.02344093285501,1.2997817993164062,-0.1182896494865417,-0.259119302034378,-0.0257310438901186,-0.027144905179739,0.0,0.0,0.6829262776370131,0.9283517041367716
-0.0243947990238666,1.294329047203064,-0.0921746343374252,-0.2423973828554153,-0.0289099868386983,-0.0635849088430404,0.0,0.0,-0.0654728911624618,0.926193853733528
-0.0252659805119037,1.2887033224105835,-0.0815290957689285,-0.2501527070999145,-0.0344417952001094,-0.1106459349393844,0.0,0.0,0.7176743545506064,0.8591527588481835
-0.0261441227048635,1.283782720565796,-0.0801211893558502,-0.2188852280378341,-0.0420544184744358,-0.1522661298513412,0.0,0.0,0.5193195608062524,-0.6662122396472092
-0.0269192699342966,1.2797205448150637,-0.071220614016056,-0.1807264387607574,-0.0482788830995559,-0.1245004758238792,0.0,0.0,-0.9896611983789264,-0.7792087636145618
-0.0277565959841012,1.2754805088043213,-0.0787869617342948,-0.1886201798915863,-0.0531834997236728,-0.0981008931994438,0.0,0.0,0.6104997080536261,-0.89046247091063
-0.0284962654113769,0.0,-0.0708218440413475,-0.1614549607038498,-0.0563000738620758,-0.062336940318346,0.0,0.0,0.8438775587251268,0.8117631747251058
-0.0290687568485736,1.2685420513153076,-0.0524688065052032,-0.1472228467464447,-0.061040673404932,-0.0948202535510063,0.0,0.0,-0.4116085896085693,-0.6922622098405808
-0.0297100059688091,1.2650636434555054,-0.0608905665576458,-0.1547295600175857,-0.064249075949192,-0.0641734898090362,0.0,0.0,0.1762337735493899,-0.7850413179550261
-0.0305015556514263,1.2621575593948364,-0.0772235319018364,-0.1292426288127899,-0.0661588683724403,-0.0381955541670322,0.0,0.0,0.2900797976981806,-0.8069954361015992
-0.0313166603446006,1.2599332332611084,-0.081055462360382,-0.0988783910870552,-0.0666101053357124,-0.0090247187763452,0.0,0.0,-0.4414228485315372,0.7385477432673568
-0.032086469233036,1.2575339078903198,-0.0752258747816085,-0.1067244485020637,-0.0683528482913971,-0.0348548851907253,0.0,0.0,0.9227120823875286,0.7237541124889317
-0.0329018607735633,1.256322145462036,-0.0777874812483787,-0.0540316738188266,-0.0720560178160667,-0.0740637853741645,0.0,0.0,0.6850626195803959,0.5560164314364631
-0.0336606986820697,1.2556719779968262,-0.070850595831871,-0.0291476752609014,-0.0770461708307266,-0.0998029634356498,0.0,0.0,0.889848391759261,0.6785120735433811
-0.0342681892216205,1.2562909126281738,-0.0542973205447196,0.0271686110645532,-0.0834347605705261,-0.12777179479599,0.0,0.0,-0.9615199565887452,-0.9910144209861756
-0.0349640846252441,1.2567373514175415,-0.0652961581945419,0.0195951852947473,-0.0876889452338218,-0.0850837454199791,0.0,0.0,-0.9835119247436525,-0.9915746450424194
-0.0357479080557823,1.257026433944702,-0.076279267668724,0.012728507630527,-0.0897732302546501,-0.0416855998337268,0.0,0.0,-0.9965007305145264,-0.6168397068977356
-0.0365851409733295,1.2571390867233276,-0.0829338207840919,0.0049538295716047,-0.0905656740069389,-0.0158488042652606,0.0,0.0,-0.9744430780410768,-0.8358806371688843
-0.0374855995178222,1.2570836544036863,-0.0908325240015983,-0.0024131524842232,-0.0897881388664245,0.0155510855838656,0.0,0.0,-0.9433656930923462,-0.6831402778625488
-0.0384368896484375,1.2568621635437012,-0.0972123071551323,-0.0097241569310426,-0.0877253636717796,0.0412554517388343,0.0,0.0,-0.9994121193885804,0.1717472076416015
-0.0393869392573833,1.2564620971679688,-0.097062811255455,-0.0176552217453718,-0.0856842622160911,0.0408219583332538,0.0,0.0,-0.996313750743866,-0.5824655890464783
-0.0403781905770301,1.2558939456939695,-0.1022786945104599,-0.0250785108655691,-0.0825612619519233,0.0624598786234855,0.0,0.0,-0.9921044111251832,-0.0458928346633911
-0.0413678176701068,1.2551473379135132,-0.1021150201559066,-0.0330098159611225,-0.0794296413660049,0.0626321509480476,0.0,0.0,-0.9937936663627625,-0.0283449292182922
-0.042355440557003,1.2542225122451782,-0.1019448861479759,-0.0409410335123539,-0.0762742310762405,0.0631082653999328,0.0,0.0,-0.9851493239402772,-0.6852432489395142
-0.0434041991829872,1.2531323432922363,-0.1097268089652061,-0.0482093095779418,-0.0714716836810112,0.0960509628057479,0.0,0.0,-0.9823801517486572,0.6367876529693604
-0.0443900115787982,1.2518560886383057,-0.1019521206617355,-0.0565680377185344,-0.0681435391306877,0.0665628761053085,0.0,0.0,-0.9959086775779724,0.4967577457427978
-0.0453733429312706,1.2504013776779177,-0.1017651334404945,-0.0644991248846054,-0.0647468417882919,0.0679339244961738,0.0,0.0,-0.9997816681861876,0.4643740653991699
-0.0463539138436317,1.2487684488296509,-0.1015733107924461,-0.0724301859736442,-0.0612672083079814,0.0695924907922744,0.0,0.0,-0.9995689988136292,-0.2433603405952453
-0.0473315231502056,1.2469569444656372,-0.1013770252466201,-0.0803612545132637,-0.0576906763017177,0.0715307518839836,0.0,0.0,-0.9988324642181396,0.981896162033081
-0.0482229217886924,1.2449500560760498,-0.0907383784651756,-0.0891399309039115,-0.0561091341078281,0.031630739569664,0.0,0.0,-0.9928641319274902,0.5852676630020142
-0.0490602478384971,1.242756962776184,-0.0841556638479232,-0.0974515005946159,-0.0556875616312027,0.0084312558174133,0.0,0.0,-0.9992853403091432,0.5572738647460938
-0.0498579964041709,1.2403883934020996,-0.0794317424297332,-0.1052828505635261,-0.0560309402644634,-0.0068674841895699,0.0,0.0,-0.9989022612571716,0.0508499145507812
-0.0506522171199321,1.2378413677215576,-0.0792206972837448,-0.1132127046585083,-0.0562264174222946,-0.0039096255786716,0.0,0.0,-0.9967074394226074,0.5003671646118164
-0.0514044761657714,1.2351109981536863,-0.0742256268858909,-0.1213861629366874,-0.0572238303720951,-0.0199484378099441,0.0,0.0,-0.9998608231544496,0.7084212303161621
-0.0520836822688579,1.2321960926055908,-0.0653136819601059,-0.1296565383672714,-0.0597971975803375,-0.0514674261212348,0.0,0.0,-0.9892719984054564,-0.7091745734214783
-0.0528200156986713,1.22911274433136,-0.0727769061923027,-0.1370695084333419,-0.0606431029736995,-0.016917910426855,0.0,0.0,-0.9994550347328186,0.2023448944091797
-0.0535522475838661,1.2258509397506714,-0.0725553855299949,-0.1449991762638092,-0.0612995252013206,-0.0131284911185503,0.0,0.0,-0.9938490390777588,0.682000994682312
-0.0542257316410541,1.222411870956421,-0.0655106827616691,-0.1529276221990585,-0.0631210282444953,-0.0364297516644001,0.0,0.0,-0.9961042404174804,0.7840025424957275
-0.0548177734017372,1.2187838554382324,-0.0556054189801216,-0.1613967567682266,-0.0666834264993667,-0.0712481290102005,0.0,0.0,-0.998357594013214,-0.1414856910705566
-0.0554054267704486,1.214977502822876,-0.055378146469593,-0.1693271994590759,-0.0700315311551094,-0.066962294280529,0.0,0.0,-0.9914773106575012,-0.1946651935577392
-0.0559885986149311,1.2109925746917725,-0.0551492199301719,-0.1772573739290237,-0.073158212006092,-0.0625338330864906,0.0,0.0,-0.996276557445526,0.0919059514999389
-0.0565670952200889,1.206829309463501,-0.0549187734723091,-0.1851873397827148,-0.076056882739067,-0.0579732879996299,0.0,0.0,-0.9954766631126404,0.1860120296478271
-0.057140827178955,1.202487230300903,-0.0546869114041328,-0.1931170970201492,-0.0787214189767837,-0.0532907433807849,0.0,0.0,-0.9598276019096376,-0.3403915166854858
-0.0577098838984966,1.1979665756225586,-0.0544537603855133,-0.2010466605424881,-0.0811461955308914,-0.048495627939701,0.0,0.0,-0.9920966029167176,0.4765509366989136
-0.0582739822566509,1.1932673454284668,-0.0542194247245788,-0.2089760303497314,-0.0833260416984558,-0.0435969904065132,0.0,0.0,-0.9915536046028136,0.016242504119873
-0.0588334091007709,1.188389539718628,-0.053983986377716,-0.2169052511453628,-0.085256204009056,-0.0386031605303287,0.0,0.0,-0.9915056228637696,0.3018331527709961
-0.0593877807259559,1.183332920074463,-0.0537475459277629,-0.2248342931270599,-0.0869322940707206,-0.0335219725966453,0.0,0.0,-0.9407910704612732,0.2988415956497192
-0.0599371902644634,1.1780977249145508,-0.0535101667046546,-0.2327632009983062,-0.0883503183722496,-0.0283605959266424,0.0,0.0,-0.9777025580406188,0.4934529066085815
-0.0604815483093261,1.1726837158203125,-0.0532719381153583,-0.2406919598579406,-0.0895066186785698,-0.0231258366256952,0.0,0.0,-0.96206933259964,0.7790930271148682
-0.0609721168875694,1.167084813117981,-0.0469085946679115,-0.2489673346281051,-0.091631107032299,-0.0424895659089088,0.0,0.0,-0.9493452906608582,0.3990501165390014
-0.0614576339721679,1.1613073348999023,-0.0466689094901084,-0.2568961977958679,-0.0934873968362808,-0.0371260531246662,0.0,0.0,-0.7128002643585205,0.0958253145217895
-0.0619378089904785,1.1553510427474976,-0.0464285500347614,-0.2648249268531799,-0.0950727239251136,-0.0317063704133033,0.0,0.0,-0.9154295325279236,0.5162855386734009
-0.0623700134456157,1.1492159366607666,-0.0408170893788337,-0.2728281319141388,-0.0974578112363815,-0.0477016568183898,0.0,0.0,-0.7061313390731812,0.4464563131332397
-0.0627970695495605,1.142902135848999,-0.0405756011605262,-0.2807569503784179,-0.0995669886469841,-0.0421836823225021,0.0,0.0,-0.9406851530075072,0.1338934898376464
-0.0632188767194747,1.1364095211029053,-0.0403335914015769,-0.2886855900287628,-0.1013981401920318,-0.036622829735279,0.0,0.0,-0.9696626663208008,0.8444442749023438
-0.0635654479265213,1.129729151725769,-0.0313116237521171,-0.2971386313438415,-0.1047185286879539,-0.0664077252149581,0.0,0.0,-0.9222685098648072,0.0065816640853881
-0.0639067664742469,1.1228699684143066,-0.0310688260942697,-0.3050676584243774,-0.1077571287751197,-0.0607720017433166,0.0,0.0,-0.9514586329460144,0.4636003971099853
-0.0642427429556846,1.1158320903778076,-0.0308256242424249,-0.3129964172840118,-0.1105123162269592,-0.0551037415862083,0.0,0.0,-0.9692562222480774,0.6630690097808838
-0.0645245537161827,1.1086021661758425,-0.024441847577691,-0.3216108083724975,-0.1142333969473838,-0.0744217336177825,0.0,0.0,-0.9892988204956056,0.0943646430969238
-0.0648011192679405,1.1011935472488403,-0.0241980552673339,-0.329539805650711,-0.1176682263612747,-0.0686966180801391,0.0,0.0,-0.9800004363059998,-0.0461286306381225
-0.0650723427534103,1.0936062335968018,-0.0239539593458175,-0.3374685049057007,-0.1208155676722526,-0.0629468038678169,0.0,0.0,-0.9860368967056274,-0.0084537267684936
-0.065338134765625,1.0858402252197266,-0.0237095952033996,-0.3453969657421112,-0.1236742958426475,-0.0571745224297046,0.0,0.0,-0.8882325887680054,0.3347584009170532
-0.0655985847115516,1.0778952836990356,-0.0234649870544672,-0.353325217962265,-0.1262433975934982,-0.0513816848397254,0.0,0.0,-0.8647529482841492,0.2317413091659546
-0.0658536925911903,1.0697715282440186,-0.0232201721519231,-0.3612532317638397,-0.1285218894481659,-0.0455701798200607,0.0,0.0,-0.8369485139846802,-0.5041564106941223
-0.0661519020795822,1.0614728927612305,-0.0290513280779123,-0.3688907921314239,-0.1292881816625595,-0.0153255956247448,0.0,0.0,-0.9141746759414672,0.0465850830078125
-0.0664447769522667,1.0529954433441162,-0.0288061387836933,-0.3768182396888733,-0.1297622621059417,-0.0094817569479346,0.0,0.0,-0.8180487155914307,0.1465692520141601
-0.0667322129011154,1.0443390607833862,-0.0285608563572168,-0.3847456276416778,-0.1299434602260589,-0.0036238890606909,0.0,0.0,-0.8346449732780457,-0.1706968545913696
-0.0670142173767089,1.0355037450790403,-0.0283155087381601,-0.3926730155944824,-0.1298311352729797,0.002246665302664,0.0,0.0,-0.9148991703987122,-0.0011848807334899
-0.0672907829284668,1.0264893770217896,-0.028070118278265,-0.4006003737449646,-0.1294247061014175,0.008128703571856,0.0,0.0,-0.721581220626831,-0.3693886995315552
-0.0675620064139366,1.0172961950302124,-0.0278247259557247,-0.4085278213024139,-0.1287236511707306,0.0140210464596748,0.0,0.0,-0.7958258390426636,-0.5602453947067261
-0.067870520055294,1.0079268217086792,-0.0329265482723712,-0.4162412583827972,-0.1266551911830902,0.0413689240813255,0.0,0.0,-0.8760136961936951,-0.169558048248291
-0.0681736022233963,0.9983784556388856,-0.032681293785572,-0.4241690337657928,-0.1242912411689758,0.0472788475453853,0.0,0.0,-0.9381288886070251,0.0795434713363647
-0.0684712380170822,0.9886513948440552,-0.0324361473321914,-0.4320969581604004,-0.1216314360499382,0.0531961694359779,0.0,0.0,-0.971959114074707,0.4322365522384643
-0.0687633529305458,0.9787454009056092,-0.0321911312639713,-0.440025120973587,-0.1186754405498504,0.0591199994087219,0.0,0.0,-0.9541172981262208,0.7252317667007446
-0.0689932852983474,0.9686557054519652,-0.024820689111948,-0.4482834637165069,-0.11685461550951,0.0364159867167472,0.0,0.0,-0.8628240823745728,0.1636582612991333
-0.0692177787423133,0.9583871960639954,-0.0245759207755327,-0.4562114179134369,-0.1147370859980583,0.0423505827784538,0.0,0.0,-0.9869891405105592,0.371170163154602
-0.0694367438554763,0.9479398727416992,-0.0243313685059547,-0.4641395211219787,-0.1123226135969162,0.0482894144952297,0.0,0.0,-0.9697580933570862,0.389017105102539
-0.0696502700448036,0.9373137354850768,-0.0240870658308267,-0.4720677733421325,-0.1096110120415687,0.0542318224906921,0.0,0.0,-0.9830609560012816,0.5693860054016113
-0.0698176398873329,0.926500678062439,-0.0187248587608337,-0.4804445207118988,-0.1076395511627197,0.0394293032586574,0.0,0.0,-0.9624292850494384,0.331345796585083
-0.0699796676635742,0.9155086278915404,-0.0184810943901538,-0.4883727729320526,-0.105370707809925,0.0453768000006675,0.0,0.0,-0.8809054493904114,0.5204081535339355
-0.0700967758893966,0.9043313264846802,-0.0132986679673194,-0.4966574907302856,-0.1038021966814994,0.0313701555132865,0.0,0.0,-0.9603188037872314,-0.7289050817489624
-0.0702772140502929,0.8929927945137024,-0.021696425974369,-0.5036880373954773,-0.1001798436045646,0.0724472552537918,0.0,0.0,-0.992037832736969,-0.2494434118270874
-0.0704523101449012,0.8814756274223328,-0.0214539282023906,-0.5116172432899475,-0.0962599441409111,0.0783978104591369,0.0,0.0,-0.9856539964675904,0.6381685733795166
-0.0705758109688758,0.8697777390480042,-0.0154352756217122,-0.5197122097015381,-0.0932000055909156,0.0611985847353935,0.0,0.0,-0.9394991993904114,0.346185564994812
-0.0706938728690147,0.8579010367393494,-0.0151937259361147,-0.5276412963867188,-0.0898426100611686,0.0671481564640998,0.0,0.0,-0.9226637482643129,0.5635347366333008
-0.0707640647888183,0.8458381295204163,-0.0096206357702612,-0.5359745621681213,-0.0872649773955345,0.0515523180365562,0.0,0.0,-0.907968521118164,0.0379987955093383
-0.0708289146423339,0.8335965275764465,-0.0093802642077207,-0.5439035296440125,-0.0843899846076965,0.0574993789196014,0.0,0.0,-0.9298755526542664,0.7066823244094849
-0.0708465576171875,0.821169376373291,-0.0039041792042553,-0.5521989464759827,-0.0822744667530059,0.0423104539513587,0.0,0.0,-0.9426021575927734,-0.4455755949020386
-0.070858858525753,0.8085635900497437,-0.0036652530543506,-0.5601279139518738,-0.0798619389533996,0.0482506267726421,0.0,0.0,-0.9570354223251344,-0.534443199634552
-0.0709038749337196,0.7957791090011597,-0.0082028871402144,-0.5680103898048401,-0.0761978849768638,0.0732813030481338,0.0,0.0,-0.9591875672340392,-0.275065004825592
-0.0709434524178505,0.7828159332275391,-0.0079658217728137,-0.5759401917457581,-0.0722372606396675,0.0792126730084419,0.0,0.0,-0.9594483375549316,0.4520304203033447
-0.0709777846932411,0.7696742415428162,-0.0077297901734709,-0.5838702917098999,-0.0679803192615509,0.0851385742425918,0.0,0.0,-0.948284149169922,0.3999447822570801
-0.0710066780447959,0.7563542127609253,-0.007494892925024,-0.5918007493019104,-0.0634273961186409,0.0910582169890403,0.0,0.0,-0.982552170753479,0.3216458559036255
-0.0710302367806434,0.7428557276725769,-0.0072612352669239,-0.5997314453125,-0.0585788711905479,0.0969707816839218,0.0,0.0,-0.936943531036377,0.7297918796539307
-0.0709913223981857,0.7291812300682068,0.0001473145675845,-0.6076177954673767,-0.054868746548891,0.0742022842168808,0.0,0.0,-0.9881691932678224,0.2681254148483276
-0.0709469765424728,0.7153281569480896,0.0003782318090088,-0.6155481934547424,-0.0508638471364975,0.0800981000065803,0.0,0.0,-0.989823043346405,0.1965714693069458
-0.0708973854780197,0.7012966871261597,0.0006075311102904,-0.6234788298606873,-0.0465646497905254,0.085984006524086,0.0,0.0,-0.9666202068328856,0.6480154991149902
-0.0708016380667686,0.6870850920677185,0.0059607597067952,-0.6315197348594666,-0.0429990142583847,0.0713126882910728,0.0,0.0,-0.9856407642364502,-0.373317003250122
-0.0707007423043251,0.6726950407028198,0.0061864010058343,-0.6394503712654114,-0.0391402468085289,0.0771756023168563,0.0,0.0,-0.8835490942001343,0.7037738561630249
-0.0705409049987793,0.6581229567527771,0.013142205774784,-0.6475750803947449,-0.0363390780985355,0.0560236871242523,0.0,0.0,-0.8108881115913391,0.7669000625610352
-0.0703127831220626,0.6433675289154053,0.0212983861565589,-0.655760645866394,-0.0348376892507076,0.0300275888293981,0.0,0.0,-0.6919987797737122,-0.4139745831489563
-0.0700795203447341,0.6284335851669312,0.0215171352028846,-0.6636905670166016,-0.0330453775823116,0.0358462631702423,0.0,0.0,-0.6642217040061951,-0.6597642302513123
-0.0698847770690918,0.6133262515068054,0.0162519440054893,-0.6713691353797913,-0.0298627894371747,0.0636518001556396,0.0,0.0,-0.7300683259963989,0.4973654747009277
-0.0696849822998046,0.5980404019355774,0.0164648685604333,-0.6792997717857361,-0.0263911392539739,0.0694330707192421,0.0,0.0,-0.4023001194000244,0.4119911193847656
