x_pos,y_pos,x_vel,y_vel,angle,ang_vel,leg_1,leg_2,main_booster,lat_booster
-0.001463794731535,1.4031449556350708,-0.1480301767587661,-0.3455625176429748,0.0014747475506737,0.0290695130825042,0.0,0.0,-0.2477644085884094,0.6920866966247559
-0.0028099059127271,1.394910216331482,-0.1343115270137787,-0.365989476442337,0.0011843177489936,-0.0058085396885871,0.0,0.0,-0.0010249614715576,0.2092432975769043
-0.0040985108353197,1.386195421218872,-0.1283327490091323,-0.3873248398303985,0.0006695591146126,-0.0102963121607899,0.0,0.0,-0.3249901533126831,0.5072727203369141
-0.0052989958785474,1.3769993782043457,-0.1185058131814003,-0.408712089061737,-0.0008579721325077,-0.0305534303188323,0.0,0.0,0.1801233291625976,0.3146767616271972
-0.0063526155427098,1.3680224418640137,-0.1040649265050888,-0.3989757895469665,-0.0021327051799744,-0.0254971124231815,0.0,0.0,-0.0303928852081298,0.2607088088989258
-0.0073534967377781,1.3585659265518188,-0.0986259654164314,-0.4202935099601745,-0.0035776814911514,-0.0289023369550704,0.0,0.0,-0.2393388748168945,0.6873564720153809
-0.0082514761015772,1.3486297130584717,-0.0868584066629409,-0.4416185617446899,-0.0064823324792087,-0.0580986253917217,0.0,0.0,-0.6155869960784912,0.2407755851745605
-0.0091004371643066,1.3382141590118408,-0.0818360447883606,-0.4629312753677368,-0.0095159392803907,-0.0606775097548961,0.0,0.0,-0.0584430694580078,-0.7077051997184753
-0.0099595068022608,1.3273274898529053,-0.0841691717505455,-0.483857125043869,-0.0112285008653998,-0.0342542864382267,0.0,0.0,-0.5766605734825134,0.460205078125
-0.0107739446684718,1.3159617185592651,-0.0796222314238548,-0.5051696300506592,-0.0130291581153869,-0.0360166691243648,0.0,0.0,-0.0763435959815979,-0.6333730220794678
-0.0115888593718409,1.3041174411773682,-0.0806946605443954,-0.5264155268669128,-0.0138195408508181,-0.0158090442419052,0.0,0.0,0.0086524486541748,-0.1248061060905456
-0.0123164178803563,1.2922766208648682,-0.0721148252487182,-0.5262674689292908,-0.0144500033929944,-0.0126103311777114,0.0,0.0,-0.5166676640510559,-0.6436445713043213
-0.0130464555695652,1.2799601554870603,-0.0733597427606582,-0.5473889708518982,-0.0141017558053135,0.0069654313847422,0.0,0.0,-0.6033287048339844,-0.6026122570037842
-0.0137842176482081,1.2671597003936768,-0.0751969292759895,-0.5689006447792053,-0.0126959700137376,0.0281183030456304,0.0,0.0,-0.3953540325164795,-0.148838996887207
-0.0144903184846043,1.2538796663284302,-0.0720577985048294,-0.5902129411697388,-0.0112685663625597,0.0285508092492818,0.0,0.0,-0.1790581941604614,-0.029564082622528
-0.0151678081601858,1.2401201725006104,-0.0692355632781982,-0.6115252375602722,-0.0097972592338919,0.0294289775192737,0.0,0.0,-0.6677690148353577,-0.6247565746307373
-0.0158576015383005,1.225888967514038,-0.0715105012059211,-0.6324829459190369,-0.0073040607385337,0.0498684272170066,0.0,0.0,-0.1660031080245971,-0.3993334770202636
-0.0165250785648822,1.2111783027648926,-0.0693620964884758,-0.6537956595420837,-0.0047249747440218,0.0515864267945289,0.0,0.0,-0.4656413793563843,-0.1058129668235778
-0.0171735771000385,1.1959882974624634,-0.0675660595297813,-0.6751086115837097,-0.0020386904943734,0.0537304356694221,0.0,0.0,0.0027142763137817,-0.4013843536376953
-0.0178545955568552,1.180834174156189,-0.0707273259758949,-0.6735153794288635,0.0005459989770315,0.0516989640891552,0.0,0.0,0.6340587139129639,-0.7019405364990234
-0.0184416770935058,1.1663211584091189,-0.0631695985794067,-0.6450251936912537,0.004965538624674,0.0883985608816146,0.0,0.0,-0.5173372626304626,0.3269336223602295
-0.0190203674137592,1.1513290405273438,-0.0625009313225746,-0.6663464307785034,0.0095496708527207,0.0916906148195266,0.0,0.0,-0.7577056288719177,0.5019549131393433
-0.0195461269468069,1.1358574628829956,-0.0561720505356788,-0.6876489520072937,0.0131057379767298,0.0711278244853019,0.0,0.0,-0.8498964905738831,0.7958798408508301
-0.020000647753477,1.119899034500122,-0.0474736914038658,-0.7092790603637695,0.0150989443063735,0.0398676618933677,0.0,0.0,-0.3196791410446167,-0.3362938165664673
-0.0204582214355468,1.1034613847732544,-0.0480010509490966,-0.7305923700332642,0.0173117071390151,0.0442592687904834,0.0,0.0,-0.3480521440505981,-0.0829634070396423
-0.0209226608276367,1.0865225791931152,-0.0489202700555324,-0.7528592944145203,0.0197597313672304,0.0489605069160461,0.0,0.0,0.1175240278244018,0.4022833108901977
-0.0214052200317382,1.069841742515564,-0.0510028600692749,-0.7414149641990662,0.0224709529429674,0.0542243793606758,0.0,0.0,0.0378714799880981,0.4205770492553711
-0.0219966880977153,1.0534560680389404,-0.0617742948234081,-0.7282890677452087,0.0250684823840856,0.0519506111741066,0.0,0.0,0.0315567255020141,0.3839422464370727
-0.0227010734379291,1.0373133420944214,-0.0729638710618019,-0.7174977660179138,0.0275692343711853,0.0500149950385093,0.0,0.0,0.2859532833099365,0.3182539939880371
-0.0234556198120117,1.0212597846984863,-0.0782138258218765,-0.7135468125343323,0.0302878059446811,0.0543716438114643,0.0,0.0,-0.762584924697876,0.5281333923339844
-0.0241950042545795,1.0047348737716677,-0.0759019702672958,-0.7344847917556763,0.0322287045419216,0.0388178043067455,0.0,0.0,-0.5709184408187866,0.2894911766052246
-0.0249662399291992,0.9877306818962096,-0.0794168040156364,-0.7557963728904724,0.0344876609742641,0.0451791658997535,0.0,0.0,-0.0989290475845336,0.7011516094207764
-0.0257259365171194,0.9702561497688292,-0.0773752406239509,-0.7766774296760559,0.0358716659247875,0.0276800151914358,0.0,0.0,0.41619873046875,0.7839765548706055
-0.0265360828489065,0.9527587294578552,-0.0810931995511055,-0.7776655554771423,0.0359494723379612,0.0015563687775284,0.0,0.0,0.6810461282730103,-0.6551389098167419
-0.0274476055055856,0.935738205909729,-0.0929426774382591,-0.7565110921859741,0.0377218350768089,0.0354470536112785,0.0,0.0,-0.5953876972198486,0.6626520156860352
-0.0283538810908794,0.9182464480400084,-0.091409757733345,-0.7774317860603333,0.0384951718151569,0.0154669154435396,0.0,0.0,0.8636441230773926,0.0707428455352783
-0.0293622016906738,0.901043713092804,-0.1018501743674278,-0.7646016478538513,0.0395003035664558,0.0201024916023015,0.0,0.0,-0.4342299699783325,0.4654399156570434
-0.0304272659122943,0.8833614587783813,-0.1079070568084716,-0.785913348197937,0.0408826172351837,0.0276462323963642,0.0,0.0,0.6952067613601685,0.9061026573181152
-0.03156204149127,0.8665074706077576,-0.1133678331971168,-0.749064028263092,0.0407769344747066,-0.0021135238930583,0.0,0.0,-0.4515072107315063,0.3192081451416015
-0.0327612869441509,0.8491740822792053,-0.1202228069305419,-0.7703757882118225,0.0410639345645904,0.0057400721125304,0.0,0.0,0.4544423818588257,-0.2343738079071045
-0.03415098041296,0.8323830366134644,-0.1392269432544708,-0.7462742328643799,0.041315883398056,0.0050387033261358,0.0,0.0,-0.7839913368225098,0.6357498168945312
-0.0355521216988563,0.8151151537895203,-0.1392388641834259,-0.7674404382705688,0.0404503978788852,-0.0173095613718032,0.0,0.0,-0.8202481865882874,0.6972196102142334
-0.0369647033512592,0.7973641157150269,-0.1391655951738357,-0.7888777256011963,0.0383878573775291,-0.041250891983509,0.0,0.0,0.2333619594573974,-0.0088006258010864
-0.0383974090218544,0.7797297835350037,-0.1419539153575897,-0.7837196588516235,0.037086721509695,-0.0260229501873254,0.0,0.0,0.5027767419815063,0.9700982570648192
-0.0398876182734966,0.762008011341095,-0.1461394876241684,-0.7875617742538452,0.0342405848205089,-0.0569228827953338,0.0,0.0,0.3014624118804931,0.8818310499191284
-0.041361141949892,0.7441985607147217,-0.1431595981121063,-0.7914413213729858,0.0301042273640632,-0.0827271342277526,0.0,0.0,0.2114193439483642,0.9603073596954346
-0.0428048148751258,0.7264019846916199,-0.1386999785900116,-0.7908560037612915,0.0245058294385671,-0.1119682341814041,0.0,0.0,0.4146651029586792,-0.2912074327468872
-0.0444540008902549,0.7091935276985168,-0.1592462956905365,-0.7647382616996765,0.0189008191227912,-0.1121000051498413,0.0,0.0,0.7704098224639893,0.4925216436386108
-0.0463560111820697,0.6927686929702759,-0.1843097507953643,-0.7299282550811768,0.013080982491374,-0.1163967102766037,0.0,0.0,-0.8044334650039673,0.975881576538086
-0.0482810027897357,0.6758637428283691,-0.1851595342159271,-0.7512855529785156,0.0058355648070573,-0.1449083834886551,0.0,0.0,-0.9874916672706604,0.9620333909988404
-0.0502119064331054,0.6584807634353638,-0.1837997734546661,-0.772566020488739,-0.0033281310461461,-0.1832741647958755,0.0,0.0,-0.8598848581314087,0.4427508115768432
-0.0522454269230365,0.6406193971633911,-0.1945226639509201,-0.7938833236694336,-0.0120378909632563,-0.1741948574781417,0.0,0.0,-0.3142197132110595,0.6134500503540039
-0.0543265342712402,0.6222752332687378,-0.1982939690351486,-0.815409243106842,-0.0217320080846548,-0.1938826739788055,0.0,0.0,0.3907926082611084,0.0680377483367919
-0.0564976707100868,0.6044594049453735,-0.2077715694904327,-0.791973888874054,-0.0309535581618547,-0.1844310760498047,0.0,0.0,0.1916484832763672,0.4185758829116821
-0.058659840375185,0.5866873264312744,-0.2078568637371063,-0.7900678515434265,-0.0392151325941085,-0.1652311384677887,0.0,0.0,0.2618303298950195,0.6105809211730957
-0.0609517097473144,0.568975031375885,-0.2199256718158722,-0.7874810695648193,-0.048371247947216,-0.1831224113702774,0.0,0.0,-0.0373482108116149,0.9333891868591307
-0.0632715225219726,0.5507866144180298,-0.2210109680891037,-0.8087607622146606,-0.0592054352164268,-0.2166837453842163,0.0,0.0,-0.5248963832855225,-0.3430017828941345
-0.0657063499093055,0.532119870185852,-0.2330115735530853,-0.830078661441803,-0.0695697888731956,-0.20728699862957,0.0,0.0,0.9880938529968262,0.1471186876296997
-0.068099595606327,0.5144477486610413,-0.2297464907169342,-0.7859018445014954,-0.0790464431047439,-0.1895330399274826,0.0,0.0,-0.5592523813247681,0.917910933494568
-0.0705476775765419,0.4962974488735199,-0.2341055124998092,-0.8072807192802429,-0.0896444842219352,-0.2119607925415039,0.0,0.0,0.8902621269226074,0.8727278709411621
-0.0729453116655349,0.4782761335372925,-0.2279233038425445,-0.8016943335533142,-0.101385973393917,-0.2348295748233795,0.0,0.0,0.8716604709625244,0.5414435863494873
-0.0754611939191818,0.4609771966934204,-0.2388109266757965,-0.7697566151618958,-0.1140752807259559,-0.2537861466407776,0.0,0.0,-0.0245410203933715,0.8988351821899414
-0.078014850616455,0.4431836903095245,-0.2409159243106842,-0.7919923663139343,-0.1284491419792175,-0.2874773144721985,0.0,0.0,0.487218976020813,0.5723025798797607
-0.0805541053414344,0.4257211685180664,-0.2388794720172882,-0.7774733304977417,-0.1434333771467209,-0.2996847033500671,0.0,0.0,0.1302709579467773,0.7461903095245361
-0.0831152945756912,0.4081692099571228,-0.2400994300842285,-0.7817090749740601,-0.1594271510839462,-0.3198758959770202,0.0,0.0,0.7287547588348389,0.8118746280670166
-0.0857818573713302,0.3910753726959228,-0.249275729060173,-0.7616795897483826,-0.1768305450677871,-0.3480674922466278,0.0,0.0,0.6611925363540649,0.6600179672241211
-0.0883486717939376,0.3747633993625641,-0.2385789453983307,-0.7272369861602783,-0.1950185596942901,-0.3637606501579284,0.0,0.0,0.6153450012207031,0.3646798133850097
-0.0909094810485839,0.3583722412586212,-0.2388720959424972,-0.7308542728424072,-0.2123538106679916,-0.3467050790786743,0.0,0.0,0.8756322860717773,0.0058763027191162
-0.0933648124337196,0.3429153561592102,-0.2290137261152267,-0.6894325017929077,-0.2290654629468917,-0.3342330157756805,0.0,0.0,0.819002628326416,-0.1506524085998535
-0.0959323868155479,0.3277778327465057,-0.2403105050325393,-0.6754249930381775,-0.2457747012376785,-0.3341845273971557,0.0,0.0,0.5572737455368042,-0.6313257217407227
-0.0986145958304405,0.3131462037563324,-0.2533426582813263,-0.6528536677360535,-0.2609309256076813,-0.3031249642372131,0.0,0.0,0.7227623462677002,-0.4951252937316894
-0.1012296676635742,0.2989643216133117,-0.2473100125789642,-0.6328991651535034,-0.2754574120044708,-0.2905296981334686,0.0,0.0,0.8077208995819092,-0.720211923122406
-0.1039258018136024,0.2857307195663452,-0.2570469677448272,-0.5905786752700806,-0.2883747220039367,-0.2583459615707397,0.0,0.0,0.093187928199768,-0.463884949684143
-0.1065994277596473,0.2725467085838318,-0.2555297911167145,-0.5883482098579407,-0.3005865514278412,-0.2442365139722824,0.0,0.0,0.4932223558425903,-0.4560539126396179
-0.1093310341238975,0.2594031095504761,-0.2616881430149078,-0.586577296257019,-0.3124592900276184,-0.2374548465013504,0.0,0.0,0.8176308870315552,-0.9152205586433412
-0.1120784729719162,0.2462757229804992,-0.2656846642494201,-0.5854174494743347,-0.3218621015548706,-0.1880559474229812,0.0,0.0,0.8778555393218994,-0.3610326051712036
-0.1148725524544715,0.2332339584827423,-0.2706772089004516,-0.5816010236740112,-0.330952376127243,-0.1818056106567382,0.0,0.0,0.9023056030273438,-0.5646988749504089
-0.117555521428585,0.2210384905338287,-0.2611308395862579,-0.543677031993866,-0.3384333848953247,-0.1496207118034362,0.0,0.0,0.8791389465332031,-0.8432326316833496
-0.1200324073433876,0.2096660733222961,-0.2428392469882965,-0.5065900683403015,-0.343510627746582,-0.1015446782112121,0.0,0.0,0.968604326248169,-0.8383895754814148
-0.1225149184465408,0.1993025839328766,-0.2452240735292434,-0.4613229930400848,-0.3466836214065552,-0.0634599477052688,0.0,0.0,0.9354077577590942,0.1480710506439209
-0.125144675374031,0.1890822201967239,-0.2597289681434631,-0.4550195634365082,-0.3500828146934509,-0.0679839700460434,0.0,0.0,0.6499049663543701,0.3081834316253662
-0.1276024878025055,0.1794719845056533,-0.2431766539812088,-0.4277593493461609,-0.3528219163417816,-0.0547819323837757,0.0,0.0,0.9329352378845216,-0.3581012487411499
-0.1300759315490722,0.1703893691301345,-0.2446705400943756,-0.4043310284614563,-0.3556368947029114,-0.0562994852662086,0.0,0.0,0.6989052295684814,-0.2152132987976074
-0.1324969232082367,0.1618347018957138,-0.2396185398101806,-0.3808222711086273,-0.3582415282726288,-0.0520928911864757,0.0,0.0,0.9362294673919678,0.3799607753753662
-0.134781077504158,0.1539570838212967,-0.2263352870941162,-0.3506420254707336,-0.3604415357112884,-0.0440000891685485,0.0,0.0,0.5116657018661499,0.409806489944458
-0.1369406729936599,0.1463027149438858,-0.2146622389554977,-0.3405188620090484,-0.3618046641349792,-0.0272628217935562,0.0,0.0,0.9841516017913818,-0.4859495162963867
-0.1390659362077713,0.1387282907962799,-0.2118056267499923,-0.3368241488933563,-0.3625701367855072,-0.0153095675632357,0.0,0.0,0.7769613265991211,-0.8123648762702942
-0.1411342620849609,0.131249651312828,-0.2083223313093185,-0.332008421421051,-0.3610051870346069,0.0312988236546516,0.0,0.0,0.9077870845794678,-0.2731533050537109
-0.1429490149021148,0.1241248473525047,-0.184132233262062,-0.3159918785095215,-0.3581924140453338,0.056255716830492,0.0,0.0,0.9425387382507324,-0.0688974857330322
-0.1445856988430023,0.117083728313446,-0.1675013154745102,-0.3119887411594391,-0.3541617095470428,0.0806142836809158,0.0,0.0,0.927582859992981,-0.0745611190795898
-0.1460628509521484,0.1107979118824005,-0.1519534140825271,-0.2783341407775879,-0.3497042059898376,0.0891504511237144,0.0,0.0,0.9541786909103394,-0.7995376586914062
-0.1473909318447113,0.1053126901388168,-0.1391367763280868,-0.2422606498003006,-0.3430604636669159,0.1328751146793365,0.0,0.0,0.8963710069656372,-0.473001480102539
-0.1484648734331131,0.1003561094403266,-0.11480712890625,-0.2185467183589935,-0.3353033065795898,0.1551434099674224,0.0,0.0,0.8521544933319092,-0.7661246657371521
-0.149498850107193,0.0953988134860992,-0.1130018234252929,-0.218123510479927,-0.3252782821655273,0.2005002796649933,0.0,0.0,0.9151936769485474,-0.5479860901832581
-0.150584414601326,0.0908509343862533,-0.1195255517959594,-0.1997072249650955,-0.3138737678527832,0.2280904948711395,0.0,0.0,0.8891162872314453,-0.2756376266479492
-0.1514109671115875,0.0871861800551414,-0.0945253074169159,-0.1603596210479736,-0.3015786707401275,0.2459021806716919,0.0,0.0,0.6696730852127075,-0.9029935002326964
-0.1522972136735916,0.0839093774557113,-0.1027089729905128,-0.1427803933620453,-0.2870447933673858,0.2906775772571563,0.0,0.0,0.7815532684326172,-0.7171161770820618
-0.1532705277204513,0.0814808011054992,-0.1130122914910316,-0.1049336716532707,-0.2709323763847351,0.3222482204437256,0.0,0.0,0.5508794784545898,0.6211919784545898
-0.1540721952915191,0.0794689282774925,-0.0952971875667572,-0.0866923257708549,-0.2554481625556946,0.3096845746040344,0.0,0.0,0.181835651397705,0.1678776741027832
-0.1549119055271148,0.0777724832296371,-0.0994231253862381,-0.0727796703577041,-0.2397137284278869,0.3146886229515075,0.0,0.0,0.0289210081100463,0.8732926845550537
-0.1557686775922775,0.0762810334563255,-0.0998798757791519,-0.0640382841229438,-0.2253100723028183,0.2880732417106628,0.0,0.0,-0.0621631741523742,0.9551126956939696
-0.1566919386386871,0.0742840394377708,-0.1051543727517128,-0.0868503004312515,-0.2123360484838485,0.2594804167747497,0.0,0.0,-0.0919196009635925,0.9897348880767822
-0.1576895713806152,0.0717894434928894,-0.1114462986588478,-0.1092376559972763,-0.2005543559789657,0.2356339246034622,0.0,0.0,0.0433055162429809,0.7954578399658203
-0.1588043272495269,0.0693145841360092,-0.1219593435525894,-0.1086073815822601,-0.1900057345628738,0.2109728753566742,0.0,0.0,-0.1244629621505737,0.8732466697692871
-0.1599742919206619,0.0663424804806709,-0.1258434653282165,-0.1309792250394821,-0.1811141967773437,0.1778308600187301,0.0,0.0,-0.049558401107788,0.9653754234313964
-0.1611976623535156,0.0628599748015403,-0.1294638812541961,-0.1539276391267776,-0.1739673018455505,0.1429377943277359,0.0,0.0,0.3985464572906494,0.9778057336807252
-0.1622275412082672,0.0598023980855941,-0.1086547821760177,-0.1352404803037643,-0.1682924032211303,0.1134976148605346,0.0,0.0,0.5426265001296997,0.9623900651931764
-0.1632181107997894,0.0573311895132064,-0.1031602621078491,-0.1093736663460731,-0.1641863882541656,0.0821205824613571,0.0,0.0,0.1906776428222656,0.9634110927581788
-0.1640458106994629,0.0552538000047206,-0.0853478163480758,-0.0920444503426551,-0.1616125106811523,0.0514775887131691,0.0,0.0,0.226525068283081,0.8345906734466553
-0.1648078858852386,0.0533017255365848,-0.0775233954191207,-0.086615614593029,-0.1602952778339386,0.0263446271419525,0.0,0.0,0.2168161869049072,0.8653671741485596
-0.1655435562133789,0.0517535544931888,-0.0735134035348892,-0.0688153728842735,-0.1603539437055587,-0.0011731820413842,0.0,0.0,-0.0430477857589721,0.9550247192382812
-0.166327565908432,0.0497135743498802,-0.0765928253531456,-0.0908634811639785,-0.1621659249067306,-0.0362397208809852,0.0,0.0,0.5174155235290527,0.9368685483932496
-0.1670186966657638,0.0477739423513412,-0.0658472776412963,-0.0865646451711654,-0.1654281169176101,-0.0652442425489425,0.0,0.0,0.3377487659454345,0.8908751010894775
-0.1677989065647125,0.0461071841418743,-0.0732112899422645,-0.0746214464306831,-0.1702422350645065,-0.0962824821472168,0.0,0.0,0.572725772857666,0.9402108192443848
-0.1686875373125076,0.0446988455951213,-0.0823268592357635,-0.063356302678585,-0.1767884343862533,-0.1309243589639663,0.0,0.0,0.5627855062484741,0.961024284362793
-0.1695574820041656,0.043583832681179,-0.0788328871130943,-0.0505464151501655,-0.1849807947874069,-0.1638472378253936,0.0,0.0,0.6336722373962402,0.8437120914459229
-0.1703628599643707,0.0427396148443222,-0.0710413604974746,-0.0387320965528488,-0.1945260316133499,-0.1909047663211822,0.0,0.0,0.5551354885101318,0.6330686807632446
-0.1710476875305175,0.0418557040393352,-0.0583101399242877,-0.0406535491347312,-0.2047699689865112,-0.2048788964748382,0.0,0.0,0.624515175819397,0.4464311599731445
-0.1716248542070388,0.0414510108530521,-0.0482721850275993,-0.0193200353533029,-0.2142987698316574,-0.1905759274959564,0.0,0.0,0.4172502756118774,0.5953083038330078
-0.1721063554286956,0.0415647365152835,-0.0378566309809684,0.0035263106692582,-0.2247120290994644,-0.2082655429840088,0.0,0.0,0.2765953540802002,0.2475767135620117
