x_pos,y_pos,x_vel,y_vel,angle,ang_vel,leg_1,leg_2,main_booster,lat_booster
-0.0014286041259765,1.4030210971832275,-0.1445522457361221,-0.3510748147964477,0.0015089994994923,0.0297477487474679,0.0,0.0,0.1318006515502929,0.8197677135467529
-0.0026579857803881,1.3950117826461792,-0.122626207768917,-0.355970025062561,0.0011991467326879,-0.0061966478824615,0.0,0.0,-0.2593051195144653,0.249630331993103
-0.0037941932678222,1.386398196220398,-0.1131293550133705,-0.3828216791152954,0.0007071294239722,-0.0098412856459617,0.0,0.0,0.2342311143875122,0.3088831901550293
-0.0049280165694653,1.3777408599853516,-0.1122734770178794,-0.3847678303718567,-0.0003851614310406,-0.0218478608876466,0.0,0.0,-0.1667633056640625,0.633216381072998
-0.0059109688736498,1.3684818744659424,-0.0954901129007339,-0.4115109443664551,-0.0031609036959707,-0.0555201172828674,0.0,0.0,-0.2700672745704651,0.2570774555206299
-0.0068050385452806,1.3586196899414062,-0.0864464491605758,-0.4383333027362823,-0.0060891672037541,-0.0585707612335681,0.0,0.0,-0.0838181376457214,-0.1711319088935852
-0.0076117515563964,1.3481539487838743,-0.0775737985968589,-0.4651578068733215,-0.0091601992025971,-0.0614258758723735,0.0,0.0,-0.5548309683799744,-0.3572052717208862
-0.0083329202607274,1.3370848894119265,-0.0688807293772697,-0.4919828176498413,-0.0123625732958316,-0.0640533119440078,0.0,0.0,-0.2534586191177368,-0.7139289975166321
-0.0090276720002293,1.3254210948944092,-0.0675641968846321,-0.5184042453765869,-0.0142421666532754,-0.0375951901078224,0.0,0.0,-0.6022511720657349,-0.4599388837814331
-0.0096404077485203,1.3131539821624756,-0.0592638067901134,-0.5452290773391724,-0.0162304155528545,-0.0397688187658786,0.0,0.0,-0.736650288105011,-0.8919322490692139
-0.0102334022521972,1.3002854585647583,-0.0587270073592662,-0.5719440579414368,-0.0167990047484636,-0.0113728484138846,0.0,0.0,-0.7934616804122925,-0.765779435634613
-0.010801887139678,1.2868130207061768,-0.0575432293117046,-0.5987641215324402,-0.0161113888025283,0.0137536581605672,0.0,0.0,-0.5535120368003845,-0.8556517958641052
-0.0113475797697901,1.272742748260498,-0.0565354600548744,-0.6253218054771423,-0.0141637260094285,0.0389570370316505,0.0,0.0,-0.2262852191925048,-0.7050469517707825
-0.0118691446259617,1.258063554763794,-0.0553224310278892,-0.6523814797401428,-0.0110350186005234,0.0625797361135482,0.0,0.0,-0.5176081657409668,-0.6177561283111572
-0.0123570440337061,1.2427880764007568,-0.052856545895338,-0.6788882613182068,-0.0070102140307426,0.0805032849311828,0.0,0.0,-0.6265760660171509,-0.6788569092750549
-0.0128201488405466,1.2269017696380615,-0.05147385597229,-0.706043004989624,-0.0019121011719107,0.1019716709852218,0.0,0.0,-0.697719931602478,-0.2471154332160949
-0.0132173541933298,1.2104122638702393,-0.0448584146797657,-0.732869565486908,0.0031719997059553,0.1016909703612327,0.0,0.0,-0.5309025645256042,0.1058700084686279
-0.0135511402040719,1.19331955909729,-0.0385178737342357,-0.7596961259841919,0.0082575688138604,0.1017204076051712,0.0,0.0,-0.4362237453460693,0.6200408935546875
-0.0137673374265432,1.1756300926208496,-0.0253305938094854,-0.7862233519554138,0.0119299665093421,0.0734548941254615,0.0,0.0,0.0084911584854125,0.5378217697143555
-0.0139419557526707,1.1578550338745115,-0.0200463570654392,-0.7900315523147583,0.0144799379631876,0.0510040000081062,0.0,0.0,0.3478394746780395,0.0733629465103149
-0.0139661785215139,1.1403985023498535,-0.0055437698028981,-0.7758764624595642,0.0175638180226087,0.0616830773651599,0.0,0.0,-0.219025433063507,0.658360481262207
-0.0138851162046194,1.1223361492156982,0.0062795737758278,-0.8027952313423157,0.0193773414939641,0.0362736023962497,0.0,0.0,-0.2578134536743164,-0.1548652052879333
-0.0137546537443995,1.103670358657837,0.0111340647563338,-0.8296170830726624,0.021271439269185,0.037885196506977,0.0,0.0,0.3471510410308838,0.1044095754623413
-0.0135262487456202,1.0847846269607544,0.0205561257898807,-0.8394002318382263,0.0235254969447851,0.0450850911438465,0.0,0.0,0.1994802951812744,0.2297805547714233
-0.0133687974885106,1.0659923553466797,0.0138414856046438,-0.8352406620979309,0.0254129357635974,0.03775205463171,0.0,0.0,0.5974750518798828,0.0521057844161987
-0.0133289340883493,1.047590732574463,0.0026040622033178,-0.8178770542144775,0.0267765820026397,0.0272729750722646,0.0,0.0,0.7512127161026001,0.0537202358245849
-0.0132686616852879,1.029740333557129,0.0044863107614219,-0.7933772206306458,0.0283030048012733,0.0305285211652517,0.0,0.0,-0.3342073559761047,0.4464753866195678
-0.0131745338439941,1.0112866163253784,0.0077079101465642,-0.8202005624771118,0.0299895070493221,0.0337299481034278,0.0,0.0,0.5707147121429443,0.0226796865463256
-0.0131958005949854,0.9933281540870668,-0.003432085039094,-0.7981875538825989,0.0312779396772384,0.0257685482501983,0.0,0.0,0.2340608835220337,0.3712739944458008
-0.0132167814299464,0.975311279296875,-0.003515416290611,-0.8007741570472717,0.0326851867139339,0.0281450115144252,0.0,0.0,0.1537306308746338,0.7153778076171875
-0.01316156424582,0.9575890898704528,0.0053146653808653,-0.7876583337783813,0.0328913442790508,0.0041229659691452,0.0,0.0,0.2038624286651611,0.4546681642532348
-0.013152408413589,0.939739465713501,0.0007423924980685,-0.7933229804039001,0.0330568626523017,0.00331039307639,0.0,0.0,-0.0911992788314819,0.7626388072967529
-0.0130735393613576,0.9212961792945862,0.0088014248758554,-0.8196842074394226,0.0321487002074718,-0.0181629676371812,0.0,0.0,0.4860696792602539,0.314253568649292
-0.0130477901548147,0.902733027935028,0.0035101089160889,-0.8250078558921814,0.0312257967889308,-0.0184581037610769,0.0,0.0,0.6167078018188477,0.0462082624435424
-0.0130138397216796,0.8844873905181885,0.0039978520944714,-0.8109014630317688,0.0306408777832984,-0.0116985077038407,0.0,0.0,0.4605430364608764,0.6527330875396729
-0.012922572903335,0.8666490912437439,0.0107101881876587,-0.7927853465080261,0.0290699452161788,-0.031418602913618,0.0,0.0,0.0454239845275878,0.0543817281723022
-0.012850952334702,0.848638653755188,0.0085368584841489,-0.800440788269043,0.0277129709720611,-0.0271396450698375,0.0,0.0,0.1885042190551757,-0.1638634204864502
-0.0127647398039698,0.8308469653129578,0.0095637021586298,-0.7907242178916931,0.0267859827727079,-0.0185398701578378,0.0,0.0,0.2913711071014404,0.3522396087646484
-0.0127273555845022,0.8134381771087646,0.0044992198236286,-0.7737085819244385,0.0260321423411369,-0.0150768356397748,0.0,0.0,0.0654253959655761,0.2953128814697265
-0.0126852989196777,0.7960145473480225,0.0045462334528565,-0.7743772864341736,0.0256896559149026,-0.0068497345782816,0.0,0.0,-0.2023098468780517,0.6613417863845825
-0.0126066207885742,0.7779948115348816,0.0089765693992376,-0.8008605241775513,0.0246027093380689,-0.0217389911413192,0.0,0.0,0.1176669597625732,0.5994555950164795
-0.0124048236757516,0.7599064707756042,0.0219908840954303,-0.803893506526947,0.0228144116699695,-0.0357658341526985,0.0,0.0,-0.3993023037910461,0.2430731058120727
-0.0122144697234034,0.7412148118019104,0.020472664386034,-0.8307172656059265,0.0213852599263191,-0.0285828709602355,0.0,0.0,0.2038124799728393,-0.1043531894683837
-0.0119743347167968,0.7224997282028198,0.0247603859752416,-0.8317699432373047,0.0206597000360488,-0.0145114688202738,0.0,0.0,0.5273634195327759,0.0107179880142211
-0.0117938043549656,0.7035883665084839,0.0185778904706239,-0.8404963612556458,0.0201385002583265,-0.0104237925261259,0.0,0.0,0.362168550491333,0.6987869739532471
-0.0115402219817042,0.6844825744628906,0.0268222242593765,-0.8491243720054626,0.0186843462288379,-0.0290829129517078,0.0,0.0,0.6082814931869507,0.0935455560684204
-0.0112567897886037,0.6654276251792908,0.0291449911892414,-0.8468806743621826,0.0179003607481718,-0.0156798940151929,0.0,0.0,0.5046334266662598,0.3572801351547241
-0.0111125949770212,0.6469051837921143,0.0152803137898445,-0.823205828666687,0.0170462522655725,-0.0170823223888874,0.0,0.0,0.3085548877716064,0.8095874786376953
-0.0110597610473632,0.6287214159965515,0.0074915313161909,-0.808144211769104,0.0148611888289451,-0.0437011532485485,0.0,0.0,-0.262987732887268,-0.0174373388290405
-0.0110345836728811,0.6099343299865723,0.0043114675208926,-0.834967851638794,0.0130942175164818,-0.0353395119309425,0.0,0.0,0.3734561204910278,0.0430799722671508
-0.0109258648008108,0.59125816822052,0.0116776879876852,-0.8300464749336243,0.0123036950826644,-0.0158108510076999,0.0,0.0,0.265042781829834,0.1194120645523071
-0.0108994487673044,0.572823703289032,0.003215707372874,-0.8193009495735168,0.0117403445765376,-0.0112668573856353,0.0,0.0,0.4985322952270508,0.0544393062591552
-0.0108116148039698,0.5543925166130066,0.0084468768909573,-0.8191694021224976,0.0120728127658367,0.0066491640172898,0.0,0.0,0.6196308135986328,0.2355899810791015
-0.0107646938413381,0.5365307927131653,0.0038871329743415,-0.7938609719276428,0.0128624709323048,0.0157932676374912,0.0,0.0,0.1944564580917358,0.0265276432037353
-0.0106508256867527,0.5185964703559875,0.0096249030902981,-0.79709792137146,0.0145984599366784,0.0347197204828262,0.0,0.0,0.5810275077819824,0.1064798831939697
-0.0106727601960301,0.5007330179214478,-0.0039742030203342,-0.7939483523368835,0.0163644049316644,0.0353189632296562,0.0,0.0,0.5941333770751953,0.0414429903030395
-0.0106554981321096,0.4834218323230743,-0.0009537527221255,-0.7694170475006104,0.0190075263381004,0.0528623275458812,0.0,0.0,0.6844940185546875,0.367264986038208
-0.0105509757995605,0.4665426611900329,0.006649306975305,-0.7502360939979553,0.0227634254842996,0.0751179903745651,0.0,0.0,-0.1778022646903991,0.5497605800628662
-0.0104391099885106,0.4490676820278168,0.0081509500741958,-0.7767160534858704,0.0257556829601526,0.0598452389240264,0.0,0.0,0.766049861907959,-0.0028817057609558
-0.010472965426743,0.4322458505630493,-0.0065057836472988,-0.7476943135261536,0.0288410075008869,0.0617064610123634,0.0,0.0,0.8698478937149048,0.7509920597076416
-0.0104399677366018,0.4154479503631592,0.0010625241557136,-0.7466177344322205,0.0310474745929241,0.044129092246294,0.0,0.0,0.9191241264343262,0.5174076557159424
-0.0105592729523777,0.3992671370506286,-0.0132282124832272,-0.7191713452339172,0.0323333926498889,0.0257183462381362,0.0,0.0,0.9849731922149658,0.5783435106277466
-0.0105405803769826,0.3834231495857239,0.0007910622516646,-0.7042039036750793,0.033398974686861,0.0213115513324737,0.0,0.0,0.7710182666778564,0.5025529861450195
-0.0105234142392873,0.367964893579483,0.0010750938672572,-0.6870468854904175,0.0340246520936489,0.0125136021524667,0.0,0.0,0.6278021335601807,0.3782395124435425
-0.01055908203125,0.3524959087371826,-0.0047172456979751,-0.6875396966934204,0.0351706705987453,0.0229203309863805,0.0,0.0,0.9294439554214478,0.3043841123580932
-0.0108108520507812,0.3374506533145904,-0.0261622183024883,-0.6687004566192627,0.0361349247395992,0.0192851647734642,0.0,0.0,0.978639841079712,0.6212756633758545
-0.0110713960602879,0.3233498930931091,-0.0263509936630725,-0.6267055869102478,0.0364263914525508,0.0058293980546295,0.0,0.0,0.9017372131347656,0.9392904043197632
-0.0112136844545602,0.3091490566730499,-0.0133132291957736,-0.6311252117156982,0.0355243608355522,-0.0180407203733921,0.0,0.0,0.9904676675796508,0.7477669715881348
-0.0113472938537597,0.2959005236625671,-0.0115249985828995,-0.5887841582298279,0.0337104201316833,-0.0362788289785385,0.0,0.0,0.9217121601104736,0.7948559522628784
-0.0116049768403172,0.2828678488731384,-0.0225756783038377,-0.5791619420051575,0.0305509213358163,-0.0631897300481796,0.0,0.0,0.9343339204788208,0.830909252166748
-0.0119883539155125,0.2704217433929443,-0.0337150990962982,-0.5530716776847839,0.0259888637810945,-0.091241106390953,0.0,0.0,0.942835569381714,0.4243417978286743
-0.0124042509123682,0.2584713995456695,-0.0376484915614128,-0.5310633778572083,0.0220912415534257,-0.077952541410923,0.0,0.0,0.832908034324646,0.2075357437133789
-0.0130337718874216,0.2473182827234268,-0.0588285215198993,-0.4956414997577667,0.0180307179689407,-0.0812108069658279,0.0,0.0,-0.1517151594161987,-0.193445086479187
-0.0137131689116358,0.2355619072914123,-0.064330443739891,-0.5224663615226746,0.0144692910835146,-0.0712286978960037,0.0,0.0,0.4730756282806396,0.303068995475769
-0.0144776348024606,0.2237245589494705,-0.0732013285160064,-0.5260738730430603,0.0112686734646558,-0.0640123263001442,0.0,0.0,0.7754528522491455,0.7612888813018799
-0.0151556972414255,0.2118023186922073,-0.0637068226933479,-0.529853105545044,0.0072220815345644,-0.080931931734085,0.0,0.0,0.9300580024719238,0.8254909515380859
-0.0158613212406635,0.1998637020587921,-0.0652237683534622,-0.5305884480476379,0.0019504976226016,-0.1054314970970153,0.0,0.0,0.864008903503418,0.0986484289169311
-0.0166276935487985,0.1886642277240753,-0.0717603117227554,-0.4977539479732513,-0.0028634017799049,-0.0962779894471168,0.0,0.0,0.8079466819763184,-0.5191366672515869
-0.0173888206481933,0.1782054752111435,-0.0730618089437484,-0.4648419320583343,-0.0058754333294928,-0.0602405555546283,0.0,0.0,0.0326724052429199,0.5651828050613403
-0.0182296745479106,0.1679155975580215,-0.0802858024835586,-0.4573465585708618,-0.0096246860921382,-0.0749852657318115,0.0,0.0,-0.2423804998397827,0.0399417877197265
-0.0191191677004098,0.1570223122835159,-0.0856576785445213,-0.4841700792312622,-0.012872370891273,-0.0649538412690162,0.0,0.0,0.8337457180023193,0.6920790672302246
-0.019942283630371,0.1468458026647567,-0.0782494619488716,-0.4523301422595978,-0.0168798025697469,-0.0801486298441886,0.0,0.0,0.6295111179351807,0.1489143371582031
-0.0209034923464059,0.136919692158699,-0.092093825340271,-0.4412098526954651,-0.020848486572504,-0.0793737396597862,0.0,0.0,0.3406118154525757,0.6271002292633057
-0.0218996051698923,0.1272176057100296,-0.0947470366954803,-0.4312762916088104,-0.0256558302789926,-0.0961469188332557,0.0,0.0,0.750343918800354,0.454777717590332
-0.0229360572993755,0.1180235743522644,-0.0992167517542839,-0.4087064862251282,-0.0300217736512422,-0.0873189941048622,0.0,0.0,0.8319740295410156,0.8433449268341064
-0.0238259322941303,0.1091857254505157,-0.0835828557610511,-0.3929095268249511,-0.035361535847187,-0.1067952066659927,0.0,0.0,0.790595531463623,0.7787795066833496
-0.0246583931148052,0.10028837621212,-0.0768368989229202,-0.3956039547920227,-0.0416951850056648,-0.1266729980707168,0.0,0.0,0.909226417541504,0.3009467124938965
-0.0254088398069143,0.0914782881736755,-0.0696387663483619,-0.3917191922664642,-0.0470355376601219,-0.1068069487810134,0.0,0.0,0.9817432165145874,-0.0072764158248901
-0.0259943958371877,0.083078533411026,-0.0544836707413196,-0.3734553158283233,-0.0510632880032062,-0.0805548951029777,0.0,0.0,0.961843967437744,-0.1154482960700988
-0.0264336578547954,0.0747639760375022,-0.0411179885268211,-0.3696333169937134,-0.0538303405046463,-0.0553410351276397,0.0,0.0,0.9044049978256226,-0.464995265007019
-0.0268746372312307,0.0671432837843895,-0.0417695418000221,-0.3387840390205383,-0.0561341047286987,-0.0460754707455635,0.0,0.0,0.8085581064224243,0.4707655906677246
-0.0272761341184377,0.0601594559848308,-0.0384801402688026,-0.3104549646377563,-0.0577892735600471,-0.0331033132970333,0.0,0.0,0.7817360162734985,-0.320965826511383
-0.0275420192629098,0.0536374673247337,-0.0260368436574935,-0.2898888885974884,-0.0583329088985919,-0.0108726937323808,0.0,0.0,0.5915113687515259,0.5068222284317017
-0.0276849754154682,0.0469645597040653,-0.0135020110756158,-0.2966058850288391,-0.0591176301240921,-0.0156945157796144,0.0,0.0,0.8018708229064941,-0.4758442640304565
-0.0278902053833007,0.0405244678258895,-0.0199505314230918,-0.2862497866153717,-0.0596811957657337,-0.0112714525312185,0.0,0.0,0.7790848016738892,0.0852094888687133
-0.0279857628047466,0.0348633639514446,-0.0098993349820375,-0.2515873312950134,-0.0593391507863998,0.0068409005180001,0.0,0.0,0.2542434930801391,0.5247629880905151
-0.0280691143125295,0.0292433127760887,-0.0080671831965446,-0.2497934401035308,-0.0596015490591526,-0.0052476692944765,0.0,0.0,0.2835437059402466,0.1286271810531616
-0.0282464977353811,0.0239533521234989,-0.0175074003636837,-0.2351191341876983,-0.0598322302103042,-0.0046136053279042,0.0,0.0,0.6846531629562378,0.7303664684295654
-0.0282597541809082,0.0191146470606327,-0.000305138353724,-0.2150903046131134,-0.0608393549919128,-0.0201426055282354,0.0,0.0,0.5713199377059937,0.0744475126266479
-0.0283123012632131,0.0147451497614383,-0.0044798394665122,-0.1942307353019714,-0.0616089701652526,-0.015392281115055,0.0,0.0,0.1512134075164795,0.4850980043411255
-0.0284210201352834,0.0105583285912871,-0.0102896410971879,-0.1861074864864349,-0.0621754452586174,-0.0113297924399375,0.0,0.0,0.5396223068237305,0.5553092956542969
-0.0285112373530864,0.0064586973749101,-0.0077464831992983,-0.1822598725557327,-0.063443087041378,-0.0253526978194713,0.0,0.0,0.5654207468032837,0.7118706703186035
-0.0285680778324604,0.0033447241876274,-0.0222459398210048,-0.1377763301134109,-0.0470652841031551,0.327551782131195,1.0,0.0,0.6502821445465088,0.4111959934234619
-0.0286487583070993,0.0010098433122038,-0.0401009768247604,-0.1030803695321083,-0.0153947016224265,0.6334577798843384,1.0,0.0,0.7855024337768555,0.9160125255584716
-0.0285321231931448,-0.0007733607199043,-0.0179002378135919,-0.0792047306895256,0.0137956338003277,0.5838066339492798,1.0,0.0,0.5835477113723755,0.9779278039932252
-0.0283649452030658,-0.0019197011133655,0.0081911934539675,-0.0510729327797889,0.0221226513385772,0.1664279699325561,0.0,1.0,-0.5912516713142395,0.7279319763183594
-0.0282415393739938,-0.0029915117193013,0.0244160462170839,-0.0476139746606349,0.0097787482663989,-0.2474131286144256,0.0,1.0,-0.1728371381759643,0.1282638311386108
-0.0281309131532907,-0.0034120820928364,0.0226511247456073,-0.0186777748167514,-0.0016126434784382,-0.2277658879756927,1.0,1.0,0.0157134532928466,-0.4984145164489746
-0.0278885848820209,-0.0026718282606452,0.0318570025265216,0.0328575298190116,-0.0090876184403896,-0.1494449228048324,1.0,1.0,-0.4564534425735473,-0.9347151517868042
-0.0275689121335744,-0.001911332597956,0.0262207482010126,0.0338105373084545,-0.0033793016336858,0.1142026558518409,1.0,1.0,-0.708629310131073,0.4040912389755249
-0.0272400863468647,-0.0010530257131904,0.0263813976198434,0.0381413102149963,0.0030709356069564,0.129033625125885,1.0,1.0,-0.6843152642250061,0.4974079132080078
-0.0269605629146099,-0.0007326626800931,0.0254126600921154,0.014229729771614,0.0055591803975403,0.0497565977275371,1.0,1.0,-0.1767641901969909,0.0442394018173217
-0.0267298705875873,-0.0007340216543525,0.0230690538883209,-6.012119411025196e-05,0.0055587589740753,-1.4543882571160792e-05,1.0,1.0,-0.4880867600440979,0.0099680423736572
-0.0265559200197458,-0.0007362389587797,0.0173878874629735,-9.850440983427688e-05,0.005557794123888,-2.379803845542483e-05,1.0,1.0,-0.6622430682182312,-0.1223220229148864
-0.0264391899108886,-0.0007362389587797,0.0116770174354314,-9.238484608431464e-07,0.0055580004118382,-2.219678236770051e-07,1.0,1.0,-0.6840671300888062,-0.2249873876571655
-0.0263792984187603,-0.0007362389587797,0.0059867138043046,6.519708790619916e-07,0.005558209028095,1.403661258336797e-07,1.0,1.0,-0.7403702139854431,-0.0884271264076232
-0.0263763424009084,-0.0007362389587797,0.0002968824119307,3.923584657172796e-08,0.0055583692155778,4.9915506394881965e-08,1.0,1.0,-0.6523715853691101,0.1327683925628662
-0.0263935085386037,-0.0007363104959949,-0.0017606038600206,-2.522959448469919e-06,0.0055851060897111,0.0005177702987566,1.0,1.0,-0.6429051756858826,0.1573123931884765
-0.0264056213200092,-0.0007363462354987,-0.0012443661689758,-1.799728693185898e-06,0.0056040002964437,0.000365881860489,1.0,1.0,-0.7475067377090454,0.0968611240386962
-0.0264079086482524,-0.0007363462354987,-0.0002372693270444,-3.439677414007747e-07,0.0056077013723552,6.974233838263899e-05,1.0,1.0,-0.6781736612319946,0.0508314371109008
