x_pos,y_pos,x_vel,y_vel,angle,ang_vel,leg_1,leg_2,main_booster,lat_booster
-0.0016435623401775,1.4029977321624756,-0.1664936542510986,-0.352101981639862,0.0019127195701003,0.037741370499134,0.0,0.0,-0.0682130136027998,0.8613694501080557
-0.0033350945450365,1.394468069076538,-0.1692340075969696,-0.3791006505489349,0.0019896114245057,0.0015389289474114,0.0,0.0,0.3182540644934817,0.8120465836449268
-0.0049646375700831,1.3857892751693726,-0.1616314351558685,-0.3857210576534271,0.0006806036108173,-0.0261828638613224,0.0,0.0,0.3384821143477603,-0.8540313058939043
-0.0068937302567064,1.3770878314971924,-0.1932348161935806,-0.3867276012897491,0.0009957290021702,0.006303119007498,0.0,0.0,0.8272539539301005,-0.89257309863788
-0.0088591575622558,1.368844509124756,-0.1990186274051666,-0.366371601819992,0.0034473221749067,0.0490364171564579,0.0,0.0,-0.3993886698964679,-0.5421669866789343
-0.0109809879213571,1.359973669052124,-0.2155695706605911,-0.3942741453647613,0.0067934468388557,0.0669289156794548,0.0,0.0,-0.2422899959345257,-0.5172111458269971
-0.0132690425962209,1.3504759073257446,-0.2333282232284546,-0.4221459925174713,0.0112692480906844,0.0895240604877471,0.0,0.0,0.19698289605605,-0.7302433549592589
-0.0156216621398925,1.3410584926605225,-0.2414835393428802,-0.4186210334300995,0.0174167416989803,0.1229612827301025,0.0,0.0,0.2941510666016056,-0.5164761172461353
-0.0181614868342876,1.33200204372406,-0.261279433965683,-0.4026090800762176,0.0246306657791137,0.1442919671535492,0.0,0.0,0.9988008784769562,0.8664216981543111
-0.0207809451967477,1.3236451148986816,-0.2675737738609314,-0.3715207278728485,0.0301949903368949,0.1112967878580093,0.0,0.0,0.8809314522492642,0.9716744213552572
-0.0233606342226266,1.315685510635376,-0.2619080245494842,-0.3538424670696258,0.0340957082808017,0.0780214965343475,0.0,0.0,-0.1053188259185919,-0.8054161661384538
-0.026121711358428,1.307094931602478,-0.2815568745136261,-0.3819321393966675,0.0394788645207881,0.1076727882027626,0.0,0.0,-0.9629242934486826,0.7043635476132564
-0.0289414413273334,1.2978858947753906,-0.2857562899589538,-0.4093995690345764,0.0432349294424057,0.0751283094286918,0.0,0.0,-0.915763106762436,0.5139591927966958
-0.0318416580557823,1.2880483865737915,-0.2927507162094116,-0.4373021125793457,0.0459305457770824,0.0539173111319541,0.0,0.0,0.7724088576783039,0.7173496584110727
-0.0346878059208393,1.2789322137832642,-0.2863680720329284,-0.4052175283432007,0.047656450420618,0.0345212034881114,0.0,0.0,0.1676326480615373,-0.8314994287887716
-0.0376462936401367,1.2694960832595823,-0.2993941009044647,-0.4195036292076111,0.0511750467121601,0.0703783556818962,0.0,0.0,-0.2928725798016545,-0.8571902352390596
-0.040783692151308,1.2594395875930786,-0.3186891078948974,-0.4471341073513031,0.0560805685818195,0.0981191769242286,0.0,0.0,-0.5466315487409061,0.9816745200106174
-0.0439516082406044,1.2487562894821167,-0.3193920254707336,-0.4749084115028381,0.0586537979543209,0.051469225436449,0.0,0.0,-0.2444359573697956,-0.7629689956794075
-0.047296904027462,1.2374495267868042,-0.3384916186332702,-0.5026896595954895,0.0625767335295677,0.0784661024808883,0.0,0.0,0.0697000016361248,0.9263059511886904
-0.050780676305294,0.0,-0.3505643010139465,-0.5060572028160095,0.0647382736206054,0.0432349070906639,0.0,0.0,-0.725462660623895,-0.7794551002406189
-0.0544400215148925,1.2140555381774902,-0.3694233000278473,-0.5339246988296509,0.0682009160518646,0.0692588910460472,0.0,0.0,0.3454035449453261,0.9993902075223622
-0.0581604950129985,1.2019619941711426,-0.3736309111118316,-0.5375609993934631,0.0697615221142768,0.0312147699296474,0.0,0.0,0.9943123052160404,-0.51260027383582
-0.0619291290640831,1.1902376413345337,-0.3800540268421173,-0.5212309956550598,0.0729329064488411,0.0634331554174423,0.0,0.0,-0.2916532072303839,-0.7823827650153874
-0.0658787712454795,1.1778721809387207,-0.3996293842792511,-0.5498098134994507,0.0775629356503486,0.0926089882850647,0.0,0.0,-0.7911353774998542,0.8569806180920043
-0.0699038505554199,1.164888858795166,-0.4059382975101471,-0.5772201418876648,0.0809693038463592,0.068133108317852,0.0,0.0,-0.0271603901043955,-0.560044866641594
-0.0741095542907714,1.1512540578842163,-0.4254948496818542,-0.6062654852867126,0.0858430862426757,0.097475841641426,0.0,0.0,-0.6984955284224141,0.8687362494121107
-0.0783735290169715,1.137007236480713,-0.4296371042728424,-0.6333814263343811,0.089055024087429,0.0642391070723533,0.0,0.0,0.7062012384503311,-0.6779062455521179
-0.0830398574471473,1.1233876943588257,-0.4709851145744324,-0.6055746078491211,0.0933654755353927,0.0862089991569519,0.0,0.0,0.8972171953270045,0.7237731369557472
-0.0880208015441894,1.1104615926742554,-0.5006791949272156,-0.5746577978134155,0.0959311500191688,0.0513135083019733,0.0,0.0,0.7103420969829615,-0.8417116380035657
-0.0932666808366775,1.0976465940475464,-0.5289095640182495,-0.5698379278182983,0.1002134457230568,0.0856461077928543,0.0,0.0,-0.567935402728607,0.6402840872746641
-0.0985877960920333,1.084220290184021,-0.5351699590682983,-0.5969333648681641,0.1032560020685195,0.0608506612479686,0.0,0.0,0.5792536735534668,0.9932984113693236
-0.1040839180350303,1.0707857608795166,-0.5506783723831177,-0.5971594452857971,0.1043101772665977,0.0210837628692388,0.0,0.0,0.3617472648620605,0.9993488788604736
-0.1097757369279861,1.0577199459075928,-0.5682680010795593,-0.5806418657302856,0.1034039333462715,-0.018124783411622,0.0,0.0,0.3278809785842895,0.9994572401046752
-0.1156037300825119,1.0444540977478027,-0.5799265503883362,-0.5893964767456055,0.1005589365959167,-0.0569001249969005,0.0,0.0,0.2194784879684448,0.9996860027313232
-0.1215115562081337,1.031269073486328,-0.5859869122505188,-0.5856878161430359,0.0957978218793869,-0.0952221378684043,0.0,0.0,0.092863917350769,0.9994401931762696
-0.1275006234645843,1.0182257890701294,-0.5921638607978821,-0.5792824029922485,0.0891128182411193,-0.1337002217769622,0.0,0.0,0.0179660320281982,0.9986865520477296
-0.1335809677839279,1.0049787759780884,-0.5993612408638,-0.5882631540298462,0.0805260315537452,-0.1717357635498047,0.0,0.0,-0.2523165345191955,0.9993851184844972
-0.1397034674882888,0.9911243319511414,-0.601506233215332,-0.6152127385139465,0.0698944479227066,-0.2126319408416748,0.0,0.0,-0.286864161491394,0.9995815753936768
-0.1458780318498611,0.9766640067100524,-0.6048988699913025,-0.6421480178833008,0.0574730597436428,-0.2484277784824371,0.0,0.0,-0.7212305068969727,0.9958381652832032
-0.1520953178405761,0.96158766746521,-0.607136607170105,-0.6695583462715149,0.0430489219725132,-0.2884828448295593,0.0,0.0,-0.528969407081604,0.9988018274307252
-0.1583726853132248,0.945900559425354,-0.6115465760231018,-0.696817934513092,0.027060417458415,-0.3197702765464782,0.0,0.0,-0.1730651259422302,0.994160771369934
-0.1646795272827148,0.9295923113822936,-0.6121569871902466,-0.724574625492096,0.0087605481967329,-0.365997314453125,0.0,0.0,-0.2779182195663452,0.9988685846328736
-0.1710186004638672,0.9126527309417723,-0.6131015419960022,-0.7528760433197021,-0.0117754964157938,-0.4107211232185364,0.0,0.0,-0.0363650321960449,0.9988164901733398
-0.1773891448974609,0.8950890898704529,-0.613980770111084,-0.7809425592422485,-0.0345559120178222,-0.4556085467338562,0.0,0.0,0.5299983024597168,0.9993597269058228
-0.1838374137878418,0.8773015141487122,-0.6197900772094727,-0.7913217544555664,-0.0592969767749309,-0.4948217272758484,0.0,0.0,0.3366308212280273,0.9970446825027466
-0.1902706176042556,0.8592799305915833,-0.6163960099220276,-0.8022434115409851,-0.085936389863491,-0.5327886343002319,0.0,0.0,0.8079646825790405,0.9970425367355348
-0.1966306716203689,0.8413471579551697,-0.6073185205459595,-0.7988994121551514,-0.1143896058201789,-0.5690646767616272,0.0,0.0,0.4901494979858398,0.970893144607544
-0.2030633985996246,0.8239369988441467,-0.6127026081085205,-0.7764095067977905,-0.1448173969984054,-0.6085560321807861,0.0,0.0,0.680670976638794,0.9819996356964112
-0.2095729410648346,0.8071278929710388,-0.6184360980987549,-0.7505573630332947,-0.1773311495780944,-0.6502753496170044,0.0,0.0,0.2964310646057129,0.9556238651275636
-0.2160757035017013,0.7902783751487732,-0.6160939931869507,-0.7533140778541565,-0.2117082923650741,-0.687543511390686,0.0,0.0,0.6519825458526611,0.7580668926239014
-0.222363144159317,0.7735866904258728,-0.5936741232872009,-0.7472738027572632,-0.2472479790449142,-0.7107944488525391,0.0,0.0,0.8531053066253662,0.3440481424331665
-0.2286271154880523,0.7575098872184753,-0.5914040207862854,-0.7208094000816345,-0.2830253541469574,-0.7155480980873108,0.0,0.0,0.0174893140792846,-0.1899925470352172
-0.2348649054765701,0.741188645362854,-0.5895023941993713,-0.7324295043945312,-0.318432092666626,-0.7081351280212402,0.0,0.0,0.4742894172668457,0.8226066827774048
-0.2409271746873855,0.7252464294433594,-0.5708133578300476,-0.7167608737945557,-0.3554475903511047,-0.740310549736023,0.0,0.0,0.1431223154067993,0.7723557949066162
-0.246816873550415,0.7090733647346497,-0.5526785850524902,-0.7282560467720032,-0.3939116895198822,-0.7692826986312866,0.0,0.0,0.6698377132415771,-0.9318143129348756
-0.2528025507926941,0.6930510401725769,-0.5645433068275452,-0.7219713926315308,-0.4305437803268432,-0.7326421141624451,0.0,0.0,0.4989820718765259,-0.9876088500022888
-0.2585749626159668,0.6773985624313354,-0.5457608699798584,-0.7057053446769714,-0.4649848639965057,-0.6888219118118286,0.0,0.0,0.627568244934082,-0.9830843806266784
-0.2640879154205322,0.6619749069213867,-0.5223788022994995,-0.6955149173736572,-0.4971569776535034,-0.6434429287910461,0.0,0.0,0.7425565719604492,-0.9982578754425048
-0.2692813277244568,0.6470820307731628,-0.4929118752479553,-0.6717777252197266,-0.5270613431930542,-0.5980876088142395,0.0,0.0,0.940227746963501,-0.9978861808776855
-0.27426677942276,0.6329090595245361,-0.4743145406246185,-0.6395776271820068,-0.5549393892288208,-0.5575610995292664,0.0,0.0,0.8950706720352173,-0.9981042742729188
-0.279147058725357,0.6186614632606506,-0.466115653514862,-0.6425169110298157,-0.5805718898773193,-0.5126499533653259,0.0,0.0,0.8397091627120972,-0.9984082579612732
-0.2838696539402008,0.6049440503120422,-0.4524062275886535,-0.61855149269104,-0.6041761040687561,-0.4720844626426697,0.0,0.0,0.8824045658111572,-0.9988545775413512
-0.2882955968379974,0.5912631750106812,-0.4250304698944092,-0.6162901520729065,-0.6253870725631714,-0.4242190718650818,0.0,0.0,0.9514658451080322,-0.9972428679466248
-0.2924354970455169,0.5778821706771851,-0.3985010981559753,-0.6022989749908447,-0.6443581581115723,-0.3794218897819519,0.0,0.0,0.8933707475662231,-0.9977001547813416
-0.2964552044868469,0.5644834041595459,-0.3884637057781219,-0.6023678183555603,-0.6611276268959045,-0.3353896737098694,0.0,0.0,0.9379556179046632,-0.9954407215118408
-0.3003337979316711,0.5515010356903076,-0.3760975003242492,-0.5831809639930725,-0.67591792345047,-0.2958054840564728,0.0,0.0,0.4954938888549804,-0.9992305636405944
-0.3038604855537414,0.5388608574867249,-0.3428052365779876,-0.5671219229698181,-0.6884603500366211,-0.2508472204208374,0.0,0.0,0.6363788843154907,-0.9992228150367736
-0.3072894513607025,0.5259077548980713,-0.334904134273529,-0.5801228880882263,-0.6987278461456299,-0.2053503543138504,0.0,0.0,0.5576705932617188,-0.9978089332580566
-0.3103224635124206,0.5133081674575806,-0.2971018552780151,-0.5634742975234985,-0.706736147403717,-0.1601656079292297,0.0,0.0,0.8827774524688721,-0.9957960247993468
-0.3132432997226715,0.500885546207428,-0.2875069379806518,-0.55473792552948,-0.712687075138092,-0.1190184727311134,0.0,0.0,0.9640369415283204,-0.9943099617958068
-0.315869390964508,0.4889466762542724,-0.2596292197704315,-0.5323383808135986,-0.7165851593017578,-0.0779611840844154,0.0,0.0,0.9218711853027344,-0.99367493391037
-0.3181277811527252,0.4772378802299499,-0.2245942801237106,-0.5211151838302612,-0.7182137966156006,-0.0325722359120845,0.0,0.0,0.8106396198272705,-0.9814026951789856
-0.3200248777866363,0.4661858975887298,-0.1900033056735992,-0.49102783203125,-0.7178257703781128,0.0077604749239981,0.0,0.0,0.9359561204910278,-0.982961118221283
-0.3215355277061462,0.4552524983882904,-0.153138518333435,-0.4847284257411957,-0.7151197791099548,0.0541202314198017,0.0,0.0,0.905543565750122,-0.8946809768676758
-0.3229074478149414,0.4443081617355346,-0.1407235413789749,-0.4843765795230865,-0.7105085849761963,0.09222362190485,0.0,0.0,0.8028092384338379,-0.9342667460441588
-0.3241098821163177,0.4331234693527221,-0.1254540085792541,-0.4941233992576599,-0.7037355303764343,0.1354608386754989,0.0,0.0,0.596463680267334,-0.9505695700645448
-0.3252471089363098,0.4217853844165802,-0.1205646023154258,-0.5000745058059692,-0.6949102282524109,0.1765065789222717,0.0,0.0,0.6329803466796875,-0.7556495070457458
-0.3259872496128082,0.4107948541641235,-0.0822023302316665,-0.4839573800563812,-0.6844240427017212,0.2097237855195999,0.0,0.0,0.7366631031036377,-0.7651674151420593
-0.3262076377868652,0.400150328874588,-0.0317725837230682,-0.4678554832935333,-0.6720806360244751,0.2468678653240203,0.0,0.0,0.7394503355026245,-0.8427680730819702
-0.3260878622531891,0.3900802433490753,0.0008313120342791,-0.4417231976985931,-0.6580833792686462,0.2799454629421234,0.0,0.0,0.843266487121582,-0.9422875642776488
-0.3259714245796203,0.3800306320190429,-0.0010971419978886,-0.4401819109916687,-0.6422783136367798,0.3161018788814544,0.0,0.0,0.4429358243942261,-0.8911393880844116
-0.3254972398281097,0.3702191710472107,0.0329070650041103,-0.4289472997188568,-0.624498188495636,0.355602502822876,0.0,0.0,0.7531032562255859,-0.8339986205101013
-0.3248448967933655,0.3606885373592376,0.0492094233632087,-0.4160202145576477,-0.6051174402236938,0.387614369392395,0.0,0.0,0.4877917766571045,-0.6877061128616333
-0.3239575326442718,0.3513830602169037,0.0713303536176681,-0.4057082533836365,-0.5843580961227417,0.4151869714260101,0.0,0.0,0.120990514755249,-0.644097089767456
-0.3228758871555328,0.3421014547348022,0.0893536508083343,-0.404397040605545,-0.5622400045394897,0.4423601627349853,0.0,0.0,0.0997312068939209,-0.6229447722434998
-0.3215876221656799,0.3326776027679443,0.1085541099309921,-0.4105173647403717,-0.5387381911277771,0.4700367450714111,0.0,0.0,0.3648654222488403,-0.5945866703987122
-0.320186048746109,0.3230123519897461,0.118474580347538,-0.4211450815200805,-0.5139672160148621,0.4954200685024261,0.0,0.0,-0.1005896925926208,-0.0824811458587646
-0.3187875151634216,0.312727689743042,0.1178918480873107,-0.4490405917167663,-0.4892264008522033,0.4948160052299499,0.0,0.0,-0.0476222038269043,-0.3594326972961426
-0.3173868656158447,0.3018239140510559,0.1178420409560203,-0.4769366979598999,-0.4645189940929413,0.494148313999176,0.0,0.0,0.2612020969390869,0.0494117736816406
-0.315748929977417,0.2906332314014435,0.1408770084381103,-0.4899184107780456,-0.4393561482429504,0.503257155418396,0.0,0.0,0.1322996616363525,-0.2369165420532226
-0.3138831555843353,0.2795252501964569,0.163442388176918,-0.4866473972797394,-0.4142512381076813,0.5020982027053833,0.0,0.0,0.0610848665237426,-0.8171413540840149
-0.3118394911289215,0.268498420715332,0.1794092357158661,-0.4830037951469421,-0.3874818682670593,0.5353873372077942,0.0,0.0,0.0270371437072753,-0.6233186721801758
-0.3095802664756775,0.2574106752872467,0.1994285434484481,-0.4858397245407104,-0.359377920627594,0.5620791912078857,0.0,0.0,0.4661551713943481,-0.6038863658905029
-0.3071465492248535,0.2460813820362091,0.2152730226516723,-0.4967671930789947,-0.3298852741718292,0.5898532867431641,0.0,0.0,0.3399946689605713,-0.6265522241592407
-0.3046382367610931,0.2347682565450668,0.2213367521762848,-0.4963733553886413,-0.2992528975009918,0.6126483082771301,0.0,0.0,0.6188108921051025,0.2584683895111084
-0.3017648160457611,0.2240158170461654,0.2572440207004547,-0.4719995558261871,-0.2682938873767853,0.6191803216934204,0.0,0.0,0.3749902248382568,-0.0347304344177246
-0.29874387383461,0.2133419811725616,0.2718945443630218,-0.4691534340381622,-0.2374844849109649,0.6161881685256958,0.0,0.0,0.2656683921813965,-0.1282640099525451
-0.2956274151802063,0.2029760628938675,0.2817106544971466,-0.4561690390110016,-0.2071786522865295,0.606116771697998,0.0,0.0,0.4449338912963867,0.5926427841186523
-0.2922096252441406,0.1928538382053375,0.3127256035804748,-0.4460659325122833,-0.1779482066631317,0.5846091508865356,0.0,0.0,0.5598856210708618,-0.1212363243103027
-0.2886641025543213,0.183175504207611,0.3256473243236542,-0.4269393980503082,-0.1490194350481033,0.5785757303237915,0.0,0.0,0.8808133602142334,0.0573482513427734
-0.2850295007228851,0.1741669327020645,0.3349305391311645,-0.3977718651294708,-0.1205965504050254,0.5684579014778137,0.0,0.0,0.8141191005706787,0.1696014404296875
-0.281297355890274,0.1653617024421692,0.3447896242141723,-0.3892925977706909,-0.0923726335167884,0.5644786953926086,0.0,0.0,0.9136499166488647,0.4692596197128296
-0.2775734066963196,0.1569993644952774,0.3445998728275299,-0.3701757192611694,-0.064848355948925,0.5504857301712036,0.0,0.0,0.8784222602844238,0.6331050395965576
-0.2738790512084961,0.1489227563142776,0.3434219062328338,-0.3580361008644104,-0.0391377545893192,0.5142124891281128,0.0,0.0,0.9240273237228394,0.6956021785736084
-0.2698960304260254,0.1414754539728164,0.3734180331230163,-0.3305283784866333,-0.0145619977265596,0.4915153086185455,0.0,0.0,0.8772923946380615,0.5103927850723267
-0.2657220363616943,0.1340310722589492,0.3933876156806946,-0.3307981491088867,0.0091373994946479,0.4739881455898285,0.0,0.0,0.8502070903778076,0.1603134870529174
-0.2613202035427093,0.1272515207529068,0.4155011177062988,-0.301643967628479,0.0335064381361007,0.4873810708522796,0.0,0.0,0.4663037061691284,-0.3927282094955444
-0.2568860650062561,0.1208845973014831,0.4189298152923584,-0.283696562051773,0.0576987713575363,0.48384690284729,0.0,0.0,0.1893247365951538,-0.321061372756958
-0.2523069381713867,0.1148289516568183,0.4330698549747467,-0.2702780663967132,0.0822820290923118,0.4916651844978332,0.0,0.0,0.0136147737503051,-0.1528695225715637
-0.2476303577423095,0.1086921319365501,0.4427347183227539,-0.2743067741394043,0.1069966629147529,0.494292676448822,0.0,0.0,0.1093422174453735,-0.6296634674072266
-0.2429856806993484,0.102752074599266,0.4384414553642273,-0.2660718560218811,0.1328715085983276,0.517497181892395,0.0,0.0,-0.147249698638916,-0.2785108089447021
-0.2382571697235107,0.0961940363049507,0.4469980597496032,-0.2939765155315399,0.1586596518754959,0.515762984752655,0.0,0.0,0.0867762565612793,-0.3135946989059448
-0.2334384471178054,0.0894772112369537,0.4559671282768249,-0.3014948070049286,0.184605598449707,0.5189191102981567,0.0,0.0,0.0715357065200805,-0.2093621492385864
-0.2286841869354248,0.0827116817235946,0.4500953257083893,-0.304043710231781,0.2100971937179565,0.5098320841789246,0.0,0.0,0.093822956085205,-0.1712861061096191
-0.223995491862297,0.0758010223507881,0.4441507756710052,-0.3108507692813873,0.235108196735382,0.5002201795578003,0.0,0.0,0.5684373378753662,0.2174928188323974
-0.2193612158298492,0.0690450742840766,0.4390269815921783,-0.3043562471866607,0.2599370181560516,0.4965764582157135,0.0,1.0,0.9773164987564088,0.2902507781982422
-0.2148281037807464,0.063375174999237,0.4405514299869537,-0.2555503249168396,0.2671609222888946,0.1364999562501907,0.0,1.0,0.4931457042694092,0.3839143514633178
-0.2104314267635345,0.0581635348498821,0.4502712786197662,-0.2297508269548416,0.2562207281589508,-0.2189441621303558,0.0,1.0,-0.1449929475784301,-0.7939956784248352
-0.2061810046434402,0.0529074035584926,0.4514793753623962,-0.2293596714735031,0.2285502552986145,-0.5544483065605164,0.0,1.0,0.8071973323822021,-0.9783246517181396
-0.2022516727447509,0.0487981177866458,0.4307822287082672,-0.1772322505712509,0.1903072595596313,-0.7648975849151611,0.0,1.0,0.925041675567627,-0.9920913577079772
-0.1984255760908126,0.0447969064116478,0.4246377348899841,-0.1729982048273086,0.1481724977493286,-0.8427420854568481,0.0,1.0,0.941187024116516,-0.9693963527679444
