x_pos,y_pos,x_vel,y_vel,angle,ang_vel,leg_1,leg_2,main_booster,lat_booster
-0.0014424324035644,1.4031496047973633,-0.1465792506933212,-0.3453596830368042,0.002092222450301,0.0412957072257995,0.0,0.0,0.1650518629295012,-0.765834693377067
-0.002821922302246,1.3954116106033323,-0.1419635713100433,-0.3439263701438904,0.0060605849139392,0.079375259578228,0.0,0.0,-0.3198560010594105,0.5098685789811443
-0.004070091061294,1.3871947526931765,-0.1279422342777252,-0.3652037680149078,0.0091588366776704,0.0619705021381378,0.0,0.0,0.1144151833067519,-0.6586260744294123
-0.0053808214142918,1.379004716873169,-0.1357521265745163,-0.364037811756134,0.013790126889944,0.0926342606544494,0.0,0.0,-0.8892104353268317,-0.7536138294986652
-0.0066550252959132,1.3703415393829346,-0.1336483061313629,-0.385101705789566,0.0199455842375755,0.1231203526258468,0.0,0.0,0.2679341032964781,-0.6879290119220749
-0.0077907564118504,1.361830234527588,-0.1217191815376281,-0.3784105479717254,0.0280028879642486,0.1611609905958175,0.0,0.0,-0.0926818626830017,-0.7532615620568861
-0.0089044570922851,1.3528424501419067,-0.1214251667261123,-0.3996740281581878,0.0379472710192203,0.1989061683416366,0.0,0.0,-0.4919689441802599,0.8999216624090813
-0.0098462104797363,1.3433887958526611,-0.1023233532905578,-0.4203919470310211,0.046001348644495,0.1610964685678482,0.0,0.0,0.0298411885342737,-0.9296770787568278
-0.0108105661347508,1.3342474699020386,-0.1067657247185707,-0.4066294729709625,0.0562264025211334,0.2045201808214187,0.0,0.0,0.7509810807066295,-0.674189063513858
-0.0117883682250976,1.3257853984832764,-0.109770193696022,-0.3765787780284881,0.0681048408150672,0.2375904768705368,0.0,0.0,-0.7514905153263112,-0.93172714664525
-0.0127450944855809,1.316845178604126,-0.1095553264021873,-0.3980357050895691,0.0818811208009719,0.2755506634712219,0.0,0.0,-0.9174918450235472,0.8046594012640416
-0.0135469436645507,1.3074395656585691,-0.0925789326429367,-0.4187459349632263,0.094178631901741,0.2459725886583328,0.0,0.0,-0.3792890307327645,-0.6085998188384723
-0.0143023487180471,1.29755961894989,-0.0891662985086441,-0.440028041601181,0.1077230274677276,0.2709128260612488,0.0,0.0,0.7240584611087548,-0.874381716009361
-0.0150017738342285,1.2877544164657593,-0.0857424288988113,-0.4370084106922149,0.1234403476119041,0.3143747746944427,0.0,0.0,0.2066305264946277,0.6707620709793689
-0.0155248641967773,1.278411865234375,-0.067188985645771,-0.4165276288986206,0.1382724642753601,0.2966698706150055,0.0,0.0,-0.9632600742962528,-0.7358343906160583
-0.0160099975764751,1.2685792446136477,-0.0648435801267623,-0.4385930299758911,0.154583141207695,0.3262433409690857,0.0,0.0,-0.7288876206477057,0.805033577548407
-0.016335105523467,1.258302927017212,-0.0470827482640743,-0.4583090543746948,0.1691765189170837,0.2918941974639892,0.0,0.0,-0.3627978355135064,0.5481052050067985
-0.0165228843688964,1.2475636005401611,-0.0322186686098575,-0.4788926839828491,0.1826730519533157,0.2699552476406097,0.0,0.0,0.189487328453205,0.5444041752766601
-0.0166142471134662,1.237242341041565,-0.0218590274453163,-0.4603444337844848,0.1954722702503204,0.256007581949234,0.0,0.0,-0.291510632640902,0.8589732692177561
-0.0165638923645019,1.2264649868011477,-0.0063990280032157,-0.4805444180965423,0.2070138901472091,0.230852872133255,0.0,0.0,0.8374358362182568,-0.832200322275852
-0.0165138244628906,1.2164766788482666,-0.008575165644288,-0.4458854794502258,0.2207549661397934,0.274846613407135,0.0,0.0,-0.6093951573037475,-0.8393594662270205
-0.0164422988891601,1.205990433692932,-0.0082412008196115,-0.4684267342090606,0.2363668233156204,0.3122647404670715,0.0,0.0,0.4883926495084816,-0.6050764461298275
-0.0163246151059865,1.1957759857177734,-0.0052280207164585,-0.4568012058734894,0.2536807358264923,0.3463095724582672,0.0,0.0,0.1797515279596104,-0.8634388894672285
-0.0161878578364849,1.1854016780853271,-0.0051590111106634,-0.4644524157047272,0.2729653418064117,0.3857264518737793,0.0,0.0,-0.646183558387726,0.8973464673366138
-0.0159163475036621,1.1745814085006714,0.0095896981656551,-0.484275221824646,0.2910336852073669,0.3613993525505066,0.0,0.0,-0.0372124100065853,0.617572389593171
-0.0155227659270167,1.1632893085479736,0.0226345099508762,-0.5053073167800903,0.3083140850067138,0.3456072211265564,0.0,0.0,-0.1561409591044267,0.5196239214398227
-0.0150070190429687,1.1515483856201172,0.0358106233179569,-0.5252540707588196,0.3246805071830749,0.3273283541202545,0.0,0.0,0.9797292556132527,-0.5600223157154501
-0.0149238584563136,1.1406476497650146,-0.0081300698220729,-0.4882709383964538,0.341850221157074,0.3433942794799804,0.0,0.0,-0.5761145220804733,-0.6581319592471884
-0.0148182865232229,1.129249930381775,-0.0074554258026182,-0.5109559297561646,0.3607831001281738,0.3786575198173523,0.0,0.0,-0.1255638418557967,0.6855705691883704
-0.0145806316286325,1.117406964302063,0.0070508220233023,-0.530655026435852,0.3784767985343933,0.3538739681243896,0.0,0.0,-0.4763870483320069,0.8477020453742471
-0.0141987800598144,1.105140209197998,0.0231786537915468,-0.5492550134658813,0.3944617509841919,0.3196981847286224,0.0,0.0,-0.7054314613342285,0.9994499683380128
-0.0136696817353367,1.0924357175827026,0.0395974218845367,-0.5684083104133606,0.4087467491626739,0.2857000231742859,0.0,0.0,-0.840675950050354,0.9988367557525636
-0.0129982950165867,1.0793077945709229,0.055488895624876,-0.5868808627128601,0.4213114976882934,0.251294881105423,0.0,0.0,-0.8125633597373962,0.998727798461914
-0.0121777532622218,1.0657415390014648,0.0721045136451721,-0.6059507727622986,0.4320985078811645,0.2157396525144577,0.0,0.0,-0.8509970903396606,0.9993785619735718
-0.0112021444365382,1.051754355430603,0.0895718708634376,-0.6241359710693359,0.440797746181488,0.1739846169948578,0.0,0.0,-0.7801302075386047,0.9979696273803712
-0.0100733758881688,1.0373512506484983,0.1068532317876815,-0.6420421600341797,0.4473808705806732,0.1316627115011215,0.0,0.0,-0.5072616934776306,0.999990940093994
-0.008793163113296,1.0225180387496948,0.1238098293542862,-0.6606166958808899,0.4519989192485809,0.0923609882593154,0.0,0.0,-0.4665913581848144,0.9997246265411376
-0.0073581696487963,1.00727117061615,0.141317680478096,-0.6783407330513,0.4543958008289337,0.0479374639689922,0.0,0.0,-0.0970240831375122,0.9993538856506348
-0.0057788849808275,0.991607666015625,0.1575490236282348,-0.6962869763374329,0.4548212885856628,0.0085100280120968,0.0,0.0,0.3249914646148681,0.9817459583282472
-0.0042396546341478,0.9761950373649596,0.1554131954908371,-0.6845215559005737,0.4531847536563873,-0.0327314734458923,0.0,0.0,0.1574627161026001,0.991879940032959
-0.0028700828552246,0.9610433578491212,0.1403505951166153,-0.6723107695579529,0.4494550228118896,-0.0745947211980819,0.0,0.0,-0.567012369632721,0.8710041046142578
-0.0013449669349938,0.945468544960022,0.1579650044441223,-0.690474271774292,0.443493515253067,-0.119230255484581,0.0,0.0,0.0693577527999877,0.6534476280212402
0.0002864837588276,0.9297663569450378,0.1698292195796966,-0.6957762241363525,0.4361941814422607,-0.1459868848323822,0.0,0.0,0.1886404752731323,-0.679080069065094
0.0018624305957928,0.9141222834587096,0.1629792302846908,-0.693630576133728,0.4303391277790069,-0.1171009913086891,0.0,0.0,0.0884674787521362,0.8734914064407349
0.003474140074104,0.8982818126678467,0.1683019250631332,-0.7018589377403259,0.422598659992218,-0.1548091471195221,0.0,0.0,0.0239582061767578,-0.5796018242835999
0.0050697326660156,0.8822361826896667,0.1656535416841507,-0.7113286256790161,0.4160163998603821,-0.1316451132297516,0.0,0.0,0.2066006660461425,0.2802475690841675
0.0066533088684082,0.8661904335021973,0.1643795371055603,-0.7113889455795288,0.4095349311828613,-0.1296295970678329,0.0,0.0,0.3955849409103393,-0.642415463924408
0.0078914640471339,0.850552499294281,0.1288988888263702,-0.6935561895370483,0.4040679037570953,-0.1093408316373825,0.0,0.0,-0.1676263213157653,0.8818814754486084
0.0092552183195948,0.8344784379005432,0.1429364532232284,-0.7125517725944519,0.3970397412776947,-0.1405637562274933,0.0,0.0,-0.2631466388702392,0.566222071647644
0.0107367513701319,0.8179528713226318,0.1559006869792938,-0.7323256731033325,0.3887460231781006,-0.165874108672142,0.0,0.0,0.4171606302261352,-0.1325783729553222
0.0122233387082815,0.8017022609710693,0.1560575067996978,-0.7202510237693787,0.3808729648590088,-0.1574609577655792,0.0,0.0,0.3288859128952026,-0.2890918850898742
0.0135231968015432,0.7857762575149536,0.1377510726451873,-0.7057788372039795,0.3726273775100708,-0.1649114787578582,0.0,0.0,0.2214595079421997,0.2526886463165283
0.0148544311523437,0.7698785662651062,0.1407216787338256,-0.7046080827713013,0.3645880222320556,-0.160786747932434,0.0,0.0,0.4071636199951172,0.1245332956314086
0.0160210616886615,0.7544596195220947,0.1244394183158874,-0.6833361983299255,0.3563846945762634,-0.1640663892030716,0.0,0.0,-0.5807337760925293,0.244887113571167
0.0172619819641113,0.7385656237602234,0.1320700943470001,-0.7044435143470764,0.3479963839054107,-0.1677661389112472,0.0,0.0,0.4704227447509765,0.1721110343933105
0.0183535572141408,0.7227447628974915,0.1177064776420593,-0.7011112570762634,0.3390216827392578,-0.1794942915439605,0.0,0.0,0.2190089225769043,0.5959489345550537
0.0194372180849313,0.7073477506637573,0.1181984543800354,-0.682033360004425,0.328750729560852,-0.2054189890623092,0.0,0.0,0.1756191253662109,0.5955193042755127
0.0205842964351177,0.6922354102134705,0.1257827132940292,-0.6691800951957703,0.3172277808189392,-0.2304593324661255,0.0,0.0,0.1918040513992309,-0.4280613660812378
0.0216678623110055,0.6775206923484802,0.1194282993674278,-0.6516040563583374,0.3057397007942199,-0.2297618687152862,0.0,0.0,-0.088147759437561,0.6216144561767578
0.0228601451963186,0.6623565554618835,0.131646990776062,-0.671403706073761,0.2929196357727051,-0.2564019560813904,0.0,0.0,-0.036600649356842,0.2932789325714111
0.024120520800352,0.6467186808586121,0.1387126743793487,-0.6925188302993774,0.2798731327056885,-0.260930061340332,0.0,0.0,0.7204947471618652,-0.7198936939239502
0.0250810626894235,0.6315931677818298,0.1078230738639831,-0.6700417399406433,0.2678118050098419,-0.2412267625331878,0.0,0.0,0.4605681896209717,0.7796900272369385
0.0261630062013864,0.6167259812355042,0.1215955838561058,-0.6583631634712219,0.2541175484657287,-0.2738858759403229,0.0,0.0,0.3328526020050049,-0.4488263130187988
0.0272027011960744,0.6021108031272888,0.1175663098692894,-0.6472693085670471,0.240270122885704,-0.2769486010074615,0.0,0.0,0.5617573261260986,-0.769705057144165
0.0281640999019145,0.5875499844551086,0.1084761843085289,-0.6451828479766846,0.2277499586343765,-0.2504031956195831,0.0,0.0,0.3417055606842041,-0.8332583904266357
0.0289020538330078,0.5731562376022339,0.0848787873983383,-0.6380501985549927,0.2165403217077255,-0.2241929769515991,0.0,0.0,-0.5219544172286987,0.776339054107666
0.0297590252012014,0.5583181381225586,0.0986544340848922,-0.657626211643219,0.2034537196159362,-0.2617316842079162,0.0,0.0,0.6863560676574707,-0.9803823232650756
0.0306299217045307,0.5434384942054749,0.0982607528567314,-0.6598206758499146,0.1922108381986618,-0.2248575985431671,0.0,0.0,0.7087044715881348,-0.5388060212135315
0.0313727371394634,0.5293872356414795,0.0845842286944389,-0.6231967806816101,0.1818698197603225,-0.2068207561969757,0.0,0.0,0.7616856098175049,-0.1319794654846191
0.031977079808712,0.5155794620513916,0.0714719146490097,-0.6123676896095276,0.1708065271377563,-0.2212659567594528,0.0,0.0,0.7141715288162231,-0.9795171618461608
0.0323287025094032,0.5022929310798645,0.044649887830019,-0.5894468426704407,0.1613026261329651,-0.1900780349969864,0.0,0.0,-0.2566341161727905,-0.7968371510505676
0.0326671600341796,0.4885191023349762,0.0421014353632926,-0.6112966537475586,0.1530515551567077,-0.1650210618972778,0.0,0.0,-0.6773117780685425,0.6734911203384399
0.0330892577767372,0.4742878079414367,0.051801674067974,-0.6315409541130066,0.143476590514183,-0.1914995610713958,0.0,0.0,-0.0028378367424011,-0.724804162979126
0.0335014350712299,0.4595714807510376,0.0498096942901611,-0.6532553434371948,0.1349134445190429,-0.1712627112865448,0.0,0.0,0.8347336053848267,-0.9652172923088074
0.0337756164371967,0.4449948668479919,0.0343964956700801,-0.647234320640564,0.127957284450531,-0.1391230821609497,0.0,0.0,0.2726000547409057,-0.7120416164398193
0.0340538993477821,0.4303089380264282,0.0335683710873127,-0.6522276401519775,0.1222491934895515,-0.1141617149114608,0.0,0.0,0.6563154458999634,-0.3243926763534546
0.0342885963618755,0.4156489968299866,0.0296236015856266,-0.6510640382766724,0.1161367520689964,-0.1222486495971679,0.0,0.0,0.9256255626678468,-0.5962050557136536
0.0343841537833213,0.4018868207931518,0.0148007152602076,-0.6112515926361084,0.1109270229935646,-0.1041947603225708,0.0,0.0,0.7975049018859863,-0.5503678917884827
0.034451674669981,0.3889864683151245,0.0108892861753702,-0.5730466246604919,0.1068156883120536,-0.0822269096970558,0.0,0.0,-0.0558744072914123,-0.6030630469322205
0.0344799049198627,0.3756080567836761,0.0057788649573922,-0.594390332698822,0.1038772314786911,-0.0587688572704792,0.0,0.0,0.2382721900939941,0.5641839504241943
0.0344343185424804,0.3621093928813934,-2.841093873939826e-06,-0.5996275544166565,0.0993600487709045,-0.0903436914086341,0.0,0.0,-0.2459824681282043,-0.3192734718322754
0.0343976989388465,0.3481358587741852,0.0011316582094877,-0.6207347512245178,0.0945969447493553,-0.0952620506286621,0.0,0.0,0.650423526763916,-0.2324417829513549
0.0342103950679302,0.33453169465065,-0.0132091538980603,-0.6042932868003845,0.0891229957342147,-0.1094789281487464,0.0,0.0,0.2065198421478271,0.1335904598236084
0.0339391715824604,0.321186900138855,-0.0211673472076654,-0.5927590131759644,0.0832248628139495,-0.1179627180099487,0.0,0.0,0.486712098121643,0.0646857023239135
0.0336005203425884,0.3083066940307617,-0.0276195965707302,-0.572119414806366,0.0770417526364326,-0.123662032186985,0.0,0.0,0.4740935564041137,0.3400697708129883
0.0332907661795616,0.295737087726593,-0.0248668529093265,-0.5583437085151672,0.0709874182939529,-0.1210868507623672,0.0,0.0,0.2991045713424682,-0.6878872513771057
0.0329154022037982,0.283085286617279,-0.0326060838997364,-0.5620809197425842,0.0661100149154663,-0.0975480079650878,0.0,0.0,0.8329615592956543,0.4063533544540405
0.0325956344604492,0.2706373333930969,-0.0272929333150386,-0.5530411601066589,0.061486292630434,-0.0924743860960006,0.0,0.0,0.2024860382080078,0.3747599124908447
0.0323356613516807,0.2583467364311218,-0.0216105468571186,-0.5460748076438904,0.0571401380002498,-0.0869231671094894,0.0,0.0,0.5889682769775391,-0.1061365604400634
0.0321619026362896,0.2461608499288559,-0.0133856041356921,-0.5414500832557678,0.053201138973236,-0.0787803083658218,0.0,0.0,0.7279832363128662,-0.0614028573036193
0.0319107063114643,0.2346765547990799,-0.020896591246128,-0.5102682709693909,0.0490266382694244,-0.0834899097681045,0.0,0.0,0.6987738609313965,-0.2645058035850525
0.0316194519400596,0.2238883525133133,-0.0248465128242969,-0.4793420433998108,0.0447962582111358,-0.084607608616352,0.0,0.0,0.6031966209411621,-0.3803337812423706
0.0313825607299804,0.2136034071445465,-0.019766679033637,-0.4569956362247467,0.0409269407391548,-0.0773865133523941,0.0,0.0,0.2758640050888061,0.1207368373870849
0.0311724655330181,0.2032263427972793,-0.0172655824571847,-0.4611091315746307,0.0372251830995082,-0.0740349516272544,0.0,0.0,0.8092021942138672,-0.7693491578102112
0.030773926526308,0.1932010948657989,-0.037336990237236,-0.4455060660839081,0.0347341150045394,-0.0498210825026035,0.0,0.0,0.5863010883331299,0.1367253065109253
0.0303805358707904,0.1839469820261001,-0.0370111055672168,-0.4112405776977539,0.0324368737637996,-0.0459448918700218,0.0,0.0,0.365872859954834,-0.6274378299713135
0.029850959777832,0.1749197393655777,-0.0516803264617919,-0.4011857807636261,0.0311702098697423,-0.0253330506384372,0.0,0.0,0.5571849346160889,0.7733535766601562
0.029176140204072,0.1665455251932144,-0.064235545694828,-0.3721230328083038,0.0279687289148569,-0.0640299096703529,0.0,0.0,0.1418054103851318,0.3760017156600952
0.0284924507141113,0.1584220677614212,-0.0652370080351829,-0.3609839975833893,0.0248799491673707,-0.0617756769061088,0.0,0.0,0.0022250413894653,0.2995434999465942
0.0277070999145507,0.1505051255226135,-0.0750933066010475,-0.3518104553222656,0.0214810781180858,-0.0679776445031166,0.0,0.0,-0.054188847541809,-0.0550709962844848
0.026861572638154,0.1421134620904922,-0.0809524953365325,-0.3729185760021209,0.0179280135780572,-0.0710610002279281,0.0,0.0,-0.0027148127555847,0.4976760149002075
0.0259538646787405,0.1332469284534454,-0.0870231911540031,-0.3940268456935882,0.014226539991796,-0.0740295797586441,0.0,0.0,-0.3857077360153198,0.7627854347229004
0.0250307079404592,0.1239075511693954,-0.0871837809681892,-0.4150433242321014,0.0091592743992805,-0.1013451814651489,0.0,0.0,0.2842030525207519,-0.4793457984924316
0.0239210128784179,0.1147027090191841,-0.1051504760980606,-0.4090811610221863,0.0034141913056373,-0.1149017587304115,0.0,0.0,0.8778024911880493,0.2842799425125122
0.0228614807128906,0.10624910145998,-0.1005650162696838,-0.3757140338420868,-0.0019049999536946,-0.1063836067914962,0.0,0.0,0.7909609079360962,-0.3097307682037353
0.0218002311885356,0.0979207381606102,-0.1009157449007034,-0.3701666891574859,-0.0070415399968624,-0.1027308478951454,0.0,0.0,0.8174149990081787,-0.2974497079849243
0.0208342559635639,0.0903748571872711,-0.0920213609933853,-0.3353996276855469,-0.0115590523928403,-0.0903502404689788,0.0,0.0,0.416143536567688,-0.5202491283416748
0.019742202013731,0.0833574160933494,-0.1055145636200904,-0.3119187355041504,-0.0152062010020017,-0.0729428753256797,0.0,0.0,0.6619617938995361,0.6920943260192871
0.0188019759953022,0.0771577954292297,-0.0891725867986679,-0.2755961716175079,-0.0199984144419431,-0.0958442538976669,0.0,0.0,-0.1038240194320678,-0.7702712416648865
0.0177348144352436,0.0704851001501083,-0.1031146422028541,-0.2966136336326599,-0.0235534887760877,-0.071101576089859,0.0,0.0,0.5270682573318481,-0.6626439094543457
0.0165513046085834,0.0644781664013862,-0.1159795895218849,-0.2670157849788666,-0.0258997660130262,-0.0469252616167068,0.0,0.0,0.493895411491394,0.8407279253005981
0.0154389385133981,0.0590667575597763,-0.1071617007255554,-0.2405840009450912,-0.029920632019639,-0.0804173499345779,0.0,0.0,-0.1524204611778259,0.5019208192825317
0.0142953870818018,0.0531761981546878,-0.1090561375021934,-0.2619168758392334,-0.0351557582616806,-0.1047025173902511,0.0,0.0,0.3428206443786621,0.0039459466934204
0.0129933357238769,0.0475697368383407,-0.1243719905614852,-0.2493223398923874,-0.0409265905618667,-0.1154163926839828,0.0,0.0,0.2073073387145996,0.6931984424591064
0.0115784648805856,0.0420541130006313,-0.1340418457984924,-0.2453608959913253,-0.0482862927019596,-0.1471939384937286,0.0,0.0,0.5370395183563232,0.0141435861587524
0.0100907329469919,0.0368515588343143,-0.1411636024713516,-0.2314889281988144,-0.0558020174503326,-0.1503144949674606,0.0,0.0,0.6429543495178223,0.788088321685791
0.0086447717621922,0.0319604985415935,-0.1354061067104339,-0.2177504599094391,-0.0648918598890304,-0.1817967593669891,0.0,0.0,0.4472789764404297,-0.036601185798645
0.0072543146088719,0.0270559880882501,-0.1303399950265884,-0.2183801829814911,-0.0735034495592117,-0.1722316145896911,0.0,0.0,0.4010339975357055,0.1136952638626098
0.0059094429016113,0.0225358586758375,-0.1261304318904876,-0.2013275325298309,-0.0817774683237075,-0.1654805839061737,0.0,0.0,0.3550456762313843,0.3488643169403076
0.0045592309907078,0.018528351560235,-0.1267232298851013,-0.1785894483327865,-0.0899950265884399,-0.1643511056900024,0.0,0.0,0.0047957897186279,0.0165745019912719
0.0031844140030443,0.0143250087276101,-0.129333809018135,-0.1873262524604797,-0.0980659648776054,-0.1614187210798263,0.0,0.0,0.5129656791687012,0.4633972644805908
