x_pos,y_pos,x_vel,y_vel,angle,ang_vel,leg_1,leg_2,main_booster,lat_booster
-0.0014883994590491,1.403081297874451,-0.1505702435970306,-0.3483990728855133,0.0015436715912073,0.0304339323192834,0.0,0.0,-0.461006224155426,0.8064934015274048
-0.0028730393387377,1.3947184085845947,-0.1379941254854202,-0.3716858029365539,0.0010799405863508,-0.0092749586328864,0.0,0.0,0.2653548717498779,0.3683227300643921
-0.0041208267211914,1.3862758874893188,-0.1245264261960983,-0.375222772359848,0.0008412271272391,-0.0047748447395861,0.0,0.0,0.0140645503997802,0.719667911529541
-0.0053617479279637,1.3777475357055664,-0.1220372542738914,-0.3790391087532043,-0.0011874962365254,-0.040578655898571,0.0,0.0,-0.0180485844612121,0.7034399509429932
-0.0065008164383471,1.368677854537964,-0.1098259314894676,-0.4030986726284027,-0.0052278703078627,-0.0808150395750999,0.0,0.0,0.1070663928985595,0.0246561765670776
-0.0075116157531738,1.3596104383468628,-0.0970831364393234,-0.4030155539512634,-0.0091782333329319,-0.0790144875645637,0.0,0.0,-0.5999100208282471,0.0301897525787353
-0.0084881782531738,1.3499999046325684,-0.0932789668440818,-0.4271697700023651,-0.0135046010836958,-0.0865351632237434,0.0,0.0,-0.8131035566329956,-0.2987269759178161
-0.0094305034726858,1.33984637260437,-0.0894684195518493,-0.4513188004493713,-0.0182300023734569,-0.0945167988538742,0.0,0.0,-0.5063092112541199,0.6736023426055908
-0.0102870939299464,1.3291560411453247,-0.0791230201721191,-0.4752233922481537,-0.0246842186897993,-0.1290961951017379,0.0,0.0,-0.6235570907592773,-0.623153030872345
-0.0111588481813669,1.317928671836853,-0.0814558118581771,-0.4991016983985901,-0.0303439926356077,-0.1132055297493934,0.0,0.0,-0.3601317405700683,-0.7160887718200684
-0.0120453834533691,1.3061611652374268,-0.0836939066648483,-0.523108720779419,-0.0352508276700973,-0.0981456786394119,0.0,0.0,-0.5001680850982666,-0.8637216687202454
-0.0129585266113281,1.2938520908355713,-0.0874065607786178,-0.5471627712249756,-0.0391280241310596,-0.0775510221719741,0.0,0.0,-0.6852009892463684,-0.6364710927009583
-0.0138777736574411,1.281005859375,-0.088504634797573,-0.5710409283638,-0.0425146892666816,-0.0677393227815628,0.0,0.0,0.3057717084884643,-0.7655247449874878
-0.0147511484101414,1.2680299282073977,-0.0850132405757904,-0.5767710208892822,-0.044815644621849,-0.0460231676697731,0.0,0.0,-0.1775070428848266,-0.9568080902099608
-0.0156491287052631,1.2545249462127686,-0.0884076207876205,-0.6002691388130188,-0.0461917296051979,-0.0275242365896701,0.0,0.0,-0.3498800992965698,-0.5766236186027527
-0.0165518764406442,1.2404727935791016,-0.0892727077007293,-0.6245753765106201,-0.0471775531768798,-0.0197186265140771,0.0,0.0,0.1068580150604248,-0.9059523344039916
-0.0173574443906545,1.2267441749572754,-0.0808437317609787,-0.6101517081260681,-0.0468985550105571,0.0055805328302085,0.0,0.0,-0.4691135883331299,-0.8460062146186829
-0.0181818958371877,1.2124687433242798,-0.0834440141916275,-0.6344289183616638,-0.0459086000919342,0.0198009647428989,0.0,0.0,0.2391473054885864,0.0881470441818237
-0.0188736915588378,1.198547601699829,-0.0699331611394882,-0.6186923980712891,-0.0451592691242694,0.0149879874661564,0.0,0.0,-0.1544253826141357,-0.4160158038139343
-0.0195332523435354,1.1840832233428955,-0.0661220699548721,-0.6428506374359131,-0.0450017675757408,0.0031503725331276,0.0,0.0,-0.8425980806350708,-0.3359743356704712
-0.0201608650386333,1.1690760850906372,-0.0623109452426433,-0.6669997572898865,-0.045445404946804,-0.0088736657053232,0.0,0.0,-0.847622811794281,-0.7448082566261292
-0.020814323797822,1.1535255908966064,-0.065749816596508,-0.6911189556121826,-0.045047964900732,0.0079497313126921,0.0,0.0,-0.382800817489624,-0.7619519829750061
-0.0214832313358783,1.1374342441558838,-0.0678743422031402,-0.7151390910148621,-0.0440810099244117,0.0193411409854888,0.0,0.0,-0.2147146463394165,-0.4409176111221313
-0.0221205707639455,1.1208000183105469,-0.064077652990818,-0.7392905354499817,-0.0437400490045547,0.0068197376094758,0.0,0.0,-0.6957008838653564,-0.7667813301086426
-0.0228012092411518,1.1036298274993896,-0.0696755796670913,-0.7630735039710999,-0.0421461090445518,0.0318816863000392,0.0,0.0,-0.2788006067276001,-0.6399160027503967
-0.0235137939453125,1.0859026908874512,-0.0738277584314346,-0.787805438041687,-0.0396099425852298,0.0507236309349536,0.0,0.0,0.4689650535583496,-0.5210736989974976
-0.0242070201784372,1.0686062574386597,-0.0722934231162071,-0.7686564922332764,-0.0366722866892814,0.0587531737983226,0.0,0.0,-0.1587811708450317,-0.4520174860954284
-0.0248690601438283,1.050766944885254,-0.0685229375958442,-0.792806088924408,-0.0343844480812549,0.0457566268742084,0.0,0.0,0.5011221170425415,-0.5215731263160706
-0.025644589215517,1.0334525108337402,-0.079923078417778,-0.7694688439369202,-0.0320368558168411,0.0469518788158893,0.0,0.0,0.4960963726043701,-0.292551040649414
-0.0263940803706645,1.0162582397460938,-0.0765704959630966,-0.7641591429710388,-0.0304361414164304,0.0320144891738891,0.0,0.0,0.7234861850738525,-0.1723670363426208
-0.0270665176212787,0.999844253063202,-0.0682843402028083,-0.729493260383606,-0.0294079780578613,0.0205632522702217,0.0,0.0,0.1565256118774414,0.2776684761047363
-0.0277538299560546,0.9833495020866394,-0.0688477009534835,-0.733097493648529,-0.0292981583625078,0.002196351531893,0.0,0.0,0.0802150964736938,-0.1080678701400756
-0.028449535369873,0.9671000242233276,-0.0687474384903907,-0.722218930721283,-0.0301077459007501,-0.0161917824298143,0.0,0.0,-0.0255331993103027,-0.5563564896583557
-0.0291638374328613,0.9503045082092284,-0.0711742490530014,-0.7464695572853088,-0.030366813763976,-0.0051812534220516,0.0,0.0,-0.0070251822471618,-0.5268912315368652
-0.029888916760683,0.9329688549041748,-0.0725892931222915,-0.7704663872718811,-0.0302813965827226,0.0017082123085856,0.0,0.0,0.3117384910583496,-0.7813023328781128
-0.030611515045166,0.9159985780715942,-0.0732519626617431,-0.7542151808738708,-0.0292992275208234,0.0196434054523706,0.0,0.0,0.2367206811904907,-0.3062613010406494
-0.0313143730163574,0.8989972472190857,-0.0704967826604843,-0.7556155323982239,-0.0290877539664506,0.0042294799350202,0.0,0.0,0.8901963233947754,-0.2797815203666687
-0.0319190993905067,0.8827564716339111,-0.0602096691727638,-0.7218104004859924,-0.0293565392494201,-0.0053756376728415,0.0,0.0,0.4293417930603027,-0.396479070186615
-0.0325077064335346,0.8670673370361328,-0.0577363967895507,-0.6973180770874023,-0.0304661709815263,-0.0221925769001245,0.0,0.0,-0.6986682415008545,-0.6778612732887268
-0.0331189148128032,0.8508384823799133,-0.0606018081307411,-0.7212982773780823,-0.0309755522757768,-0.01018778514117,0.0,0.0,0.1688261032104492,-0.7397952675819397
-0.0338291153311729,0.8349053263664246,-0.0712099894881248,-0.7081373333930969,-0.0307874139398336,0.0037627734709531,0.0,0.0,-0.4862507581710815,-0.3379901647567749
-0.0345114693045616,0.8184291124343872,-0.0677345767617225,-0.7322859168052673,-0.0312863551080226,-0.0099786017090082,0.0,0.0,0.6549937725067139,-0.8638601303100586
-0.0351168625056743,0.8018693327903748,-0.0612530410289764,-0.7359687685966492,-0.030583057552576,0.0140660526230931,0.0,0.0,-0.2964858412742615,0.0320076942443847
-0.0356953628361225,0.7847667336463928,-0.0578606128692626,-0.7601174712181091,-0.0305682998150587,0.0002952692739199,0.0,0.0,0.4377380609512329,-0.7498494386672974
-0.0363383293151855,0.7675010561943054,-0.0650635808706283,-0.7673534154891968,-0.0298150479793548,0.0150651233270764,0.0,0.0,0.2979083061218261,0.0238163471221923
-0.0369113907217979,0.7500841021537781,-0.0575485117733478,-0.7740777730941772,-0.0295841135084629,0.0046189529821276,0.0,0.0,-0.0610725879669189,-0.6553782224655151
-0.0375059135258197,0.7321227788925171,-0.0601645782589912,-0.7982704639434814,-0.0288714319467544,0.0142533723264932,0.0,0.0,0.5409872531890869,-0.0582578778266906
-0.0381578430533409,0.7147888541221619,-0.0647301003336906,-0.770402729511261,-0.029333010315895,-0.0092313690111041,0.0,0.0,0.1019285917282104,-0.5639963150024414
-0.0389130599796772,0.6977114081382751,-0.0753307864069938,-0.7590020298957825,-0.0295235216617584,-0.003810390131548,0.0,0.0,0.5428518056869507,0.6765294075012207
-0.0395990386605262,0.6807997226715088,-0.0663002654910087,-0.7516756057739258,-0.0317925661802291,-0.0453808158636093,0.0,0.0,-0.206121563911438,-0.7424915432929993
-0.0403071418404579,0.6633471846580505,-0.0689589008688926,-0.775714635848999,-0.0336244963109493,-0.0366386882960796,0.0,0.0,0.3393903970718384,-0.7258602976799011
-0.0410829558968544,0.6462573409080505,-0.0764077976346015,-0.7595783472061157,-0.0347770415246486,-0.0230509601533412,0.0,0.0,-0.2356985211372375,-0.0737404823303222
-0.0418378822505474,0.6286243796348572,-0.0736318826675415,-0.7837274074554443,-0.0366156660020351,-0.036772359162569,0.0,0.0,0.7476068735122681,-0.5215190649032593
-0.0425795540213584,0.6117203235626221,-0.0726784467697143,-0.7513304948806763,-0.0380910448729991,-0.0295074917376041,0.0,0.0,0.6476346254348755,-0.7330750226974487
-0.0431792251765728,0.5949934124946594,-0.0595856681466102,-0.7434302568435669,-0.0384654477238655,-0.0074880635365843,0.0,0.0,0.2523483037948608,-0.8051301836967468
-0.043893814086914,0.5782637596130371,-0.071923941373825,-0.7435300946235657,-0.0380015484988689,0.0092779155820608,0.0,0.0,0.5838140249252319,0.2933405637741089
-0.0444728843867778,0.5621311664581299,-0.0581080615520477,-0.7169981598854065,-0.0378008522093296,0.0040139220654964,0.0,0.0,0.3168427944183349,0.2155343294143676
-0.0449065193533897,0.5462551712989807,-0.0434045270085334,-0.7055990695953369,-0.0377694331109523,0.0006283017573878,0.0,0.0,0.2279069423675537,0.1067999601364135
-0.0452479347586631,0.5307503342628479,-0.0337506085634231,-0.6891157627105713,-0.0381570197641849,-0.0077517619356513,0.0,0.0,0.4269194602966308,0.3644384145736694
-0.0456170067191123,0.5157235264778137,-0.0355224199593067,-0.6678935289382935,-0.0395223498344421,-0.027306705713272,0.0,0.0,0.1767406463623047,0.0245038270950317
-0.0459285750985145,0.500546932220459,-0.0292625073343515,-0.6745643615722656,-0.0413898564875125,-0.0373499430716037,0.0,0.0,-0.5911296606063843,-0.3014054298400879
-0.0462310798466205,0.4848275184631347,-0.0276842024177312,-0.6987138986587524,-0.0439253263175487,-0.0507094748318195,0.0,0.0,0.6392852067947388,-0.5185335874557495
-0.0464138984680175,0.4693270921707153,-0.0164472479373216,-0.6889670491218567,-0.0457389503717422,-0.0362725891172885,0.0,0.0,0.819669246673584,-0.1899316310882568
-0.0465343482792377,0.4542934894561767,-0.0096622621640563,-0.6682325601577759,-0.0480940416455268,-0.0471017882227897,0.0,0.0,0.7305784225463867,-0.8726705312728882
-0.0466910377144813,0.439344048500061,-0.014387403614819,-0.6644603610038757,-0.0493565388023853,-0.0252500139176845,0.0,0.0,0.4549243450164795,-0.4020100831985473
-0.0469290725886821,0.4246396124362945,-0.0213498324155807,-0.6536123752593994,-0.051777496933937,-0.0484192781150341,0.0,0.0,0.8864080905914307,-0.508021891117096
-0.0471305847167968,0.4108632206916809,-0.0181439910084009,-0.6123558878898621,-0.0537592396140098,-0.0396346785128116,0.0,0.0,-0.0562794804573059,0.2292972803115844
-0.0473340973258018,0.3965440988540649,-0.017693979665637,-0.6365060210227966,-0.0563867688179016,-0.0525507815182209,0.0,0.0,0.9210282564163208,-0.6873369812965393
-0.0475057587027549,0.3831783831119537,-0.0153359472751617,-0.5941016674041748,-0.0582021065056324,-0.0363065674901008,0.0,0.0,-0.1464515328407287,-0.7067107558250427
-0.0477481856942176,0.3692724704742431,-0.0234030075371265,-0.6180741786956787,-0.0590281821787357,-0.0165215618908405,0.0,0.0,0.9321494102478028,-0.2347885966300964
-0.0480589866638183,0.356018990278244,-0.0291047394275665,-0.5891214609146118,-0.0609824284911155,-0.0390850193798542,0.0,0.0,0.428645372390747,-0.0782486200332641
-0.0483203902840614,0.3430261611938476,-0.0236518047749996,-0.5775640606880188,-0.0634396523237228,-0.0491442941129207,0.0,0.0,0.6865088939666748,-0.4272047281265259
-0.0486701019108295,0.3307937085628509,-0.0312506631016731,-0.5438270568847656,-0.0671256780624389,-0.0737205222249031,0.0,0.0,0.4653774499893188,-0.8142108917236328
-0.0489906296133995,0.3187842667102813,-0.0294515192508697,-0.5338695645332336,-0.0697016268968582,-0.0515190288424491,0.0,0.0,0.7369658946990967,-0.6765170097351074
-0.0493902191519737,0.3068518042564392,-0.0380021855235099,-0.5304238200187683,-0.0716288387775421,-0.0385443791747093,0.0,0.0,0.741225004196167,-0.6426339745521545
-0.0497563369572162,0.2948796451091766,-0.0355431400239467,-0.5321508049964905,-0.0726930424571037,-0.0212841127067804,0.0,0.0,0.6721100807189941,0.4839111566543579
-0.0501485839486122,0.2828821539878845,-0.0373950824141502,-0.5333121418952942,-0.0745002403855323,-0.0361439622938632,0.0,0.0,0.8580825328826904,-0.4744588136672973
-0.0505044944584369,0.2716773748397827,-0.0331262126564979,-0.498112291097641,-0.0769388899207115,-0.0487733259797096,0.0,0.0,0.2200545072555542,-0.2901308536529541
-0.0507774353027343,0.2608242332935333,-0.0245200078934431,-0.4825093448162079,-0.0796845853328704,-0.0549139752984046,0.0,0.0,0.1574158668518066,-0.8402802348136902
-0.0511850342154502,0.2503117620944977,-0.0390514060854911,-0.4673122763633728,-0.0813786387443542,-0.0338808596134185,0.0,0.0,-0.5927187204360962,-0.7742162346839905
-0.0516924858093261,0.2392577081918716,-0.050350047647953,-0.4913110733032226,-0.0817658975720405,-0.0077453390695154,0.0,0.0,0.2058297395706176,-0.0999876856803894
-0.0521499626338481,0.228519931435585,-0.044925220310688,-0.4772795736789703,-0.0825728178024292,-0.0161386299878358,0.0,0.0,-0.7393617033958435,-0.1355153918266296
-0.0526350028812885,0.2172394841909408,-0.0471426583826541,-0.5014302730560303,-0.0839266180992126,-0.0270760115236043,0.0,0.0,0.269686222076416,-0.4164119362831116
-0.0531472191214561,0.2062003016471862,-0.0491158477962017,-0.4907515943050384,-0.0860127434134483,-0.0417224839329719,0.0,0.0,0.5918620824813843,-0.4962146282196045
-0.0536428466439247,0.1956268101930618,-0.0468749962747097,-0.4700886011123657,-0.0886797830462455,-0.0533404536545276,0.0,0.0,0.2071859836578369,-0.9032546877861024
-0.0541291236877441,0.1851457506418228,-0.0472606196999549,-0.4659090340137481,-0.0900300815701484,-0.0270061139017343,0.0,0.0,0.6456089019775391,-0.6443004608154297
-0.0546420104801654,0.1746284067630767,-0.050772875547409,-0.4674695134162903,-0.0905463173985481,-0.0103245116770267,0.0,0.0,0.3853569030761719,0.0815176963806152
-0.0550794601440429,0.1640621572732925,-0.0430881194770336,-0.4696508347988128,-0.0911978632211685,-0.0130310337990522,0.0,0.0,0.7608045339584351,-0.329684853553772
-0.0553386695683002,0.1538408547639846,-0.0254981331527233,-0.4543037116527557,-0.0916073769330978,-0.0081905629485845,0.0,0.0,0.7726583480834961,-0.8478003144264221
-0.055495835840702,0.1436890959739685,-0.0168281327933073,-0.4511245489120483,-0.0904997214674949,0.0221530925482511,0.0,0.0,0.8814139366149902,0.0244019031524658
-0.0556164756417274,0.1342733949422836,-0.0126959113404154,-0.4184366166591644,-0.0898801013827323,0.0123925432562828,0.0,0.0,0.2559489011764526,-0.4333865642547607
-0.0556970611214637,0.125173270702362,-0.008341840468347,-0.4044331312179565,-0.0895963981747627,0.0056740371510386,0.0,0.0,0.455517053604126,-0.8007509708404541
-0.055701158940792,0.1164033040404319,-0.00204768194817,-0.3896762430667877,-0.0879693478345871,0.0325409136712551,0.0,0.0,0.644301176071167,-0.742196261882782
-0.0556617751717567,0.1075615957379341,0.0010056314058601,-0.3927976489067077,-0.0850655809044838,0.0580752678215503,0.0,0.0,0.7015299797058105,-0.6547946929931641
-0.0557243339717388,0.098973162472248,-0.009957761503756,-0.3815008103847503,-0.0813956633210182,0.0733985379338264,0.0,0.0,0.8611710071563721,-0.0294752120971679
-0.0556494705379009,0.0912835225462913,0.0037302412092685,-0.3415623009204864,-0.0776704102754592,0.0745049640536308,0.0,0.0,0.2916125059127807,-0.2453063726425171
-0.0555950179696083,0.0837186202406883,0.0021323238033801,-0.3360496759414673,-0.0743991360068321,0.0654255971312522,0.0,0.0,0.4946528673171997,-0.3403617143630981
-0.0556365959346294,0.0766999572515487,-0.0065765576437115,-0.3118222057819366,-0.0720016583800315,0.0479493513703346,0.0,0.0,0.0205110311508178,0.0051139593124389
-0.055630873888731,0.0697774961590766,-0.0017603182932361,-0.3075548410415649,-0.0696914345026016,0.046204537153244,0.0,0.0,0.1267814636230468,0.1816418170928955
-0.055663488805294,0.0630816295742988,-0.0050988951697945,-0.2975122630596161,-0.0678684934973716,0.0364583954215049,0.0,0.0,0.6233184337615967,0.5480978488922119
-0.0557273849844932,0.056952103972435,-0.0065984427928924,-0.2724127173423767,-0.0676624104380607,0.0041216821409761,0.0,0.0,0.1053030490875244,0.7927448749542236
-0.0557632446289062,0.0507710799574852,-0.0019020339241251,-0.2747877836227417,-0.0693291500210762,-0.0333346910774707,0.0,0.0,0.5107204914093018,-0.3724726438522339
-0.055905245244503,0.0448810197412967,-0.0117534641176462,-0.2618933320045471,-0.0717526674270629,-0.0484700426459312,0.0,0.0,0.3117693662643432,0.4481256008148193
-0.0561744682490825,0.0390830859541893,-0.0236734617501497,-0.2578459084033966,-0.0749730691313743,-0.0644080489873886,0.0,0.0,0.8886607885360718,0.6889468431472778
-0.0562352165579795,0.033954344689846,-0.0015327346045523,-0.2281801253557205,-0.0794704854488372,-0.0899481028318405,0.0,0.0,0.2653923034667969,0.2354536056518554
-0.0562645904719829,0.0286997184157371,0.0015881495783105,-0.2337863445281982,-0.083955779671669,-0.0897055491805076,0.0,0.0,0.4975874423980713,0.3489081859588623
-0.0561429038643837,0.0239193774759769,0.0162704773247241,-0.212695688009262,-0.0880182608962059,-0.0812496319413185,0.0,0.0,0.3830056190490722,0.6600537300109863
-0.0559706687927246,0.0195681899785995,0.0228525809943676,-0.193724974989891,-0.0935984104871749,-0.111602783203125,0.0,0.0,0.3949459791183471,-0.1792765855789184
-0.0556489005684852,0.0157349202781915,0.0373889580368995,-0.1707029938697815,-0.0987667217850685,-0.1033662185072898,0.0,0.0,0.3320307731628418,-0.57100909948349
-0.0552968010306358,0.0120531413704156,0.0392484739422798,-0.1639087051153183,-0.1027817875146865,-0.0803012251853942,0.0,0.0,-0.1002268195152282,-0.1185410618782043
-0.0549039840698242,0.0085755679756402,0.0248622503131628,-0.1536173075437545,-0.0885165855288505,0.2852542698383331,1.0,0.0,0.6708124876022339,-0.3329298496246338
-0.054272461682558,0.0063514802604913,0.0318682380020618,-0.0972981378436088,-0.0575330182909965,0.6196984648704529,1.0,0.0,0.0968947410583496,-0.1800588965415954
-0.0535173416137695,0.0043702577240765,0.0352434180676937,-0.0869951620697975,-0.0177110508084297,0.7964881062507629,1.0,0.0,0.8455575704574585,0.8368983268737793
-0.052860639989376,0.0028639649972319,0.0289109982550144,-0.0669128894805908,0.0185743402689695,0.7257084250450134,1.0,0.0,0.5913772583007812,0.9249601364135742
-0.052279282361269,0.0015701389638707,0.023440632969141,-0.0582883171737194,0.0528411902487278,0.6853383183479309,0.0,1.0,0.3026785850524902,0.990482211112976
-0.0518155097961425,0.0008499479154124,0.0275972075760364,-0.0330132767558097,0.0702170133590698,0.3459696173667907,0.0,1.0,-0.7161102890968323,0.9163423776626588
-0.0514856353402137,0.000134871006594,0.0359594821929931,-0.0316562540829181,0.0672231316566467,-0.0599339716136455,0.0,1.0,-0.1395230293273925,0.0855361223220825
-0.0512423515319824,-0.0006187224644236,0.0416568405926227,-0.0328140445053577,0.0500616431236267,-0.3432670831680298,0.0,1.0,0.1403408050537109,-0.1762532591819763
-0.0510192885994911,-0.0009446644689887,0.0471346825361251,-0.0138452686369419,0.0255121607333421,-0.4910186231136322,0.0,1.0,-0.2614479064941406,-0.1270798444747924
-0.0507996566593647,-0.0017632746603339,0.0479242876172065,-0.0361456274986267,-0.0001363118790322,-0.51300048828125,1.0,1.0,0.3356525897979736,-0.2650089263916015
