x_pos,y_pos,x_vel,y_vel,angle,ang_vel,leg_1,leg_2,main_booster,lat_booster
-0.0015358924865722,1.403328776359558,-0.1554019302129745,-0.3374001085758209,0.0016187217552214,0.0319203361868858,0.0,0.0,0.3879300770813747,-0.8502523865217201
-0.0031013488769531,1.396041750907898,-0.1597426980733871,-0.3238755762577057,0.0047842841595411,0.0633178576827049,0.0,0.0,-0.6099752093163364,-0.5757664882045974
-0.0047122002579271,1.3884539604187012,-0.1650237143039703,-0.3372541666030884,0.008679898455739,0.0779195129871368,0.0,0.0,-0.0740426709973973,0.8719985580593765
-0.0062768934294581,1.3805681467056274,-0.158863291144371,-0.3504922986030578,0.0110388100147247,0.047182448208332,0.0,0.0,0.7979349810063003,0.7649338059936148
-0.0076437951065599,1.373456954956055,-0.1377534121274948,-0.3160625696182251,0.0120854182168841,0.0209344066679477,0.0,0.0,0.1349494420882824,0.9743993508103894
-0.0088333133608102,1.3666112422943115,-0.1179236769676208,-0.3042449653148651,0.0110719734802842,-0.020270861685276,0.0,0.0,-0.7389042540857236,-0.8321097497993092
-0.0100957872346043,1.3594685792922974,-0.1268108338117599,-0.3174578547477722,0.011628589592874,0.0111334528774023,0.0,0.0,-0.8114990673769815,-0.8456730650046911
-0.0114121437072753,1.3520315885543823,-0.1333395391702652,-0.3305445313453674,0.0133091965690255,0.0336152091622352,0.0,0.0,-0.089780108263858,0.7194402599752434
-0.0126755712553858,1.3443076610565186,-0.1264970451593399,-0.3432851135730743,0.013462871313095,0.0030737677589058,0.0,0.0,0.5902180804557899,-0.913508449619104
-0.0140222553163766,1.3373408317565918,-0.1365317106246948,-0.3096562623977661,0.0153013886883854,0.0367738157510757,0.0,0.0,-0.1743496952917025,-0.6693071520850528
-0.0154138561338186,1.3300774097442627,-0.142053872346878,-0.3228515684604645,0.0181571152061224,0.0571197681128978,0.0,0.0,-0.2370938936706936,-0.7813229270537181
-0.0168582908809185,1.3225152492523191,-0.1485913544893264,-0.3361519575119018,0.0222676210105419,0.0822173953056335,0.0,0.0,0.828214272986078,0.5805902307613795
-0.0181171409785747,1.3158278465270996,-0.1291991025209427,-0.2972743809223175,0.0255533289164304,0.0657201558351516,0.0,0.0,0.5731154578754389,0.8354459529109726
-0.019240666180849,1.3093490600585938,-0.1140334233641624,-0.2879797220230102,0.0272051338106393,0.033039141446352,0.0,0.0,-0.9996532694743288,0.6552463029141969
-0.0202947612851858,1.3025836944580078,-0.1053629666566848,-0.3006828427314758,0.0271620079874992,-0.0008624726906418,0.0,0.0,-0.4895459098725461,-0.9625831654610868
-0.0214033126831054,1.295508623123169,-0.112317144870758,-0.3144740760326385,0.0286007020622491,0.0287764258682727,0.0,0.0,-0.7792758352061646,-0.9652307573952632
-0.022562313824892,1.2881464958190918,-0.1187649220228195,-0.3272645175457001,0.0314407013356685,0.0568051859736442,0.0,0.0,-0.6631692852759856,-0.5942060071712958
-0.0237469673156738,1.2804818153381348,-0.1221801787614822,-0.3407338857650757,0.0351160317659378,0.0735131725668907,0.0,0.0,0.1557192426957421,0.7594033886781539
-0.0248026847839355,1.2733776569366455,-0.1077757477760315,-0.315797358751297,0.0373000428080558,0.043684147298336,0.0,0.0,0.3849464496552688,-0.5938962299772556
-0.0259840972721576,1.2666815519332886,-0.1213350296020507,-0.2976850271224975,0.0404589287936687,0.0631834119558334,0.0,0.0,0.9965415437622872,0.6400595159806832
-0.0269731525331735,1.2610692977905271,-0.1012284308671951,-0.2495015561580658,0.0427564159035682,0.045953843742609,0.0,0.0,0.3130199591128095,0.7445773906810856
-0.0278926845639944,1.255687952041626,-0.0927647799253463,-0.2391854971647262,0.0435607843101024,0.0160888321697711,0.0,0.0,0.8734672669137904,-0.8136533203843829
-0.0287259109318256,1.250941514968872,-0.0861008614301681,-0.2110391110181808,0.0463011562824249,0.0548122934997081,0.0,0.0,0.6932734925825881,0.6156528863465902
-0.0294304843991994,1.24638032913208,-0.0721739381551742,-0.2027716338634491,0.0479982979595661,0.0339461416006088,0.0,0.0,0.8462557000151043,0.7856904609589542
-0.0302620884031057,1.242595076560974,-0.0829257890582084,-0.1682267040014267,0.0477666929364204,-0.0046322168782353,0.0,0.0,0.5513753063318132,0.7470919228173631
-0.0311968810856342,1.2394803762435913,-0.0914747565984726,-0.138366013765335,0.0457861050963401,-0.0396119356155395,0.0,0.0,-0.2062118941351758,-0.9158403166757704
-0.0321830734610557,1.2360706329345703,-0.0984649881720542,-0.1515363007783889,0.045635987073183,-0.0030021069105714,0.0,0.0,0.0536295599125986,0.9180274395193396
-0.0331981666386127,1.2331615686416626,-0.0995580106973648,-0.1292341202497482,0.0436990149319171,-0.0387393683195114,0.0,0.0,0.3994013141058827,-0.8881706057857016
-0.0344155319035053,1.2309343814849854,-0.1214667111635208,-0.0989777073264122,0.0434393174946308,-0.0051940730772912,0.0,0.0,0.708755009442436,0.6665148936147616
-0.0356019958853721,1.2291665077209473,-0.1170360073447227,-0.0785247460007667,0.0418486222624778,-0.0318137221038341,0.0,0.0,-0.8104564519763624,-0.7205844077519314
-0.0368195548653602,1.2271075248718262,-0.1216134577989578,-0.0915056318044662,0.0417034104466438,-0.0029043839313089,0.0,0.0,-0.8620593547821045,0.2144967317581176
-0.0380121245980262,1.22475266456604,-0.1191738247871398,-0.1046538278460502,0.0416243635118007,-0.0015808474272489,0.0,0.0,-0.9931824207305908,0.909299612045288
-0.0391170494258403,1.2221145629882812,-0.1089091151952743,-0.1172066181898117,0.0400572270154953,-0.031342726200819,0.0,0.0,-0.9910603761672974,0.7711963653564453
-0.0401408188045024,1.219177007675171,-0.0994854122400283,-0.1304833739995956,0.0372011959552764,-0.0571208596229553,0.0,0.0,-0.9548887014389038,0.766108512878418
-0.0410753265023231,1.2159489393234253,-0.0890625715255737,-0.143367663025856,0.032868891954422,-0.0866460055112838,0.0,0.0,-0.9640721678733826,0.4499306678771972
-0.0419821739196777,1.2124252319335938,-0.0863911062479019,-0.1565174758434295,0.0286325961351394,-0.0847260355949401,0.0,0.0,-0.9141234755516052,0.8431808948516846
-0.0427968017756938,1.2086048126220703,-0.0756584778428077,-0.169706106185913,0.0228951517492532,-0.1147488355636596,0.0,0.0,-0.983686089515686,0.508812427520752
-0.0435400009155273,1.2044942378997805,-0.0675288587808609,-0.1826009899377823,0.0161898862570524,-0.1341052502393722,0.0,0.0,-0.9932063817977904,0.1272213459014892
-0.0442540161311626,1.2000885009765625,-0.0647218078374862,-0.1957528740167617,0.0095986863598227,-0.1318241953849792,0.0,0.0,-0.9414267539978028,0.6533958911895752
-0.0448842048645019,1.1953892707824707,-0.0550841800868511,-0.2088241279125213,0.00176636967808,-0.1566463410854339,0.0,0.0,-0.9969823360443116,0.6143602132797241
-0.0454443916678428,1.1904003620147705,-0.0471839644014835,-0.221741184592247,-0.0069469641894102,-0.17426697909832,0.0,0.0,-0.9956532120704652,0.1488813161849975
-0.0459741577506065,1.1851167678833008,-0.044268749654293,-0.2348954230546951,-0.0155317047610878,-0.1716948002576828,0.0,0.0,-0.9908202290534972,0.6077921390533447
-0.046417236328125,1.179530382156372,-0.0343216434121131,-0.2484205812215805,-0.0253877639770507,-0.197121724486351,0.0,0.0,-0.9648023247718812,-0.1237457394599914
-0.0468291267752647,1.1736494302749634,-0.0313472151756286,-0.2615764141082763,-0.0351072736084461,-0.1943900883197784,0.0,0.0,-0.9608067870140076,-0.4293180704116821
-0.0472094528377056,1.1674737930297852,-0.0283465199172496,-0.2747319042682647,-0.0446867011487484,-0.1915882527828216,0.0,0.0,-0.9888086915016174,-0.6494377255439758
-0.0476058013737201,1.1609996557235718,-0.0312917940318584,-0.2880036532878876,-0.0529303736984729,-0.1648730337619781,0.0,0.0,-0.9874533414840698,0.2816312313079834
-0.0479701980948448,1.1542305946350098,-0.0282443109899759,-0.3011566400527954,-0.0610277466475963,-0.1619477272033691,0.0,0.0,-0.9739776253700256,-0.3193323612213135
-0.0483022704720497,1.1471664905548096,-0.0251761525869369,-0.3143093287944793,-0.0689761415123939,-0.1589680463075637,0.0,0.0,-0.988730490207672,-0.3783667087554931
-0.0486019141972065,1.1398073434829712,-0.0220889281481504,-0.327461689710617,-0.0767730847001075,-0.155938521027565,0.0,0.0,-0.9687365293502808,-0.4851356744766235
-0.0488690361380577,1.132152795791626,-0.0189841426908969,-0.3406137824058532,-0.08441624045372,-0.1528633385896682,0.0,0.0,-0.9555566906929016,-0.8564053177833557
-0.0491546615958213,1.12420916557312,-0.0223195515573024,-0.3534116744995117,-0.0906039103865623,-0.1237532943487167,0.0,0.0,-0.9461290836334229,-0.5196008086204529
-0.0494519248604774,1.115979790687561,-0.0247923377901315,-0.3660672307014465,-0.0954982563853263,-0.0978869497776031,0.0,0.0,-0.8894640207290649,-0.4691499471664428
-0.0497160926461219,1.1074542999267578,-0.0216424614191055,-0.3792158961296081,-0.1002331376075744,-0.0946972742676734,0.0,0.0,-0.9217554926872252,-0.7465915083885193
-0.0500048622488975,1.0986487865447998,-0.0257714297622442,-0.3915678262710571,-0.1033238694071769,-0.0618143193423748,0.0,0.0,-0.9852097034454346,-0.4304617643356323
-0.0502603538334369,1.0895475149154663,-0.0225972682237625,-0.4047152101993561,-0.1062520518898963,-0.0585637502372264,0.0,0.0,-0.925960123538971,-0.6751046180725098
-0.0505440719425678,1.0801568031311035,-0.0271573271602392,-0.4174461662769317,-0.1074574589729309,-0.0241081956773996,0.0,0.0,-0.8005216717720032,-0.2043323516845703
-0.0507942214608192,1.0704702138900757,-0.0239628069102764,-0.430592805147171,-0.1084977909922599,-0.0208069141954183,0.0,0.0,-0.9474543929100036,-0.4614131450653076
-0.0510106086730957,1.0604875087738037,-0.0207594390958547,-0.4437393248081207,-0.109371967613697,-0.0174835603684186,0.0,0.0,-0.8990389704704285,-0.5839930772781372
-0.0512330047786235,1.0502214431762695,-0.0225535687059164,-0.4562504887580871,-0.109056256711483,0.0063141682185232,0.0,0.0,-0.8407670855522156,-0.5341520309448242
-0.0514684692025184,1.039671540260315,-0.0252405758947134,-0.4687573611736297,-0.1073704212903976,0.0337167680263519,0.0,0.0,-0.9582688808441162,0.1067047119140625
-0.0516698844730854,1.0288258790969849,-0.0220151841640472,-0.4819040894508362,-0.1055156588554382,0.037095159292221,0.0,0.0,-0.9476374983787536,-0.18646901845932
-0.0518373474478721,1.0176838636398315,-0.0187837909907102,-0.495050847530365,-0.1034912168979644,0.0404886305332183,0.0,0.0,-0.9574598073959352,-0.4958422183990478
-0.0519706718623638,1.0062459707260132,-0.0155469998717308,-0.5081976652145386,-0.1012964248657226,0.0438958629965782,0.0,0.0,-0.797788679599762,0.057681918144226
-0.05206985399127,0.9945122003555298,-0.0123053779825568,-0.5213446021080017,-0.0989306420087814,0.047315627336502,0.0,0.0,-0.9857377409934998,-0.637263834476471
-0.0521846786141395,0.9824851751327516,-0.0153055610135197,-0.5342890620231628,-0.095141015946865,0.0757922977209091,0.0,0.0,-0.978370487689972,0.699221134185791
-0.0522215850651264,0.9701563119888306,-0.0065621635876595,-0.5477685928344727,-0.0922864452004432,0.0570915639400482,0.0,0.0,-0.9346997141838074,-0.3746595978736877
-0.0522240623831748,0.9575316309928894,-0.0033091916702687,-0.5609159469604492,-0.0892593413591384,0.0605422034859657,0.0,0.0,-0.9623075723648072,0.4003949165344238
-0.0521924011409282,0.9446109533309937,-5.33966303919442e-05,-0.5740634202957153,-0.0860592722892761,0.0640012025833129,0.0,0.0,-0.8979096412658691,0.8272128105163574
-0.052057646214962,0.9313949942588806,0.0118108168244361,-0.5872789621353149,-0.0844051167368888,0.0330829918384552,0.0,0.0,-0.9129846692085266,0.1294248104095459
-0.0518884658813476,0.9178830981254578,0.0150710102170705,-0.6004258990287781,-0.0825772956013679,0.0365564785897731,0.0,0.0,-0.9426197409629822,0.1739542484283447
-0.0516849532723426,0.9040750861167908,0.0183327216655015,-0.6135729551315308,-0.0805754885077476,0.0400361344218254,0.0,0.0,-0.9707269668579102,0.2784149646759033
-0.0514471046626567,0.8899712562561035,0.0215955264866352,-0.6267200708389282,-0.0783994123339653,0.043521262705326,0.0,0.0,-0.9630915522575378,-0.1373400092124939
-0.0511747375130653,0.875571608543396,0.0248590148985385,-0.6398672461509705,-0.0760488584637641,0.0470112860202789,0.0,0.0,-0.7864599823951721,0.1579346656799316
-0.0508679375052452,0.8608759641647339,0.0281227771192789,-0.653014600276947,-0.0735235884785652,0.0505055785179138,0.0,0.0,-0.9498746395111084,0.2736973762512207
-0.0505268089473247,0.8458843231201172,0.0313864015042781,-0.6661620736122131,-0.0708234086632728,0.0540035441517829,0.0,0.0,-0.8906413912773132,0.5334888696670532
-0.0501047149300575,0.8305861353874207,0.0405040234327316,-0.6798380017280579,-0.069131851196289,0.0338310562074184,0.0,0.0,-0.9333822727203368,-0.4860565662384033
-0.0496481880545616,0.8149921298027039,0.0437661930918693,-0.6929851770401001,-0.0672651156783104,0.0373348779976367,0.0,0.0,-0.8646557927131653,0.0578432083129882
-0.0491573326289653,0.7991021871566772,0.0470269806683063,-0.7061324715614319,-0.0652230754494667,0.0408409349620342,0.0,0.0,-0.9137212634086608,0.129438042640686
-0.0486320480704307,0.7829160690307617,0.0502859465777874,-0.7192798852920532,-0.0630056485533714,0.0443487353622913,0.0,0.0,-0.8745829463005066,0.4413251876831054
-0.0480724349617958,0.7664343118667603,0.0535426437854766,-0.7324273586273193,-0.060612753033638,0.0478578433394432,0.0,0.0,-0.8185532093048096,-0.5072802901268005
-0.0475274100899696,0.7496558427810669,0.0506675243377685,-0.7455600500106812,-0.0568188652396202,0.07587780803442,0.0,0.0,-0.6138401031494141,0.8086683750152588
-0.0468795783817768,0.7325829863548279,0.0624996609985828,-0.7587124705314636,-0.0545653030276298,0.0450713150203228,0.0,0.0,-0.9088571667671204,0.6378388404846191
-0.0461555495858192,0.7152105569839478,0.0710067227482795,-0.7720539569854736,-0.0531920455396175,0.0274651609361171,0.0,0.0,-0.5337772369384766,-0.2764289379119873
-0.0453973785042762,0.6975423097610474,0.0742495059967041,-0.785201370716095,-0.0516432859003543,0.0309751592576503,0.0,0.0,-0.8569415807723999,0.053185224533081
-0.0446050651371479,0.6795782446861267,0.0774874538183212,-0.7983487844467163,-0.0499190799891948,0.0344843789935112,0.0,0.0,-0.8036381602287292,0.3061710596084595
-0.0437786094844341,0.6613181829452515,0.0807199627161026,-0.811496376991272,-0.048019453883171,0.0379923768341541,0.0,0.0,-0.6169820427894592,-0.1520641446113586
-0.0429182052612304,0.642762303352356,0.0839463621377945,-0.8246439695358276,-0.0459445156157016,0.0414986722171306,0.0,0.0,-0.6610528826713562,0.153496503829956
-0.0420237556099891,0.6239104270935059,0.0871659740805625,-0.8377916216850281,-0.0436943806707859,0.04500288143754,0.0,0.0,-0.3534544706344604,-0.3263212442398071
-0.0410954467952251,0.6047627329826355,0.090378038585186,-0.8509395122528076,-0.0412691496312618,0.0485045239329338,0.0,0.0,-0.1170210838317871,0.0187369585037231
-0.040133286267519,0.5853192210197449,0.0935817509889602,-0.8640874028205872,-0.0386689938604831,0.0520031824707984,0.0,0.0,0.670944333076477,-0.4693597555160522
-0.0391137115657329,0.566719114780426,0.0991701409220695,-0.8266047239303589,-0.035920612514019,0.054967738687992,0.0,0.0,0.602222204208374,-0.6776374578475952
-0.038054846227169,0.5489321947097778,0.1014907360076904,-0.7904296517372131,-0.0315795540809631,0.0868211016058921,0.0,0.0,0.0705946683883667,-0.4698702096939087
-0.0368681922554969,0.5314939618110657,0.1137184128165245,-0.7749374508857727,-0.0266908761113882,0.0977736860513687,0.0,0.0,-0.5365220904350281,-0.2952512502670288
-0.0356480590999126,0.5137601494789124,0.1168792024254798,-0.788087010383606,-0.0216281227767467,0.1012552008032798,0.0,0.0,0.1999776363372802,-0.5117089748382568
-0.034468937665224,0.4962867796421051,0.111665703356266,-0.7765175700187683,-0.0154617857187986,0.1233267039060592,0.0,0.0,0.2693938016891479,-0.2701539993286133
-0.0331814773380756,0.4795108139514923,0.1220227926969528,-0.745543897151947,-0.0088211763650178,0.1328122913837433,0.0,0.0,0.5447216033935547,-0.1150583028793335
-0.0318781845271587,0.4632380306720733,0.1235322952270507,-0.7232090830802917,-0.0021082845050841,0.134257823228836,0.0,0.0,0.0087218284606933,-0.5489481687545776
-0.0306694991886615,0.447404146194458,0.1129168644547462,-0.7037384510040283,0.0057430719025433,0.157027006149292,0.0,0.0,0.0832263231277465,0.6467258930206299
-0.0293151848018169,0.431965708732605,0.1285225600004196,-0.6861951947212219,0.012558658607304,0.1363120377063751,0.0,0.0,-0.2981675863265991,0.208071231842041
-0.02792863920331,0.4162320792675018,0.1315800100564956,-0.6993473172187805,0.0195461511611938,0.1397499293088913,0.0,0.0,-0.1194941997528076,-0.1627563238143921
-0.0265100486576557,0.4002033472061157,0.1346140205860138,-0.7124996781349182,0.0267050545662641,0.1431780457496643,0.0,0.0,0.3586597442626953,-0.0469933748245239
-0.0250908844172954,0.384492814540863,0.1345812380313873,-0.6983957290649414,0.0339401885867118,0.1447027176618576,0.0,0.0,0.5689765214920044,0.235964298248291
-0.0237704273313283,0.3693377673625946,0.1250713467597961,-0.6737338900566101,0.0408331118524074,0.137858510017395,0.0,0.0,0.4896386861801147,0.3484505414962768
-0.0225735660642385,0.3545869588851928,0.1131732836365699,-0.6557820439338684,0.0472680926322937,0.1286995559930801,0.0,0.0,0.6373878717422485,0.7016708850860596
-0.0212095268070697,0.3406242430210113,0.13089220225811,-0.6207495331764221,0.0527151823043823,0.1089418157935142,0.0,0.0,-0.1890234947204589,-0.1791646480560302
-0.0198149681091308,0.3263661861419678,0.1337710469961166,-0.6339007616043091,0.0583305172622203,0.1123070865869522,0.0,0.0,0.496625542640686,0.5274851322174072
-0.0182479862123727,0.3128678798675537,0.1515586823225021,-0.600135087966919,0.0634175017476081,0.1017394214868545,0.0,0.0,0.2553085088729858,0.0970408916473388
-0.0167059898376464,0.2999551594257355,0.1489648669958114,-0.5741264224052429,0.0685906335711479,0.1034625172615051,0.0,0.0,-0.2039510607719421,-0.3597614765167236
-0.0151350023224949,0.2867471873760223,0.1517114639282226,-0.5872775912284851,0.0739294067025184,0.1067755222320556,0.0,0.0,-0.1439676880836486,-0.5800594687461853
-0.0135752679780125,0.2732395827770233,0.1493891924619674,-0.6006744503974915,0.0804415345191955,0.1302427947521209,0.0,0.0,0.8207504749298096,-0.2465628385543823
-0.0120677947998046,0.260781317949295,0.1440442651510238,-0.5540745258331299,0.0870804265141487,0.1327778995037078,0.0,0.0,0.2590630054473877,0.4796983003616333
-0.010539149865508,0.2489309608936309,0.1457916498184204,-0.5271105170249939,0.0940954908728599,0.1403010487556457,0.0,0.0,0.0641102790832519,0.2105138301849365
-0.0089598651975393,0.2372340261936187,0.1504508405923843,-0.5203543901443481,0.1015116348862648,0.1483228206634521,0.0,0.0,0.1126562356948852,0.4653929471969604
-0.0074788094498217,0.2258510142564773,0.1408565044403076,-0.506420910358429,0.1087063699960708,0.1438945680856704,0.0,0.0,-0.306130051612854,0.3755497932434082
-0.0059726713225245,0.2141731828451156,0.143212616443634,-0.5195745825767517,0.1160592287778854,0.1470570266246795,0.0,0.0,0.5285849571228027,0.6553583145141602
-0.0044728280045092,0.2029822170734405,0.1437951177358627,-0.4978699386119842,0.122215449810028,0.1231244206428527,0.0,0.0,0.3745436668395996,-0.1803322434425354
-0.0029822350479662,0.1921609789133072,0.1426083147525787,-0.4814879596233368,0.1286263167858123,0.1282175332307815,0.0,0.0,0.7659951448440552,0.502260684967041
-0.0013319015270099,0.1816480010747909,0.1590127795934677,-0.4677726030349731,0.1346171796321869,0.1198173910379409,0.0,0.0,0.8403925895690918,-0.0804085135459899
0.0003449440118856,0.1719941198825836,0.1610212475061416,-0.429679125547409,0.141261026263237,0.1328769028186798,0.0,0.0,0.4946697950363159,-0.9120497703552246
0.001892375992611,0.1631279587745666,0.1460739970207214,-0.394893079996109,0.1499010622501373,0.1728005409240722,0.0,0.0,0.3415306806564331,-0.8048897981643677
0.0034164427779614,0.1543332487344741,0.1419253796339035,-0.3919651210308075,0.1603709012269973,0.2093971222639084,0.0,0.0,-0.2032243013381958,0.6016854047775269
