x_pos,y_pos,x_vel,y_vel,angle,ang_vel,leg_1,leg_2,main_booster,lat_booster
-0.0015137672889977,1.4034419059753418,-0.1535278707742691,-0.3323615193367004,0.0019321687286719,0.0381265804171562,0.0,0.0,-0.2192421177633612,-0.0862270808607849
-0.0030174255371093,1.395804524421692,-0.1524508148431778,-0.3394449949264526,0.0040036421269178,0.0414338782429695,0.0,0.0,0.54109802466458,-0.2662554502244307
-0.004387283232063,1.3885501623153689,-0.1398988515138626,-0.3224249184131622,0.0068811974488198,0.0575564019382,0.0,0.0,-0.6445334392675501,0.0161713769249479
-0.0057463645935058,1.3811132907867432,-0.1390448808670044,-0.330544650554657,0.0099868699908256,0.0621190145611763,0.0,0.0,0.7982152171683803,-0.480418605471535
-0.006961059756577,1.374560832977295,-0.1255346536636352,-0.2912500202655792,0.0140125565230846,0.080521211028099,0.0,0.0,0.6776548173064263,0.2128236592369665
-0.0080327037721872,1.3686562776565552,-0.1121827512979507,-0.2624843418598175,0.0189696457237005,0.0991510078310966,0.0,0.0,0.056888118201853,-0.1693323554725749
-0.0091143604367971,1.3631231784820557,-0.1133947521448135,-0.2459937781095504,0.0241403542459011,0.1034236177802085,0.0,0.0,0.6635252095632254,0.0967667931456115
-0.0100496290251612,1.3583903312683103,-0.0997818931937217,-0.2104620486497879,0.0303272549062967,0.123749278485775,0.0,0.0,-0.8447461563745722,0.796197782407575
-0.0109118465334177,1.3534868955612185,-0.0912276357412338,-0.2180423438549041,0.0352808572351932,0.0990811958909034,0.0,0.0,0.4211912585094022,0.423807884351688
-0.0117847444489598,1.3493380546569824,-0.092622086405754,-0.1845230311155319,0.040560532361269,0.105603203177452,0.0,0.0,0.6316461215460214,0.9866406448571832
-0.012495326809585,1.3458982706069946,-0.0748911798000335,-0.1529856622219085,0.0443496406078338,0.0757890790700912,0.0,0.0,-0.5235210709524754,0.3578514231361965
-0.0131937023252248,1.3422765731811523,-0.0740099176764488,-0.1611027866601944,0.0484934784471988,0.0828839465975761,0.0,0.0,0.7784959141825363,-0.2001775410829162
-0.0137758255004882,1.3396110534667969,-0.0634358078241348,-0.1186418756842613,0.0536652766168117,0.1034450903534889,0.0,0.0,0.170472810069294,0.4525672450845971
-0.0143099781125783,1.3371442556381226,-0.0592524409294128,-0.1098497584462165,0.0594430863857269,0.1155668273568153,0.0,0.0,-0.3743366685094531,-0.0390038070019523
-0.01483154296875,1.334496021270752,-0.0583740659058094,-0.1179644241929054,0.0656063258647918,0.123275876045227,0.0,0.0,-0.2147264047893293,-0.4678603029157104
-0.0153403282165527,1.3316659927368164,-0.0574963092803955,-0.1260797083377838,0.0721638798713684,0.1311628818511963,0.0,0.0,-0.2382970322471407,-0.8574391845402711
-0.0158888809382915,1.328658938407898,-0.0632005482912063,-0.1340696811676025,0.0804355219006538,0.1654478907585144,0.0,0.0,0.6249691308957779,-0.2104882303311529
-0.0163145065307617,1.3260385990142822,-0.0519857592880725,-0.1169861406087875,0.0897730067372322,0.1867664605379104,0.0,0.0,-0.7299354839860623,-0.0132396379174944
-0.0167275425046682,1.323237419128418,-0.0511172898113727,-0.1251129209995269,0.0995264947414398,0.1950877010822296,0.0,0.0,-0.5760580720786337,-0.8647196085250634
-0.0172047615051269,1.320244073867798,-0.0599187985062599,-0.1338970065116882,0.1116551458835601,0.2425948083400726,0.0,0.0,0.5587082401042855,-0.8067711816972496
-0.0176790244877338,1.3181461095809937,-0.0618743970990181,-0.0943855792284011,0.1260373592376709,0.2876701056957245,0.0,0.0,-0.4397274531357489,0.9378419129980736
-0.0180651657283306,1.3158775568008425,-0.0515694804489612,-0.1019687205553054,0.1389466226100921,0.2582083642482757,0.0,0.0,-0.3220251276871921,0.4702559153882573
-0.018438721075654,1.3134297132492063,-0.0507156774401664,-0.1100975647568702,0.1522951275110244,0.2669939696788788,0.0,0.0,-0.187559323179407,0.3302432235535931
-0.0187995918095111,1.3108025789260864,-0.0498650930821895,-0.1182326003909111,0.1660855114459991,0.2758322358131408,0.0,0.0,0.6198406986691596,-0.0586923825133581
-0.019389534369111,1.308895230293274,-0.0725390017032623,-0.0863441377878189,0.1796764582395553,0.2718437016010284,0.0,0.0,-0.7295508387130021,-0.9157636305301188
-0.0200531966984272,1.3067688941955566,-0.0826079621911048,-0.0965573564171791,0.1959966868162155,0.3264043629169464,0.0,0.0,0.58728251182029,-0.4536364995957064
-0.0208363533020019,1.3054927587509155,-0.0949723869562149,-0.0590122267603874,0.2127890884876251,0.3358481526374817,0.0,0.0,-0.3776758266692859,-0.7292470114997112
-0.0216763503849506,1.3040246963500977,-0.102813996374607,-0.0680649206042289,0.2318198531866073,0.3806151747703552,0.0,0.0,0.3065682430548562,-0.2310199000532173
-0.0227450374513864,1.3032389879226685,-0.1255798786878585,-0.0379730463027954,0.2508343756198883,0.3802905678749084,0.0,0.0,0.6305738567498451,0.6125105337927708
-0.023895263671875,1.3029837608337402,-0.1328336745500564,-0.0144987488165497,0.269024133682251,0.3637953996658325,0.0,0.0,0.461131504053287,-0.2818845311537686
-0.0252161975950002,1.3036413192749023,-0.1503399759531021,0.0257560089230537,0.2877567410469055,0.3746527433395386,0.0,0.0,-0.8203144669532776,0.9950850009918212
-0.0264582633972167,1.3041458129882812,-0.1411066055297851,0.0189884733408689,0.305203765630722,0.3489407896995544,0.0,0.0,-0.8583327531814575,0.997612714767456
-0.0276251789182424,1.3045127391815186,-0.1322720497846603,0.0129537004977464,0.3213589787483215,0.3231047093868255,0.0,0.0,-0.9080037474632264,0.992476224899292
-0.0287116058170795,1.3047267198562622,-0.1228603273630142,0.0062872562557458,0.3361853957176208,0.2965280413627624,0.0,0.0,-0.7615509033203125,0.9977946281433104
-0.0297101028263568,1.304804801940918,-0.1124431043863296,0.0004741477023344,0.349387377500534,0.2640400826931,0.0,0.0,-0.8753262758255005,0.9852864742279052
-0.0306229591369628,1.304752230644226,-0.1022909134626388,-0.0050519807264208,0.3609757423400879,0.2317671775817871,0.0,0.0,-0.8886148929595947,0.9898853302001952
-0.0314524658024311,1.3045555353164673,-0.0925360098481178,-0.0111815631389617,0.3711028695106506,0.2025429308414459,0.0,0.0,-0.8043158054351807,0.9835562705993652
-0.0321948044002056,1.3042316436767578,-0.0822069197893142,-0.0164869520813226,0.3795477151870727,0.1688971221446991,0.0,0.0,-0.93009215593338,0.9943262338638306
-0.0328598991036415,1.3037790060043335,-0.0730820894241333,-0.0218788255006074,0.3865436017513275,0.1399184763431549,0.0,0.0,-0.8729219436645508,0.97523295879364
-0.0334385856986045,1.3031933307647705,-0.0629064738750457,-0.0274055805057287,0.3919124603271484,0.107377290725708,0.0,0.0,-0.9653628468513488,0.9833083152770996
-0.0339484214782714,1.3024719953536987,-0.0548872053623199,-0.0331443697214126,0.3960821032524109,0.083392895758152,0.0,0.0,-0.8927301168441772,0.9603707790374756
-0.0343616493046283,1.3016211986541748,-0.0434317849576473,-0.03840147331357,0.3983458876609802,0.0452748425304889,0.0,0.0,-0.8343157768249512,0.8847699165344238
-0.0346855148673057,1.300628423690796,-0.0329887680709362,-0.0442870669066906,0.3989816009998321,0.0127144260331988,0.0,0.0,-0.97830069065094,0.8812772035598755
-0.0349225997924804,1.2995010614395142,-0.0227721985429525,-0.049843531101942,0.3979813754558563,-0.020004715770483,0.0,0.0,-0.969779133796692,0.8660222291946411
-0.0350864417850971,1.298221230506897,-0.0143518121913075,-0.0563159957528114,0.3958100080490112,-0.0434272289276123,0.0,0.0,-0.9708764553070068,0.8507678508758545
-0.0351696982979774,1.2967950105667114,-0.0049865371547639,-0.0624581389129161,0.3922432363033294,-0.0713355094194412,0.0,0.0,-0.979161024093628,0.7037217617034912
-0.035183809697628,1.2952206134796145,0.0029636858962476,-0.068779319524765,0.3875670433044433,-0.0935236066579818,0.0,0.0,-0.9966188669204712,0.8572837114334106
-0.0351381301879882,1.2935057878494265,0.0098723527044057,-0.0747803524136543,0.3819270133972168,-0.1128005236387252,0.0,0.0,-0.9949530959129332,0.6917029619216919
-0.0350431427359581,1.2916407585144043,0.0154059547930955,-0.0813234746456146,0.3756546974182129,-0.1254461705684662,0.0,0.0,-0.9847397208213806,0.8377974033355713
-0.0348771102726459,1.289628982543945,0.0236357599496841,-0.0875859186053276,0.3682082891464233,-0.1489282399415969,0.0,0.0,-0.9967316389083862,0.6983364820480347
-0.0346363075077533,1.287474513053894,0.0323418006300926,-0.0936600342392921,0.3594716191291809,-0.1747333854436874,0.0,0.0,-0.9951300024986268,0.9086874723434448
-0.0343256965279579,1.2851805686950684,0.0405161753296852,-0.0996219664812088,0.3495281636714935,-0.1988692730665207,0.0,0.0,-0.9936477541923524,0.8894109725952148
-0.0339253433048725,1.282745361328125,0.0510965995490551,-0.1055759489536285,0.3379243314266205,-0.232076808810234,0.0,0.0,-0.98304545879364,0.2945818901062011
-0.0335144028067588,1.280131697654724,0.0517389178276062,-0.1137095689773559,0.3268091380596161,-0.2223043143749237,0.0,0.0,-0.9864146113395692,0.5461485385894775
-0.0330417640507221,1.2773631811141968,0.0588197223842144,-0.1204797700047493,0.3147931694984436,-0.2403193265199661,0.0,0.0,-0.9541640877723694,0.6203935146331787
-0.0325190536677837,1.27443265914917,0.0644177496433258,-0.1276596486568451,0.3022046685218811,-0.2517703175544739,0.0,0.0,-0.9070050716400146,0.1535906791687011
-0.0319861397147178,1.2713234424591064,0.0650111064314842,-0.1357939094305038,0.2901050150394439,-0.2419939488172531,0.0,0.0,-0.9322755932807922,0.1470071077346801
-0.03144321590662,1.2680354118347168,0.0655864551663398,-0.1439267694950103,0.2784940898418426,-0.2322186529636383,0.0,0.0,-0.8690013289451599,0.4140357971191406
-0.0308902747929096,1.264568328857422,0.0661434307694435,-0.1520582884550094,0.2673718631267547,-0.222445398569107,0.0,0.0,-0.9552150368690492,-0.0196008682250976
-0.0303275100886821,1.2609223127365112,0.0666817277669906,-0.1601885110139846,0.2567380964756012,-0.2126750648021698,0.0,0.0,-0.8867117166519165,0.5639204978942871
-0.0297075267881155,1.2571104764938354,0.0731623843312263,-0.1674990504980087,0.2453595101833343,-0.2275714874267578,0.0,0.0,-0.8946091532707214,0.4281539916992187
-0.0290780067443847,1.2531194686889648,0.0736631974577903,-0.1756289154291153,0.2344690561294555,-0.2178095132112503,0.0,0.0,-0.7368364930152893,0.5028889179229736
-0.0283925049006938,1.2489644289016724,0.0800191611051559,-0.1828800290822982,0.2228450626134872,-0.2324801683425903,0.0,0.0,-0.7931223511695862,0.3436954021453857
-0.0276978500187397,1.2446300983428955,0.0804811865091323,-0.1910095065832138,0.2117084860801696,-0.2227311432361602,0.0,0.0,-0.8006432056427002,0.4157580137252807
-0.0269942283630371,1.2401163578033447,0.0809230431914329,-0.1991376429796219,0.2010589838027954,-0.2129907608032226,0.0,0.0,-0.7325440645217896,0.3280950784683227
-0.026281738653779,1.2354227304458618,0.0813445821404457,-0.2072644978761673,0.1908959597349167,-0.2032603770494461,0.0,0.0,-0.5738571286201477,-0.2624987363815307
-0.0255606658756732,1.2305493354797363,0.0817456692457199,-0.2153901606798172,0.1812188625335693,-0.1935413926839828,0.0,0.0,-0.4994203448295593,-0.2358443140983581
-0.0248310081660747,1.22549569606781,0.0821262151002883,-0.2235146164894104,0.1720270961523056,-0.1838353425264358,0.0,0.0,-0.7450693845748901,-0.2533073425292969
-0.0240930560976266,1.220261812210083,0.0824861824512481,-0.231637954711914,0.1633199006319046,-0.1741438806056976,0.0,0.0,-0.8134135603904724,0.5373849868774414
-0.0233114250004291,1.2148540019989014,0.0872939527034759,-0.2393749505281448,0.1541898697614669,-0.1826007515192031,0.0,0.0,-0.7926194667816162,0.5135893821716309
-0.0224881172180175,1.209275722503662,0.0918629392981529,-0.2469606697559356,0.1446704864501953,-0.1903875768184662,0.0,0.0,-0.7637618184089661,-0.7192508578300476
-0.0217107776552438,1.2035067081451416,0.0854419320821762,-0.2556754052639007,0.1369968652725219,-0.1534725725650787,0.0,0.0,-0.9063097238540648,0.3926775455474853
-0.0209258086979389,1.1975568532943726,0.0857198759913444,-0.263795256614685,0.1298039108514785,-0.1438591182231903,0.0,0.0,-0.9535326957702636,0.8904910087585449
-0.02005510404706,1.191441535949707,0.0958166271448135,-0.2710579037666321,0.1210946515202522,-0.1741853803396225,0.0,0.0,-0.9534899592399596,-0.4308532476425171
-0.0191773418337106,1.185145378112793,0.0960547029972076,-0.2791784703731537,0.1128633916378021,-0.1646248996257782,0.0,0.0,-0.9031589031219482,-0.6185899972915649
-0.0183353424072265,1.1786543130874634,0.0909072235226631,-0.2879961729049682,0.1062061116099357,-0.1331458091735839,0.0,0.0,-0.8331251740455627,-0.506969153881073
-0.0175282470881938,1.171970248222351,0.0858724266290664,-0.2967114746570587,0.101089671254158,-0.1023290753364563,0.0,0.0,-0.9776989221572876,-0.3334731459617615
-0.0167145729064941,1.165104627609253,0.0860513225197792,-0.3048270940780639,0.0964460372924804,-0.0928725749254226,0.0,0.0,-0.9917396306991576,0.5397853851318359
-0.0158467292785644,1.1580699682235718,0.0922216325998306,-0.3123137354850769,0.0910521745681762,-0.107877179980278,0.0,0.0,-0.9570249915122986,-0.4772922992706299
-0.0149727817624807,1.1508536338806152,0.0923632755875587,-0.3204291760921478,0.0861267372965812,-0.0985085517168045,0.0,0.0,-0.9203138947486876,-0.6444159746170044
-0.0141542432829737,1.1434409618377686,0.0847796127200126,-0.3292842805385589,0.0832290649414062,-0.0579532980918884,0.0,0.0,-0.9884666204452516,-0.7828810214996338
-0.0133879659697413,1.1358462572097778,0.07761912047863,-0.3374901115894317,0.0822474882006645,-0.0196316111832857,0.0,0.0,-0.8936737775802612,-0.0279653668403625
-0.0126161575317382,1.1280694007873535,0.0777077823877334,-0.3456027805805206,0.0817259326577186,-0.0104312757030129,0.0,0.0,-0.975065052509308,0.2919526100158691
-0.0118390079587697,1.1201107501983645,0.0777798891067504,-0.3537153303623199,0.0816610008478164,-0.0012985251378268,0.0,0.0,-0.9450549483299256,0.151492953300476
-0.0110567091032862,1.111970067024231,0.0778360143303871,-0.3618278503417969,0.082049012184143,0.0077600278891623,0.0,0.0,-0.959151804447174,-0.3885233402252197
-0.0102694509550929,1.1036473512649536,0.0778767466545105,-0.3699403405189514,0.0828858539462089,0.0167371779680252,0.0,0.0,-0.9360718727111816,-0.4361836314201355
-0.0094775203615427,1.095142841339111,0.0779027119278907,-0.3780528903007507,0.0841671153903007,0.0256250910460948,0.0,0.0,-0.9691893458366394,0.7416825294494629
-0.0086132045835256,1.0864592790603638,0.0864144042134285,-0.3859297633171081,0.084184244275093,0.0003424841561354,0.0,0.0,-0.9435730576515198,-0.1884596347808838
-0.0077445032075047,1.0775940418243408,0.0864127427339553,-0.3940422832965851,0.0846355184912681,0.0090256361290812,0.0,0.0,-0.9479690790176392,0.4767830371856689
-0.0068716048263013,1.0685467720031738,0.0863983184099197,-0.4021547436714172,0.0855151042342186,0.0175917595624923,0.0,0.0,-0.945979118347168,0.344509482383728
-0.0059947012923657,1.0593174695968628,0.0863718092441558,-0.4102672636508941,0.0868166089057922,0.026030084118247,0.0,0.0,-0.910866916179657,0.2539170980453491
-0.0051140785217285,1.0499062538146973,0.0863339826464653,-0.4183798432350158,0.0885330438613891,0.034328918904066,0.0,0.0,-0.7418382167816162,0.4627965688705444
-0.0042297365143895,1.0403131246566772,0.0862855985760688,-0.4264925420284271,0.0906568318605423,0.0424757376313209,0.0,0.0,-0.8202382922172546,0.1164909601211547
-0.0033419609535485,1.0305380821228027,0.0862274169921875,-0.4346053302288055,0.0931796878576278,0.0504573285579681,0.0,0.0,-0.8907224535942078,0.5895965099334717
-0.00240840902552,1.020585298538208,0.0914915651082992,-0.4424614310264587,0.095020592212677,0.0368180945515632,0.0,0.0,-0.8674126267433167,0.6280728578567505
-0.0014160156715661,1.0104660987854004,0.0984506607055664,-0.4497919380664825,0.0958113595843315,0.015815082937479,0.0,0.0,-0.79567950963974,0.626068115234375
-0.0003731727483682,1.0001715421676636,0.1043182462453842,-0.4575328528881073,0.0957722961902618,-0.0007809024536982,0.0,0.0,-0.9266361594200134,0.5113433599472046
0.0007040023920126,0.9897042512893676,0.108209453523159,-0.4651816189289093,0.0952813550829887,-0.0098184570670127,0.0,0.0,-0.8414818644523621,-0.1926119327545166
0.0017837524646893,0.9790548086166382,0.1081141829490661,-0.4732938110828399,0.0951366126537323,-0.0028946830425411,0.0,0.0,-0.9621493220329284,0.1553881168365478
0.0028657913208007,0.9682233929634094,0.1080139651894569,-0.4814058840274811,0.0953249111771583,0.0037657532375305,0.0,0.0,-0.8707416653633118,-0.057005763053894
0.0039500235579907,0.9572098851203918,0.1079096421599388,-0.489517867565155,0.0958321094512939,0.0101438695564866,0.0,0.0,-0.9494773745536804,-0.1165171265602111
0.0050361631438136,0.946014404296875,0.107802078127861,-0.4976297616958618,0.0966431275010109,0.0162203852087259,0.0,0.0,-0.9135799407958984,-0.1090794801712036
0.0061241150833666,0.9346370100975036,0.1076921224594116,-0.505741536617279,0.097741924226284,0.0219757910817861,0.0,0.0,-0.8118759989738464,-0.1537172198295593
0.0072137834504246,0.9230772852897644,0.107580617070198,-0.5138533115386963,0.0991114228963851,0.027390444651246,0.0,0.0,-0.8796947002410889,0.1890649795532226
0.008304881863296,0.9113355278968812,0.1074684113264083,-0.521964967250824,0.1007336676120758,0.0324448719620704,0.0,0.0,-0.8668593168258667,0.4469610452651977
0.0093971248716115,0.8994116187095642,0.1073563322424888,-0.5300766229629517,0.1025896668434143,0.0371199995279312,0.0,0.0,-0.8890649080276489,-0.1178743839263916
0.0104904174804687,0.8873056769371033,0.1072452291846275,-0.5381881594657898,0.1046595573425293,0.0413975194096565,0.0,0.0,-0.824816107749939,0.6041169166564941
0.0116298673674464,0.8750297427177429,0.1128409951925277,-0.5456754565238953,0.1057615876197815,0.0220406707376241,0.0,0.0,-0.9714807271957396,0.5772100687026978
0.0128256799653172,0.8625872731208801,0.1197380423545837,-0.5529913306236267,0.1056086048483848,-0.0030596710275858,0.0,0.0,-0.930484414100647,-0.5296006202697754
0.0139856338500976,0.8499566912651062,0.1150671392679214,-0.5614228844642639,0.1065272539854049,0.0183729119598865,0.0,0.0,-0.6502455472946167,0.6334151029586792
0.0151946069672703,0.837158203125,0.1211029142141342,-0.5688124895095825,0.1063214987516403,-0.0041149295866489,0.0,0.0,-0.9027658700942992,-0.2405469417572021
0.0164036750793457,0.8241772055625916,0.1210084334015846,-0.5769228339195251,0.1062185764312744,-0.002058248501271,0.0,0.0,-0.8055668473243713,0.2919820547103882
0.0176126472651958,0.8110138773918152,0.1209195479750633,-0.5850330591201782,0.1061945855617523,-0.0004798776353709,0.0,0.0,-0.7959100008010864,-0.661300778388977
0.0187585838139057,0.7976593375205994,0.1129729598760604,-0.5936511754989624,0.107811652123928,0.0323411487042903,0.0,0.0,-0.852043092250824,0.5920538902282715
0.019940948113799,0.7841269969940186,0.1175078600645065,-0.6014979481697083,0.1085303574800491,0.014374223537743,0.0,0.0,-0.5828788876533508,0.7742462158203125
0.0211814884096384,0.7704211473464966,0.1248133033514022,-0.6090918183326721,0.1077658459544181,-0.0152900870889425,0.0,0.0,0.1709412336349487,-0.7046759128570557
0.0223458297550678,0.7570896148681641,0.1157845705747604,-0.5925539135932922,0.1084133461117744,0.0129497796297073,0.0,0.0,-0.538956880569458,0.4515680074691772
0.0235093124210834,0.7435757517814636,0.1157336235046386,-0.6006630659103394,0.1090181171894073,0.0120955724269151,0.0,0.0,-0.8343129754066467,0.5077383518218994
0.0247178077697753,0.7298891544342041,0.1214993149042129,-0.6082469820976257,0.1083786711096763,-0.0127890007570385,0.0,0.0,-0.8029721975326538,-0.2147585153579712
0.0259251594543457,0.7160200476646423,0.121467649936676,-0.6163556575775146,0.1076492592692375,-0.0145877627655863,0.0,0.0,0.3298900127410888,-0.3143829703330993
0.0271551124751567,0.7023509740829468,0.1236057505011558,-0.6074696183204651,0.1070441156625747,-0.0121030760928988,0.0,0.0,-0.837922990322113,0.3433823585510254
