x_pos,y_pos,x_vel,y_vel,angle,ang_vel,leg_1,leg_2,main_booster,lat_booster
-0.0015209198463708,1.4032912254333496,-0.1540683209896087,-0.339061826467514,0.0017704972997307,0.0349248945713043,0.0,0.0,-0.1877751350402832,0.6980056762695312
-0.0029790878761559,1.3953490257263184,-0.1460424363613128,-0.3529882729053497,0.0019948615226894,0.0044884295202791,0.0,0.0,-0.0581335425376892,0.7844909429550171
-0.0043580057099461,1.3870676755905151,-0.136189728975296,-0.3680640161037445,0.0003198457998223,-0.0335036143660545,0.0,0.0,-0.2737614512443542,0.5115641355514526
-0.0056999204680323,1.3784513473510742,-0.1316648423671722,-0.3829523921012878,-0.0021740416996181,-0.0498823896050453,0.0,0.0,0.1300183534622192,-0.0190983414649963
-0.0069473264738917,1.3701704740524292,-0.1226337775588035,-0.3680414855480194,-0.0042547746561467,-0.0416186675429344,0.0,0.0,0.1898736953735351,-0.4846677780151367
-0.0080883027985692,1.3621424436569214,-0.1124608740210533,-0.3568096756935119,-0.0058747828006744,-0.0324029736220836,0.0,0.0,0.0760574340820312,0.0686131715774536
-0.0092353820800781,1.3543453216552734,-0.1129807233810424,-0.3465437591075897,-0.0075783794745802,-0.0340753123164176,0.0,0.0,-0.3270889520645141,0.06215500831604
-0.0103754047304391,1.3462148904800415,-0.1122608631849289,-0.3613578081130981,-0.0092966258525848,-0.0343681350350379,0.0,0.0,-0.1089590191841125,0.5314630270004272
-0.0114665981382131,1.3377565145492554,-0.1063323989510536,-0.3759427964687347,-0.0120627405121922,-0.055327545851469,0.0,0.0,-0.5083397626876831,-0.3547891974449157
-0.0125495912507176,1.328965187072754,-0.1054902449250221,-0.3907551169395447,-0.0148461507633328,-0.0556729733943939,0.0,0.0,-0.8158291578292847,0.1778939962387085
-0.013623809441924,1.319840669631958,-0.1045902594923973,-0.405567467212677,-0.0176487322896718,-0.056056760251522,0.0,0.0,-0.248163104057312,-0.2165007591247558
-0.0146885868161916,1.3103829622268677,-0.1036337986588478,-0.4203798472881317,-0.0204714201390743,-0.0564588718116283,0.0,0.0,-0.8128291368484497,0.2133028507232666
-0.0157437324523925,1.3005921840667725,-0.1026218309998512,-0.4351923763751983,-0.0233151391148567,-0.0568794831633567,0.0,0.0,-0.2434161901473999,0.1531293392181396
-0.0167881958186626,1.2904679775238037,-0.1015559211373329,-0.4500048756599426,-0.026180675253272,-0.0573160871863365,0.0,0.0,-0.6013974547386169,0.1789174079895019
-0.0178216937929391,1.2800109386444092,-0.1004376262426376,-0.4648174941539764,-0.029068699106574,-0.0577655620872974,0.0,0.0,-0.7668098211288452,0.7309131622314453
-0.0187758449465036,1.2692091464996338,-0.0907371267676353,-0.4801773130893707,-0.0336947180330753,-0.0925286635756492,0.0,0.0,0.5151641368865967,-0.0731697082519531
-0.0195651054382324,1.259244084358215,-0.074837252497673,-0.4429896771907806,-0.0377496778964996,-0.0811064764857292,0.0,0.0,-0.9819366335868835,-0.4273287057876587
-0.0203419681638479,1.2489458322525024,-0.0735696703195571,-0.457812637090683,-0.0418287888169288,-0.0815891996026039,0.0,0.0,-0.87386554479599,-0.5979839563369751
-0.0211454387754201,1.2383224964141846,-0.0772056356072425,-0.4722326099872589,-0.044933795928955,-0.062105793505907,0.0,0.0,-0.7850845456123352,-0.9000883102416992
-0.0220160484313964,1.227371096611023,-0.0859575569629669,-0.486762136220932,-0.0460349395871162,-0.0220243744552135,0.0,0.0,-0.7413127422332764,-0.4863948822021484
-0.0228732116520404,1.216086506843567,-0.0845671370625495,-0.5015745162963867,-0.0471600666642189,-0.0225049145519733,0.0,0.0,-0.4377279281616211,-0.4422787427902221
-0.0237161628901958,1.2044686079025269,-0.0831362828612327,-0.516386866569519,-0.0483077466487884,-0.0229554623365402,0.0,0.0,-0.4693412780761719,-0.5273222923278809
-0.0245774276554584,1.192518949508667,-0.0857689157128334,-0.5310997366905212,-0.0486552976071834,-0.0069518783129751,0.0,0.0,-0.7026346325874329,-0.5190282464027405
-0.0254602432250976,1.1802332401275637,-0.0888324975967407,-0.5460208058357239,-0.0481134168803691,0.0108385104686021,0.0,0.0,-0.191541850566864,-0.4431015253067016
-0.0263279918581247,1.1676141023635864,-0.0872978717088699,-0.5608333349227905,-0.0475928522646427,0.0104122851043939,0.0,0.0,-0.8156784176826477,-0.6806762218475342
-0.0272476188838481,1.1546486616134644,-0.0941714197397232,-0.5761718153953552,-0.0454093888401985,0.0436691045761108,0.0,0.0,-0.6753267645835876,0.4713091850280761
-0.0281514171510934,1.1413501501083374,-0.0925713703036308,-0.5909822583198547,-0.0432447232306003,0.043293222784996,0.0,0.0,-0.9777497053146362,0.2405961751937866
-0.0290390960872173,1.127718448638916,-0.0909420996904373,-0.605792760848999,-0.0410974733531475,0.0429449677467346,0.0,0.0,-0.5691593885421753,0.1665892601013183
-0.0299103744328022,1.1137535572052002,-0.0892852172255516,-0.6206032037734985,-0.038966130465269,0.0426270775496959,0.0,0.0,-0.7412343621253967,0.7208749055862427
-0.0307100303471088,1.099449634552002,-0.0807060524821281,-0.6357135772705078,-0.0382334813475608,0.0146528184413909,0.0,0.0,-0.5167077779769897,-0.3231896162033081
-0.0314928069710731,1.0848124027252195,-0.0789986476302146,-0.6505236029624939,-0.0375133156776428,0.0144031764939427,0.0,0.0,-0.2019081115722656,-0.3164929747581482
-0.0322583205997943,1.0698421001434326,-0.0772682204842567,-0.6653336882591248,-0.0368037521839141,0.014191118068993,0.0,0.0,-0.373403251171112,-0.8474449515342712
-0.0330823883414268,1.0545506477355957,-0.0850584059953689,-0.6795556545257568,-0.0341848954558372,0.0523771233856678,0.0,0.0,-0.232475459575653,0.292309045791626
-0.0338887199759483,1.038926124572754,-0.0832861214876174,-0.6943662166595459,-0.0315725319087505,0.0522475019097328,0.0,0.0,0.0639539957046508,0.0443369150161743
-0.0346540436148643,1.023573398590088,-0.0792205482721328,-0.6822829842567444,-0.028915973380208,0.0531311109662056,0.0,0.0,-0.0018578767776489,0.5212191343307495
-0.0353588089346885,1.007889747619629,-0.072074294090271,-0.6970226764678955,-0.0273289810866117,0.0317397750914096,0.0,0.0,-0.4095005989074707,-0.0167937278747558
-0.0360451713204383,0.9918729066848756,-0.0702486187219619,-0.7118328213691711,-0.0257415119558572,0.0317491963505744,0.0,0.0,0.417813777923584,0.215783953666687
-0.0366636291146278,0.9765010476112366,-0.0636114031076431,-0.6831616163253784,-0.0240000039339065,0.0348303616046905,0.0,0.0,-0.3294230699539184,0.3444724082946777
-0.0372635833919048,0.9607961773872375,-0.0617558173835277,-0.697971761226654,-0.022252919152379,0.0349414944648742,0.0,0.0,0.2992867231369018,0.2766916751861572
-0.0378117561340332,0.9454742670059204,-0.0567037276923656,-0.6809514760971069,-0.02039485424757,0.0371613800525665,0.0,0.0,-0.1468037366867065,0.4686921834945678
-0.0383411422371864,0.9298190474510192,-0.0548222139477729,-0.6957617402076721,-0.0185258239507675,0.0373803935945034,0.0,0.0,-0.2463331818580627,0.0345120429992675
-0.0388513579964637,0.9138306379318236,-0.0529290959239006,-0.7105720043182373,-0.0166430603712797,0.0376551561057567,0.0,0.0,-0.3444572687149048,0.3440519571304321
-0.0393423065543174,0.8975090384483337,-0.0510252341628074,-0.7253822088241577,-0.014743716455996,0.0379869416356086,0.0,0.0,-0.6731716394424438,0.4836573600769043
-0.0398139953613281,0.8808543086051941,-0.0491114221513271,-0.7401924729347229,-0.0128248706459999,0.0383766666054725,0.0,0.0,-0.4841787815093994,0.533767819404602
-0.0402268394827842,0.8638592958450317,-0.0422518067061901,-0.7553263306617737,-0.011873735114932,0.0190227665007114,0.0,0.0,-0.0392157435417175,-0.080592393875122
-0.0406202301383018,0.846531093120575,-0.0403203330934047,-0.7701364159584045,-0.0108971828594803,0.0195308849215507,0.0,0.0,-0.1485801339149475,0.2733852863311767
-0.0409938804805278,0.8288697004318237,-0.038381066173315,-0.7849463820457458,-0.0098922280594706,0.0200990512967109,0.0,0.0,0.1475789546966552,0.1293554306030273
-0.0414199829101562,0.811744749546051,-0.0433006770908832,-0.7610995769500732,-0.0092170275747776,0.0135042089968919,0.0,0.0,0.0758277177810669,0.4105685949325561
-0.0419078841805458,0.7950577139854431,-0.0491072200238704,-0.741645872592926,-0.0089070005342364,0.0062005333602428,0.0,0.0,-0.1774855852127075,0.2509381771087646
-0.0423758514225482,0.7780374884605408,-0.0471483245491981,-0.7564558386802673,-0.0085594560950994,0.0069509618915617,0.0,0.0,0.3021484613418579,-0.5337570309638977
-0.0427391044795513,0.761357843875885,-0.0380589701235294,-0.7413066029548645,-0.0068398201838135,0.0343928411602973,0.0,0.0,-0.0814074873924255,0.6687064170837402
-0.0430341735482215,0.7443490624427795,-0.0300826095044612,-0.7559459805488586,-0.0062791262753307,0.0112138763070106,0.0,0.0,-0.1439615488052368,-0.3156183958053589
-0.0433091148734092,0.7270069718360901,-0.0281090624630451,-0.7707559466362,-0.0056718005798757,0.012146539054811,0.0,0.0,-0.4062868356704712,0.1406202316284179
-0.0435637459158897,0.7093316912651062,-0.0261316243559122,-0.785565972328186,-0.0050148256123065,0.0131394322961568,0.0,0.0,0.4429913759231567,0.6687819957733154
-0.0435997955501079,0.6919580101966858,-0.0032485835254192,-0.772167444229126,-0.0053622778505086,-0.0069489306770265,0.0,0.0,0.0676264762878418,-0.1710031628608703
-0.0436755195260047,0.6747083067893982,-0.0069857193157076,-0.7666572332382202,-0.0059397821314632,-0.0115503696724772,0.0,0.0,-0.1976768374443054,0.3340895175933838
-0.0437307357788085,0.6571253538131714,-0.004999300930649,-0.7814671993255615,-0.0064588068053126,-0.0103805866092443,0.0,0.0,-0.0549635291099548,-0.0762195587158203
-0.0437655448913574,0.6392090320587158,-0.003010737709701,-0.7962771654129028,-0.0069164824672043,-0.0091535206884145,0.0,0.0,0.7119348049163818,0.2177474498748779
-0.0436963066458702,0.6222384572029114,0.0069519341923296,-0.7542468905448914,-0.0069518652744591,-0.000707798753865,0.0,0.0,-0.1731408238410949,0.4054099321365356
-0.0436065681278705,0.6049347519874573,0.008943579159677,-0.7690568566322327,-0.0069203292950987,0.0006308324518613,0.0,0.0,0.122251272201538,0.0201661586761474
-0.0434596054255962,0.5876746773719788,0.0144254891201853,-0.7671129107475281,-0.0066583030857145,0.0052405870519578,0.0,0.0,0.6413310766220093,-0.1647918820381164
-0.0433870330452919,0.5711275935173035,0.0073899663984775,-0.7354256510734558,-0.0067848623730242,-0.00253128958866,0.0,0.0,0.2376258373260498,-0.3768655061721802
-0.0431985855102539,0.5548274517059326,0.0184660386294126,-0.7244482040405273,-0.0064086238853633,0.007524864282459,0.0,0.0,-0.0946404933929443,0.5548055171966553
-0.0429436676204204,0.538194477558136,0.0261841230094432,-0.7392460107803345,-0.0071015204302966,-0.0138577129691839,0.0,0.0,0.2946312427520752,-0.0590409040451049
-0.0426597595214843,0.5216993689537048,0.0289849750697612,-0.73311847448349,-0.0076863118447363,-0.0116960015147924,0.0,0.0,0.3019323348999023,-0.3661867976188659
-0.0424490943551063,0.5055707097053528,0.0220382250845432,-0.7168322205543518,-0.0086403051391243,-0.019080001860857,0.0,0.0,0.1212354898452758,0.2805285453796386
-0.0421979911625385,0.4899798631668091,0.0259208418428897,-0.6929318904876709,-0.0094426292926073,-0.0160464830696582,0.0,0.0,-0.2390084862709045,0.2562617063522339
-0.0419260971248149,0.4740557670593261,0.0279093272984027,-0.7077417969703674,-0.0101584941148757,-0.0143171725794672,0.0,0.0,0.4537665843963623,-0.0540395379066467
-0.041602037847042,0.4589248895645141,0.0329281501471996,-0.6724908947944641,-0.0106758354231715,-0.0103468364104628,0.0,0.0,-0.3400793075561523,-0.2792781591415405
-0.0412571914494037,0.4434607028961181,0.03491185978055,-0.6873008608818054,-0.0111026726663112,-0.0085368501022458,0.0,0.0,0.5040767192840576,-0.6248614192008972
-0.041025448590517,0.4285928308963775,0.0224633123725652,-0.6607895493507385,-0.0103917410597205,0.0142185259610414,0.0,0.0,0.3488030433654785,0.637027382850647
-0.0406893715262413,0.4141538143157959,0.0340129695832729,-0.6417381763458252,-0.0108020072802901,-0.0082051893696188,0.0,0.0,-0.184438943862915,-0.0725550651550293
-0.0403327941894531,0.3993815779685974,0.035986129194498,-0.6565481424331665,-0.0111164599657058,-0.0062889605760574,0.0,0.0,0.9225122928619384,-0.3862086534500122
-0.0398624427616596,0.3852825164794922,0.0468531996011734,-0.62662273645401,-0.0109380474314093,0.003568289335817,0.0,0.0,0.3952604532241821,0.0155526399612426
-0.0393962860107421,0.371346116065979,0.0464652925729751,-0.6193951964378357,-0.0107925282791256,0.0029104056302458,0.0,0.0,0.22852623462677,-0.1934530138969421
-0.0388565063476562,0.3574382066726684,0.0535043776035308,-0.6181260943412781,-0.0103129148483276,0.0095921186730265,0.0,0.0,0.5302563905715942,-0.0652611255645752
-0.0383219718933105,0.3436690270900726,0.0529918298125267,-0.6119587421417236,-0.0098672984167933,0.0089123994112014,0.0,0.0,0.836450457572937,-0.5297325849533081
-0.0378101356327533,0.3308947086334228,0.0495936945080757,-0.5677388310432434,-0.0082940207794308,0.0314653888344764,0.0,0.0,0.5083901882171631,-0.1709341406822204
-0.0371985435485839,0.3189034461975097,0.0591161958873271,-0.532936155796051,-0.006279163993895,0.0402972474694252,0.0,0.0,-0.499315857887268,0.0551965236663818
-0.036566637456417,0.3065789341926574,0.061045229434967,-0.547746479511261,-0.0041598309762775,0.0423865243792533,0.0,0.0,0.1490731239318847,0.0425386428833007
-0.0360034927725791,0.2942674458026886,0.0544844940304756,-0.5471751093864441,-0.0023515427019447,0.0361656509339809,0.0,0.0,0.6813991069793701,-0.0941532850265502
-0.0353771224617958,0.2828292846679687,0.0604995191097259,-0.5083582997322083,-0.0002474628272466,0.0420816913247108,0.0,0.0,-0.3380856513977051,-0.0498180389404296
-0.0347307212650775,0.271058052778244,0.0623985826969146,-0.523168683052063,0.0019630724564194,0.0442106872797012,0.0,0.0,0.564213752746582,-0.5028166174888611
-0.0341609939932823,0.2599180936813354,0.0537676885724067,-0.495115727186203,0.005131235346198,0.0633631348609924,0.0,0.0,-0.0224184989929199,-0.0664095878601074
-0.033571433275938,0.2484450936317443,0.0556418970227241,-0.5099266171455383,0.0084065739065408,0.0655067712068557,0.0,0.0,0.2994968891143799,0.1444149017333984
-0.032897375524044,0.237326294183731,0.0636558681726455,-0.4941940009593963,0.012106530368328,0.0739992707967758,0.0,0.0,0.0868960618972778,-0.1537574529647827
-0.0321908965706825,0.2262125760316848,0.0667148381471633,-0.4939814805984497,0.0159860365092754,0.0775900185108184,0.0,0.0,0.437644362449646,0.2534115314483642
-0.0313900001347065,0.2152931988239288,0.0756769552826881,-0.4853558242321014,0.0203462783247232,0.0872049406170845,0.0,0.0,0.360795259475708,-0.3601427674293518
-0.0304582603275775,0.204750120639801,0.0880794003605842,-0.4686609208583832,0.0253741908818483,0.1005585342645645,0.0,0.0,-0.3102625608444214,-0.5678684115409851
-0.0295419692993164,0.1938685029745102,0.0855447798967361,-0.4837402403354645,0.0313772670924663,0.120061457157135,0.0,0.0,0.7772097587585449,-0.0990082621574401
-0.028638457879424,0.1838655024766922,0.0841996818780899,-0.4447161555290222,0.0374584347009658,0.1216234341263771,0.0,0.0,0.0515718460083007,-0.7228297591209412
-0.0277691837400198,0.1742573380470276,0.0791969448328018,-0.4272443056106567,0.045099638402462,0.1528240591287613,0.0,0.0,0.0073632001876831,0.6439781188964844
-0.0267627723515033,0.1649378389120102,0.094016894698143,-0.4144146144390106,0.051650408655405,0.1310153305530548,0.0,0.0,0.2510433197021484,-0.7644063830375671
-0.0257247928529977,0.1556501686573028,0.09542016685009,-0.4130953252315521,0.0599264092743396,0.1655200272798538,0.0,0.0,0.1373519897460937,-0.5711489915847778
-0.0247753150761127,0.1465459614992141,0.0853941738605499,-0.4050387442111969,0.0693745240569114,0.1889619678258896,0.0,0.0,0.0005251169204711,-0.3910219669342041
-0.0237936973571777,0.1378971636295318,0.0882781669497489,-0.3848815858364105,0.0791616588830947,0.1957426369190216,0.0,0.0,0.0967904329299926,0.0225424766540527
-0.022840404883027,0.1294796019792556,0.0854165032505989,-0.3746684193611145,0.0889778062701225,0.1963230073451995,0.0,0.0,0.0712946653366088,-0.6493062376976013
-0.0220589637756347,0.1214879155158996,0.0669482201337814,-0.355888307094574,0.1000791266560554,0.2220262289047241,0.0,0.0,0.2233688831329345,-0.4153798818588257
-0.0212489124387502,0.113945685327053,0.0694170668721199,-0.3360230624675751,0.111576147377491,0.2299402505159378,0.0,0.0,-0.2410579323768615,0.4040584564208984
-0.020423412322998,0.106072150170803,0.0708908885717392,-0.3508449494838714,0.1231690049171447,0.231857031583786,0.0,0.0,0.2745711803436279,0.7398877143859863
-0.0196674354374408,0.0987299084663391,0.0654322057962417,-0.3271920382976532,0.1332839131355285,0.2022982090711593,0.0,0.0,0.0140967369079589,0.3007349967956543
-0.018952751532197,0.0915073230862617,0.0613043680787086,-0.3219437599182129,0.1434201449155807,0.2027243077754974,0.0,0.0,0.0101176500320434,0.4170151948928833
-0.018347168341279,0.084483653306961,0.0506422221660614,-0.313149482011795,0.1533161103725433,0.1979196369647979,0.0,0.0,0.4918307065963745,0.9707145690917968
-0.0178775787353515,0.0778088867664337,0.0390535071492195,-0.2974877953529358,0.1612151563167572,0.1579806208610534,0.0,0.0,0.2050333023071289,0.9739179611206056
-0.0173144340515136,0.0716239288449287,0.050275020301342,-0.275556206703186,0.1672601699829101,0.1209004148840904,0.0,0.0,0.4822490215301513,0.9338340759277344
-0.0166588779538869,0.0656218603253364,0.0612369962036609,-0.2672504484653473,0.1715856194496154,0.0865090265870094,0.0,0.0,0.2356383800506591,0.5758609771728516
-0.0159274097532033,0.0601769052445888,0.0696885958313942,-0.2424011528491974,0.175057515501976,0.0694375038146972,0.0,0.0,0.4531762599945068,0.404973030090332
-0.0153238298371434,0.0554021447896957,0.0569011196494102,-0.2126264721155166,0.1785124987363815,0.069099873304367,0.0,0.0,0.6019880771636963,0.2714366912841797
-0.0147215845063328,0.0515543557703495,0.0560774728655815,-0.1715171784162521,0.1826804727315902,0.08335991948843,0.0,0.0,-0.4055099487304687,0.2409614324569702
-0.0141102792695164,0.0473737567663192,0.0569031722843647,-0.1863296777009964,0.1869180351495742,0.0847512334585189,0.0,0.0,-0.1757938861846923,-0.5701513886451721
-0.0135366441681981,0.0428533405065536,0.0519417040050029,-0.2016027122735977,0.1923755556344986,0.1091504245996475,0.0,0.0,0.3730955123901367,0.3653093576431274
-0.0130315776914358,0.0389784425497055,0.0447955802083015,-0.1729714572429657,0.1981284767389297,0.1150583624839782,0.0,0.0,-0.1670577526092529,0.6607241630554199
-0.0124618532136082,0.0347850434482097,0.0526891462504863,-0.1869523376226425,0.202436938881874,0.0861692875623703,0.0,0.0,0.4086524248123169,0.700294017791748
-0.0120522500947117,0.0310162883251905,0.0382264778017997,-0.1678737699985504,0.2051945477724075,0.0551520809531211,0.0,0.0,0.7166014909744263,0.8041484355926514
-0.0118288993835449,0.0276724677532911,0.0214247126132249,-0.1487415879964828,0.2061143517494201,0.0183961745351552,0.0,0.0,0.3466347455978393,0.7271579504013062
-0.011659431271255,0.0246814116835594,0.0174642037600278,-0.1328645646572113,0.2055886685848236,-0.0105137545615434,0.0,0.0,0.2559891939163208,0.8516290187835693
-0.0114827156066894,0.0219787452369928,0.0198410861194133,-0.1198199763894081,0.2034098654985427,-0.0435763411223888,0.0,0.0,0.2578374147415161,0.6472218036651611
-0.011262034997344,0.0200512036681175,0.039777036756277,-0.0833603888750076,0.1855027824640274,-0.3582561612129211,0.0,1.0,0.6202818155288696,0.056992769241333
-0.0110723497346043,0.0188088752329349,0.0363712087273597,-0.0531374178826808,0.1680334508419037,-0.3494070172309875,0.0,1.0,-0.2293561697006225,0.1070754528045654
-0.0108833312988281,0.0172371715307235,0.0363775379955768,-0.0679727345705032,0.1505634486675262,-0.3494000136852264,0.0,1.0,0.2013866901397705,0.4110714197158813
-0.0106829646974802,0.0156829934567213,0.0373445786535739,-0.0674139782786369,0.1333080977201461,-0.3451070785522461,0.0,1.0,0.3766185045242309,-0.0515121221542358
