x_pos,y_pos,x_vel,y_vel,angle,ang_vel,leg_1,leg_2,main_booster,lat_booster
-0.0015406608581542,1.40315842628479,-0.1557742357254028,-0.344971626996994,0.0015285020926967,0.03013376891613,0.0,0.0,0.0660963058471679,0.737492561340332
-0.0030024528969079,1.3953965902328491,-0.1459974348545074,-0.3449697196483612,0.0013419336173683,-0.0037309452891349,0.0,0.0,-0.3108017444610595,0.6305229663848877
-0.0044207572937011,1.387163519859314,-0.1398391872644424,-0.3659145534038543,-0.0006198766641318,-0.0392398945987224,0.0,0.0,-0.3413981199264526,0.7465758323669434
-0.0058085443452,1.378461837768555,-0.1353469341993332,-0.3867482542991638,-0.0040184399113059,-0.0679777860641479,0.0,0.0,-0.0668649673461914,-0.124976098537445
-0.0072129247710108,1.3692941665649414,-0.1367521435022354,-0.4074700474739074,-0.0076675210148096,-0.0729883760213851,0.0,0.0,0.4905598163604736,0.0990973711013794
-0.0085062980651855,1.36039400100708,-0.1259852051734924,-0.3955870866775512,-0.0109747471287846,-0.066150777041912,0.0,0.0,0.1260102987289428,0.5666893720626831
-0.0097840307280421,1.3516175746917725,-0.1230149418115615,-0.3901064991950989,-0.0156847387552261,-0.0942083522677421,0.0,0.0,-0.1622016429901123,-0.5360503196716309
-0.0111097339540719,1.342377543449402,-0.128361701965332,-0.4107202887535095,-0.0198428239673376,-0.083169512450695,0.0,0.0,-0.1408663392066955,0.0807039737701416
-0.0124514577910304,1.3326715230941772,-0.1297150999307632,-0.4314404428005218,-0.0242482032626867,-0.0881156250834465,0.0,0.0,-0.1722518801689148,0.5821405649185181
-0.0137631418183445,1.3225018978118896,-0.1253025233745575,-0.4520949721336365,-0.0300504490733146,-0.1160555332899093,0.0,0.0,0.1018177270889282,0.2766128778457641
-0.0150210382416844,1.3124582767486572,-0.1199547201395034,-0.4465104341506958,-0.0358234979212284,-0.1154716834425926,0.0,0.0,-0.1231664419174194,0.1141908168792724
-0.0162942893803119,1.3019490242004397,-0.1212532892823219,-0.4672396779060364,-0.041839525103569,-0.1203313246369361,0.0,0.0,-0.0115381479263305,-0.3756493926048279
-0.0175827983766794,1.2909741401672363,-0.1225310117006301,-0.487962931394577,-0.0480963811278343,-0.1251485049724578,0.0,0.0,0.2750329971313476,0.6509208679199219
-0.0187629703432321,1.2799303531646729,-0.1102487668395042,-0.4910989701747894,-0.0557815134525299,-0.1537166535854339,0.0,0.0,-0.5417689085006714,0.0971417427062988
-0.0199577324092388,1.2684211730957031,-0.1114776954054832,-0.5118295550346375,-0.0637034699320793,-0.158453568816185,0.0,0.0,-0.1005842089653015,-0.8184400796890259
-0.0212199203670024,1.2564424276351929,-0.1193375363945961,-0.5327010154724121,-0.070533201098442,-0.1366067230701446,0.0,0.0,-0.108756422996521,-0.4124794006347656
-0.0224964134395122,1.2439980506896973,-0.1205173358321189,-0.5534277558326721,-0.0775968432426452,-0.1412857174873352,0.0,0.0,0.4161624908447265,-0.9323471188545228
-0.0236964225769042,1.2315531969070437,-0.1146525740623474,-0.5533961057662964,-0.0829055458307266,-0.1061838269233703,0.0,0.0,0.7562661170959473,-0.8536341190338135
-0.0247922893613576,1.2199201583862305,-0.1059314012527465,-0.5172265768051147,-0.0865344330668449,-0.0725839436054229,0.0,0.0,-0.5746856927871704,-0.781608521938324
-0.0259711258113384,1.2078299522399902,-0.1157799139618873,-0.5374704599380493,-0.0886270478367805,-0.0418559163808822,0.0,0.0,-0.5767052173614502,-0.8206514120101929
-0.0272134784609079,1.195286512374878,-0.1231946721673011,-0.55754554271698,-0.0896543264389038,-0.0205472968518733,0.0,0.0,0.3562102317810058,0.3716683387756347
-0.028426170349121,1.1828185319900513,-0.120054230093956,-0.5542064309120178,-0.0908579751849174,-0.0240750778466463,0.0,0.0,-0.5384044647216797,0.5026953220367432
-0.0296028144657611,1.169877290725708,-0.1150045171380043,-0.575331449508667,-0.0934961959719657,-0.0527693927288055,0.0,0.0,0.181280255317688,-0.7994629144668579
-0.0307765956968069,1.1567955017089844,-0.1161509901285171,-0.5814897418022156,-0.0947107747197151,-0.0242936629801988,0.0,0.0,-0.7527921795845032,0.0175048112869262
-0.031961441040039,1.1432477235794067,-0.1170414462685585,-0.6022160053253174,-0.0961365178227424,-0.0285176150500774,0.0,0.0,-0.3035032749176025,-0.0461040139198303
-0.0331580154597759,1.129212737083435,-0.1180156096816062,-0.6238877773284912,-0.097767949104309,-0.0326285511255264,0.0,0.0,0.1464072465896606,-0.6472405195236206
-0.0343630798161029,1.1154754161834717,-0.1199591904878616,-0.6105862855911255,-0.098305344581604,-0.0107481125742197,0.0,0.0,0.4950220584869385,-0.540179967880249
-0.0356731414794921,1.1024173498153689,-0.1310339123010635,-0.5803479552268982,-0.0982742011547088,0.0006227269768714,0.0,0.0,-0.0440062880516052,0.0874192714691162
-0.036991786211729,1.0888936519622805,-0.1317036747932434,-0.6010688543319702,-0.0984348207712173,-0.0032124877907335,0.0,0.0,-0.156011700630188,-0.7199212312698364
-0.0383771881461143,1.074909806251526,-0.1396899670362472,-0.6214250922203064,-0.0972973257303237,0.022750049829483,0.0,0.0,-0.6873764395713806,0.0031331777572631
-0.0397698394954204,1.060460090637207,-0.1402300894260406,-0.642146110534668,-0.0963399857282638,0.0191469695419073,0.0,0.0,-0.931272268295288,0.3492751121520996
-0.0411689765751361,1.0455443859100342,-0.1407011449337005,-0.6628669500350952,-0.0955563113093376,0.0156731680035591,0.0,0.0,-0.7825525403022766,0.3082746267318725
-0.0425737388432025,1.0301628112792969,-0.1411005705595016,-0.6835877299308777,-0.0949394032359123,0.01233821362257,0.0,0.0,-0.2894359827041626,0.1988135576248169
-0.0439834594726562,1.014315128326416,-0.1414261013269424,-0.7043083906173706,-0.0944817960262298,0.009152022190392,0.0,0.0,-0.3491736650466919,-0.762622058391571
-0.0454554557800293,0.9980116486549376,-0.1490010172128677,-0.7244952917098999,-0.0926960632205009,0.035714466124773,0.0,0.0,-0.1178274154663086,0.3041555881500244
-0.0469305999577045,0.981242060661316,-0.1491731852293014,-0.7452161312103271,-0.0910532549023628,0.0328562706708908,0.0,0.0,0.0326752662658691,-0.5547212362289429
-0.0484443679451942,0.9644371271133424,-0.1539765149354934,-0.7467252016067505,-0.0884675309062004,0.0517143979668617,0.0,0.0,0.733938455581665,-0.3992632627487182
-0.0498489364981651,0.948354721069336,-0.1431364715099334,-0.7146194577217102,-0.0858214423060417,0.0529219731688499,0.0,0.0,-0.0640877485275268,0.3858733177185058
-0.0512540824711322,0.9318062663078308,-0.1430703550577163,-0.7353402376174927,-0.0832897201180458,0.0506347008049488,0.0,0.0,-0.4814332723617553,-0.1906356811523437
-0.0526588447391986,0.9147919416427612,-0.1429243236780166,-0.7560608386993408,-0.0808617919683456,0.0485584959387779,0.0,0.0,-0.1693259477615356,0.555814266204834
-0.054025936871767,0.897311806678772,-0.1381478458642959,-0.7768183350563049,-0.0794361606240272,0.0285126082599163,0.0,0.0,0.5679309368133545,-0.1445690393447876
-0.0552346222102642,0.8800944685935974,-0.1227708607912063,-0.7651123404502869,-0.0775499269366264,0.037724632769823,0.0,0.0,0.0733305215835571,0.2565504312515259
-0.0563613884150981,0.8627084493637085,-0.1148127317428588,-0.7726011872291565,-0.0754410102963447,0.0421784147620201,0.0,0.0,0.623995304107666,-0.3626483678817749
-0.0573477745056152,0.8456225395202637,-0.1011626943945884,-0.7592460513114929,-0.0729375556111335,0.0500689931213855,0.0,0.0,-0.5341241359710693,0.1704059839248657
-0.0583292953670024,0.8280705809593201,-0.1006333976984024,-0.7799662947654724,-0.0704783722758293,0.0491837039589881,0.0,0.0,-0.1934078931808471,0.0124789476394653
-0.0593050010502338,0.810052752494812,-0.1000334173440933,-0.8006862998008728,-0.0680505037307739,0.0485577210783958,0.0,0.0,0.9073858261108398,0.1518462896347046
-0.0601689331233501,0.7923334240913391,-0.0891581922769546,-0.7873948812484741,-0.0653149187564849,0.0547116510570049,0.0,0.0,0.6748790740966797,0.5765706300735474
-0.0610468871891498,0.7754269242286682,-0.0890689566731453,-0.7513402700424194,-0.0640433579683303,0.0254313256591558,0.0,0.0,-0.3032726645469665,-0.0280871987342834
-0.0619166381657123,0.7580543756484985,-0.0882739275693893,-0.7720597386360168,-0.0627631545066833,0.0256039891391992,0.0,0.0,0.7265069484710693,-0.1713562607765197
-0.06276635825634,0.7410134077072144,-0.086188293993473,-0.7573254108428955,-0.0615632236003875,0.0239988174289464,0.0,0.0,0.4618732929229736,0.2935460805892944
-0.0634488090872764,0.7242509722709656,-0.0700937360525131,-0.7449190616607666,-0.0597407780587673,0.0364489294588565,0.0,0.0,-0.1928577423095703,0.2485661506652832
-0.0641212463378906,0.7070224285125732,-0.0691322535276413,-0.765638530254364,-0.0578697621822357,0.0374204292893409,0.0,0.0,0.3181644678115845,0.2191252708435058
-0.0646753311157226,0.6898511648178101,-0.0577695183455944,-0.7630711793899536,-0.0555337145924568,0.0467208139598369,0.0,0.0,0.327710747718811,0.0942816734313964
-0.0651799216866493,0.6731736660003662,-0.0529086664319038,-0.7411291599273682,-0.0531115122139453,0.0484437979757785,0.0,0.0,0.3278443813323974,0.5101965665817261
-0.0654820427298545,0.6566017866134644,-0.0320258848369121,-0.7364739775657654,-0.0513156652450561,0.0359171219170093,0.0,0.0,-0.1299878358840942,0.5572636127471924
-0.0657347664237022,0.639557957649231,-0.0262465737760067,-0.7574625611305237,-0.0503547079861164,0.0192191153764724,0.0,0.0,0.5388443470001221,-0.564329206943512
-0.0658872574567794,0.6231617331504822,-0.0177017785608768,-0.7286460995674133,-0.0479300804436206,0.048492394387722,0.0,0.0,-0.3239635229110718,0.052911639213562
-0.0660263076424598,0.606299102306366,-0.016492985188961,-0.7493655681610107,-0.0453843846917152,0.0509143657982349,0.0,0.0,0.4381978511810303,0.3641810417175293
-0.0660542473196983,0.5900399088859558,-0.0058056428097188,-0.722540557384491,-0.0424061194062233,0.0595652870833873,0.0,0.0,-0.4005028009414673,0.5265989303588867
-0.0660315528512001,0.5733168721199036,3.9796064811525866e-05,-0.7431851029396057,-0.0402007177472114,0.0441080965101718,0.0,0.0,0.5381331443786621,0.2728846073150635
-0.0659329444169998,0.5566415190696716,0.0072608962655067,-0.7410607933998108,-0.0376237221062183,0.051539696753025,0.0,0.0,0.6626685857772827,0.0597232580184936
-0.0658936500549316,0.540563702583313,0.0016262189019471,-0.7145124077796936,-0.0353535190224647,0.0454041846096515,0.0,0.0,0.4495364427566528,0.4878013134002685
-0.0657149329781532,0.5246941447257996,0.0148957269266247,-0.7052438259124756,-0.032413613051176,0.0587978884577751,0.0,0.0,-0.1074094772338867,0.2208565473556518
-0.0655207633972168,0.5083585977554321,0.0162579771131277,-0.7259634733200073,-0.0292974598705768,0.0623232349753379,0.0,0.0,0.5076651573181152,0.3537293672561645
-0.0652931183576583,0.4921049773693084,0.0193916819989681,-0.7223203182220459,-0.0259646885097026,0.0666554197669029,0.0,0.0,0.2704129219055176,0.2587050199508667
-0.0651328116655349,0.4760704338550567,0.0129010807722806,-0.7125955820083618,-0.0228818468749523,0.0616568550467491,0.0,0.0,0.6548819541931152,-0.4117838144302368
-0.0649153739213943,0.4608545899391174,0.018327934667468,-0.6762131452560425,-0.0195027627050876,0.067581757903099,0.0,0.0,0.4936597347259521,0.7684459686279297
-0.0645331367850303,0.4455556869506836,0.0360013768076896,-0.6799227595329285,-0.017315000295639,0.0437553077936172,0.0,0.0,0.6196167469024658,0.2228227853775024
-0.064093492925167,0.4310451745986938,0.041419394314289,-0.6448878049850464,-0.0147966155782341,0.0503676235675811,0.0,0.0,0.1529631614685058,0.4464445114135742
-0.0636978149414062,0.4165652990341186,0.037103034555912,-0.6435255408287048,-0.0123690059408545,0.0485522486269474,0.0,0.0,0.8313353061676025,0.3544521331787109
-0.0633778572082519,0.4027469158172607,0.0297965202480554,-0.6141313910484314,-0.0101946266368031,0.0434877499938011,0.0,0.0,0.8165942430496216,0.5587184429168701
-0.0629535689949989,0.3894887268543243,0.0410256646573543,-0.5892480611801147,-0.0088097183033823,0.0276982076466083,0.0,0.0,0.6056180000305176,0.9497690200805664
-0.0625709518790245,0.3770068883895874,0.0387214682996273,-0.5547537207603455,-0.0092625962570309,-0.0090576754882931,0.0,0.0,0.0870720148086547,0.800422191619873
-0.0620481483638286,0.3646270036697387,0.0540909878909587,-0.5502265095710754,-0.0110484585165977,-0.0357171632349491,0.0,0.0,-0.5940758585929871,-0.1080344319343566
-0.0615079887211322,0.3517810106277466,0.0555894151329994,-0.5709459781646729,-0.0126017052680253,-0.0310647785663604,0.0,0.0,0.7103887796401978,-0.2967633008956909
-0.0608757026493549,0.3389722108840942,0.0642294660210609,-0.569288432598114,-0.0135936830192804,-0.019839433953166,0.0,0.0,0.8081904649734497,-0.3952441215515136
-0.0602554306387901,0.3262551128864288,0.0629510879516601,-0.5652140974998474,-0.0145072620362043,-0.0182717647403478,0.0,0.0,0.638592004776001,-0.3013474941253662
-0.0596144683659076,0.3142518401145935,0.0648211985826492,-0.5334850549697876,-0.0152183296158909,-0.0142213581129908,0.0,0.0,0.352982759475708,-0.1314696073532104
-0.0588800422847271,0.3027828633785248,0.073609322309494,-0.5097353458404541,-0.0153830088675022,-0.0032937503419816,0.0,0.0,-0.1218993067741394,-0.5531128644943237
-0.0581797584891319,0.2908543348312378,0.068627581000328,-0.5301405787467957,-0.0139972437173128,0.0277151968330144,0.0,0.0,0.1477606296539306,-0.0998350977897644
-0.0575483329594135,0.2788066864013672,0.061915136873722,-0.5354408621788025,-0.0127800963819026,0.0243428908288478,0.0,0.0,0.8161219358444214,0.2520925998687744
-0.0568434707820415,0.2675953507423401,0.0687902718782424,-0.4982701539993286,-0.0111088817939162,0.033424288034439,0.0,0.0,-0.2945280075073242,-0.0424170494079589
-0.0561206825077533,0.2559177279472351,0.0703291147947311,-0.5189895629882812,-0.0091871367767453,0.0384350791573524,0.0,0.0,0.6286771297454834,0.0320994853973388
-0.0554278381168842,0.244777038693428,0.0673366114497184,-0.4951331913471222,-0.0072633861564099,0.0384751968085765,0.0,0.0,0.2079346179962158,-0.2979323863983154
-0.0547220222651958,0.2339371293783188,0.0684210434556007,-0.4817655384540558,-0.0051267375238239,0.0427327528595924,0.0,0.0,0.0476102828979492,0.2388244867324829
-0.0539408698678016,0.223184049129486,0.0754290223121643,-0.4779090285301208,-0.0024797855876386,0.0529390648007392,0.0,0.0,0.1857433319091797,0.2477041482925415
-0.0531241409480571,0.2123332619667053,0.0786620453000068,-0.4822534918785095,0.0005015440983697,0.0596262291073799,0.0,0.0,0.3628194332122803,-0.3629903197288513
-0.0522128120064735,0.2015147358179092,0.0874920636415481,-0.4808288216590881,0.0040935105644166,0.0718392580747604,0.0,0.0,0.6958931684494019,-0.740018367767334
-0.0511790290474891,0.1911101192235946,0.0976501330733299,-0.4624563753604889,0.0097536789253354,0.1132032424211502,0.0,0.0,0.1915855407714843,-0.4675869941711426
-0.0500292778015136,0.1806678920984268,0.1085118204355239,-0.4641538262367248,0.0161373484879732,0.1276733577251434,0.0,0.0,0.6455612182617188,-0.4113174676895141
-0.0488789565861225,0.1708821803331375,0.1083257347345352,-0.4350042343139648,0.0227540824562311,0.1323347240686416,0.0,0.0,-0.0072619915008544,-0.3458786010742187
-0.0477105155587196,0.1606310755014419,0.1098839789628982,-0.4557277262210846,0.0296307019889354,0.1375322639942169,0.0,0.0,0.7135744094848633,-0.8389849662780762
-0.0464678779244422,0.1509585976600647,0.1150915175676345,-0.430094301700592,0.0386885665357112,0.1811571419239044,0.0,0.0,0.1656810045242309,-0.1311303377151489
-0.0451448448002338,0.1411706060171127,0.122539222240448,-0.4353032410144806,0.0483366511762142,0.1929616630077362,0.0,0.0,0.8280065059661865,-0.3654447197914123
-0.0438889488577842,0.1317576915025711,0.1158448308706283,-0.4186906516551971,0.0579773783683776,0.192814365029335,0.0,0.0,0.7081553936004639,-0.535566508769989
-0.0426157005131244,0.12322698533535,0.115980289876461,-0.3796199560165405,0.0691996365785598,0.2244452536106109,0.0,0.0,-0.0413374900817871,-0.3765624165534973
-0.0413242354989051,0.1142320036888122,0.1175429970026016,-0.4003514051437378,0.0806843414902687,0.2296939194202423,0.0,0.0,0.7167441844940186,-0.017890453338623
-0.0402100570499897,0.1059930399060249,0.1001621335744857,-0.3668171167373657,0.0918337330222129,0.2229877412319183,0.0,0.0,0.5729026794433594,0.3485218286514282
-0.0390561111271381,0.0982937440276146,0.1035001426935195,-0.3429605066776275,0.1036296188831329,0.2359177619218826,0.0,0.0,0.0328555107116699,0.7673671245574951
-0.0379112251102924,0.0908390581607818,0.1039081588387489,-0.3320874273777008,0.1141377985477447,0.2101637572050094,0.0,0.0,0.0767654180526733,0.5975461006164551
-0.0368170738220214,0.0836491659283638,0.0998624190688133,-0.3203075230121612,0.12363001704216,0.1898440271615982,0.0,0.0,0.043106198310852,-0.200952410697937
-0.0357591621577739,0.076459914445877,0.0960636213421821,-0.3203597664833069,0.1333136260509491,0.1936721056699752,0.0,0.0,0.4519110918045044,0.8665411472320557
-0.0348002426326274,0.0695831626653671,0.0877865701913833,-0.3063806295394897,0.1413909196853637,0.1615461409091949,0.0,0.0,0.7483625411987305,0.1904914379119873
-0.0340589508414268,0.0630309209227562,0.0665122866630554,-0.2919524908065796,0.1489960849285125,0.1521031111478805,0.0,0.0,0.6990342140197754,0.7077858448028564
-0.0332367904484272,0.0571530200541019,0.0755053609609603,-0.2619283497333526,0.1557027995586395,0.1341342180967331,0.0,0.0,0.4053980112075805,0.8650987148284912
-0.0323182120919227,0.0512971505522728,0.0865417867898941,-0.2608221173286438,0.161012202501297,0.1061881631612777,0.0,0.0,0.7215561866760254,0.6683633327484131
-0.0312955863773822,0.0462103933095932,0.0976522266864776,-0.226586028933525,0.1656221747398376,0.0921996384859085,0.0,0.0,0.4130101203918457,0.0761041641235351
-0.0303833968937397,0.0416354052722454,0.0864284709095954,-0.2038741111755371,0.1704065352678299,0.0956871286034584,0.0,0.0,0.3338090181350708,0.4195394515991211
-0.029456615447998,0.0376442782580852,0.0871068090200424,-0.1780329346656799,0.1759887337684631,0.1116438657045364,0.0,0.0,-0.0976589322090148,-0.45872962474823
-0.0285117141902446,0.0331880189478397,0.088659293949604,-0.1987587809562683,0.1818358451128006,0.1169426664710044,0.0,0.0,0.468471884727478,0.2608457803726196
-0.027686309069395,0.029335580766201,0.0764879211783409,-0.1719753444194793,0.1879182457923889,0.1216480731964111,0.0,0.0,0.0886423587799072,-0.1707477569580078
-0.0269004814326763,0.0257939919829368,0.0720860362052917,-0.1582392901182174,0.1944504231214523,0.130643755197525,0.0,0.0,-0.1381414532661438,-0.1789716482162475
-0.0260966308414936,0.0217875577509403,0.0736317262053489,-0.1789664775133133,0.201247438788414,0.1359400004148483,0.0,0.0,0.4971656799316406,0.0451364517211914
-0.0255582816898822,0.0189586505293846,0.0656173303723335,-0.1241940110921859,0.1893490254878997,-0.2380348145961761,0.0,1.0,0.856752872467041,-0.2511693239212036
-0.0253694541752338,0.0171469785273075,0.0476050712168216,-0.0771291181445121,0.1604648828506469,-0.5777894258499146,0.0,1.0,0.3332589864730835,-0.16183602809906
-0.0253217704594135,0.0158892720937728,0.04209591075778,-0.052314143627882,0.1231601610779762,-0.7461913824081421,0.0,1.0,0.0085302591323852,-0.3601671457290649
-0.0252677910029888,0.0146305654197931,0.0411598086357116,-0.053373496979475,0.0876527428627014,-0.7101491689682007,0.0,1.0,0.2375593185424804,-0.4380063414573669
-0.0251408573240041,0.0133374547585845,0.0481087528169155,-0.0557675100862979,0.0525979921221733,-0.7010958790779114,0.0,0.0,-0.6329131126403809,-0.9435531497001648
-0.0250591281801462,0.0115930177271366,0.0417982749640941,-0.0766828879714012,0.0193838775157928,-0.6642832159996033,0.0,0.0,-0.1462035179138183,-0.92942214012146
-0.025030231103301,0.0094031188637018,0.0344795808196067,-0.0972160995006561,-0.0117923067882657,-0.62352454662323,0.0,0.0,0.2808791399002075,-0.9654557704925536
-0.0249994285404682,0.0071113682352006,0.0324158370494842,-0.1023434847593307,-0.0407592058181762,-0.5793388485908508,0.0,0.0,0.623287558555603,-0.8757791519165039
