x_pos,y_pos,x_vel,y_vel,angle,ang_vel,leg_1,leg_2,main_booster,lat_booster
-0.0014949798351153,1.4033902883529663,-0.1514208763837814,-0.3346562385559082,0.0017188017955049,0.0339015386998653,0.0,0.0,-0.1556218266487121,0.8660330772399902
-0.0028873444534838,1.3956454992294312,-0.1390070617198944,-0.3442111611366272,0.0014981928979977,-0.0044118869118392,0.0,0.0,-0.2754167914390564,0.2316892147064209
-0.0042504309676587,1.38766610622406,-0.136053055524826,-0.3546403348445892,0.0012395454104989,-0.0051731811836361,0.0,0.0,-0.320457398891449,-0.4108136892318725
-0.0055843354202806,1.3794524669647217,-0.1330887079238891,-0.3650503754615783,0.0009403909789398,-0.0059834904968738,0.0,0.0,-0.2050228118896484,0.7604279518127441
-0.0068163871765136,1.371007204055786,-0.1210114136338234,-0.375344842672348,-0.0012267580023035,-0.0433470532298088,0.0,0.0,-0.0075001716613769,0.2440632581710815
-0.0080190654844045,1.3623278141021729,-0.1180301755666732,-0.3857507109642029,-0.0034367898479104,-0.0442048236727714,0.0,0.0,-0.003516674041748,0.4262090921401977
-0.0091924667358398,1.353414535522461,-0.1150490641593933,-0.3961569666862488,-0.0056927590630948,-0.0451239347457885,0.0,0.0,-0.2344602346420288,0.4434974193572998
-0.0103364940732717,1.3442671298980713,-0.1120718270540237,-0.406563252210617,-0.0079961093142628,-0.0460713282227516,0.0,0.0,-0.4383715391159057,0.5125999450683594
-0.0114116668701171,1.334890842437744,-0.1041358560323715,-0.4167485237121582,-0.0113433916121721,-0.0669519305229187,0.0,0.0,-0.2131240963935852,0.2666995525360107
-0.0124577526003122,1.3252803087234497,-0.1011730208992958,-0.4271554052829742,-0.0147409681230783,-0.0679575949907302,0.0,0.0,0.0153290033340454,0.0938783884048461
-0.0134164812043309,1.3159828186035156,-0.0926421955227851,-0.4132589995861053,-0.0179399587213993,-0.0639853477478027,0.0,0.0,-0.7541785836219788,0.252267837524414
-0.0143464086577296,1.3064512014389038,-0.0897138267755508,-0.4236702919006347,-0.0211931876838207,-0.0650703236460685,0.0,0.0,-0.5138758420944214,0.0714478492736816
-0.0152479168027639,1.2966856956481934,-0.0868077129125595,-0.4340759217739105,-0.024501945823431,-0.0661807507276535,0.0,0.0,-0.6162546873092651,-0.1909911036491394
-0.0161211974918842,1.2866861820220947,-0.0839282125234603,-0.4444824755191803,-0.0278677847236394,-0.0673229843378067,0.0,0.0,-0.9429335594177246,-0.0136750936508178
-0.0169666297733783,1.276452660560608,-0.0810794979333877,-0.454889714717865,-0.0312921628355979,-0.0684939101338386,0.0,0.0,-0.7489376664161682,-0.5546238422393799
-0.0178204532712698,1.2659803628921509,-0.0827692151069641,-0.4654927849769592,-0.0338766686618328,-0.0516944751143455,0.0,0.0,-0.6114946603775024,-0.7540656328201294
-0.0186928752809762,1.2552850246429443,-0.0857344344258308,-0.4753797352313995,-0.0353671014308929,-0.0298114083707332,0.0,0.0,-0.3932109475135803,-0.5595673322677612
-0.0195725448429584,1.2443526983261108,-0.0872508287429809,-0.4858979880809784,-0.0360726118087768,-0.0141116250306367,0.0,0.0,-0.3656772375106811,-0.3846778869628906
-0.020426083356142,0.0,-0.0845757648348808,-0.4963043928146362,-0.036842156201601,-0.015392224304378,0.0,0.0,-0.7932388782501221,0.0597951412200927
-0.0212539676576852,1.2217856645584106,-0.0819531455636024,-0.5067110061645508,-0.0376764275133609,-0.0166870523244142,0.0,0.0,-0.8635026812553406,-0.6054507493972778
-0.0220945365726947,1.2101576328277588,-0.084104910492897,-0.5168024897575378,-0.0376276448369026,0.0009757966035977,0.0,0.0,-0.6749276518821716,-0.4586223363876343
-0.0229107849299907,1.1982953548431396,-0.0816041678190231,-0.5272090435028076,-0.0376461036503315,-0.0003692254831548,0.0,0.0,-0.850149929523468,0.1078430414199829
-0.0237033851444721,1.1861989498138428,-0.0791698545217514,-0.5376157760620117,-0.0377319306135177,-0.0017169753555208,0.0,0.0,-0.7030545473098755,-0.7104360461235046
-0.0245228763669729,1.1738635301589966,-0.0830545872449874,-0.5482165217399597,-0.0366382226347923,0.0218761023133993,0.0,0.0,-0.6362411379814148,0.1407597064971923
-0.0253202430903911,1.1612939834594729,-0.0807722136378288,-0.5586234927177429,-0.0356139801442623,0.0204865746200084,0.0,0.0,-0.7372565865516663,-0.4255832433700561
-0.0260968208312988,1.148468852043152,-0.0786214247345924,-0.5699833035469055,-0.0346587710082531,0.0191041752696037,0.0,0.0,-0.5770357847213745,-0.1709266304969787
-0.0268528945744037,1.135409593582153,-0.0765043646097183,-0.5803878903388977,-0.0337730012834072,0.0177156515419483,0.0,0.0,-0.6656825542449951,-0.3671602606773376
-0.0275894161313772,1.122116208076477,-0.0744795799255371,-0.5907924771308899,-0.0329567193984985,0.0163255538791418,0.0,0.0,-0.9424721002578736,-0.0811388492584228
-0.0283074378967285,1.1085890531539917,-0.0725522935390472,-0.6011970043182373,-0.0322099365293979,0.0149358194321393,0.0,0.0,-0.8472648859024048,0.0300053358078002
-0.0290078166872262,1.094827651977539,-0.0707277953624725,-0.6116014719009399,-0.0315325036644935,0.0135485185310244,0.0,0.0,-0.6800026893615723,-0.7350342273712158
-0.0297479629516601,1.0808430910110474,-0.0760620310902595,-0.6214891076087952,-0.0295067559927701,0.0405150279402732,0.0,0.0,-0.7490182518959045,0.3836746215820312
-0.0304727554321289,1.066624641418457,-0.0744590982794761,-0.6318938732147217,-0.0275498162955045,0.0391386598348617,0.0,0.0,-0.6485403776168823,0.4265050888061523
-0.0311834327876567,1.0521721839904783,-0.0729749128222465,-0.6422985792160034,-0.0256612598896026,0.0377710349857807,0.0,0.0,-0.6775867342948914,-0.2426413297653198
-0.0318810455501079,1.0374857187271118,-0.0716147720813751,-0.6527032852172852,-0.0238405615091323,0.0364140681922435,0.0,0.0,-0.5736275315284729,-0.1217771172523498
-0.0325671210885047,1.022565245628357,-0.0703839063644409,-0.6631079316139221,-0.0220870673656463,0.0350700244307518,0.0,0.0,-0.1650450229644775,0.2882087230682373
-0.033242892473936,1.0074106454849243,-0.0692874863743782,-0.6735125780105591,-0.0204000100493431,0.0337410420179367,0.0,0.0,-0.5737260580062866,-0.1477210521697998
-0.033909797668457,0.9920219779014589,-0.0683305785059928,-0.6839171648025513,-0.0187785550951957,0.0324292816221714,0.0,0.0,-0.5426151752471924,-0.0381019115447998
-0.0345691666007041,0.9763993620872498,-0.0675181150436401,-0.6943217515945435,-0.0172216985374689,0.0311369039118289,0.0,0.0,0.3238744735717773,0.1940972805023193
-0.035242460668087,0.961556077003479,-0.0686950162053108,-0.659686267375946,-0.0158742666244506,0.0269487090408802,0.0,0.0,-0.7754409313201904,0.4071894884109497
-0.0359113700687885,0.94647878408432,-0.0681855753064155,-0.6700907945632935,-0.0145891830325126,0.0257015489041805,0.0,0.0,-0.7873983979225159,-0.2978676557540893
-0.036577321588993,0.9311673045158386,-0.0678343027830123,-0.6804952621459961,-0.0133651625365018,0.0244802962988615,0.0,0.0,-0.1825923919677734,-0.0345186591148376
-0.0372419357299804,0.9156219363212584,-0.0676453113555908,-0.6908997297286987,-0.0122008109465241,0.0232870951294899,0.0,0.0,0.0231902599334716,-0.3409983515739441
-0.0378443710505962,0.9001325964927673,-0.0616501197218894,-0.688403308391571,-0.0108162807300686,0.0276908166706562,0.0,0.0,-0.582550585269928,-0.0943054556846618
-0.0384489074349403,0.8844091296195984,-0.0617968514561653,-0.6988077759742737,-0.0094882734119892,0.0265601184219121,0.0,0.0,-0.3023132085800171,-0.0678954720497131
-0.039057157933712,0.8684517741203308,-0.0621163435280323,-0.7092121839523315,-0.0082150809466838,0.0254638697952032,0.0,0.0,-0.4839625358581543,-0.3995213508605957
-0.0396708473563194,0.8522602915763855,-0.062611386179924,-0.7196165919303894,-0.006994872353971,0.0244041495025157,0.0,0.0,-0.318820595741272,0.2531929016113281
-0.0402918830513954,0.8358348608016968,-0.0632843747735023,-0.7300209403038025,-0.0058257151395082,0.0233830418437719,0.0,0.0,-0.7696636915206909,-0.022412896156311
-0.0409218780696392,0.819175124168396,-0.064137227833271,-0.7404253482818604,-0.0047055901959538,0.0224026031792163,0.0,0.0,0.0070205926895141,0.3784857988357544
-0.0416413322091102,0.8030025959014893,-0.0726516395807266,-0.7187796235084534,-0.004006462637335,0.0139825250953435,0.0,0.0,-0.4347822070121765,-0.2929179668426513
-0.0423733703792095,0.7865957617759705,-0.073868304491043,-0.7291839718818665,-0.0033519824501127,0.0130894873291254,0.0,0.0,-0.6111446022987366,-0.1008912324905395
-0.0431198105216026,0.7699550986289978,-0.07526795566082,-0.73958820104599,-0.0027398425154387,0.0122430818155407,0.0,0.0,-0.0485103130340576,-0.1240206956863403
-0.0438824668526649,0.7530801892280579,-0.0768506452441215,-0.7499924898147583,-0.0021675864700227,0.0114452522248029,0.0,0.0,-0.6228235363960266,0.33852219581604
-0.0446631424129009,0.7359712719917297,-0.078615978360176,-0.7603968381881714,-0.001632701838389,0.0106979180127382,0.0,0.0,-0.3147033452987671,-0.1473821997642517
-0.0454637520015239,0.7186281681060791,-0.0805630534887313,-0.7708011269569397,-0.0011325402883812,0.0100029911845922,0.0,0.0,0.2802877426147461,0.1680723428726196
-0.0461700446903705,0.7016176581382751,-0.0716407299041748,-0.756024956703186,-0.0001302848395425,0.0200447998940944,0.0,0.0,-0.2238872051239013,0.4920661449432373
-0.0468996055424213,0.6843730211257935,-0.0739466696977615,-0.7664292454719543,0.0008427083375863,0.0194600187242031,0.0,0.0,-0.0917102694511413,0.4132435321807861
-0.0476543419063091,0.6668943166732788,-0.0764288157224655,-0.7768335938453674,0.0017893646145239,0.0189330913126468,0.0,0.0,0.7881371974945068,0.8783142566680908
-0.0482023246586322,0.6502806544303894,-0.0542561896145343,-0.7383854389190674,0.0012566840741783,-0.0106536094099283,0.0,0.0,-0.443509578704834,-0.2253766059875488
-0.0487787239253521,0.633432924747467,-0.0570821948349475,-0.7487897872924805,0.0007037030882202,-0.0110598420724272,0.0,0.0,0.600022554397583,0.7539924383163452
-0.049407385289669,0.6174991726875305,-0.0606165453791618,-0.7081682085990906,-0.0015174535801634,-0.0444231070578098,0.0,0.0,-0.8462759852409363,0.2978520393371582
-0.0500678047537803,0.6013312935829163,-0.0637724474072456,-0.7185729146003723,-0.00375253893435,-0.0447018668055534,0.0,0.0,0.0782800912857055,0.9012179374694824
-0.050765611231327,0.5856209993362427,-0.0656917616724968,-0.6982532739639282,-0.0077947382815182,-0.0808439999818801,0.0,0.0,-0.354328453540802,0.6785541772842407
-0.0514335632324218,0.5696744322776794,-0.0610423795878887,-0.7087773084640503,-0.0134703610092401,-0.1135124564170837,0.0,0.0,-0.5086275339126587,-0.0105660557746887
-0.0521376617252826,0.5534941554069519,-0.0646614879369735,-0.7191842198371887,-0.019149761646986,-0.1135879531502723,0.0,0.0,0.7338860034942627,-0.2440736293792724
-0.0528631210327148,0.537710964679718,-0.0668363869190216,-0.7015605568885803,-0.0247914306819438,-0.1128335148096084,0.0,0.0,-0.1928322315216064,0.6377534866333008
-0.0535875335335731,0.5216929316520691,-0.065710425376892,-0.7120344638824463,-0.0314374081790447,-0.1329195201396942,0.0,0.0,-0.5041309595108032,0.2429009675979614
-0.0543522834777832,0.5054414868354797,-0.0697494745254516,-0.7224424481391907,-0.0380763411521911,-0.1327786147594452,0.0,0.0,-0.130122423171997,-0.1296024322509765
-0.0551585182547569,0.4889565706253052,-0.0739182233810424,-0.7328503727912903,-0.0447044856846332,-0.1325629502534866,0.0,0.0,0.9191242456436156,0.264265775680542
-0.0559319481253623,0.4737218916416168,-0.0707867890596389,-0.6773043870925903,-0.0511727891862392,-0.1293662637472152,0.0,0.0,0.7851758003234863,0.4091053009033203
-0.0568245872855186,0.4590277671813965,-0.0822607725858688,-0.6533279418945312,-0.0580930784344673,-0.1384058892726898,0.0,0.0,-0.4521288871765136,-0.3742619156837463
-0.0577621459960937,0.4441001415252685,-0.086787112057209,-0.66373610496521,-0.0649910122156143,-0.1379587203264236,0.0,0.0,0.7946336269378662,0.7584480047225952
-0.0586054809391498,0.429943174123764,-0.075945496559143,-0.6295880675315857,-0.0732947960495948,-0.1660753488540649,0.0,0.0,-0.4921826124191284,-0.1924992799758911
-0.0594958290457725,0.415552943944931,-0.0806843191385269,-0.6399978995323181,-0.0815682336688041,-0.1654684692621231,0.0,0.0,-0.0959261655807495,0.0208073854446411
-0.0604342445731163,0.4009294509887695,-0.0855216607451438,-0.6504076719284058,-0.0898072645068168,-0.164780706167221,0.0,0.0,-0.0125292539596557,-0.7141726613044739
-0.0614812858402729,0.3860750198364258,-0.0979441404342651,-0.6606165170669556,-0.0965068191289901,-0.1339910328388214,0.0,0.0,0.8905227184295654,-0.5386973023414612
-0.0625027641654014,0.3715308010578155,-0.096755214035511,-0.646765410900116,-0.1018532887101173,-0.1069293990731239,0.0,0.0,0.9841824769973756,-0.3703401684761047
-0.0635709762573242,0.3573669493198395,-0.1013106331229209,-0.6298907995223999,-0.1073286458849906,-0.109507218003273,0.0,0.0,0.5461850166320801,-0.4527903795242309
-0.064618781208992,0.3440776467323303,-0.0992808267474174,-0.591040313243866,-0.1127894222736358,-0.1092153638601303,0.0,0.0,0.4963984489440918,-0.6309810280799866
-0.0656059235334396,0.3316570818424225,-0.0947051495313644,-0.5523339509963989,-0.1167657449841499,-0.0795268192887306,0.0,0.0,-0.2407384514808654,0.4714553356170654
-0.0666456222534179,0.3190025687217712,-0.1000331491231918,-0.5627390742301941,-0.1206829473376274,-0.0783440023660659,0.0,0.0,0.683427095413208,0.0006487369537353
-0.0678288489580154,0.3066403865814209,-0.1138380914926529,-0.5497992038726807,-0.125146672129631,-0.0892744809389114,0.0,0.0,-0.2464271783828735,-0.2985910177230835
-0.069066047668457,0.2940442860126495,-0.1192954182624816,-0.5602044463157654,-0.1295429766178131,-0.0879259556531906,0.0,0.0,-0.5228323340415955,0.0098383426666259
-0.0703575164079666,0.28121417760849,-0.1248116493225097,-0.5706095099449158,-0.1338677555322647,-0.0864952653646469,0.0,0.0,0.7201032638549805,-0.7654660940170288
-0.0717314705252647,0.269226998090744,-0.1345438659191131,-0.5330250859260559,-0.136710911989212,-0.056862998753786,0.0,0.0,-0.0349977016448974,0.2305010557174682
-0.0731609314680099,0.2570056319236755,-0.1401670724153518,-0.5434290766716003,-0.139474406838417,-0.05527014285326,0.0,0.0,0.0062923431396484,-0.3100550174713135
-0.0745443329215049,0.2450653612613678,-0.1358980238437652,-0.5309072136878967,-0.1419086158275604,-0.0486839711666107,0.0,0.0,0.6232335567474365,-0.2462247610092163
-0.0759134292602539,0.2333854585886001,-0.1346601545810699,-0.5193247199058533,-0.1441475301980972,-0.0447784848511219,0.0,0.0,0.6519677639007568,0.3553681373596191
-0.0771894454956054,0.2220489382743835,-0.1258857101202011,-0.504013180732727,-0.1458659917116165,-0.0343689695000648,0.0,0.0,0.5855526924133301,-0.1042312979698181
-0.0783032402396202,0.2112606614828109,-0.1104022711515426,-0.4795731902122497,-0.1468360722064972,-0.0194019488990306,0.0,0.0,0.246985912322998,-0.4966356754302978
-0.0793267264962196,0.2006567865610122,-0.1019614562392234,-0.4713231325149536,-0.1472205370664596,-0.0076892734505236,0.0,0.0,-0.407584547996521,0.3381974697113037
-0.0804078131914138,0.1898185163736343,-0.1078320518136024,-0.4817261695861816,-0.147502452135086,-0.0056383572518825,0.0,0.0,0.233628511428833,0.5037527084350586
-0.0813990607857704,0.1795759052038192,-0.0979902297258377,-0.4553424119949341,-0.148628681898117,-0.0225245561450719,0.0,0.0,0.4892584085464477,-0.0964827537536621
-0.0822484046220779,0.1699659377336502,-0.0844340696930885,-0.4271568953990936,-0.1491261273622512,-0.0099488086998462,0.0,0.0,-0.6875229477882385,-0.2165412306785583
-0.0831561088562011,0.160121813416481,-0.0903938487172126,-0.4375598132610321,-0.1495107412338256,-0.0076918699778616,0.0,0.0,0.0640760660171508,-0.0825583934783935
-0.0841072052717208,0.1505372375249862,-0.0946822687983512,-0.426021009683609,-0.1499358266592025,-0.0085017038509249,0.0,0.0,0.1918524503707885,0.0763670206069946
-0.0849637985229492,0.1416278630495071,-0.085637167096138,-0.3959749341011047,-0.1499593257904052,-0.0004701115540228,0.0,0.0,-0.4988024234771728,-0.3778301477432251
-0.0858795195817947,0.1324841827154159,-0.0916672646999359,-0.4063776731491089,-0.1498606353998184,0.0019734865054488,0.0,0.0,0.3666081428527832,0.1521618366241455
-0.0868578925728797,0.1241051033139228,-0.0975915566086769,-0.3724274337291717,-0.1501130610704422,-0.0050485576502978,0.0,0.0,0.6545159816741943,0.0092240571975708
-0.0877050384879112,0.116508662700653,-0.084990881383419,-0.3375923931598663,-0.1498344391584396,0.0055725038982927,0.0,0.0,-0.4801880121231079,-0.3980934619903564
-0.0886116996407508,0.108677826821804,-0.0910749360918998,-0.3479950129985809,-0.1494253277778625,0.0081822173669934,0.0,0.0,0.2249906063079834,0.5286298990249634
-0.08951997756958,0.101445585489273,-0.0901723876595497,-0.3214993178844452,-0.1500770896673202,-0.0130353001877665,0.0,0.0,0.5956822633743286,0.7385662794113159
-0.0903846770524978,0.0946827009320259,-0.0844272896647453,-0.3007794916629791,-0.1521222591400146,-0.0409032180905342,0.0,0.0,0.4833743572235107,0.661790132522583
-0.0912893265485763,0.0885011032223701,-0.0869905725121498,-0.2750977575778961,-0.155581384897232,-0.0691827088594436,0.0,0.0,0.1143417358398437,0.6320815086364746
-0.0922624617815017,0.0826222747564315,-0.0925692692399025,-0.2617844641208648,-0.1603198051452636,-0.0947684496641159,0.0,0.0,0.5992698669433594,0.2791841030120849
-0.0930831879377365,0.0775147750973701,-0.0779577642679214,-0.2274490147829055,-0.1644420027732849,-0.0824440717697143,0.0,0.0,0.3941731452941894,0.7143204212188721
-0.0938013046979904,0.0725998282432556,-0.0664985328912735,-0.2190405279397964,-0.1697608232498169,-0.1063761264085769,0.0,0.0,0.5242624282836914,0.6491091251373291
-0.094265267252922,0.0684464797377586,-0.0402481108903884,-0.1853116601705551,-0.1759257018566131,-0.1232973113656044,0.0,0.0,0.3084416389465332,-0.5416411757469177
-0.0947428718209266,0.0649875029921531,-0.0427968725562095,-0.1543268859386444,-0.1808971464633941,-0.0994293093681335,0.0,0.0,-0.0645309090614318,-0.4300318360328674
-0.0952804535627365,0.0612944215536117,-0.0489619448781013,-0.164730966091156,-0.1857195943593979,-0.096449039876461,0.0,0.0,0.2867417335510254,0.5899906158447266
-0.0956848114728927,0.0580017417669296,-0.0347365550696849,-0.1470653116703033,-0.1914504468441009,-0.1146169304847717,0.0,0.0,0.3501193523406982,0.0407131910324096
-0.096028134226799,0.0554592944681644,-0.028758043423295,-0.11373021453619,-0.1970566213130951,-0.1121233478188514,0.0,0.0,-0.0708070993423461,0.3564932346343994
-0.0964315384626388,0.0526827424764633,-0.0349259860813617,-0.1241345405578613,-0.2025095373392105,-0.1090581864118576,0.0,0.0,0.2251304388046264,0.3058565855026245
-0.0967680960893631,0.0501535274088382,-0.0286743827164173,-0.113099955022335,-0.2075315862894058,-0.100441113114357,0.0,0.0,0.2687948942184448,-0.4724059104919433
-0.0971588119864463,0.0481161214411258,-0.0338131748139858,-0.0912969559431076,-0.2128325402736663,-0.1060192435979843,0.0,0.0,-0.2227855920791626,0.0206900835037231
-0.0976093262434005,0.0458446107804775,-0.0399718396365642,-0.1017007529735565,-0.2179768085479736,-0.1028854846954345,0.0,0.0,-0.04544597864151,-0.5222564339637756
-0.0981616005301475,0.0433523021638393,-0.0513745322823524,-0.1113428398966789,-0.2218746989965438,-0.0779579356312751,0.0,0.0,0.4038509130477905,-0.0378971695899963
-0.098652459681034,0.0412816368043422,-0.045491948723793,-0.0925762206315994,-0.2255119383335113,-0.0727451369166374,0.0,0.0,0.049435019493103,-0.1726324558258056
-0.0990711227059364,0.0392826423048973,-0.0388135649263858,-0.089315228164196,-0.2286060601472854,-0.0618823878467083,0.0,0.0,0.2215267419815063,-0.654098391532898
-0.0994064360857009,0.0377807468175888,-0.0320508331060409,-0.0669794306159019,-0.2300993502140045,-0.0298662148416042,0.0,0.0,-0.2068929076194763,0.1125409603118896
-0.0998012572526931,0.0360443219542503,-0.0381646901369094,-0.0773807987570762,-0.2314317524433136,-0.0266480688005685,0.0,0.0,-0.0573757886886596,0.5480318069458008
