x_pos,y_pos,x_vel,y_vel,angle,ang_vel,leg_1,leg_2,main_booster,lat_booster
-0.0015415191883221,1.4033817052841189,-0.1564345955848693,-0.3350412547588348,0.0020436053164303,0.0403329133987426,0.0,0.0,0.3557687252485426,-0.7832813832102891
-0.0031155585311353,1.3961877822875977,-0.1613075286149978,-0.3197423219680786,0.0058984658680856,0.0771054923534393,0.0,0.0,0.8069518409527132,-0.8131068956498636
-0.0046140672639012,1.3894084692001345,-0.1559470742940902,-0.3013378977775574,0.0119297336786985,0.1206365376710891,0.0,0.0,-0.6214609221569201,-0.8053219488254744
-0.0062064169906079,1.382383108139038,-0.167478010058403,-0.3123302459716797,0.0200731456279754,0.1628834307193756,0.0,0.0,-0.3287643512998459,-0.8710145153146739
-0.0078709600493311,1.3751171827316284,-0.1762510240077972,-0.3230920135974884,0.0297580678015947,0.1937164813280105,0.0,0.0,-0.7413893050121287,-0.6387983454941555
-0.0095927240327,1.3676071166992188,-0.1831165701150894,-0.3340270221233368,0.0405873619019985,0.2166056334972381,0.0,0.0,-0.9905259131062658,-0.7983292017459791
-0.0113979335874319,1.3598525524139404,-0.1932670027017593,-0.3450478315353393,0.0532044023275375,0.2523641288280487,0.0,0.0,0.9686077718154142,-0.8354643892503588
-0.0131342886015772,1.3530250787734983,-0.1886135041713714,-0.3040412962436676,0.0680420771241188,0.2967808246612549,0.0,0.0,-0.1680520960461922,0.9393249678047922
-0.0148172378540039,1.3459748029708862,-0.1815326958894729,-0.3139937222003937,0.0811579897999763,0.262343019247055,0.0,0.0,0.6560379726709968,-0.8622414007019643
-0.0166465751826763,1.3397704362869265,-0.1979598104953766,-0.2766399681568146,0.0960703864693641,0.2982750236988067,0.0,0.0,0.196725893322647,-0.9933348567161429
-0.0185403823852539,1.3339693546295166,-0.206449270248413,-0.2590100467205047,0.1130349934101104,0.3393232226371765,0.0,0.0,-0.2086232307722433,-0.8884370124891087
-0.0205141063779592,1.327917456626892,-0.2160152643918991,-0.2704897820949554,0.1316048204898834,0.3714309334754944,0.0,0.0,0.0068366751105188,-0.6035573849356208
-0.0225209239870309,1.3222731351852417,-0.2206273525953292,-0.2527461647987366,0.1515151858329773,0.3982439041137695,0.0,0.0,0.4520869454459459,-0.9206490863454396
-0.0245963092893362,1.3168450593948364,-0.229331687092781,-0.243611603975296,0.1733464747667312,0.4366655349731445,0.0,0.0,0.3808924530336195,-0.9012553516989824
-0.026747990399599,1.3122246265411377,-0.2387807816267013,-0.2082825452089309,0.197090283036232,0.4749192297458648,0.0,0.0,-0.1710307070458894,-0.7147988313945185
-0.0289627071470022,1.3073471784591677,-0.2461068630218505,-0.220250591635704,0.2219742387533188,0.4977239966392517,0.0,0.0,-0.3989138847559534,0.6445942244829762
-0.0311369895935058,1.3022620677947998,-0.2402865886688232,-0.2296147793531417,0.2452034056186676,0.4646260738372803,0.0,0.0,-0.8863523843722061,-0.8138766447272461
-0.0333763137459754,1.2969166040420532,-0.2478282898664474,-0.2417496293783188,0.2696166038513183,0.4883085787296295,0.0,0.0,0.1676691012725184,0.6908056556688257
-0.0356598868966102,1.2922141551971436,-0.2507237493991852,-0.2132849246263504,0.2926266193389892,0.4602418839931488,0.0,0.0,0.7839988679790095,-0.9232925869044608
-0.0383003242313861,1.2880795001983645,-0.2878181934356689,-0.188731163740158,0.317242681980133,0.4923661649227142,0.0,0.0,0.0248695376086136,0.8486780740127796
-0.0409542098641395,1.284453511238098,-0.28718301653862,-0.1660871505737304,0.3399941623210907,0.4550711214542389,0.0,0.0,-0.7748041761433753,0.856303377340724
-0.0435603149235248,0.0,-0.2804044485092163,-0.1752060353755951,0.3608188927173614,0.4165319502353668,0.0,0.0,0.5563324630970692,0.6279116008823507
-0.0461942665278911,1.27736234664917,-0.2819446921348572,-0.1495539247989654,0.3804832398891449,0.3933228850364685,0.0,0.0,-0.3416886991314123,-0.8643919547623629
-0.0488986000418663,1.273823857307434,-0.290145993232727,-0.1626644283533096,0.4015547335147857,0.4214673042297363,0.0,0.0,-0.5091051180673685,-0.874739897923999
-0.0516986846923828,1.2699997425079346,-0.3014392256736755,-0.1761955320835113,0.4246640801429748,0.462228387594223,0.0,0.0,0.6371382954349214,0.901637155531382
-0.0548810958862304,1.266819715499878,-0.3373644351959228,-0.1472457200288772,0.4454710185527801,0.4161385893821716,0.0,0.0,0.925363105005412,0.6624844449900674
-0.0583938583731651,1.2645866870880127,-0.3687710762023926,-0.1049355491995811,0.4646815955638885,0.3842116892337799,0.0,0.0,-0.2708985555046019,0.981679444414023
-0.0618708617985248,1.2621629238128662,-0.3633639812469482,-0.113054521381855,0.4820342659950256,0.347053587436676,0.0,0.0,-0.0450201936235179,-0.9133677567307878
-0.0654418021440506,1.2594451904296875,-0.3744541704654693,-0.1269740760326385,0.501465380191803,0.3886217474937439,0.0,0.0,0.8787889394187833,-0.8806083804539423
-0.0693757981061935,1.2571455240249634,-0.4119461178779602,-0.1091300323605537,0.5224560499191284,0.4198130071163177,0.0,0.0,0.100741862754881,0.9504427455774672
-0.073531724512577,1.2554148435592651,-0.4319063127040863,-0.0832995474338531,0.5411407947540283,0.3736949861049652,0.0,0.0,0.8161668653478009,0.6111982288842492
-0.0779850929975509,1.2540255784988403,-0.45992511510849,-0.0676906630396843,0.5580228567123413,0.3376417756080627,0.0,0.0,0.7472498481311567,-0.6488744137301223
-0.0830245986580848,1.253363847732544,-0.5191313028335571,-0.0358405746519565,0.5757770538330078,0.3550834953784942,0.0,0.0,-0.3345005512458623,-0.8199689767146682
-0.0881324782967567,1.2523972988128662,-0.5271785259246826,-0.0501912496984005,0.5951884388923645,0.3882279396057129,0.0,0.0,-0.6483174394881672,-0.9249824266445252
-0.0933105498552322,1.2511330842971802,-0.5353438258171082,-0.0642682239413261,0.6162261962890625,0.4207568168640136,0.0,0.0,-0.1561163905572473,0.8828333401991622
-0.0984447449445724,0.0,-0.5288171172142029,-0.0713442116975784,0.6349667906761169,0.3748123347759247,0.0,0.0,-0.1746918078845227,-0.614647349540151
-0.1036278754472732,0.0,-0.5343773365020752,-0.0847782716155052,0.6547819375991821,0.396303117275238,0.0,0.0,-0.1801871160006698,0.8277754654984142
-0.1087693199515342,1.2460665702819824,-0.5281586050987244,-0.0917944088578224,0.6723312735557556,0.3509875237941742,0.0,0.0,-0.8209415984201158,0.7966571384200822
-0.1138780564069747,1.243983268737793,-0.5231353044509888,-0.099199429154396,0.6878927946090698,0.31123086810112,0.0,0.0,0.692896934119738,0.8076748384917649
-0.1193174347281456,1.2424687147140503,-0.5544338226318359,-0.0731363296508789,0.701379656791687,0.2697367370128631,0.0,0.0,0.6597874939665176,-0.8340719477495288
-0.1254113167524337,1.2414350509643557,-0.6207719445228577,-0.0524428151547908,0.7161737084388733,0.2958802282810211,0.0,0.0,-0.9984911680221558,0.996384620666504
-0.1314403563737869,1.2402467727661133,-0.6118675470352173,-0.0580689720809459,0.7279544472694397,0.235614612698555,0.0,0.0,-0.9869877099990844,0.9704358577728271
-0.1374046355485916,1.2388921976089478,-0.6031661033630371,-0.0642249435186386,0.7368881702423096,0.1786741316318512,0.0,0.0,-0.9971413612365724,0.9866442680358888
-0.1433065384626388,1.2373802661895752,-0.5946887731552124,-0.0699366703629493,0.7428994178771973,0.120224580168724,0.0,0.0,-0.9682186841964722,0.9579384326934814
-0.1491558104753494,1.2356839179992676,-0.5876534581184387,-0.0770675241947174,0.7465677261352539,0.073366180062294,0.0,0.0,-0.9982261061668396,0.98661470413208
-0.154942899942398,0.0,-0.5794010758399963,-0.083376444876194,0.747508704662323,0.0188193097710609,0.0,0.0,-0.997328758239746,0.9544086456298828
-0.1606699973344802,1.231784105300903,-0.5713895559310913,-0.0895696952939033,0.7457332611083984,-0.0355086885392665,0.0,0.0,-0.9971888065338136,0.858680248260498
-0.1663631498813629,1.2295656204223633,-0.5665343403816223,-0.0968881472945213,0.7419994473457336,-0.0746762976050376,0.0,0.0,-0.9995806813240052,0.6734719276428223
-0.1720300614833831,1.2271466255187988,-0.5627235174179077,-0.1051043942570686,0.7366976141929626,-0.1060371398925781,0.0,0.0,-0.994756519794464,0.7667064666748047
-0.1776541769504547,1.224537372589111,-0.5568841695785522,-0.1126460656523704,0.7293630242347717,-0.1466915160417556,0.0,0.0,-0.99745374917984,0.8590685129165649
-0.1832169592380523,1.2217645645141602,-0.5486317276954651,-0.118717685341835,0.7192723751068115,-0.2018127888441085,0.0,0.0,-0.9876023530960084,0.6998051404953003
-0.1887449324131012,1.2187983989715576,-0.5436906218528748,-0.1265662163496017,0.7073750495910645,-0.2379460632801056,0.0,0.0,-0.9720601439476012,0.9466264247894288
-0.1942045241594314,1.2156680822372437,-0.5345361232757568,-0.1326959282159805,0.6926171183586121,-0.2951590418815613,0.0,0.0,-0.986452579498291,0.8501855134963989
-0.1996162384748459,1.2123634815216064,-0.5277988910675049,-0.1395854502916336,0.6755627989768982,-0.3410863280296325,0.0,0.0,-0.9906830787658693,0.925245761871338
-0.204956442117691,1.2088974714279177,-0.5181102752685547,-0.1457030028104782,0.6555809378623962,-0.3996378779411316,0.0,0.0,-0.9936931729316713,0.557936429977417
-0.2102663516998291,1.20522141456604,-0.5136715769767761,-0.1546863615512848,0.6341756582260132,-0.428105890750885,0.0,0.0,-0.995941400527954,0.3009438514709472
-0.2155754566192627,1.2013040781021118,-0.5129865407943726,-0.1654859036207199,0.6123666167259216,-0.4361819326877594,0.0,0.0,-0.951159119606018,0.7695093154907227
-0.2208249121904373,1.197212815284729,-0.5046727657318115,-0.1725665181875229,0.5881017446517944,-0.4852970242500305,0.0,0.0,-0.9994667172431946,0.0665738582611084
-0.2260732650756836,1.1928821802139282,-0.5038921236991882,-0.1833772808313369,0.5634311437606812,-0.493413358926773,0.0,0.0,-0.9925296902656556,0.368869423866272
-0.2313202321529388,1.1883128881454468,-0.5030703544616699,-0.1941907852888107,0.5383538007736206,-0.5015463829040527,0.0,0.0,-0.9785905480384828,0.1095119714736938
-0.236565500497818,1.1835055351257324,-0.5022095441818237,-0.2050071209669113,0.5128691792488098,-0.5096923112869263,0.0,0.0,-0.9882376194000244,-0.5733587145805359
-0.2418549954891204,1.1784240007400513,-0.5072048306465149,-0.2178868353366851,0.4883869290351867,-0.4896455705165863,0.0,0.0,-0.9889713525772096,-0.4966837763786316
-0.2471417486667633,1.1731044054031372,-0.5062766671180725,-0.2287037819623947,0.463496446609497,-0.4978101253509521,0.0,0.0,-0.9841203093528748,-0.4721335172653198
-0.2524254322052002,1.1675471067428589,-0.5053156614303589,-0.2395235896110534,0.4381976127624511,-0.5059767961502075,0.0,0.0,-0.95122092962265,-0.2818060517311096
-0.2577057480812073,1.1617528200149536,-0.5043237805366516,-0.2503462731838226,0.4124905169010162,-0.5141419768333435,0.0,0.0,-0.9558655023574828,-0.392753005027771
-0.2629823088645935,1.155721664428711,-0.5033031105995178,-0.2611719667911529,0.3863753974437713,-0.5223022699356079,0.0,0.0,-0.9029535055160522,-0.6310747265815735
-0.2683010697364807,1.1494336128234863,-0.50804203748703,-0.2732169926166534,0.3610990047454834,-0.5055277943611145,0.0,0.0,-0.8973560333251953,-0.1123250126838684
-0.2736151814460754,1.142909049987793,-0.5069726705551147,-0.2840437591075897,0.3354154527187347,-0.5136709809303284,0.0,0.0,-0.8354644775390625,0.7408573627471924
-0.2788691520690918,1.1361870765686035,-0.4988032281398773,-0.2928251326084137,0.3077322840690613,-0.5536638498306274,0.0,0.0,-0.7669371962547302,-0.2880434989929199
-0.2841182649135589,1.129230260848999,-0.4976862370967865,-0.3036647439002991,0.2796438932418823,-0.5617676973342896,0.0,0.0,-0.606007993221283,-0.028903841972351
-0.2893621325492859,1.1220396757125854,-0.4965502619743347,-0.3145076334476471,0.2511515021324157,-0.5698486566543579,0.0,0.0,-0.4819999933242798,-0.3766948580741882
-0.2946005761623382,1.114615797996521,-0.4953971803188324,-0.3253539204597473,0.2222563475370407,-0.5779032111167908,0.0,0.0,-0.5757361650466919,-0.3527786135673523
-0.2998331487178802,1.1069588661193848,-0.4942287802696228,-0.3362034857273102,0.1929599791765213,-0.5859276056289673,0.0,0.0,-0.3277580738067627,-0.651650071144104
-0.3051039576530456,1.0990560054779053,-0.4986240267753601,-0.3477829694747925,0.1644128859043121,-0.5709420442581177,0.0,0.0,-0.306192398071289,-0.5301027297973633
-0.310411274433136,1.0909050703048706,-0.5028717517852783,-0.3594220280647278,0.1365914493799209,-0.5564289093017578,0.0,0.0,-0.4295327663421631,-0.4528114795684814
-0.31571164727211,1.082520842552185,-0.5016707181930542,-0.3702706694602966,0.1083740964531898,-0.5643475651741028,0.0,0.0,-0.364608883857727,-0.4090745449066162
-0.3210047781467438,1.073904037475586,-0.5004607439041138,-0.3811224102973938,0.0797630697488784,-0.5722208619117737,0.0,0.0,-0.3285742998123169,-0.274409532546997
-0.3262903690338135,1.0650551319122314,-0.4992434978485107,-0.3919771909713745,0.0507608540356159,-0.580044686794281,0.0,0.0,-0.5821488499641418,0.1013218164443969
-0.3315680921077728,1.0559747219085691,-0.498020738363266,-0.4028349816799164,0.0213701277971267,-0.58781498670578,0.0,0.0,-0.8230383992195129,0.2444171905517578
-0.3368376791477203,1.0466629266738892,-0.4967939257621765,-0.4136957824230194,-0.0084062349051237,-0.5955275893211365,0.0,0.0,-0.7583771347999573,0.1137144565582275
-0.3420987129211426,1.0371205806732178,-0.4955647587776184,-0.4245595037937164,-0.0385651551187038,-0.6031784415245056,0.0,0.0,-0.6047770977020264,0.3400033712387085
-0.3473510146141052,1.0273475646972656,-0.4943346977233886,-0.4354260563850403,-0.069103293120861,-0.6107630729675293,0.0,0.0,-0.678666353225708,0.4675480127334595
-0.3525941967964172,1.017344951629639,-0.493105411529541,-0.4462954103946686,-0.1000171229243278,-0.6182771325111389,0.0,0.0,-0.4596720933914184,0.128353476524353
-0.3578278422355652,1.007112741470337,-0.49187833070755,-0.4571675062179565,-0.131302922964096,-0.6257162094116211,0.0,0.0,-0.6348211765289307,-0.1532263755798339
-0.3630517125129699,0.9966513514518738,-0.4906549453735351,-0.4680421948432922,-0.1629566997289657,-0.6330757737159729,0.0,0.0,-0.6653760671615601,0.0630470514297485
-0.3682653307914734,0.9859614372253418,-0.4894367754459381,-0.4789194166660309,-0.1949742436408996,-0.6403512358665466,0.0,0.0,-0.5506654977798462,-0.6298819184303284
-0.3735162317752838,0.9750506281852722,-0.494201123714447,-0.4892935454845428,-0.2261401563882827,-0.6233185529708862,0.0,0.0,-0.2378907203674316,-0.7408533692359924
-0.37880539894104,0.9639217257499696,-0.4991432130336761,-0.4994737207889557,-0.2564023733139038,-0.6052449941635132,0.0,0.0,0.0801446437835693,-0.7859487533569336
-0.3839414715766907,0.9530851244926452,-0.4853173196315765,-0.4868309199810028,-0.2853692173957824,-0.579337477684021,0.0,0.0,-0.467540442943573,-0.5912743806838989
-0.389101892709732,0.9420284628868104,-0.4885413646697998,-0.4970423877239227,-0.3137633800506592,-0.5678836703300476,0.0,0.0,-0.5394406914710999,-0.299552321434021
-0.3942511677742004,0.9307407140731812,-0.4873572885990143,-0.5079049468040466,-0.3424978256225586,-0.5746887922286987,0.0,0.0,0.2419897317886352,-0.8208796381950378
-0.3992319703102112,0.9200520515441896,-0.4720938801765442,-0.4814646542072296,-0.3698576390743255,-0.5471967458724976,0.0,0.0,0.0076067447662353,-0.7317141890525818
-0.4040256142616272,0.9096864461898804,-0.4547846913337707,-0.4672755300998688,-0.3959981203079223,-0.5228097438812256,0.0,0.0,0.2258980274200439,-0.8185597658157349
-0.4086973071098327,0.8994023203849792,-0.4441751837730407,-0.4636760652065277,-0.4207185804843902,-0.4944089353084564,0.0,0.0,0.4090791940689087,-0.5632365345954895
-0.4132657945156097,0.8895345330238342,-0.4347899854183197,-0.445338636636734,-0.4446942210197449,-0.4795131087303161,0.0,0.0,0.4912507534027099,-0.1300491690635681
-0.4174193739891052,0.8804379105567932,-0.3935801982879638,-0.411403477191925,-0.4686278104782104,-0.4786717295646667,0.0,0.0,0.6749012470245361,-0.1299583911895752
-0.4213222861289978,0.8718954920768738,-0.3684102296829223,-0.3872511982917785,-0.4929750859737396,-0.4869453012943268,0.0,0.0,0.6338520050048828,-0.2426499128341674
-0.42494997382164,0.8642463684082031,-0.3404085040092468,-0.3481944501399994,-0.5181887745857239,-0.5042736530303955,0.0,0.0,0.6981871128082275,-0.5779131650924683
-0.428165853023529,0.8572627902030945,-0.3005643784999847,-0.3185804784297943,-0.5422276258468628,-0.4807773530483246,0.0,0.0,0.8328869342803955,-0.8517105579376221
-0.4310517311096191,0.8512210249900818,-0.2690816223621368,-0.2765372395515442,-0.5648400783538818,-0.4522491991519928,0.0,0.0,0.948085069656372,-0.912058174610138
-0.4336022436618805,0.8462110757827759,-0.2371033132076263,-0.230410099029541,-0.5859493017196655,-0.4221842885017395,0.0,0.0,0.7469677925109863,-0.9113562703132628
-0.4359356760978699,0.8417035341262817,-0.2170133292675018,-0.207702949643135,-0.6054134368896484,-0.3892821669578552,0.0,0.0,0.9131860733032228,-0.9057108163833618
-0.438042551279068,0.8380056619644165,-0.1957551836967468,-0.1713543087244033,-0.6234266757965088,-0.3602654039859772,0.0,0.0,0.8958237171173096,-0.9784852862358092
-0.4400067329406738,0.8350344896316528,-0.1829889416694641,-0.138585552573204,-0.6398430466651917,-0.3283277451992035,0.0,0.0,0.5057463645935059,-0.956558883190155
-0.4415397047996521,0.8325859904289246,-0.1415822207927703,-0.1147173792123794,-0.6543322801589966,-0.2897844016551971,0.0,0.0,0.5964818000793457,-0.8880689740180969
-0.4428519606590271,0.8303191065788269,-0.1210391968488693,-0.1060181409120559,-0.6670555472373962,-0.2544651627540588,0.0,0.0,0.7590720653533936,-0.859880268573761
-0.4435685276985168,0.828678548336029,-0.0630949735641479,-0.0774425268173217,-0.6778513789176941,-0.215917021036148,0.0,0.0,-0.0143548846244812,-0.9222135543823242
-0.4443311095237732,0.8268739581108093,-0.069265678524971,-0.0839999541640281,-0.6867510676383972,-0.1779942214488983,0.0,0.0,0.3038870096206665,-0.7034714818000793
-0.4445997774600982,0.8255497813224792,-0.0210825242102146,-0.0620353817939758,-0.6941453814506531,-0.1478858292102813,0.0,0.0,-0.8649972081184387,-0.964065432548523
-0.4449106752872467,0.8240472674369812,-0.026632210239768,-0.0692605078220367,-0.6998857259750366,-0.1148065775632858,0.0,0.0,-0.6080098152160645,-0.9681029915809632
-0.4452678263187408,0.8223844766616821,-0.0328128561377525,-0.0755424350500106,-0.7036396265029907,-0.0750777944922447,0.0,0.0,-0.7983810901641846,-0.9743852019309998
-0.4456656873226166,0.820552408695221,-0.0382546707987785,-0.082287386059761,-0.7056268453598022,-0.039744384586811,0.0,0.0,-0.4487025737762451,-0.9433526992797852
-0.4461068511009216,0.8185372352600098,-0.0438340045511722,-0.0897278413176536,-0.7059919238090515,-0.0073012127541005,0.0,0.0,-0.6892280578613281,-0.9140689373016356
-0.4466052949428558,0.8163644671440125,-0.0513094440102577,-0.0957362204790115,-0.7040899991989136,0.0380387157201767,0.0,0.0,-0.7965903282165527,-0.5517955422401428
-0.4471372663974762,0.813999354839325,-0.0556893572211265,-0.1037065014243125,-0.7008692622184753,0.064414769411087,0.0,0.0,-0.5033977627754211,-0.8349294662475586
-0.4477141797542572,0.8114572167396545,-0.0615564286708831,-0.1108184531331062,-0.6958889961242676,0.0996057912707328,0.0,0.0,-0.3046389818191528,-0.628545343875885
-0.4483211040496826,0.8087177872657776,-0.0654962509870529,-0.1190967708826065,-0.6897243857383728,0.1232915073633194,0.0,0.0,-0.2955856323242187,-0.0867100954055786
-0.4489220678806305,0.8057370185852051,-0.064819723367691,-0.1298952251672744,-0.6836907863616943,0.120671771466732,0.0,0.0,-0.7271203398704529,-0.6326201558113098
-0.4495477676391601,0.8025559782981873,-0.0681463778018951,-0.1383726298809051,-0.6766088008880615,0.141640305519104,0.0,0.0,0.1029731035232544,-0.576237142086029
-0.4498485028743744,0.7997922301292419,-0.0366216003894805,-0.1193578690290451,-0.668341338634491,0.1653486788272857,0.0,0.0,-0.6904504299163818,-0.3128979206085205
-0.450143814086914,0.7967872023582458,-0.0360341444611549,-0.1301568448543548,-0.6601791381835938,0.1632438451051712,0.0,0.0,-0.7665563225746155,-0.556008517742157
