x_pos,y_pos,x_vel,y_vel,angle,ang_vel,leg_1,leg_2,main_booster,lat_booster
-0.0015166283119469,1.403390407562256,-0.1541920006275177,-0.3346486985683441,0.0022696093656122,0.0448075383901596,0.0,0.0,-0.5739265418341157,-0.7364304702917138
-0.0030821799300611,1.3956464529037476,-0.1606603562831878,-0.344189316034317,0.0063248709775507,0.081113688647747,0.0,0.0,0.5782471872619175,0.7031316428454897
-0.0044542313553392,1.3882439136505127,-0.1407297551631927,-0.3290242850780487,0.0098142176866531,0.0697932764887809,0.0,0.0,-0.6427584090976828,-0.6517609020842301
-0.0058897016569972,1.3806043863296509,-0.1491712927818298,-0.3395770490169525,0.0153782330453395,0.1112905591726303,0.0,0.0,0.7612704508540546,0.792395776824175
-0.0071279527619481,1.3737815618515017,-0.128735676407814,-0.3032941818237304,0.0202361084520816,0.0971662849187851,0.0,0.0,0.6230985972815108,-0.7266790801615061
-0.0082944873720407,1.3675273656845093,-0.123893067240715,-0.2780881524085998,0.0273987557739019,0.1432662606239318,0.0,0.0,0.6006367691272798,-0.9974788891502714
-0.0095908166840672,1.3618746995925903,-0.139394536614418,-0.2514335215091705,0.0370605513453483,0.1932537257671356,0.0,0.0,-0.5527143169418847,0.7496489612289245
-0.0108275413513183,1.3559956550598145,-0.132141888141632,-0.2615184187889099,0.0454325564205646,0.1674553453922271,0.0,0.0,-0.2547189447409987,0.8061479355999365
-0.0120192524045705,1.3498971462249756,-0.1266190707683563,-0.2712951898574829,0.0528094209730625,0.147551029920578,0.0,0.0,0.1895633430897363,0.6413151390727692
-0.0132081033661961,1.3443570137023926,-0.125640407204628,-0.2464828193187713,0.0594908073544502,0.1336401402950287,0.0,0.0,0.3206139381951178,0.7273764277330655
-0.0143129350617527,1.3393077850341797,-0.1164822950959205,-0.2246623486280441,0.0654340982437133,0.1188770309090614,0.0,0.0,0.4528622944626448,0.7475062858066266
-0.0153445247560739,1.3347316980361938,-0.1083729863166809,-0.2036171108484268,0.0706049650907516,0.1034265905618667,0.0,0.0,0.1685925734433151,-0.8327935232419134
-0.0163969993591308,1.330671787261963,-0.112808920443058,-0.1808243244886398,0.0781018435955047,0.1499511897563934,0.0,0.0,-0.0409340164322926,0.6103684305924559
-0.0174242965877056,1.3263795375823977,-0.109534204006195,-0.1911365389823913,0.0848478302359581,0.1349324285984039,0.0,0.0,-0.9758112534171032,0.9300262635193738
-0.0183925628662109,1.3218755722045898,-0.1019381657242775,-0.2004724442958831,0.0899157002568245,0.1013665348291397,0.0,0.0,-0.4685297110826909,0.9549329208004118
-0.0193039886653423,1.3171393871307373,-0.094597615301609,-0.2107057571411132,0.0933528095483779,0.0687486231327056,0.0,0.0,-0.7624630424706056,0.8262773983295826
-0.0201702117919921,1.312191128730774,-0.0886761024594307,-0.2200593054294586,0.0953806117177009,0.0405599661171436,0.0,0.0,-0.7578373583177447,-0.904615709921687
-0.0211260803043842,1.306994080543518,-0.0996316820383071,-0.2312380969524383,0.0994021669030189,0.0804384499788284,0.0,0.0,0.3922653569911569,0.9721619514422026
-0.0220168121159076,1.302608609199524,-0.0918650850653648,-0.1951057314872741,0.1021741405129432,0.0554443225264549,0.0,0.0,0.1864439611800692,-0.6113568569922384
-0.0230997093021869,1.298578858375549,-0.1128226295113563,-0.179418995976448,0.1066782623529434,0.0900905430316925,0.0,0.0,0.6206600891649612,0.8982158987416576
-0.0240917205810546,1.2954562902450562,-0.1027607917785644,-0.1390323638916015,0.1102179884910583,0.0708008185029029,0.0,0.0,0.6285509270229968,0.6851798996689842
-0.0251062400639057,1.2927583456039429,-0.1042956486344337,-0.1201265528798103,0.1130467057228088,0.0565794631838798,0.0,0.0,0.4317364920180999,-0.6982746792012469
-0.0261474605649709,1.2905415296554563,-0.109215997159481,-0.0989229902625083,0.1181185916066169,0.1014468520879745,0.0,0.0,-0.5956869423574398,-0.6751507069693352
-0.0272783283144235,1.2880761623382568,-0.1200072392821312,-0.1101309359073638,0.1250111609697342,0.1378637850284576,0.0,0.0,0.731361211614338,0.6710516979948385
-0.0286453254520893,1.2863638401031494,-0.1425238698720932,-0.0766003280878067,0.1308174431324005,0.1161361560225486,0.0,0.0,0.497298811962146,-0.7686350110636303
-0.0303449630737304,1.2853103876113892,-0.1777261793613433,-0.0475227162241935,0.1385481506586074,0.1546138375997543,0.0,0.0,0.2981219561592965,0.858387636349745
-0.0320992469787597,1.2848926782608032,-0.1820902675390243,-0.0191912967711687,0.1451934725046157,0.13290636241436,0.0,0.0,-0.8039521648971764,-0.9274932830268704
-0.0339895263314247,1.2842336893081665,-0.1985597908496856,-0.0302569661289453,0.1547202616930008,0.1905358880758285,0.0,0.0,-0.4328295757399805,0.8103930965387534
-0.0358780845999717,1.2833610773086548,-0.1977499425411224,-0.0397275909781456,0.1636018306016922,0.1776314228773117,0.0,0.0,-0.7487382055265461,0.8716883366318646
-0.0377488136291503,1.2822699546813965,-0.1948820650577545,-0.0493761375546455,0.171428307890892,0.1565297544002533,0.0,0.0,0.726537871380416,-0.7638088232648571
-0.0398582443594932,1.2822537422180176,-0.2209416925907135,-0.001913653453812,0.1814491003751754,0.2004161179065704,0.0,0.0,0.1720052596769732,0.8958497663310341
-0.0420658104121685,1.2824612855911257,-0.2295566499233245,0.0081278653815388,0.1902778595685959,0.1765749454498291,0.0,0.0,-0.1887438114982478,-0.6846591705071172
-0.0443842895328998,1.2824265956878662,-0.2427911460399627,-0.002979380544275,0.201287642121315,0.2201959192752838,0.0,0.0,-0.3436992353285704,0.9645021546668018
-0.0466849319636821,1.2821731567382812,-0.2398842126131057,-0.0126363756135106,0.2111908793449401,0.1980643272399902,0.0,0.0,0.6430932957806055,0.81506371224332
-0.0490864738821983,1.2826309204101562,-0.2489848434925079,0.0190617274492979,0.2201012969017028,0.1782083660364151,0.0,0.0,0.5716774159038447,-0.695517665954158
-0.051732063293457,1.2839045524597168,-0.275370717048645,0.0549487024545669,0.2310605943202972,0.2191860228776931,0.0,0.0,0.594501095386003,-0.8541647748793346
-0.0546218864619731,1.2855522632598877,-0.3020397126674652,0.0711372345685958,0.2443148344755172,0.2650851607322693,0.0,0.0,0.0836804934918973,0.8852567684292314
-0.0575891509652137,1.2877395153045654,-0.3085751235485077,0.0951973870396614,0.2563859522342682,0.2414222210645675,0.0,0.0,-0.8193827576818347,0.914590688939606
-0.0605450645089149,1.2897320985794067,-0.3062894642353058,0.0866487324237823,0.267323225736618,0.2187455147504806,0.0,0.0,-0.3674671970450973,0.6335853918511595
-0.0635028854012489,1.291515827178955,-0.3057301342487335,0.0774241536855697,0.27751624584198,0.2038603276014328,0.0,0.0,0.0300858993699706,0.8292906007205553
-0.0666597336530685,1.2937707901000977,-0.3245430886745453,0.0985095277428627,0.2866063117980957,0.1818013489246368,0.0,0.0,-0.9009805917739868,0.8904259204864502
-0.0697879791259765,1.2958287000656128,-0.3201043009757995,0.0900152847170829,0.2941102981567383,0.1500803679227829,0.0,0.0,-0.9202306866645812,0.9315121173858644
-0.0728854164481163,1.2976828813552856,-0.3154619932174682,0.0812386646866798,0.3000112175941467,0.1180184334516525,0.0,0.0,-0.9755120873451232,0.9238193035125732
-0.0759546309709549,1.299341320991516,-0.3110688328742981,0.0728510618209838,0.3043048977851867,0.0858728215098381,0.0,0.0,-0.9191346764564514,0.9153027534484864
-0.0790106803178787,1.300788402557373,-0.3086357116699219,0.0636719688773155,0.30744668841362,0.0628359243273735,0.0,0.0,-0.9283999800682068,0.967010259628296
-0.0820399299263954,1.302031636238098,-0.3044679760932922,0.0549284778535366,0.3090474605560303,0.0320158340036869,0.0,0.0,-0.9662932753562928,0.9082033634185792
-0.085046574473381,1.303074598312378,-0.3007983863353729,0.0463218316435813,0.3091779947280884,0.0026107097510248,0.0,0.0,-0.9867222309112548,0.6808953285217285
-0.0880670547485351,1.30391263961792,-0.3016117215156555,0.0373370423913002,0.3087280690670013,-0.008998311124742,0.0,0.0,-0.9971371293067932,0.962714433670044
-0.0910869613289833,1.3045539855957031,-0.3005939126014709,0.0287972576916217,0.307288646697998,-0.0287882778793573,0.0,0.0,-0.9946174025535583,0.957855463027954
-0.0940908417105674,1.304993987083435,-0.2977104783058166,0.020121281966567,0.3045111000537872,-0.0555509626865386,0.0,0.0,-0.9853493571281432,0.8300278186798096
-0.0970717445015907,1.3052386045455933,-0.2938955724239349,0.0117422174662351,0.3001751601696014,-0.0867190435528755,0.0,0.0,-0.9812326431274414,0.6587505340576172
-0.1000630408525466,1.3052765130996704,-0.2942634522914886,0.002684591570869,0.2951484024524688,-0.1005357652902603,0.0,0.0,-0.998046338558197,0.8910865783691406
-0.1030284911394119,1.305114507675171,-0.2901009321212768,-0.0059093418531119,0.2885036766529083,-0.1328944265842437,0.0,0.0,-0.9992431998252868,0.6420800685882568
-0.1060010939836502,1.3047486543655396,-0.290009081363678,-0.0148526644334197,0.2810510694980621,-0.1490525156259536,0.0,0.0,-0.9940975904464722,0.5392924547195435
-0.108977124094963,1.304171442985535,-0.2894978821277618,-0.0241163782775402,0.2727356255054474,-0.1663086116313934,0.0,0.0,-0.999983549118042,0.5203065872192383
-0.1119742393493652,1.3033747673034668,-0.2912176847457886,-0.0338479727506637,0.2640262544155121,-0.1741875112056732,0.0,0.0,-0.9999834299087524,0.7732787132263184
-0.114959716796875,1.30238139629364,-0.2887177169322967,-0.0424107760190963,0.2539821267127991,-0.2008821666240692,0.0,0.0,-0.99979430437088,0.7472838163375854
-0.1179307922720909,1.30118727684021,-0.2858870029449463,-0.0511663891375064,0.2425501197576522,-0.2286402285099029,0.0,0.0,-0.999837040901184,0.7246391773223877
-0.1208961457014083,1.2997928857803345,-0.2841010987758636,-0.0599651262164115,0.229929119348526,-0.2524200081825256,0.0,0.0,-0.9975056648254396,0.1397595405578613
-0.123916819691658,1.2981681823730469,-0.2900497317314148,-0.0703834146261215,0.2177597135305404,-0.2433884590864181,0.0,0.0,-0.9992149472236632,-0.0521392822265625
-0.1269929856061935,1.29631245136261,-0.2959974408149719,-0.0808001831173896,0.206031247973442,-0.2345695048570633,0.0,0.0,-0.9239569902420044,0.2651330232620239
-0.1301245689392089,1.2942259311676023,-0.3019433617591858,-0.0912155210971832,0.1947328448295593,-0.2259685546159744,0.0,0.0,-0.9998501539230348,0.2076425552368164
-0.1333116590976715,1.2919082641601562,-0.3078866600990295,-0.1016294956207275,0.1838533282279968,-0.217590719461441,0.0,0.0,-0.999047577381134,0.877091646194458
-0.1364838629961013,1.2893801927566528,-0.3049426674842834,-0.1108818724751472,0.1715519726276397,-0.2460272312164306,0.0,0.0,-0.9991263151168824,0.3432941436767578
-0.1397115737199783,1.2866212129592896,-0.3108774423599243,-0.1212966963648796,0.1596465408802032,-0.2381084859371185,0.0,0.0,-0.9996318817138672,-0.2748305797576904
-0.1429949700832367,1.2836308479309082,-0.316807210445404,-0.1317102164030075,0.1481252461671829,-0.2304260730743408,0.0,0.0,-0.9974963068962096,0.2671753168106079
-0.146334171295166,1.2804090976715088,-0.3227311372756958,-0.1421225219964981,0.1369760632514953,-0.2229836285114288,0.0,0.0,-0.9994748830795288,0.3678246736526489
-0.1497289687395095,1.276955485343933,-0.3286483883857727,-0.1525336652994156,0.1261868476867675,-0.2157844007015228,0.0,0.0,-0.9953284859657288,0.7306861877441406
-0.1531204283237457,1.2732901573181152,-0.3271065056324005,-0.1619345843791961,0.1142167970538139,-0.2394008338451385,0.0,0.0,-0.9264287352561952,0.6248462200164795
-0.1565260887145996,1.2693977355957031,-0.3277850151062011,-0.1720689386129379,0.1015311703085899,-0.2537127137184143,0.0,0.0,-0.990875005722046,-0.1371388435363769
-0.1599874496459961,1.265273928642273,-0.3336756825447082,-0.1824817657470703,0.0891683474183082,-0.2472565621137619,0.0,0.0,-0.9688979387283324,0.863247275352478
-0.1634333580732345,1.260930061340332,-0.3305908739566803,-0.1922867000102996,0.0753070637583732,-0.2772253155708313,0.0,0.0,-0.9619823098182678,0.7855837345123291
-0.1668868064880371,1.2563694715499878,-0.3303876519203186,-0.2020040899515152,0.0605111680924892,-0.2959180176258087,0.0,0.0,-0.981826901435852,-0.3134400844573974
-0.1703960448503494,1.2515779733657837,-0.3362428545951843,-0.2124205082654953,0.0460003577172756,-0.2902164459228515,0.0,0.0,-0.9856228232383728,0.6005859375
-0.1739160567522049,1.2465541362762451,-0.336446076631546,-0.2228715270757675,0.030634693801403,-0.3073136508464813,0.0,0.0,-0.9813874363899232,0.6226918697357178
-0.1774368286132812,1.2412956953048706,-0.3353807032108307,-0.2334406822919845,0.0141511792317032,-0.329670250415802,0.0,0.0,-0.8981728553771973,0.9297226667404176
-0.1809433996677398,1.2357996702194214,-0.3324350118637085,-0.2441899925470352,-0.0038363619241863,-0.3597509264945984,0.0,0.0,-0.9864033460617064,0.7416725158691406
-0.1844475716352462,1.2300809621810913,-0.3309626877307892,-0.2543342709541321,-0.0230432096868753,-0.3841370046138763,0.0,0.0,-0.8035027980804443,0.3623125553131103
-0.1880070716142654,1.224133014678955,-0.3367354571819305,-0.2647614479064941,-0.0420273095369339,-0.3796817660331726,0.0,0.0,-0.9668785929679872,0.2671191692352295
-0.1916218698024749,1.2179555892944336,-0.34248748421669,-0.2751875519752502,-0.0608008876442909,-0.3754716217517853,0.0,0.0,-0.827917218208313,-0.7316099405288696
-0.1953622847795486,1.2115472555160522,-0.3570564687252044,-0.2855902016162872,-0.0776085928082466,-0.3361541032791137,0.0,0.0,-0.790865421295166,0.1077516078948974
-0.1991576254367828,1.2049084901809692,-0.3627606034278869,-0.2960092723369598,-0.0942299142479896,-0.3324266076087951,0.0,0.0,-0.5504038333892822,0.8817453384399414
-0.2029500007629394,1.198031306266785,-0.361187607049942,-0.306887686252594,-0.1121384501457214,-0.3581708669662475,0.0,0.0,-0.6295877695083618,-0.659741222858429
-0.2068531960248947,1.1909363269805908,-0.373918354511261,-0.3166539072990417,-0.1284465789794922,-0.326162576675415,0.0,0.0,-0.7838841080665588,-0.2578498125076294
-0.2108107507228851,1.1836103200912476,-0.379534512758255,-0.3270711004734039,-0.1446027755737304,-0.323124349117279,0.0,0.0,0.0758240222930908,-0.8366520404815674
-0.214767500758171,1.1766157150268557,-0.3813299834728241,-0.3123253285884857,-0.1589248180389404,-0.2864410281181335,0.0,0.0,-0.5251191258430481,0.3390780687332153
-0.2187780439853668,1.169389724731445,-0.3868734240531921,-0.3227372765541076,-0.1731167286634445,-0.2838380038738251,0.0,0.0,-0.7401487827301025,0.2404819726943969
-0.222842127084732,1.1619319915771484,-0.3923763632774353,-0.3331488966941833,-0.1871888488531112,-0.2814428508281708,0.0,0.0,-0.3510892391204834,-0.6011053919792175
-0.2269945591688156,1.1542524099349976,-0.4022699296474457,-0.3430076539516449,-0.2002398818731308,-0.2610207200050354,0.0,0.0,-0.0795714855194091,0.9013487100601196
-0.231114774942398,1.1463083028793335,-0.3969671726226806,-0.3551798462867737,-0.2154263257980346,-0.3037291765213012,0.0,0.0,-0.0816071033477783,0.3355652093887329
-0.235287144780159,1.1381330490112305,-0.4023283123970032,-0.365593820810318,-0.2305222004652023,-0.3019173145294189,0.0,0.0,-0.5967060923576355,0.458797812461853
-0.2395112961530685,1.129726529121399,-0.4076340198516845,-0.3760075867176056,-0.245536521077156,-0.3002865016460418,0.0,0.0,-0.4303518533706665,0.6665804386138916
-0.2437246739864349,1.1210684776306152,-0.4050880372524261,-0.387608140707016,-0.2621005773544311,-0.3312813639640808,0.0,0.0,0.3688620328903198,0.0074955224990844
-0.2478377372026443,1.1125389337539673,-0.3955692946910858,-0.3819864094257355,-0.2782135605812073,-0.3222602605819702,0.0,0.0,-0.0641666650772094,0.5729928016662598
-0.2519612908363342,1.1037604808807373,-0.3957156538963318,-0.3934241533279419,-0.2953323125839233,-0.3423747718334198,0.0,0.0,0.4963586330413818,0.3840764760971069
-0.255833089351654,1.095839262008667,-0.3710176646709442,-0.3554213643074035,-0.3120474815368652,-0.3343035578727722,0.0,0.0,0.0841392278671264,0.0613962411880493
-0.259653091430664,1.0882277488708496,-0.3658961951732635,-0.3418455123901367,-0.3287915289402008,-0.3348808884620666,0.0,0.0,-0.3864784240722656,-0.0119315385818481
-0.2635205388069153,1.080385684967041,-0.370766818523407,-0.3522635400295257,-0.3455003499984741,-0.3341767191886902,0.0,0.0,0.1364567279815673,-0.4036078453063965
-0.2672156393527984,1.0729600191116333,-0.3539157807826996,-0.3338594734668731,-0.3619034886360168,-0.3280625641345978,0.0,0.0,0.6417316198348999,-0.6741965413093567
-0.2707948684692383,1.0664125680923462,-0.343643844127655,-0.2946718037128448,-0.3770157992839813,-0.302245944738388,0.0,0.0,0.8997669219970703,0.007559061050415
-0.2741902470588684,1.060887575149536,-0.3249397873878479,-0.249490737915039,-0.3925508558750152,-0.3107014298439026,0.0,0.0,0.725055456161499,-0.3090347051620483
-0.2774540781974792,1.0558669567108154,-0.31178680062294,-0.2272480875253677,-0.4081938862800598,-0.3128604292869568,0.0,0.0,-0.1982237100601196,-0.5748868584632874
-0.2808094918727875,1.0506477355957031,-0.3223616480827331,-0.2358347773551941,-0.4224070310592651,-0.2842631936073303,0.0,0.0,0.6934468746185303,-0.6432507634162903
-0.2841845154762268,1.0460634231567385,-0.3252854943275451,-0.2074597775936126,-0.4356625080108642,-0.2651093602180481,0.0,0.0,0.5836677551269531,-0.4853199124336242
-0.2872165143489837,1.0421197414398191,-0.2914946377277374,-0.1789605468511581,-0.4484490752220154,-0.2557311058044433,0.0,0.0,0.8518211841583252,-0.3908758759498596
-0.2900457382202148,1.0384583473205566,-0.2715619206428528,-0.1664193719625473,-0.4609216749668121,-0.2494515180587768,0.0,0.0,0.8047269582748413,-0.2179793119430542
-0.2923992276191711,1.0355788469314575,-0.2247143983840942,-0.1315459758043289,-0.4726684987545013,-0.2349367141723632,0.0,0.0,0.9279718399047852,-0.5456956624984741
-0.2944374084472656,1.033728837966919,-0.1942081898450851,-0.0855396911501884,-0.483353704214096,-0.2137041836977005,0.0,0.0,0.7701237201690674,-0.7845603823661804
-0.2959869801998138,1.0327961444854736,-0.1471497118473053,-0.0442146770656108,-0.4920716285705566,-0.1743583083152771,0.0,0.0,0.6007194519042969,-0.8845655918121338
-0.2972912192344665,1.0323630571365356,-0.1243946999311447,-0.0214182175695896,-0.4988341331481933,-0.135250374674797,0.0,0.0,0.1895210742950439,-0.5586180090904236
-0.2983858585357666,1.0325111150741575,-0.1044899001717567,0.0047644828446209,-0.5044346451759338,-0.1120107620954513,0.0,0.0,-0.1812580823898315,-0.6716320514678955
-0.2995480895042419,1.0324649810791016,-0.1123840436339378,-0.003469455987215,-0.5087662935256958,-0.0866333842277526,0.0,0.0,0.2209401130676269,-0.6127852201461792
-0.3005566596984863,1.0326131582260132,-0.0982481017708778,0.0056110564619302,-0.5117213726043701,-0.059101678431034,0.0,0.0,0.078955054283142,-0.6517689824104309
-0.3015142977237701,1.0331603288650513,-0.0942766219377517,0.02375871501863,-0.5134017467498779,-0.0336077585816383,0.0,0.0,0.2340667247772216,-0.3673439025878906
-0.3023884296417236,1.034046649932861,-0.0855300575494766,0.0386819653213024,-0.5155409574508667,-0.0427840575575828,0.0,0.0,-0.2871764898300171,-0.5751428604125977
-0.3033227324485779,1.0347331762313845,-0.0926459431648254,0.0302187334746122,-0.516434371471405,-0.0178678818047046,0.0,0.0,0.1516591310501098,-0.5628148317337036
-0.304111897945404,1.0356879234313965,-0.079191505908966,0.0425331816077232,-0.5161188840866089,0.0063095293007791,0.0,0.0,-0.0696420669555664,-0.2647769451141357
-0.3049159646034241,1.0364086627960205,-0.0806700065732002,0.0321360193192958,-0.5158149003982544,0.0060795824974775,0.0,0.0,0.0639965534210205,-0.04070645570755
-0.3054606020450592,1.037423610687256,-0.0549805834889411,0.0453087948262691,-0.515230119228363,0.011695833876729,0.0,0.0,-0.2502355575561523,-0.4486939311027527
-0.3060151934623718,1.0382049083709717,-0.0559730418026447,0.0349118076264858,-0.5146523118019104,0.0115564158186316,0.0,0.0,-0.4846377968788147,-0.043376088142395
-0.3065773546695709,1.038752198219299,-0.0567194707691669,0.0245149340480566,-0.5140786170959473,0.0114739928394556,0.0,0.0,0.1076414585113525,-0.1009845733642578
