x_pos,y_pos,x_vel,y_vel,angle,ang_vel,leg_1,leg_2,main_booster,lat_booster
-0.0014618873829022,1.4031544923782349,-0.1482312679290771,-0.3451358675956726,0.0018224288942292,0.0359538309276104,0.0,0.0,-0.515120267868042,0.8789972066879272
-0.0027868270408362,1.3949381113052368,-0.1324833184480667,-0.3651725053787231,0.0018167227972298,-0.0001134785707108,0.0,0.0,-0.2909189462661743,0.2923332452774048
-0.0040493011474609,1.3862513303756714,-0.1263620257377624,-0.3860810697078705,0.0019301633583381,0.0022691446356475,0.0,0.0,-0.3163676261901855,0.7425904273986816
-0.0052023888565599,1.3770921230316162,-0.1143635064363479,-0.4070698618888855,0.00099658081308,-0.018673438578844,0.0,0.0,-0.003918707370758,0.6299028396606445
-0.0062326430343091,1.367465257644653,-0.1007030010223388,-0.427862673997879,-0.0013032918795943,-0.0460017696022987,0.0,0.0,-0.1105278730392456,0.4549421072006225
-0.0072002410888671,1.3573684692382812,-0.0945859923958778,-0.4487484097480774,-0.0034442550968378,-0.0428232289850711,0.0,0.0,-0.6261666417121887,0.2592113018035888
-0.0081048961728811,1.3468017578125,-0.0884757712483406,-0.4696339964866638,-0.0054149809293448,-0.0394181087613105,0.0,0.0,-0.1167327165603637,-0.3493144512176513
-0.0089467046782374,1.3357652425765991,-0.0823733881115913,-0.4905195236206054,-0.0072036171332001,-0.0357759520411491,0.0,0.0,0.479610800743103,-0.7639980316162109
-0.0097924228757619,1.325392246246338,-0.0844627991318702,-0.4610329270362854,-0.0073070498183369,-0.0020690339151769,0.0,0.0,-0.5587232708930969,-0.4920980930328369
-0.0105752944946289,1.3145486116409302,-0.0783850997686386,-0.4819276034832001,-0.0072077657096087,0.0019859436433762,0.0,0.0,-0.554129421710968,-0.2284824848175048
-0.011295223608613,1.303235411643982,-0.0723189041018486,-0.5028091073036194,-0.0068949689157307,0.0062566250562667,0.0,0.0,-0.5363742113113403,-0.3733289241790771
-0.0119525911286473,1.2914522886276243,-0.0662662833929061,-0.5236937403678894,-0.0063595836982131,0.0107085276395082,0.0,0.0,-0.6284945607185364,-0.6169189214706421
-0.012585163116455,1.2792026996612549,-0.0650107786059379,-0.5444186925888062,-0.0046339286491274,0.034516405314207,0.0,0.0,-0.8496575355529785,-0.7517592310905457
-0.0132078174501657,1.2664767503738403,-0.0655805170536041,-0.5655953884124756,-0.0013492505531758,0.0656993687152862,0.0,0.0,-0.6832889318466187,-0.2064651846885681
-0.0137680051848292,1.2532808780670166,-0.059583730995655,-0.586481511592865,0.0021821223199367,0.0706338137388229,0.0,0.0,-0.3041787147521972,-0.3123848438262939
-0.0142658231779932,1.2396153211593628,-0.053605992347002,-0.6073681116104126,0.0059680654667317,0.0757254064083099,0.0,0.0,-0.2554942369461059,-0.2374694347381591
-0.0147013664245605,1.2254799604415894,-0.0476495847105979,-0.6282548904418945,0.0100150471553206,0.0809470266103744,0.0,0.0,-0.841866135597229,0.08094322681427
-0.0150749208405613,1.210875153541565,-0.0417161025106906,-0.6491420269012451,0.0143293999135494,0.0862947553396225,0.0,0.0,-0.7092111706733704,0.3078761100769043
-0.015386676415801,1.195800542831421,-0.0358073785901069,-0.6700294613838196,0.0189169980585575,0.0917598530650138,0.0,0.0,-0.6862366795539856,0.2353570461273193
-0.0156367309391498,1.180256485939026,-0.0299253519624471,-0.6909173130989075,0.0237832609564065,0.097334049642086,0.0,0.0,-0.8029499053955078,0.2089767456054687
-0.0158253666013479,1.16424298286438,-0.0240721199661493,-0.7118055820465088,0.0289333052933216,0.1030101329088211,0.0,0.0,-0.8938258290290833,0.627196192741394
-0.0159022323787212,1.1477586030960083,-0.0119042545557022,-0.7327297925949097,0.0331015326082706,0.0833718106150627,0.0,0.0,-0.6460331082344055,0.4493070840835571
-0.0159183498471975,1.1308045387268066,-0.0061112041585147,-0.7536182403564453,0.0375633127987384,0.0892432928085327,0.0,0.0,-0.791843056678772,0.4423705339431762
-0.0158738140016794,1.1133811473846436,-0.0003541564801707,-0.7745067477226257,0.0423218421638011,0.0951792895793914,0.0,0.0,-0.2314412593841552,0.672661542892456
-0.0157283786684274,1.095492601394653,0.0104576852172613,-0.7951692938804626,0.0463583320379257,0.0807370021939277,0.0,0.0,-0.1099209785461425,0.8658480644226074
-0.0154706956818699,1.077121019363403,0.0227016415446996,-0.8166055679321289,0.0493932403624057,0.0606979206204414,0.0,0.0,0.4102498292922973,0.5490099191665649
-0.0151371955871582,1.0592159032821655,0.0310706458985805,-0.7958590984344482,0.0516518987715244,0.0451734140515327,0.0,0.0,0.1305984258651733,0.5111095905303955
-0.0148313520476222,1.0416882038116455,0.0291994605213403,-0.7790645360946655,0.0530116222798824,0.0271945148706436,0.0,0.0,-0.2950712442398071,0.0614705085754394
-0.0144669534638524,1.023690700531006,0.0347556769847869,-0.7999498844146729,0.0546868108212947,0.0335035808384418,0.0,0.0,0.0925103425979614,0.3151130676269531
-0.0140756610780954,1.0057053565979004,0.03717702627182,-0.7994207739830017,0.0566162280738353,0.0385881029069423,0.0,0.0,0.022962212562561,0.7880637645721436
-0.0135807991027832,0.9880506992340088,0.0487866401672363,-0.7846739888191223,0.0573015250265598,0.0137060256674885,0.0,0.0,-0.2076783180236816,0.4008804559707641
-0.0130288125947117,0.969926416873932,0.0541772358119487,-0.8055593967437744,0.0583108887076377,0.0201871450990438,0.0,0.0,-0.5282552242279053,0.3837273120880127
-0.0124202724546194,0.9513326287269592,0.0595053136348724,-0.8264448046684265,0.0596468448638916,0.0267190672457218,0.0,0.0,0.5035555362701416,0.6305718421936035
-0.0117883682250976,0.9327537417411804,0.0629030168056488,-0.8257380127906799,0.0599223896861076,0.0055109420791268,0.0,0.0,0.2977440357208252,0.7773211002349854
-0.0110549926757812,0.9144514799118042,0.0742674246430397,-0.8133999109268188,0.0589988902211189,-0.0184701420366764,0.0,0.0,0.3442345857620239,0.1266487836837768
-0.0102887153625488,0.8966022729873657,0.077164702117443,-0.7932754755020142,0.0584772042930126,-0.0104336934164166,0.0,0.0,0.2493188381195068,0.2832574844360351
-0.0095084188506007,0.8787974119186401,0.0783022791147232,-0.7913207411766052,0.0581991411745548,-0.0055612241849303,0.0,0.0,-0.1467583179473877,0.730743408203125
-0.008614158257842,0.8605336546897888,0.0909354910254478,-0.8116572499275208,0.0567108988761901,-0.0297649502754211,0.0,0.0,0.4025094509124756,0.1713396310806274
-0.0077416421845555,0.842868983745575,0.0885688588023185,-0.7850536108016968,0.0554073378443717,-0.0260711666196584,0.0,0.0,-0.228553295135498,0.0690041780471801
-0.006818008609116,0.8247345089912415,0.0933395251631736,-0.8059390187263489,0.0544448420405387,-0.0192500464618206,0.0,0.0,-0.203048288822174,0.496769905090332
-0.0058442116715013,0.806130588054657,0.0980115607380867,-0.8268243670463562,0.053825132548809,-0.0123943667858839,0.0,0.0,0.2594797611236572,0.7476797103881836
-0.0046773911453783,0.7876662611961365,0.1183281987905502,-0.8205751776695251,0.052192497998476,-0.0326523855328559,0.0,0.0,-0.2684787511825561,-0.6425777077674866
-0.0035049438010901,0.7687219977378845,0.1174683198332786,-0.8419620394706726,0.0519796833395957,-0.0042565609328448,0.0,0.0,-0.2845961451530456,0.1080031394958496
-0.0022853850387036,0.7493080496788025,0.121813379228115,-0.8628472685813904,0.0521145053207874,0.0026963695418089,0.0,0.0,-0.2892839908599853,-0.3707486391067505
-0.0010201453696936,0.7294245362281799,0.1260388493537902,-0.8837324976921082,0.0525984987616539,0.0096800383180379,0.0,0.0,0.0293412208557128,-0.463173508644104
0.0003072738763876,0.709385335445404,0.1317699253559112,-0.8906620144844055,0.0535655803978443,0.0193415842950344,0.0,0.0,0.1776299476623535,-0.5171236991882324
0.0016678810352459,0.689351499080658,0.133576437830925,-0.8904842734336853,0.0560112968087196,0.0489146783947944,0.0,0.0,0.8927052021026611,-0.7614859938621521
0.0028165816329419,0.6702700257301331,0.1108250245451927,-0.848220705986023,0.0600115694105625,0.0800054818391799,0.0,0.0,0.6116080284118652,0.7106499671936035
0.0038740157615393,0.6518687605857849,0.1030646935105323,-0.8179405331611633,0.0626638680696487,0.0530457682907581,0.0,0.0,0.1753944158554077,0.6050713062286377
0.004979133605957,0.6335409283638,0.1087087169289588,-0.814644992351532,0.0644411370158195,0.0355455391108989,0.0,0.0,0.1868625879287719,0.0848459005355835
0.0061982152983546,0.615367591381073,0.1192671060562133,-0.8078172206878662,0.067052885890007,0.0522349700331687,0.0,0.0,0.2870591878890991,0.5710445642471313
0.0074106217361986,0.5975871682167053,0.1194996461272239,-0.7903217673301697,0.06878712028265,0.0346846245229244,0.0,0.0,-0.0843832492828369,-0.3361175060272217
0.0086576463654637,0.5793371796607971,0.1225813850760459,-0.8112077713012695,0.0708818212151527,0.0418943427503109,0.0,0.0,0.8182997703552246,-0.2752583026885986
0.0098788263276219,0.5619317293167114,0.1196186318993568,-0.7736971378326416,0.0733545497059822,0.0494547523558139,0.0,0.0,0.0880141258239746,-0.2168296575546264
0.0112055782228708,0.544547975063324,0.1293435990810394,-0.7727782130241394,0.0766442716121673,0.0657945126295089,0.0,0.0,0.1578528881072998,0.4970731735229492
0.0124696735292673,0.5271810293197632,0.1230299025774002,-0.7720403671264648,0.0799885615706443,0.0668859928846359,0.0,0.0,-0.0770941972732544,0.5024616718292236
0.0138070108368992,0.5093548893928528,0.1311584562063217,-0.7924153208732605,0.0825399756431579,0.0510283187031745,0.0,0.0,0.8984479904174805,-0.1451024413108825
0.0152645111083984,0.4922374486923218,0.1420602947473526,-0.7609807848930359,0.0861917436122894,0.0730353221297264,0.0,0.0,0.2213404178619384,0.1478767395019531
0.0167487151920795,0.4755675494670868,0.1441133320331573,-0.7411400675773621,0.0904669985175132,0.0855050832033157,0.0,0.0,0.4549860954284668,-0.1592912673950195
0.0181260108947753,0.4594531059265136,0.1333602517843246,-0.7164669036865234,0.0948010683059692,0.0866812840104103,0.0,0.0,0.1867494583129882,0.6940708160400391
0.0195950511842966,0.4432744681835174,0.1434951722621917,-0.7192748188972473,0.0981764271855354,0.0675073415040969,0.0,0.0,0.4153124094009399,-0.2370463609695434
0.0209383964538574,0.4275107383728027,0.1309552788734436,-0.700831413269043,0.1015256941318512,0.0669853463768959,0.0,0.0,0.355044960975647,0.4671024084091186
0.0223564151674509,0.4119263887405395,0.1375749558210373,-0.692933976650238,0.1057158410549163,0.083803191781044,0.0,0.0,0.4396111965179443,0.1655944585800171
0.0237534530460834,0.3966727554798126,0.135014533996582,-0.678276777267456,0.1103742271661758,0.0931677669286727,0.0,0.0,0.0906543731689453,0.5258245468139648
0.0251818653196096,0.3813485503196716,0.1388189494609832,-0.6813789010047913,0.114369586110115,0.0799069702625274,0.0,0.0,0.5821092128753662,0.0404360294342041
0.0264392849057912,0.3663783967494964,0.1218972951173782,-0.6656420230865479,0.1181915402412414,0.0764388889074325,0.0,0.0,0.8873229026794434,0.739494800567627
0.0276747699826955,0.3524188101291656,0.1207584515213966,-0.6206473112106323,0.1209703609347343,0.0555764250457286,0.0,0.0,0.3243449926376343,-0.0590999126434326
0.0289551727473735,0.3383511006832123,0.124556265771389,-0.6255167722702026,0.1244299784302711,0.0691923350095748,0.0,0.0,0.3937253952026367,0.5555148124694824
0.030219841748476,0.3249052762985229,0.1236679702997207,-0.5978255867958069,0.1272101998329162,0.0556045398116111,0.0,0.0,0.6417548656463623,0.6301167011260986
0.0313782691955566,0.3116776943206787,0.1141700372099876,-0.5880368947982788,0.1288748532533645,0.0332927666604518,0.0,0.0,0.7557392120361328,0.3872129917144775
0.0323500633239746,0.2990325689315796,0.0955790355801582,-0.5621472597122192,0.1304659247398376,0.0318216457962989,0.0,0.0,0.4298388957977295,0.8991740942001343
0.0333529487252235,0.2867406606674194,0.1000928506255149,-0.5463239550590515,0.1306697130203247,0.004075729753822,0.0,0.0,0.6610410213470459,0.1634888648986816
0.0341162681579589,0.2752169668674469,0.076341226696968,-0.5121607780456543,0.1306526958942413,-0.000340481288731,0.0,0.0,0.928255558013916,0.2793624401092529
0.0348743423819541,0.2642432451248169,0.0750565379858017,-0.4877890944480896,0.1314107626676559,0.0151613187044858,0.0,0.0,0.9582767486572266,0.5430774688720703
0.0355689041316509,0.2534855008125305,0.06952665746212,-0.4781141877174377,0.1313401162624359,-0.0014130553463473,0.0,0.0,0.9675151109695436,0.4264214038848877
0.0362876877188682,0.2428501397371292,0.0711955726146698,-0.4727424085140228,0.1320221126079559,0.013639835640788,0.0,0.0,0.86757493019104,-0.298337459564209
0.0369137749075889,0.2323090583086013,0.0617109760642051,-0.4685721695423126,0.132916510105133,0.0178876407444477,0.0,0.0,0.8838250637054443,-0.2947618961334228
0.0374023430049419,0.2226416021585464,0.0476266555488109,-0.4297767877578735,0.1341437697410583,0.0245451033115386,0.0,0.0,0.8070218563079834,0.2334728240966797
0.0378488525748252,0.2138488888740539,0.0426309257745742,-0.3909716010093689,0.1361522376537323,0.0401697233319282,0.0,0.0,0.96392560005188,-0.9009603261947632
0.0379358306527137,0.2059955894947052,0.0047883223742246,-0.349399209022522,0.1400503069162368,0.0779613181948661,0.0,0.0,0.6180930137634277,0.8714826107025146
0.0378943458199501,0.1981309205293655,-0.0064757480286061,-0.3497609496116638,0.142373189330101,0.0464572496712207,0.0,0.0,0.5124301910400391,0.8855394124984741
0.037846565246582,0.1909032016992569,-0.0057502002455294,-0.3213254511356354,0.1433466225862503,0.0194686688482761,0.0,0.0,0.7301508188247681,0.2648739814758301
0.0375932678580284,0.1840783655643463,-0.0261893924325704,-0.3034097850322723,0.1442002356052398,0.0170728918164968,0.0,0.0,0.749173641204834,0.9560775756835938
0.0372314453125,0.1778559237718582,-0.035400353372097,-0.2764786183834076,0.1434148550033569,-0.0157074853777885,0.0,0.0,-0.4054623246192932,0.8391754627227783
0.0369167327880859,0.1711824536323547,-0.0293883420526981,-0.2964000105857849,0.1413498073816299,-0.041301243007183,0.0,0.0,0.589942216873169,0.9243497848510742
0.0366715416312217,0.1649070084095001,-0.0210825391113758,-0.2785881161689758,0.1379219144582748,-0.0685579031705856,0.0,0.0,0.3318604230880737,0.7618334293365479
0.0364514365792274,0.1585819274187088,-0.017435910180211,-0.2806979715824127,0.1333652734756469,-0.0911328271031379,0.0,0.0,0.2761096954345703,0.2858409881591797
0.0362415313720703,0.1522645056247711,-0.0171096734702587,-0.2804324328899383,0.1294984966516494,-0.0773355439305305,0.0,0.0,0.7169164419174194,0.62300705909729
0.0361470207571983,0.1464021354913711,-0.0050745829939842,-0.2601797580718994,0.1251454800367355,-0.0870602652430534,0.0,0.0,0.6089496612548828,-0.4883295893669128
0.0361182205379009,0.1406676322221756,0.0005044759600423,-0.2545866072177887,0.12177125364542,-0.0674847438931465,0.0,0.0,0.5024957656860352,-0.577068567276001
0.0359332077205181,0.1354759484529495,-0.0165936816483736,-0.2305867224931717,0.1198804453015327,-0.0378163680434227,0.0,0.0,-0.1753129363059997,-0.7157292366027832
0.0356718078255653,0.1298107057809829,-0.0259353816509246,-0.2517720758914947,0.1196837797760963,-0.0039330446161329,0.0,0.0,0.1308708190917968,0.2150440216064453
0.03541736677289,0.1243713945150375,-0.0259853936731815,-0.2417898625135421,0.1202172562479972,0.0106695750728249,0.0,0.0,-0.0137437582015991,0.5478066205978394
0.0351896286010742,0.1184661015868187,-0.0223581604659557,-0.2624233961105346,0.1198063641786575,-0.0082178171724081,0.0,0.0,0.3757586479187011,-0.5274444818496704
0.0347984321415424,0.1127054989337921,-0.0399835929274559,-0.2560955286026001,0.1206614226102829,0.0171010103076696,0.0,0.0,0.4944661855697632,0.8205274343490601
0.0344367995858192,0.1076746061444282,-0.0358065590262413,-0.2235666811466217,0.1203139796853065,-0.0069489874877035,0.0,0.0,0.1016077995300293,0.4104096889495849
0.0339886657893657,0.102736622095108,-0.0446979738771915,-0.2194557338953018,0.1202023848891258,-0.0022318807896226,0.0,0.0,0.2162666320800781,0.8408033847808838
0.0334051139652729,0.0982021167874336,-0.0567769184708595,-0.2014110833406448,0.1186311766505241,-0.0314242355525493,0.0,0.0,0.0663981437683105,0.3794889450073242
0.0327976234257221,0.0938789695501327,-0.0597289279103279,-0.192057117819786,0.1176094263792038,-0.0204347632825374,0.0,0.0,-0.2886316776275635,0.3830161094665527
0.0321631431579589,0.0890864729881286,-0.0626987814903259,-0.2129436582326889,0.1168670579791069,-0.0148473307490348,0.0,0.0,-0.1199769973754882,0.6732186079025269
0.0315466895699501,0.0838372781872749,-0.0600040033459663,-0.233168363571167,0.1152319386601448,-0.0327023044228553,0.0,0.0,0.4272315502166748,0.7121961116790771
0.0308856014162302,0.0787629708647728,-0.0632471889257431,-0.225307896733284,0.1123922616243362,-0.0567938461899757,0.0,0.0,0.3255074024200439,0.3855726718902588
0.0300495140254497,0.0739226937294006,-0.0805574133992195,-0.2148974537849426,0.1093631461262703,-0.0605821907520294,0.0,0.0,0.1647188663482666,0.6203439235687256
0.0290762893855571,0.0691508650779724,-0.0930825471878051,-0.2117765992879867,0.10514547675848,-0.0843530595302581,0.0,0.0,-0.0274916291236877,0.8610939979553223
0.0281538013368845,0.0639274194836616,-0.0861769840121269,-0.2317350059747696,0.0991218611598014,-0.1204723715782165,0.0,0.0,0.2809057235717773,0.8250443935394287
0.0272937770932912,0.0586726516485214,-0.0785299018025398,-0.2330698668956756,0.0917083099484443,-0.1482703983783722,0.0,0.0,0.4217908382415771,0.802649736404419
0.0265472419559955,0.0539639815688133,-0.0659480541944503,-0.2087667882442474,0.0830688700079917,-0.1727888137102127,0.0,0.0,-0.1180842518806457,0.7970812320709229
0.0258316043764352,0.0488008372485637,-0.061461441218853,-0.2289429306983947,0.0730665028095245,-0.2000472098588943,0.0,0.0,0.4419007301330566,0.2735683917999267
0.0251565929502248,0.0442985147237777,-0.0581254735589027,-0.1996729671955108,0.0637891069054603,-0.1855481117963791,0.0,0.0,0.3728713989257812,0.3842886686325073
0.024484921246767,0.0400545448064804,-0.0582157149910926,-0.1882637441158294,0.0549353137612342,-0.1770758032798767,0.0,0.0,0.0439651012420654,0.5804183483123779
0.0237961765378713,0.0361238569021225,-0.0588556602597236,-0.1743610650300979,0.0450291335582733,-0.1981236338615417,0.0,0.0,-0.1756272315979004,-0.6126305460929871
0.0230342857539653,0.0317268930375576,-0.0673609972000122,-0.1951780617237091,0.0363096222281456,-0.1743902266025543,0.0,0.0,0.5748658180236816,-0.067783772945404
0.0223039630800485,0.0275204759091138,-0.0646363273262977,-0.1867744326591491,0.0280167292803525,-0.1658578515052795,0.0,0.0,0.4514830112457275,-0.5302465558052063
0.0213710777461528,0.0236536599695682,-0.0857125073671341,-0.1717332005500793,0.0205462910234928,-0.1494088619947433,0.0,0.0,0.7633399963378906,0.0982789993286132
0.0202608108520507,0.0201376061886549,-0.1028543934226036,-0.1561808288097381,0.0124722244217991,-0.1614812910556793,0.0,0.0,0.360515832901001,0.6390249729156494
0.01914644241333,0.0168491452932357,-0.1019345074892044,-0.1461037993431091,0.0031001672614365,-0.1874413192272186,0.0,0.0,0.2573425769805908,0.3839789628982544
0.0180215835571289,0.0137010188773274,-0.1030746847391128,-0.1399260461330413,-0.0061918050050735,-0.1858393549919128,0.0,0.0,-0.005929946899414,0.3193303346633911
0.0168677326291799,0.0100841857492923,-0.1059394925832748,-0.1608170419931411,-0.0155156441032886,-0.1864767670631408,0.0,0.0,0.5089447498321533,0.7299283742904663
0.0158510208129882,0.0069349147379398,-0.0908885300159454,-0.1401093304157257,-0.0261662919074296,-0.2130128443241119,0.0,0.0,0.3241016864776611,0.1041438579559326
0.0148427011445164,0.0042858934029936,-0.0900685712695121,-0.117952361702919,-0.0367960967123508,-0.2125960141420364,0.0,0.0,-0.1503112912178039,0.2851889133453369
0.0138060571625828,0.0011685943463817,-0.0928128138184547,-0.1388457864522934,-0.047517329454422,-0.2144248485565185,1.0,0.0,0.6101267337799072,0.7705438137054443
0.0130114555358886,-0.0011055255308747,-0.0775516331195831,-0.1014008820056915,-0.0482415705919265,-0.0130001083016395,1.0,0.0,0.4547923803329468,0.5985240936279297
