x_pos,y_pos,x_vel,y_vel,angle,ang_vel,leg_1,leg_2,main_booster,lat_booster
-0.0015545844798907,1.4030210971832275,-0.1570578813552856,-0.3510745167732239,0.0014275105204433,0.0281340982764959,0.0,0.0,-0.0467338663914971,0.6547886031281109
-0.0030842781998217,1.394538402557373,-0.1525747179985046,-0.3770058453083038,0.0010444156359881,-0.0076619586907327,0.0,0.0,0.8510836418053469,0.6441366758538968
-0.0044330595992505,1.3861262798309326,-0.1332675367593765,-0.3738692700862884,-0.0005460926913656,-0.0318130925297737,0.0,0.0,0.3921251765296409,0.9983267148540144
-0.0058485032059252,1.3777389526367188,-0.1374697387218475,-0.3727791905403137,-0.0045771826989948,-0.0806295424699783,0.0,0.0,0.9768522122565684,0.7014742576197814
-0.0070679662749171,1.3699193000793457,-0.1165308356285095,-0.3475618064403534,-0.0099289389327168,-0.1070448905229568,0.0,0.0,-0.5050951635328098,0.6647941496828897
-0.0082513811066746,1.3614948987960815,-0.110915221273899,-0.3744904696941376,-0.0172745678573846,-0.1469261944293975,0.0,0.0,0.33189444062018,0.719309721537381
-0.0094178197905421,1.3531651496887207,-0.1073664799332618,-0.3703407347202301,-0.0264582447707653,-0.1836903989315033,0.0,0.0,-0.2340973278798035,0.8618563350832975
-0.0105263711884617,1.3442325592041016,-0.0990253090858459,-0.3972526788711548,-0.0381536595523357,-0.233930230140686,0.0,0.0,-0.458518355295082,0.7359048877684787
-0.0116036413237452,1.3347036838531494,-0.0940762311220169,-0.4239107668399811,-0.0516610369086265,-0.2701727449893951,0.0,0.0,-0.1048508332146933,-0.8477196542952739
-0.0127722742035985,1.3245842456817627,-0.1045364886522293,-0.4502263069152832,-0.0638710334897041,-0.2442224472761154,0.0,0.0,-0.8924068088687953,0.8567070230750629
-0.0138879772275686,1.3138573169708252,-0.0968905538320541,-0.4774485230445862,-0.0784128159284591,-0.2908628582954407,0.0,0.0,0.5571757344919781,-0.9803194952031148
-0.0149890901520848,1.303272366523743,-0.0971170738339424,-0.4711751937866211,-0.0913105383515358,-0.2579779326915741,0.0,0.0,-0.0172865171747955,-0.6511775456841908
-0.0161521919071674,1.2920950651168823,-0.1039459705352783,-0.4975674450397491,-0.1035863384604454,-0.2455383092164993,0.0,0.0,0.174238283337752,0.8908181240310593
-0.0171840675175189,1.2806658744812012,-0.0886873826384544,-0.5090333819389343,-0.1180017814040184,-0.2883356809616089,0.0,0.0,-0.0002225608093733,0.6615507522022901
-0.0181711204349994,1.268632173538208,-0.0822101682424545,-0.5362141132354736,-0.134433627128601,-0.3286667764186859,0.0,0.0,0.8299827937408479,0.8292533835709723
-0.0189363472163677,1.2564396858215332,-0.0582844913005828,-0.543641984462738,-0.1526484191417694,-0.3643295168876648,0.0,0.0,-0.4878640773690033,0.7733152932853178
-0.0196435935795307,1.243641018867493,-0.0502486638724803,-0.5710616707801819,-0.1731524914503097,-0.4101186692714691,0.0,0.0,0.6456927859504025,-0.7845036371987307
-0.02020950242877,1.2307653427124023,-0.0376496873795986,-0.5745799541473389,-0.1921943724155426,-0.3808722198009491,0.0,0.0,-0.1232784510019422,-0.7336745501158743
-0.0208365432918071,1.2173118591308594,-0.0446483753621578,-0.6003690361976624,-0.2103990614414215,-0.364126592874527,0.0,0.0,0.7398242640160555,-0.8571478733343039
-0.0215100292116403,1.2041847705841064,-0.0505052208900451,-0.5859215259552002,-0.2274498492479324,-0.3410469889640808,0.0,0.0,0.8382678127372192,0.6811685380051452
-0.021803855895996,1.1916162967681885,-0.0112385395914316,-0.5615016222000122,-0.2458989769220352,-0.3690159022808075,0.0,0.0,0.5381072939504006,-0.6214848713082117
-0.0220439918339252,1.1790591478347778,-0.006803517229855,-0.5610782504081726,-0.2634737491607666,-0.3515273928642273,0.0,0.0,-0.5435093642305266,0.6669317974033749
-0.0222309119999408,1.165878176689148,0.0004162578843533,-0.589379608631134,-0.2830948829650879,-0.3924576044082641,0.0,0.0,0.8895850662417777,0.7132974679516924
-0.0221893303096294,1.1525472402572632,0.0247691161930561,-0.5966257452964783,-0.3043724298477173,-0.4255891740322113,0.0,0.0,-0.68267733555029,0.9289298978797712
-0.022098446264863,1.1385977268218994,0.0313251987099647,-0.6248105764389038,-0.3274984657764435,-0.4625617563724518,0.0,0.0,-0.7390963622548186,0.6763429242376973
-0.0219762809574604,1.1240170001983645,0.0357051752507686,-0.6535444259643555,-0.3520767092704773,-0.4915641248226166,0.0,0.0,0.1523287558650428,0.9130555634852152
-0.0216089244931936,1.109522819519043,0.0621529631316661,-0.6506393551826477,-0.3789316117763519,-0.5370978116989136,0.0,0.0,0.7186907691398028,-0.6559491816019055
-0.0211061481386423,1.0957489013671875,0.0748618245124816,-0.618922233581543,-0.4051735401153564,-0.5248380303382874,0.0,0.0,-0.238380564012774,0.6700185297622355
-0.0205614082515239,1.0813632011413574,0.0801522582769393,-0.646956205368042,-0.4329071640968323,-0.5546721816062927,0.0,0.0,-0.9298315743648792,0.919387773183946
-0.0199498180299997,1.0663396120071411,0.0885718613862991,-0.6764588952064514,-0.4629049897193908,-0.5999572277069092,0.0,0.0,-0.2515681935432916,-0.714565293326668
-0.0193774215877056,1.0507687330245972,0.0833128243684768,-0.7009943723678589,-0.4918547570705414,-0.5789948105812073,0.0,0.0,-0.4077086760205539,-0.9972011686228152
-0.0188760757446289,1.0346636772155762,0.0740846842527389,-0.7245983481407166,-0.5188555717468262,-0.5400158762931824,0.0,0.0,-0.6789372094374606,-0.7944664120357171
-0.0184236522763967,1.018024206161499,0.0675163641571998,-0.7482326626777649,-0.5443456172943115,-0.5098004937171936,0.0,0.0,0.5241384536296125,0.7655319363041391
-0.0177945140749216,1.0012177228927612,0.086688719689846,-0.756824791431427,-0.5719910264015198,-0.5529099106788635,0.0,0.0,0.5131297714876719,-0.6418304883957255
-0.0168687812983989,0.9845718741416932,0.115099050104618,-0.7497404217720032,-0.598641574382782,-0.5330106019973755,0.0,0.0,-0.9889531603105276,0.7762278652504266
-0.0158740989863872,0.9672861099243164,0.1233391761779785,-0.7794074416160583,-0.6274203658103943,-0.5755762457847595,0.0,0.0,-0.3980593028853798,-0.7546276414954926
-0.0149131771177053,0.9494593739509584,0.1184297800064086,-0.8033788204193115,-0.6549106240272522,-0.5498052835464478,0.0,0.0,-0.233274447489501,0.6759579242922701
-0.0138870235532522,0.93099445104599,0.1260469555854797,-0.832994282245636,-0.6843746304512024,-0.5892795920372009,0.0,0.0,0.3156166681315884,0.7491027306643142
-0.012394237332046,0.9127035140991212,0.1737639009952545,-0.8266297578811646,-0.7159207463264465,-0.6309219598770142,0.0,0.0,-0.5467625399577276,0.897938697951949
-0.0108222961425781,0.8937529921531677,0.1828583776950836,-0.8575963377952576,-0.7499583959579468,-0.6807529926300049,0.0,0.0,0.6259142331879857,0.9355868021496074
-0.00873146019876,0.8751082420349121,0.2358205616474151,-0.8458117842674255,-0.7865960597991943,-0.7327537536621094,0.0,0.0,-0.7001180052757263,-0.9996317028999328
-0.0066565512679517,0.8559395670890808,0.2323172390460968,-0.869073748588562,-0.8218552470207214,-0.7051851153373718,0.0,0.0,-0.785248875617981,-0.998245656490326
-0.0046014785766601,0.8362450003623962,0.2284163236618042,-0.8922551274299622,-0.855639636516571,-0.6756877899169922,0.0,0.0,-0.7585521340370178,-0.956493616104126
-0.0025575638283044,0.8160287141799927,0.2255307734012603,-0.9152172803878784,-0.8880044221878052,-0.6472967863082886,0.0,0.0,-0.8525782227516174,-0.9870405197143556
-0.0005399704095907,0.7953077554702759,0.220843955874443,-0.9370189905166626,-0.918364405632019,-0.6071993112564087,0.0,0.0,-0.8077536225318909,-0.9881396889686584
0.0014610290527343,0.7740713953971863,0.2174401730298996,-0.9593676924705504,-0.9470252394676208,-0.5732176899909973,0.0,0.0,-0.7723469138145447,-0.9940953850746156
0.003451156662777,0.7523216009140015,0.2146986275911331,-0.9815788269042968,-0.9740087985992432,-0.5396716594696045,0.0,0.0,-0.7383303046226501,-0.991234540939331
0.0054287910461425,0.7300941348075867,0.2115436792373657,-1.0017268657684326,-0.9986093640327454,-0.4920118749141693,0.0,0.0,-0.8164000511169434,-0.9761533141136168
0.0073945047333836,0.7073902487754822,0.2085385620594024,-1.0217360258102417,-1.0207788944244385,-0.4433912336826324,0.0,0.0,-0.7808387279510498,-0.955460488796234
0.009351635351777,0.684184730052948,0.2062609195709228,-1.043063998222351,-1.041000247001648,-0.4044269919395447,0.0,0.0,-0.5371447801589966,-0.9452279806137084
0.0113136293366551,0.6604530215263367,0.2057332992553711,-1.0658042430877686,-1.0598973035812378,-0.3779419660568237,0.0,0.0,-0.7777062058448792,-0.9475491642951964
0.0132737159729003,0.6362301707267761,0.2042259722948074,-1.0865066051483154,-1.076690673828125,-0.3358682096004486,0.0,0.0,-0.8353010416030884,-0.9397669434547424
0.015236472710967,0.611484169960022,0.2035416066646576,-1.108973741531372,-1.092031478881836,-0.3068156838417053,0.0,0.0,-0.6219468116760254,-0.9175359010696412
0.0172058101743459,0.5862360000610352,0.2031724452972412,-1.130268692970276,-1.1055455207824707,-0.270281046628952,0.0,0.0,-0.7192597389221191,-0.8622139692306519
0.0191848762333393,0.5604538917541504,0.2034612894058227,-1.1533318758010864,-1.1178762912750244,-0.246615320444107,0.0,0.0,-0.5573071241378784,-0.9622551798820496
0.0211586952209472,0.5341851711273193,0.2017766684293747,-1.1735992431640625,-1.1278924942016602,-0.2003241032361984,0.0,0.0,-0.5678783059120178,-0.9249468445777892
0.023146629333496,0.5074009299278259,0.2024448812007904,-1.1955963373184204,-1.1363756656646729,-0.1696638911962509,0.0,0.0,-0.636986494064331,-0.95378839969635
0.0251481048762798,0.4800947606563568,0.2031327933073043,-1.217936873435974,-1.143434762954712,-0.1411816179752349,0.0,0.0,-0.7205422520637512,-0.9195300936698914
0.0271649360656738,0.4522762298583984,0.2039603888988495,-1.2397335767745972,-1.1488847732543943,-0.1090004220604896,0.0,0.0,-0.5447738766670227,-0.6576830148696899
0.0291975028812885,0.4239371716976166,0.2049066126346588,-1.2619796991348269,-1.1528804302215576,-0.0799148231744766,0.0,0.0,-0.4086694717407226,-0.5083761215209961
0.0312484744936227,0.3950450420379638,0.2064161747694015,-1.286079168319702,-1.156098246574402,-0.0643554180860519,0.0,0.0,-0.3414297103881836,-0.2647451162338257
0.0333351120352745,0.3655537664890289,0.2101124078035354,-1.3129278421401978,-1.1596555709838867,-0.0711471289396286,0.0,0.0,-0.2558713555335998,-0.4578641653060913
0.0354578979313373,0.3354630470275879,0.2138381004333496,-1.3397761583328247,-1.1635463237762451,-0.0778134390711784,0.0,0.0,0.1032955646514892,-0.2029630541801452
0.0379989631474018,0.3049943447113037,0.2557703852653503,-1.3567346334457395,-1.1676908731460571,-0.0828914195299148,0.0,0.0,0.1255275011062622,0.1415146589279174
0.0408300384879112,0.2740795612335205,0.2848671078681946,-1.376752495765686,-1.1721303462982178,-0.0887906104326248,0.0,0.0,0.3717489242553711,0.1854413747787475
0.0441104881465435,0.2429929822683334,0.3300889730453491,-1.3848820924758911,-1.1773574352264404,-0.1045426353812217,0.0,0.0,0.4770357608795166,0.265247106552124
0.0481422431766986,0.2117201387882232,0.4052767753601074,-1.3933025598526,-1.1828004121780396,-0.1088586300611496,0.0,0.0,0.3231128454208374,0.4406301975250244
0.0524532310664653,0.1798893362283706,0.4331673085689544,-1.4181088209152222,-1.188235640525818,-0.1087055951356887,0.0,0.0,0.2592952251434326,0.4259982109069824
0.0574132911860942,0.1477942317724228,0.4981249272823334,-1.4299769401550293,-1.1938635110855105,-0.1125577688217163,0.0,0.0,-0.0287240743637084,0.7751963138580322
0.0624275207519531,0.1150296553969383,0.5041939616203308,-1.460927128791809,-1.201372742652893,-0.1501853764057159,0.0,0.0,0.2526165246963501,0.9173084497451782
0.0679574981331825,0.081960305571556,0.55660080909729,-1.47605562210083,-1.211370825767517,-0.1999610066413879,0.0,0.0,0.4609994888305664,0.9453752040863036
0.074078656733036,0.0484394170343875,0.6165283918380737,-1.49778151512146,-1.2239351272583008,-0.2512866854667663,1.0,0.0,0.8476165533065796,0.9992488622665404
0.08113794028759,0.0154635524377226,0.7062418460845947,-1.4893609285354614,-1.2463529109954834,-0.3973133265972137,1.0,0.0,0.8075900077819824,0.9993171691894532
0.0901173576712608,-0.0009149098186753,0.880940318107605,-1.0023201704025269,-1.4823760986328125,-4.143782138824463,1.0,0.0,0.5843169689178467,-0.6238449811935425
0.100183680653572,-0.0087620876729488,0.8485054969787598,0.0812017992138862,-1.750507950782776,-0.6474297046661377,1.0,0.0,0.5843169689178467,-0.6238449811935425
