x_pos,y_pos,x_vel,y_vel,angle,ang_vel,leg_1,leg_2,main_booster,lat_booster
-0.0015178680187091,1.403376221656799,-0.153713658452034,-0.3352796733379364,0.0017248482909053,0.0340214446187019,0.0,0.0,-0.4851650413302915,-0.9555402670110942
-0.0030993460677564,1.3956027030944824,-0.1615486294031143,-0.345498263835907,0.0050896159373223,0.0673021450638771,0.0,0.0,0.8737201926600333,-0.5604894877266762
-0.0045615197159349,1.3882648944854736,-0.1511731594800949,-0.3261529803276062,0.010000804439187,0.0982327461242675,0.0,0.0,0.5840504655814676,0.9204389553081168
-0.0060805319808423,1.3813934326171875,-0.1547921299934387,-0.3054154813289642,0.0128591023385524,0.0571713261306285,0.0,0.0,0.2041073582785812,-0.6026026261422626
-0.0075454711914062,1.3749898672103882,-0.1507439315319061,-0.2846461534500122,0.017064481973648,0.0841151624917984,0.0,0.0,-0.834151737610517,-0.6604977529360017
-0.0090476991608738,1.3683364391326904,-0.1554479897022247,-0.2957791984081268,0.0222368817776441,0.1034573540091514,0.0,0.0,-0.5710781234150311,0.8398001860964114
-0.0104839326813817,1.361437201499939,-0.1471915692090988,-0.3066891133785248,0.0257671829313039,0.0706124752759933,0.0,0.0,-0.2438084520090473,0.950750922707518
-0.0118248937651515,1.3542962074279783,-0.1352545320987701,-0.317395269870758,0.0269084237515926,0.0228269342333078,0.0,0.0,0.3889478189886033,-0.7203404225561687
-0.0132513996213674,1.347967267036438,-0.1451919376850128,-0.2813403010368347,0.029416799545288,0.0501721911132335,0.0,0.0,0.5152427729280151,0.8918423370541604
-0.0146271707490086,1.3423972129821775,-0.1382926255464553,-0.24756620824337,0.0301155969500541,0.0139773860573768,0.0,0.0,-0.8819489411811865,0.9228129385521636
-0.0159193985164165,1.336583375930786,-0.1277718096971511,-0.2583611607551574,0.028686411678791,-0.0285866018384695,0.0,0.0,0.0671571743130259,0.7974110875417948
-0.0171051025390625,1.3310366868972778,-0.115527868270874,-0.2464700639247894,0.0256702676415443,-0.0603285245597362,0.0,0.0,0.8039409710611225,-0.5306781583172397
-0.0182012561708688,1.3263938426971436,-0.1080304235219955,-0.2063217759132385,0.0241144746541976,-0.0311186350882053,0.0,0.0,0.3577751273775427,0.903417100257072
-0.0191683769226074,1.3219369649887085,-0.0933689996600151,-0.1980329602956771,0.020792681723833,-0.0664418488740921,0.0,0.0,0.7507634523082873,0.9871324307508446
-0.0199091918766498,1.318560242652893,-0.0689489841461181,-0.1500158905982971,0.0157236456871032,-0.1013900190591812,0.0,0.0,-0.7541936660850546,-0.7060109829158767
-0.0206963531672954,1.314926028251648,-0.074724942445755,-0.1614844053983688,0.0117667717859148,-0.0791442617774009,0.0,0.0,0.6466756850468174,-0.7093225184937355
-0.0214009284973144,1.3123327493667605,-0.0681680142879486,-0.1152450740337371,0.0095056453719735,-0.0452265739440918,0.0,0.0,-0.9331605395362692,0.9202228592934608
-0.0220171920955181,1.309484601020813,-0.0570245496928691,-0.1265613585710525,0.0049523035995662,-0.0910748988389968,0.0,0.0,-0.1201224597901657,-0.535397721688147
-0.0226707458496093,1.3063933849334717,-0.0616228468716144,-0.1373776346445083,0.0012595923617482,-0.0738608688116073,0.0,0.0,0.8613567200321386,-0.906162746359375
-0.0234992019832134,1.3040099143981934,-0.080714076757431,-0.1059334203600883,-0.0008499965188093,-0.0421954169869422,0.0,0.0,0.5887395564176254,-0.6103649231919733
-0.0242445953190326,1.3024669885635376,-0.0739228948950767,-0.0685745179653167,-0.0014628970529884,-0.0122589506208896,0.0,0.0,0.8819339407312787,0.7700557888449149
-0.0249163620173931,1.3014272451400757,-0.0650026649236679,-0.0462107621133327,-0.0036044705193489,-0.0428353734314441,0.0,0.0,-0.425218026847487,0.9827821324682252
-0.0254960060119628,1.3001377582550049,-0.0533705241978168,-0.0573315657675266,-0.0081482985988259,-0.0908844470977783,0.0,0.0,0.158871635382249,0.9995691822512408
-0.0259391777217388,1.2989163398742676,-0.0376779660582542,-0.0543425157666206,-0.0147096766158938,-0.1312393844127655,0.0,0.0,-0.8420476151697314,0.7183661436579902
-0.0263412483036518,1.2974480390548706,-0.0324476659297943,-0.0653436332941055,-0.0223889146000146,-0.1535983979701995,0.0,0.0,-0.9610708188343072,0.8488457735411584
-0.0266952514648437,1.2957141399383545,-0.026305004954338,-0.0772262290120124,-0.0313736274838447,-0.1796942502260208,0.0,0.0,0.1903895092746599,0.5290106371507141
-0.0269906036555767,1.2945191860198977,-0.0193496663123369,-0.0533525422215461,-0.0414296314120292,-0.2011202275753021,0.0,0.0,0.4312050337813418,0.7539612018017244
-0.0273249633610248,1.294161319732666,-0.021525589749217,-0.0162839386612176,-0.0532070361077785,-0.2355480939149856,0.0,0.0,0.0534917691900072,0.6075291095764058
-0.0276808738708496,1.2943055629730225,-0.022311033681035,0.0058947345241904,-0.0663386285305023,-0.2626315951347351,0.0,0.0,-0.9811961641219388,0.8335237026934974
-0.0279756542295217,1.2941951751708984,-0.0145745575428009,-0.0056397099979221,-0.0810944885015487,-0.2951171100139618,0.0,0.0,0.4262680706027093,-0.795715151277786
-0.0282575599849224,1.2949461936950684,-0.0149069596081972,0.0326077751815319,-0.0942579731345176,-0.2632696628570556,0.0,0.0,-0.4090716242790222,-0.949919044971466
-0.0286263469606637,1.2954576015472412,-0.0257360152900218,0.0219884999096393,-0.105304904282093,-0.2209383994340896,0.0,0.0,-0.8399207592010498,-0.9912154674530028
-0.0290848724544048,1.295745611190796,-0.0369716063141822,0.0121462354436516,-0.1141187623143196,-0.1762774586677551,0.0,0.0,-0.9635953903198242,-0.9964234828948976
-0.0296321865171194,1.2957921028137207,-0.0480572879314422,0.0015427931211888,-0.1207546666264534,-0.1327182501554489,0.0,0.0,-0.9228907823562622,-0.921749234199524
-0.030251121148467,1.2956056594848633,-0.0570025853812694,-0.0086887469515204,-0.1256151795387268,-0.0972103774547576,0.0,0.0,-0.9866618514060974,-0.8790486454963684
-0.0309372898191213,1.2951903343200684,-0.065436340868473,-0.0187209509313106,-0.1287848204374313,-0.0633924007415771,0.0,0.0,-0.983180284500122,-0.964834213256836
-0.0317035689949989,1.2945377826690674,-0.0754507333040237,-0.0291112996637821,-0.1299586743116378,-0.0234774705022573,0.0,0.0,-0.9863397479057312,-0.8381261229515076
-0.0325312614440918,1.293655276298523,-0.0831465721130371,-0.0391812548041343,-0.1295728236436844,0.0077166534028947,0.0,0.0,-0.9984970092773438,-0.707769513130188
-0.0334171280264854,1.2925443649291992,-0.090485118329525,-0.0492175184190273,-0.1276874244213104,0.0377080515027046,0.0,0.0,-0.998913824558258,-0.5470372438430786
-0.0343433395028114,1.2911937236785889,-0.0955531448125839,-0.059775348752737,-0.1247691437602043,0.058365911245346,0.0,0.0,-0.979840099811554,-0.3607186079025268
-0.0352684967219829,1.2895952463150024,-0.0954465791583061,-0.0708037763833999,-0.1218580231070518,0.0582226701080799,0.0,0.0,-0.9985172152519226,-0.2791065573692322
-0.0361921302974224,1.2877486944198608,-0.0952915325760841,-0.0818321779370307,-0.1189526244997978,0.0581078007817268,0.0,0.0,-0.9991574883461,-0.0062499642372131
-0.0371137633919715,1.2856541872024536,-0.0950850471854209,-0.0928605571389198,-0.1160515770316124,0.058020930737257,0.0,0.0,-0.9956749081611632,-0.2702261209487915
-0.0380328185856342,1.2833117246627808,-0.0948242098093032,-0.103888913989067,-0.1131535023450851,0.0579616501927375,0.0,0.0,-0.9991037249565125,-0.489294946193695
-0.0389488227665424,1.2807211875915527,-0.094506174325943,-0.1149172782897949,-0.1102570220828056,0.0579293146729469,0.0,0.0,-0.9424857497215272,-0.6595848798751831
-0.0399093627929687,1.277884006500244,-0.1001905053853988,-0.1257989704608917,-0.1061481237411499,0.0821778625249862,0.0,0.0,-0.9986338019371032,-0.0404620766639709
-0.0408655181527137,1.27479887008667,-0.0997499600052833,-0.1368280053138733,-0.1020382717251777,0.0821969658136367,0.0,0.0,-0.9942227602005004,0.2069762945175171
-0.041816521435976,1.2714658975601196,-0.0992441549897193,-0.1478570401668548,-0.0979262441396713,0.0822404250502586,0.0,0.0,-0.9961470365524292,0.6911506652832031
-0.0427188873291015,1.2678847312927246,-0.0933052971959114,-0.1589649617671966,-0.0948830917477607,0.0608630962669849,0.0,0.0,-0.999585747718811,0.7725896835327148
-0.0435562133789062,1.2640448808670044,-0.0853063240647316,-0.1705594807863235,-0.0933221504092216,0.0312188472598791,0.0,0.0,-0.9596314430236816,0.3777190446853637
-0.0443862900137901,1.2599570751190186,-0.0845901295542717,-0.181587278842926,-0.0917557179927825,0.0313287191092968,0.0,0.0,-0.9933438301086426,-0.2444607019424438
-0.04520845413208,1.2556208372116089,-0.0837994515895843,-0.1926150918006897,-0.0901827961206436,0.0314582511782646,0.0,0.0,-0.982283651828766,0.4735618829727173
-0.0460218414664268,1.2510367631912231,-0.0829322785139083,-0.2036428898572921,-0.088602490723133,0.0316061452031135,0.0,0.0,-0.967915415763855,0.4896564483642578
-0.0468256957828998,1.2462046146392822,-0.0819867774844169,-0.2146706879138946,-0.0870139375329017,0.0317710041999816,0.0,0.0,-0.9871856570243835,-0.1276253461837768
-0.0476191528141498,1.241124391555786,-0.0809612423181533,-0.2256984710693359,-0.0854163840413093,0.0319514535367488,0.0,0.0,-0.9995379447937012,0.2140548229217529
-0.0484013557434082,1.235795974731445,-0.079854130744934,-0.2367262542247772,-0.0838090777397155,0.0321461707353591,0.0,0.0,-0.9868970513343812,0.8477697372436523
-0.0490940101444721,1.2302175760269165,-0.0689220279455185,-0.2479518055915832,-0.0841417238116264,-0.0066531347110867,0.0,0.0,-0.9754633903503418,0.7007113695144653
-0.0497056022286415,1.2243852615356443,-0.059109341353178,-0.2593324780464172,-0.0861785039305687,-0.0407358109951019,0.0,0.0,-0.9953083395957948,0.3243359327316284
-0.0503036491572856,1.2183048725128174,-0.0577499754726886,-0.270360380411148,-0.0882037803530693,-0.0405058488249778,0.0,0.0,-0.6752912402153015,0.4593328237533569
-0.0508870109915733,1.2119762897491455,-0.0563045814633369,-0.2813883125782013,-0.090217150747776,-0.0402671582996845,0.0,0.0,-0.9411895275115968,0.1622358560562133
-0.0514548309147357,1.2053996324539185,-0.0547724962234497,-0.2924162447452545,-0.0922181904315948,-0.0400205627083778,0.0,0.0,-0.9296408295631408,0.7061131000518799
-0.0519598945975303,1.1985721588134766,-0.0473112277686595,-0.3036406338214874,-0.0953783318400383,-0.0632029473781585,0.0,0.0,-0.943630039691925,0.5294415950775146
-0.0523975379765033,1.1914881467819214,-0.0393059402704238,-0.3151304125785827,-0.0997978001832962,-0.0883895009756088,0.0,0.0,-0.8761994242668152,-0.2493007779121399
-0.0528169646859169,1.1841565370559692,-0.0375118032097816,-0.3261595964431762,-0.1042040884494781,-0.0881258174777031,0.0,0.0,-0.9861299991607666,-0.1132224798202514
-0.0532175078988075,1.176576852798462,-0.0356301479041576,-0.3371887505054474,-0.1085970178246498,-0.0878584533929824,0.0,0.0,-0.9233776330947876,-0.1958265900611877
-0.0535983070731163,1.1687493324279783,-0.0336612351238727,-0.3482179045677185,-0.1129764318466186,-0.0875883474946022,0.0,0.0,-0.9338114261627196,-0.0290350317955017
-0.0539582259953022,1.1606738567352295,-0.0316054821014404,-0.3592470288276672,-0.1173422485589981,-0.0873162895441055,0.0,0.0,-0.985031008720398,-0.2132185697555542
-0.0542966835200786,1.1523505449295044,-0.0294634904712438,-0.3702760934829712,-0.121694415807724,-0.0870430991053581,0.0,0.0,-0.9738174676895142,-0.9244465231895448
-0.0546810142695903,1.1438026428222656,-0.0358528718352317,-0.3801236152648926,-0.1242656856775283,-0.0514255054295063,0.0,0.0,-0.9361979365348816,-0.4265768527984619
-0.0550420768558979,1.135006546974182,-0.0335406698286533,-0.3911516964435577,-0.1268233209848404,-0.051152266561985,0.0,0.0,-0.96060973405838,-0.241179347038269
-0.0553791038691997,1.125962495803833,-0.0311449971050024,-0.4021797180175781,-0.1293673068284988,-0.0508799329400062,0.0,0.0,-0.9344128370285034,-0.4190256595611572
-0.0556912422180175,1.1166702508926392,-0.0286670811474323,-0.4132077395915985,-0.1318977624177932,-0.0506090521812438,0.0,0.0,-0.951615571975708,-0.5271510481834412
-0.0560272224247455,1.10714590549469,-0.03235624730587,-0.423418790102005,-0.1331337243318557,-0.0247190725058317,0.0,0.0,-0.9396559596061708,-0.5749594569206238
-0.0563761703670024,1.0973812341690063,-0.0346864722669124,-0.4340028464794159,-0.1333478838205337,-0.0042832889594137,0.0,0.0,-0.8851078152656555,-0.5762568712234497
-0.0567461028695106,1.0873737335205078,-0.0379992425441741,-0.4446930289268493,-0.1323353052139282,0.0202513076364994,0.0,0.0,-0.8542740345001221,0.3590067625045776
-0.0570878982543945,1.0771178007125854,-0.0352070666849613,-0.4557205438613891,-0.1313097178936004,0.0205116085708141,0.0,0.0,-0.9551191926002502,0.0014063119888305
-0.0574008002877235,1.0666139125823977,-0.032340619713068,-0.4667481780052185,-0.1302713006734848,0.0207683369517326,0.0,0.0,-0.8927048444747925,-0.2378790378570556
-0.0576843246817588,1.0558618307113647,-0.0294017940759658,-0.4777757823467254,-0.1292202472686767,0.0210211966186761,0.0,0.0,-0.8551290035247803,0.0865463018417358
-0.0579375252127647,1.0448617935180664,-0.0263925697654485,-0.4888033866882324,-0.128156766295433,0.021269928663969,0.0,0.0,-0.9292191863059998,0.0485930442810058
-0.0581598281860351,1.0336133241653442,-0.0233149826526641,-0.4998310208320617,-0.127081036567688,0.0215143878012895,0.0,0.0,-0.9314923286437988,-0.1041224002838134
-0.0583506599068641,1.022117018699646,-0.0201711244881153,-0.5108586549758911,-0.125993326306343,0.021754341199994,0.0,0.0,-0.9606338739395142,-0.2278690338134765
-0.0585092529654502,1.0103724002838137,-0.016963142901659,-0.5218862891197205,-0.1248938515782356,0.0219897050410509,0.0,0.0,-0.9582756757736206,-0.2526431083679199
-0.0586350448429584,0.99837988615036,-0.0136932162567973,-0.5329139232635498,-0.1237828284502029,0.0222203359007835,0.0,0.0,-0.9660303592681884,0.0817770957946777
-0.0587273612618446,0.9861389994621276,-0.01036355830729,-0.5439414978027344,-0.1226605176925659,0.0224461778998374,0.0,0.0,-0.9720633625984192,-0.797548234462738
-0.0588492378592491,0.9736658930778505,-0.0149597879499197,-0.5541306734085083,-0.1199015825986862,0.0551787428557872,0.0,0.0,-0.979354739189148,-0.0302999019622802
-0.058936595916748,0.9609449505805968,-0.0115174707025289,-0.5651589632034302,-0.1171318441629409,0.0553945824503898,0.0,0.0,-0.9955087900161744,0.2427442073822021
-0.0589888580143451,0.9479758143424988,-0.0080221500247716,-0.5761871337890625,-0.1143515855073928,0.0556053146719932,0.0,0.0,-0.9863468408584596,-0.5377703905105591
-0.0590415969491004,0.9347609877586364,-0.0089938351884484,-0.5870456695556641,-0.1106549203395843,0.0739332437515258,0.0,0.0,-0.93558007478714,0.1189191341400146
-0.0590581893920898,0.921298325061798,-0.0053993370383977,-0.5980743765830994,-0.1069482415914535,0.0741336792707443,0.0,0.0,-0.9203428030014038,0.549025297164917
-0.0589855201542377,0.9075747132301332,0.0048874462954699,-0.6097670197486877,-0.1045819669961929,0.0473253019154071,0.0,0.0,-0.9053687453269958,0.3053599596023559
-0.058875847607851,0.8936030268669128,0.0085723735392093,-0.6207950115203857,-0.1022062003612518,0.0475153923034668,0.0,0.0,-0.9881886839866638,-0.1301509141921997
-0.0587287917733192,0.8793835043907166,0.0122991446405649,-0.6318230032920837,-0.0998211875557899,0.0477004013955593,0.0,0.0,-0.9526495337486268,0.3905025720596313
-0.0585439689457416,0.8649155497550964,0.0160655714571476,-0.6428511142730713,-0.0974271818995475,0.0478802435100078,0.0,0.0,-0.9474295973777772,-0.0891645550727844
-0.0583210960030555,0.8501998782157898,0.01986950263381,-0.6538791656494141,-0.095024436712265,0.0480549670755863,0.0,0.0,-0.8576520085334778,-0.2041696310043335
-0.0580596923828125,0.8352360129356384,0.0237087979912757,-0.6649072766304016,-0.0926132127642631,0.0482245348393917,0.0,0.0,-0.9043838381767272,-0.4683635234832763
-0.0577594749629497,0.8200241327285767,0.0275813583284616,-0.6759353280067444,-0.0901937559247016,0.0483890026807785,0.0,0.0,-0.8958677649497986,0.587443470954895
-0.0573756210505962,0.8045579791069031,0.0370687581598758,-0.687309205532074,-0.0888917744159698,0.0260396506637334,0.0,0.0,-0.9335257411003112,-0.6855131983757019
-0.0570172294974327,0.7888587117195129,0.0328574515879154,-0.697573721408844,-0.0859318673610687,0.0591983422636985,0.0,0.0,-0.8589065670967102,0.2635477781295776
-0.0566190704703331,0.7729113698005676,0.036817405372858,-0.7086020112037659,-0.0829645097255706,0.0593474432826042,0.0,0.0,-0.7609652280807495,0.2488374710083007
-0.0561810508370399,0.7567159533500671,0.0408024750649929,-0.7196303606033325,-0.0799899250268936,0.0594914741814136,0.0,0.0,-0.6443546414375305,0.2910629510879516
-0.0557027831673622,0.7402727007865906,0.0448106899857521,-0.7306587100028992,-0.077008418738842,0.0596302933990955,0.0,0.0,-0.8362498879432678,0.1677473783493042
-0.0551842674612998,0.7235813140869141,0.0488400980830192,-0.7416870594024658,-0.0740202069282531,0.0597639009356498,0.0,0.0,-0.6976462602615356,0.3799389600753784
-0.0546251311898231,0.7066419124603271,0.05288877338171,-0.7527154684066772,-0.0710255876183509,0.0598923489451408,0.0,0.0,-0.5992820858955383,0.4435147047042846
-0.0540252700448036,0.6894543170928955,0.0569548122584819,-0.7637439370155334,-0.0680248066782951,0.060015607625246,0.0,0.0,-0.7697458863258362,0.5148420333862305
-0.0533366203308105,0.6720170974731445,0.0670478567481041,-0.7749096751213074,-0.0662227347493171,0.036041148006916,0.0,0.0,-0.6887445449829102,0.1491074562072754
-0.0526068694889545,0.6543316841125488,0.0711430087685585,-0.785937488079071,-0.0644150450825691,0.036153919994831,0.0,0.0,-0.7610948085784912,-0.3209239244461059
-0.0518360137939453,0.6363982558250427,0.0752498805522918,-0.7969654202461243,-0.0626019835472107,0.0362614169716835,0.0,0.0,-0.5277891755104065,-0.3447357416152954
-0.0510239601135253,0.6182166934013367,0.0793666094541549,-0.8079932928085327,-0.060783814638853,0.0363635569810867,0.0,0.0,-0.4214552044868469,-0.5903633236885071
-0.050205897539854,0.5997970700263977,0.0790542885661125,-0.8185360431671143,-0.0580626763403415,0.0544226393103599,0.0,0.0,-0.238308310508728,-0.5281797647476196
-0.0493829734623432,0.5811328291893005,0.0786129534244537,-0.8293850421905518,-0.0544189326465129,0.0728745236992836,0.0,0.0,0.0416394472122192,-0.2117368578910827
-0.048495102673769,0.5629919767379761,0.0851169973611831,-0.8061307668685913,-0.0507919788360595,0.0725390017032623,0.0,0.0,-0.0695778131484985,0.1636085510253906
-0.0475658401846885,0.5446032285690308,0.0892544239759445,-0.8171595335006714,-0.0471610240638256,0.0726190060377121,0.0,0.0,0.0748206377029419,-0.4702129364013672
-0.0465287193655967,0.5264096260070801,0.0997902154922485,-0.8084825873374939,-0.0432838983833789,0.077542707324028,0.0,0.0,0.5700540542602539,-0.4986327886581421
-0.0455408096313476,0.5088563561439514,0.0954022780060768,-0.7800559997558594,-0.0399410836398601,0.0668563321232795,0.0,0.0,0.0676648616790771,-0.5773274898529053
-0.0446365363895893,0.4915603697299957,0.0860114246606826,-0.7685971856117249,-0.035585805773735,0.0871059149503707,0.0,0.0,0.0458303689956665,-0.6267895698547363
-0.0437433235347271,0.4745546579360962,0.0836682841181755,-0.755683958530426,-0.0299994200468063,0.1117275729775428,0.0,0.0,0.2649147510528564,-0.479285717010498
-0.0427767746150493,0.4579127430915832,0.0909088477492332,-0.7395363450050354,-0.0243185684084892,0.1136171072721481,0.0,0.0,0.079025387763977,0.121280550956726
-0.0416780486702919,0.4413722455501556,0.103718563914299,-0.7350460886955261,-0.0182409603148698,0.1215521916747093,0.0,0.0,0.6030752658843994,-0.4581429958343506
-0.0404314994812011,0.4255765974521637,0.1180425137281417,-0.701962411403656,-0.0117240315303206,0.1303387135267257,0.0,0.0,0.1163526773452758,-0.5285160541534424
-0.039160918444395,0.4103565216064453,0.1193571835756301,-0.6764074563980103,-0.0041197706013917,0.1520854532718658,0.0,0.0,-0.4218133687973022,-0.0838182568550109
