x_pos,y_pos,x_vel,y_vel,angle,ang_vel,leg_1,leg_2,main_booster,lat_booster
-0.0014374733436852,1.403148531913757,-0.1455017626285553,-0.3454011082649231,0.0015757656656205,0.0310697555541992,0.0,0.0,-0.4233202934265136,0.9115495681762696
-0.0027116774581372,1.3949201107025146,-0.1268610805273056,-0.3657110631465912,0.001014842535369,-0.0112189343199133,0.0,0.0,-0.1173365712165832,0.6822562217712402
-0.0038363456260412,1.3862102031707764,-0.1100833415985107,-0.3870998620986938,-0.0013326857006177,-0.0469548925757408,0.0,0.0,-0.1633781194686889,0.2694876194000244
-0.0048781395889818,1.377024531364441,-0.1016626730561256,-0.4082542359828949,-0.0038192691281437,-0.0497366040945053,0.0,0.0,-0.4179366827011108,-0.3716646432876587
-0.0058386800810694,1.3673630952835083,-0.0934009402990341,-0.4294058084487915,-0.0064458441920578,-0.0525365583598613,0.0,0.0,-0.3848209381103515,-0.2716718316078186
-0.0067197801545262,1.3572258949279783,-0.0853108614683151,-0.4505568444728851,-0.0092121306806802,-0.0553304925560951,0.0,0.0,-0.2303219437599182,-0.2915470600128174
-0.0075231553055346,1.3466131687164309,-0.0774063318967819,-0.4717079699039459,-0.0121179902926087,-0.058122806251049,0.0,0.0,-0.6879767179489136,-0.7250710129737854
-0.0082940105348825,1.3355271816253662,-0.0750882476568222,-0.4927220940589905,-0.0140828471630811,-0.0393007583916187,0.0,0.0,-0.0932080745697021,-0.6497853398323059
-0.0090435026213526,1.3239736557006836,-0.0741436630487442,-0.5134979486465454,-0.0148743195459246,-0.0158310290426015,0.0,0.0,-0.4030675888061523,-0.724344789981842
-0.009778881445527,1.3119502067565918,-0.0740571543574333,-0.5343770384788513,-0.0143679408356547,0.0101286470890045,0.0,0.0,-0.8676471710205078,-0.096396803855896
-0.0104457857087254,1.2994507551193235,-0.0670628398656845,-0.5555277466773987,-0.0140003599226474,0.0073523083701729,0.0,0.0,-0.3808657526969909,-0.6492421627044678
-0.0110919950529932,1.2864749431610107,-0.0660040825605392,-0.5766854882240295,-0.0126342009752988,0.027325740084052,0.0,0.0,-0.5074348449707031,-0.7460438013076782
-0.0117212291806936,1.2730281352996826,-0.065349593758583,-0.5976167917251587,-0.0102456230670213,0.0477762036025524,0.0,0.0,-0.7484546899795532,-0.8433330059051514
-0.0123497005552053,1.259098768234253,-0.0666168481111526,-0.6190670728683472,-0.0065125417895615,0.0746685862541198,0.0,0.0,-0.4573928117752075,-0.7652204036712646
-0.0129677774384617,1.2447021007537842,-0.0666194930672645,-0.6398417353630066,-0.0017516283551231,0.0952265784144401,0.0,0.0,-0.2312784194946289,-0.2003107070922851
-0.0135328294709324,1.2298297882080078,-0.0611740872263908,-0.6609943509101868,0.0028757897671312,0.0925566256046295,0.0,0.0,-0.7189156413078308,0.1844620704650879
-0.01404829043895,1.2144819498062134,-0.0560957267880439,-0.6821467876434326,0.0073719038628041,0.0899304747581482,0.0,0.0,-0.5881274938583374,0.4952857494354248
-0.0145181659609079,1.1986583471298218,-0.0514050237834453,-0.7032992839813232,0.0117384558543562,0.087338849902153,0.0,0.0,-0.6660165190696716,0.2130942344665527
-0.0149465557187795,1.1823590993881226,-0.0471218451857566,-0.7244517803192139,0.0159775875508785,0.0847903043031692,0.0,0.0,-0.5831831693649292,0.3872191905975342
-0.0153376581147313,1.1655842065811155,-0.0432657711207866,-0.7456041574478149,0.0200916621834039,0.0822889357805252,0.0,0.0,-0.5412500500679016,0.4149082899093628
-0.015695858746767,1.1483336687088013,-0.0398554168641567,-0.7667565941810608,0.0240832343697547,0.0798385664820671,0.0,0.0,-0.3245161175727844,0.6333310604095459
-0.0159746166318655,1.1306054592132568,-0.0305009186267852,-0.7879654765129089,0.0266723539680242,0.0517867729067802,0.0,0.0,-0.4549514651298523,0.4329044818878174
-0.0162298195064067,1.1124013662338257,-0.0280288662761449,-0.8091168999671936,0.029145335778594,0.0494642704725265,0.0,0.0,-0.4303611516952514,0.3765541315078735
-0.0164665225893259,1.0937212705612185,-0.0260507129132747,-0.8302685022354126,0.0315045602619648,0.047188714146614,0.0,0.0,-0.0537881255149841,0.6137800216674805
-0.0166524890810251,1.0745688676834106,-0.0199277997016906,-0.8512469530105591,0.0328205488622188,0.0263219438493251,0.0,0.0,0.6555101871490479,0.0186139345169067
-0.0169984810054302,1.0559697151184082,-0.0351467803120613,-0.826646089553833,0.0333545319736003,0.0106801409274339,0.0,0.0,0.8124651908874512,0.2322585582733154
-0.0173636432737112,1.038089394569397,-0.0369621105492115,-0.794685423374176,0.0338050462305545,0.0090101966634392,0.0,0.0,0.1167981624603271,0.1541832685470581
-0.0178377144038677,1.0205652713775637,-0.0473474599421024,-0.7788534164428711,0.0337476544082164,-0.0011478947708383,0.0,0.0,0.6276935338973999,-0.242167055606842
-0.0184730533510446,1.0037027597427368,-0.0627829656004905,-0.7494308948516846,0.0329999066889286,-0.0149548556655645,0.0,0.0,0.6287069320678711,-0.5483760237693787
-0.0192022323608398,0.9870795607566832,-0.073110893368721,-0.7388117909431458,0.0331934764981269,0.0038715885020792,0.0,0.0,0.5443606376647949,0.2323639392852783
-0.0199577324092388,0.971167802810669,-0.0757364258170127,-0.7071923017501831,0.0333796627819538,0.0037235599011182,0.0,0.0,0.0022832155227661,0.3194413185119629
-0.0207919124513864,0.9551762938499452,-0.0833034813404083,-0.7107269763946533,0.033262837678194,-0.0023366124369204,0.0,0.0,0.2661409378051758,-0.3543914556503296
-0.0217374805361032,0.9396268725395204,-0.0940646529197692,-0.6910762786865234,0.0327721796929836,-0.0098132640123367,0.0,0.0,-0.8785691261291504,0.0423274040222168
-0.0227158553898334,0.9236015677452089,-0.0972522720694542,-0.7122250199317932,0.0322039015591144,-0.0113658113405108,0.0,0.0,-0.8994934558868408,-0.1715790033340454
-0.0237315185368061,0.9071003794670104,-0.1009211689233779,-0.733373761177063,0.0315613858401775,-0.0128499995917081,0.0,0.0,-0.7418704628944397,-0.8197067975997925
-0.0248522758483886,0.8901264667510986,-0.1129572615027427,-0.7544156908988953,0.0324284359812736,0.017341025173664,0.0,0.0,-0.5832787752151489,0.0345513820648193
-0.0260195732116699,0.8726765513420105,-0.1175386309623718,-0.7755644917488098,0.0332278162240982,0.0159876849502325,0.0,0.0,0.8560513257980347,0.3457002639770508
-0.0272233001887798,0.8560351133346558,-0.121312640607357,-0.7396444082260132,0.034160453826189,0.0186527594923973,0.0,0.0,-0.8783091902732849,0.1701947450637817
-0.0284817703068256,0.8389177322387695,-0.1267303973436355,-0.7607932686805725,0.0350315272808074,0.0174214467406272,0.0,0.0,-0.3871495723724365,0.7286602258682251
-0.0297386161983013,0.8213284611701965,-0.1249672621488571,-0.7817239761352539,0.0343262813985347,-0.0141047509387135,0.0,0.0,-0.3657875061035156,0.5335354804992676
-0.0310231205075979,0.8032696843147278,-0.1267926543951034,-0.8025732636451721,0.032691404223442,-0.0326976887881755,0.0,0.0,-0.0565592050552368,0.0689308643341064
-0.0323732383549213,0.7847352623939514,-0.1333087980747223,-0.8237221837043762,0.0310032088309526,-0.0337636545300483,0.0,0.0,0.8978418111801147,0.7068374156951904
-0.0336268432438373,0.766265332698822,-0.122468426823616,-0.8208246231079102,0.0281486473977565,-0.057091437280178,0.0,0.0,0.9318623542785645,0.7528077363967896
-0.0347843170166015,0.748252809047699,-0.1115802675485611,-0.800479531288147,0.0240387134253978,-0.0821986347436904,0.0,0.0,0.9132436513900756,0.0558321475982666
-0.0360716804862022,0.7302745580673218,-0.1243089064955711,-0.7989724278450012,0.0196649953722953,-0.0874744728207588,0.0,0.0,0.8960404396057129,0.5609186887741089
-0.0373434051871299,0.7123931646347046,-0.121724247932434,-0.7946720123291016,0.0142910964787006,-0.1074780449271202,0.0,0.0,0.77982497215271,-0.2811315059661865
-0.0386360175907611,0.6947595477104187,-0.1240789666771888,-0.7836717367172241,0.0091794785112142,-0.102232314646244,0.0,0.0,0.3691667318344116,-0.2937074899673462
-0.0401100143790245,0.6776856780052185,-0.1417459845542907,-0.7588140964508057,0.003597313305363,-0.1116433590650558,0.0,0.0,0.3552980422973633,0.1251572370529174
-0.0417791381478309,0.661105751991272,-0.1607160866260528,-0.7368881702423096,-0.0025260178372263,-0.1224664896726608,0.0,0.0,-0.1870242357254028,0.683260440826416
-0.0434821136295795,0.6440483331680298,-0.1627287566661834,-0.75813889503479,-0.0099961059167981,-0.1494015753269195,0.0,0.0,-0.6664266586303711,0.0701518058776855
-0.0452727302908897,0.626515805721283,-0.1714645624160766,-0.7792925238609314,-0.0175000671297311,-0.1500791609287262,0.0,0.0,-0.619072675704956,0.9112160205841064
-0.0470873825252056,0.6085127592086792,-0.1721744686365127,-0.8002716302871704,-0.0266746170818805,-0.1834912449121475,0.0,0.0,0.8598012924194336,0.6417458057403564
-0.0487964637577533,0.5907744765281677,-0.1606411635875702,-0.7885772585868835,-0.0368186049163341,-0.2028796970844268,0.0,0.0,-0.6086483597755432,0.0525928735733032
-0.0505977645516395,0.5725618004798889,-0.1698274463415146,-0.8097349405288696,-0.0469910129904747,-0.2034481316804886,0.0,0.0,0.9585294723510742,-0.2413204908370971
-0.0522887222468853,0.5547282099723816,-0.1596053838729858,-0.7929296493530273,-0.0563729703426361,-0.1876393407583236,0.0,0.0,0.9635298252105712,0.270254373550415
-0.0541560165584087,0.5372682213783264,-0.1766829341650009,-0.7764049768447876,-0.0663051232695579,-0.198643073439598,0.0,0.0,-0.4187829494476318,0.1385741233825683
-0.0561187751591205,0.5193338394165039,-0.1862165331840515,-0.797562301158905,-0.0762603133916854,-0.1991037428379058,0.0,0.0,0.6760978698730469,0.0460346937179565
-0.0579862594604492,0.5019320845603943,-0.177325814962387,-0.77391517162323,-0.08558901399374,-0.1865742057561874,0.0,0.0,0.9484564065933228,0.0482561588287353
-0.0597802177071571,0.4854955077171325,-0.1703722774982452,-0.7310536503791809,-0.0945294052362442,-0.1788077652454376,0.0,0.0,0.5091803073883057,0.3804750442504883
-0.0616737380623817,0.4696659743785858,-0.1799958944320678,-0.7041527628898621,-0.1038089618086814,-0.1855911314487457,0.0,0.0,-0.1227369904518127,0.0746710300445556
-0.0636659637093544,0.4533617794513702,-0.1898694932460785,-0.7253089547157288,-0.1131037771701812,-0.1858961284160614,0.0,0.0,0.3186689615249634,0.4059116840362549
-0.0657740607857704,0.4374308884143829,-0.2010700404644012,-0.7088062763214111,-0.1227819100022316,-0.1935628056526184,0.0,0.0,-0.8152377009391785,0.3519469499588012
-0.0679821968078613,0.4210253655910492,-0.2110731899738311,-0.7299631834030151,-0.132470890879631,-0.1937795430421829,0.0,0.0,-0.3254703283309936,0.587877631187439
-0.0702428817749023,0.4041367471218109,-0.2151115834712982,-0.7516156435012817,-0.1433883160352707,-0.2183486223220825,0.0,0.0,0.6308550834655762,0.357447862625122
-0.0725403800606727,0.387359619140625,-0.2188392430543899,-0.7467362284660339,-0.154275968670845,-0.2177532464265823,0.0,0.0,0.8322221040725708,0.0666192770004272
-0.0749741569161415,0.3711114525794983,-0.2318539172410965,-0.7233774065971375,-0.1658019870519638,-0.2305206507444381,0.0,0.0,0.7816013097763062,0.230647325515747
-0.0773346871137619,0.3557487726211548,-0.2246453464031219,-0.6840996146202087,-0.1772214323282241,-0.228388711810112,0.0,0.0,0.2727466821670532,-0.0894043445587158
-0.0796953216195106,0.3402277827262878,-0.224981352686882,-0.6911837458610535,-0.1883458793163299,-0.2224890887737274,0.0,0.0,0.3967974185943603,0.3139348030090332
-0.0820008292794227,0.3252895176410675,-0.2196028679609298,-0.6653496623039246,-0.1993590295314788,-0.2202629297971725,0.0,0.0,0.0940442085266113,-0.0956615805625915
-0.084408089518547,0.3103564977645874,-0.2295261621475219,-0.6652411222457886,-0.2106514871120453,-0.2258493602275848,0.0,0.0,0.7849783897399902,-0.6900906562805176
-0.0869234055280685,0.296075701713562,-0.241498664021492,-0.6361631155014038,-0.2207885235548019,-0.2027403563261032,0.0,0.0,0.2591192722320556,0.6003599166870117
-0.0893664360046386,0.2819917201995849,-0.2331636846065521,-0.6276601552963257,-0.2320708334445953,-0.2256462126970291,0.0,0.0,0.4800952672958374,0.384547472000122
-0.0918511375784874,0.26857790350914,-0.2368570566177368,-0.5980457067489624,-0.243866890668869,-0.2359209507703781,0.0,0.0,0.2395119667053222,0.4761648178100586
-0.094281293451786,0.2553005218505859,-0.2317104041576385,-0.5920228958129883,-0.25538370013237,-0.2303361594676971,0.0,0.0,0.6663863658905029,0.4311604499816894
-0.096748448908329,0.2421343177556991,-0.2353156507015228,-0.587191641330719,-0.2670292854309082,-0.2329117953777313,0.0,0.0,0.9037089347839355,-0.4151039123535156
-0.0991450324654579,0.2290048003196716,-0.2286807745695114,-0.5855788588523865,-0.2782794237136841,-0.225002571940422,0.0,0.0,0.9215736389160156,-0.7384878993034363
-0.1016327887773513,0.2160033136606216,-0.2392315417528152,-0.5796902775764465,-0.28809255361557,-0.1962627917528152,0.0,0.0,0.9609651565551758,-0.1389324069023132
-0.1039667129516601,0.2038853764533996,-0.223871037364006,-0.5404896140098572,-0.2979092001914978,-0.1963327229022979,0.0,0.0,0.95438551902771,-0.7854397296905518
-0.1060807257890701,0.1926654428243637,-0.203728437423706,-0.5002538561820984,-0.3058474361896515,-0.1587643474340438,0.0,0.0,0.9881471395492554,-0.6795902848243713
-0.1081909164786338,0.1824732571840286,-0.2043943405151367,-0.4543980360031128,-0.3127091526985168,-0.1372338980436325,0.0,0.0,0.9551657438278198,-0.8476608395576477
-0.1105095893144607,0.1724646240472793,-0.2266527712345123,-0.445963442325592,-0.3181317746639251,-0.1084524989128112,0.0,0.0,0.7035894393920898,-0.1799393892288208
-0.1126383766531944,0.1631220132112503,-0.2079145610332489,-0.4163260459899902,-0.3232990801334381,-0.1033461317420005,0.0,0.0,0.836959719657898,-0.6635679602622986
-0.1148332580924034,0.154296338558197,-0.215604543685913,-0.3931230008602142,-0.327336698770523,-0.0807522982358932,0.0,0.0,0.6611013412475586,-0.3763468265533447
-0.1169657707214355,0.1459892839193344,-0.2092058360576629,-0.3701249659061432,-0.3315557837486267,-0.0843814238905906,0.0,0.0,0.7294464111328125,-0.4287142753601074
-0.1189763993024826,0.1382505744695663,-0.1970507800579071,-0.3448730707168579,-0.3357539772987366,-0.0839641392230987,0.0,0.0,0.2687485218048095,-0.7295084595680237
-0.1209276169538497,0.1306597143411636,-0.1927027404308319,-0.337933212518692,-0.3382820785045624,-0.0505621135234832,0.0,0.0,0.9338822364807128,-0.1615619659423828
-0.1228242889046669,0.1231459453701973,-0.1874629706144333,-0.3344675004482269,-0.3405927121639251,-0.0462126024067401,0.0,0.0,0.8843908309936523,-0.3506137132644653
-0.1245724707841873,0.1157521307468414,-0.1731702089309692,-0.3290025293827057,-0.3423197865486145,-0.0345407798886299,0.0,0.0,0.952579140663147,-0.7043396234512329
-0.1260743141174316,0.1087690889835357,-0.1504443287849426,-0.310300350189209,-0.3420537412166595,0.005320752505213,0.0,0.0,0.9584734439849854,-0.7494027614593506
-0.1274122297763824,0.1019045710563659,-0.1359981596469879,-0.3045677244663238,-0.3397467732429504,0.0461391732096672,0.0,0.0,0.9823462963104248,-0.4514822959899902
-0.1285607367753982,0.0958419889211654,-0.1171221360564231,-0.2689110934734344,-0.3373628854751587,0.0476778745651245,0.0,0.0,0.9210139513015748,-0.4868208169937134
-0.1294876039028167,0.0905337929725647,-0.095242254436016,-0.2353290766477584,-0.3346997797489166,0.0532619282603263,0.0,0.0,0.9003840684890747,-0.9377970099449158
-0.1301860809326172,0.0857980102300643,-0.0745926797389984,-0.2093846499919891,-0.3297317326068878,0.0993609577417373,0.0,0.0,0.5941067934036255,-0.936842441558838
-0.1308548003435135,0.0810065865516662,-0.0737072825431823,-0.2114095985889434,-0.322609543800354,0.1424437910318374,0.0,0.0,0.7233109474182129,-0.7444214820861816
-0.1315720528364181,0.0765495374798774,-0.0800327211618423,-0.1962605565786361,-0.3139661252498626,0.1728682219982147,0.0,0.0,0.7698118686676025,-0.9059430360794068
-0.1320773065090179,0.0729325637221336,-0.0609382279217243,-0.1585374176502227,-0.3031760454177856,0.2158009111881256,0.0,0.0,0.4923257827758789,-0.8778697848320007
-0.1326212882995605,0.069618284702301,-0.0666851997375488,-0.1447938978672027,-0.2904959321022033,0.2536026239395141,0.0,0.0,0.6610181331634521,-0.3922011852264404
-0.1331594437360763,0.0670327767729759,-0.0657199397683143,-0.1125909388065338,-0.2782594561576843,0.2447295486927032,0.0,0.0,0.2895859479904175,0.1656439304351806
-0.1335860192775726,0.0647305101156234,-0.0550381056964397,-0.1000176891684532,-0.2655706405639648,0.2537766098976135,0.0,0.0,-0.080044686794281,-0.6166801452636719
-0.134165957570076,0.0619793497025966,-0.0718935281038284,-0.1198178008198738,-0.2513772547245025,0.2838678956031799,0.0,0.0,0.5497758388519287,0.6394045352935791
-0.1347063034772873,0.0597918853163719,-0.0666846856474876,-0.0951097011566162,-0.238510251045227,0.2573401927947998,0.0,0.0,0.1595956087112426,0.9165976047515868
-0.1352171003818512,0.0576180778443813,-0.0620748288929462,-0.0948726236820221,-0.2273539751768112,0.2231257408857345,0.0,0.0,-0.0119974613189697,0.9196269512176514
-0.1357734650373459,0.0549504607915878,-0.0653320699930191,-0.1170957013964653,-0.2175432443618774,0.1962145417928695,0.0,0.0,0.1793477535247802,0.6310417652130127
-0.1364205330610275,0.0523764714598655,-0.0731138586997985,-0.1131776869297027,-0.2090333849191665,0.1701971739530563,0.0,0.0,0.0586869716644287,0.6751751899719238
-0.1369459182024002,0.0499660596251487,-0.0598619394004344,-0.1061114743351936,-0.2016516774892807,0.1476341485977172,0.0,0.0,0.1828194856643676,0.8562352657318115
-0.137405589222908,0.0474253259599208,-0.0517656877636909,-0.1121444851160049,-0.1958148628473281,0.116736389696598,0.0,0.0,0.0567564964294433,0.6581703424453735
-0.1377173364162445,0.0450857244431972,-0.0359238050878047,-0.1033592671155929,-0.1910309791564941,0.095677301287651,0.0,0.0,0.0591228008270263,0.5853686332702637
-0.1380062103271484,0.0429991111159324,-0.032617799937725,-0.092264249920845,-0.1872862428426742,0.0748946070671081,0.0,0.0,-0.0665923357009887,0.6187307834625244
-0.138336181640625,0.0404264777898788,-0.0353495515882968,-0.1140417009592056,-0.184915617108345,0.0474122129380703,0.0,0.0,0.2533648014068603,0.9310688972473145
-0.1385477036237716,0.0379872433841228,-0.0218513868749141,-0.1083240658044815,-0.1842240393161773,0.0138316825032234,0.0,0.0,0.3587592840194702,0.8380063772201538
-0.1386773139238357,0.0360539071261882,-0.012131649069488,-0.0860307961702346,-0.1850567907094955,-0.0166549924761056,0.0,0.0,0.0483233928680419,0.791506290435791
-0.1387086808681488,0.0343583188951015,-0.0009085921337828,-0.0756377950310707,-0.187295600771904,-0.0447763055562973,0.0,0.0,-0.2575400471687317,0.2529199123382568
-0.1388397216796875,0.0321865901350975,-0.0110322060063481,-0.0967846140265464,-0.1893744766712188,-0.0415776744484901,0.0,0.0,0.4537969827651977,0.5827672481536865
-0.139036938548088,0.0303612574934959,-0.016393119469285,-0.0815558731555938,-0.1927224099636078,-0.0669582262635231,0.0,0.0,0.1216610670089721,0.518783450126648
-0.139319896697998,0.0285887811332941,-0.023904351517558,-0.079352468252182,-0.1971333473920822,-0.0882186144590377,0.0,0.0,0.4105736017227173,0.5444991588592529
-0.1395837813615799,0.0270413253456354,-0.0210382882505655,-0.06950094550848,-0.2025233954191208,-0.1078010350465774,0.0,0.0,0.2407741546630859,-0.2457908391952514
-0.1398451775312423,0.0256006568670272,-0.0210434161126613,-0.0647364407777786,-0.2076623290777206,-0.1027788966894149,0.0,0.0,0.3439785242080688,0.2723231315612793
-0.1400388777256012,0.0240805242210626,-0.0149138439446687,-0.0681940242648124,-0.2121489644050598,-0.0897326618432998,0.0,0.0,0.1134325265884399,-0.1603466272354126
-0.1401190757751464,0.0232693534344434,-0.0155460266396403,-0.0349918603897094,-0.2045612037181854,0.1517563909292221,1.0,0.0,0.2105351686477661,0.6254667043685913
-0.1400099694728851,0.0228356942534446,0.0045908563770353,-0.0184162911027669,-0.1981935054063797,0.1273538172245025,1.0,0.0,-0.3189319372177124,0.1852889060974121
