x_pos,y_pos,x_vel,y_vel,angle,ang_vel,leg_1,leg_2,main_booster,lat_booster
-0.0015193938743323,1.4032855033874512,-0.1540640890598297,-0.3393098711967468,0.001897219219245,0.0374345108866691,0.0,0.0,-0.1096094250679016,0.8094520568847656
-0.0029665946494787,1.395331621170044,-0.1449670195579528,-0.3535060584545135,0.0021446950268,0.004950595088303,0.0,0.0,0.0139288902282714,0.4680311679840088
-0.0043298723176121,1.3874106407165527,-0.1371174156665802,-0.3520483076572418,0.0029304709751158,0.0157169979065656,0.0,0.0,0.1123502254486084,0.6024320125579834
-0.005734825041145,1.3796530961990356,-0.140085369348526,-0.3447811901569366,0.0025274741929024,-0.0080606350675225,0.0,0.0,-0.0326321721076965,0.548007607460022
-0.0070869447663426,1.3715585470199585,-0.1336420178413391,-0.3597560822963714,0.0009716897038742,-0.0311186201870441,0.0,0.0,0.4963146448135376,0.0525453090667724
-0.0083159450441598,1.363863229751587,-0.122097298502922,-0.3420135080814361,0.0001814205315895,-0.015806833282113,0.0,0.0,-0.3905723094940185,0.1801846027374267
-0.0095468517392873,1.355828881263733,-0.1224676519632339,-0.3570792078971863,-0.0004297842679079,-0.0122256800532341,0.0,0.0,-0.1945588588714599,0.6746306419372559
-0.0107146259397268,1.3474576473236084,-0.1146616712212562,-0.3720508515834808,-0.0025188031140714,-0.0417840257287025,0.0,0.0,-0.4917023181915283,0.7350852489471436
-0.0118299480527639,1.33875572681427,-0.1081862822175026,-0.3867675364017486,-0.0058364295400679,-0.0663588792085647,0.0,0.0,-0.7054871916770935,-0.4457792043685913
-0.0129510881379246,1.3297148942947388,-0.1089729815721511,-0.4018278121948242,-0.0089477207511663,-0.0622312650084495,0.0,0.0,-0.3585386276245117,0.3623249530792236
-0.014079475775361,1.3203353881835938,-0.1099128499627113,-0.4168879687786102,-0.0118447560817003,-0.0579457283020019,0.0,0.0,-0.1912029385566711,0.1656123399734497
-0.0152166364714503,1.310616970062256,-0.1110107526183128,-0.4319481253623962,-0.0145188905298709,-0.0534873008728027,0.0,0.0,-0.1068520545959472,0.0984150171279907
-0.0163640975952148,1.3005599975585938,-0.112271249294281,-0.4470081925392151,-0.0169619098305702,-0.0488647744059562,0.0,0.0,0.1101928949356079,0.7195624113082886
-0.0174097064882516,1.2905124425888062,-0.1009490936994552,-0.4465981721878052,-0.020537557080388,-0.0715195685625076,0.0,0.0,-0.5373846292495728,0.4450840950012207
-0.0184686668217182,1.2801262140274048,-0.1025434881448745,-0.4616612195968628,-0.0238653663545846,-0.0665619373321533,0.0,0.0,-0.5188153982162476,0.8204275369644165
-0.0194664951413869,1.2693889141082764,-0.0947317034006118,-0.4773010909557342,-0.0288630258291959,-0.0999622493982315,0.0,0.0,0.4270172119140625,0.2355216741561889
-0.0203407295048236,1.2594157457351685,-0.0832049399614334,-0.4433420896530151,-0.03303799405694,-0.0835069045424461,0.0,0.0,-0.9128855466842652,-0.2854882478713989
-0.0212334636598825,1.2491034269332886,-0.0853290408849716,-0.4584115743637085,-0.0369434580206871,-0.0781162232160568,0.0,0.0,-0.7418686747550964,-0.878667950630188
-0.0222043991088867,1.2384639978408811,-0.0949127972126007,-0.4729199111461639,-0.0391061902046203,-0.0432583205401897,0.0,0.0,-0.7043030858039856,-0.4595195651054382
-0.0231975559145212,1.2274855375289917,-0.0974081233143806,-0.4879794120788574,-0.0409851521253585,-0.0375826694071292,0.0,0.0,-0.9001959562301636,0.27142333984375
-0.0242144577205181,1.2161681652069092,-0.1000895500183105,-0.5030389428138733,-0.0425726436078548,-0.0317526832222938,0.0,0.0,-0.5111823678016663,-0.0485583543777465
-0.0252571105957031,1.2045118808746338,-0.1029581874608993,-0.5180983543395996,-0.0438624322414398,-0.0257983319461345,0.0,0.0,0.0329295396804809,0.3004066944122314
-0.0262312889099121,1.193021297454834,-0.0967946350574493,-0.5107113122940063,-0.0444708243012428,-0.0121689718216657,0.0,0.0,-0.7397150993347168,-0.4890016317367553
-0.027234649285674,1.1811914443969729,-0.1000415533781051,-0.5257747173309326,-0.0447694770991802,-0.0059737390838563,0.0,0.0,-0.0663387179374694,-0.221513032913208
-0.0282691959291696,1.1690226793289185,-0.1034762412309646,-0.5408332347869873,-0.044752113521099,0.0003476383571978,0.0,0.0,-0.8762391805648804,-0.1943597197532653
-0.0293374061584472,1.1564934253692627,-0.1071624904870987,-0.5568448305130005,-0.0444132387638092,0.0067774564959108,0.0,0.0,0.0661549568176269,0.2587028741836548
-0.0304171554744243,1.1443275213241575,-0.1086532920598983,-0.5406863689422607,-0.0437364503741264,0.0135357584804296,0.0,0.0,-0.9805624485015868,0.4534976482391357
-0.0315334312617778,1.13182270526886,-0.1126458495855331,-0.5557429790496826,-0.0427283458411693,0.0201620627194643,0.0,0.0,-0.371167778968811,0.5793509483337402
-0.0326519981026649,1.1189812421798706,-0.1123052686452865,-0.570715606212616,-0.0422866195440292,0.0088343080133199,0.0,0.0,-0.8853538036346436,0.5910625457763672
-0.0337656028568744,1.1057956218719482,-0.1110078543424606,-0.5860308408737183,-0.0426402650773525,-0.0070730494335293,0.0,0.0,-0.862350344657898,-0.102230429649353
-0.0349210724234581,1.0922712087631226,-0.1155417338013649,-0.6010874509811401,-0.0426502376794815,-0.0001994413760257,0.0,0.0,-0.8686891198158264,-0.0164790153503417
-0.0361202247440815,1.0784077644348145,-0.1202509850263595,-0.616144061088562,-0.0423130765557289,0.0067432918585836,0.0,0.0,0.1276149749755859,0.3053168058395386
-0.0373976714909076,1.0650287866592407,-0.1281830072402954,-0.5946070551872253,-0.0418864041566848,0.0085336891934275,0.0,0.0,-0.9578242301940918,-0.6205579042434692
-0.0387765876948833,1.0513087511062622,-0.1400570422410965,-0.6097238659858704,-0.0397423394024372,0.04288100451231,0.0,0.0,-0.9278854727745056,0.4841147661209106
-0.0402039512991905,1.0372495651245115,-0.1452725678682327,-0.6247808933258057,-0.037242904305458,0.049988679587841,0.0,0.0,-0.8189538717269897,0.7012481689453125
-0.0416243560612201,1.0228537321090698,-0.1434676349163055,-0.6397828459739685,-0.0358224846422672,0.0284081548452377,0.0,0.0,-0.9751241207122804,-0.0642095804214477
-0.0430963523685932,1.0081188678741455,-0.1490010917186737,-0.6548397541046143,-0.0340430326759815,0.0355891659855842,0.0,0.0,-0.6876657009124756,0.3883932828903198
-0.044621467590332,0.993045210838318,-0.154686838388443,-0.6698969006538391,-0.0319032669067382,0.0427954271435737,0.0,0.0,-0.7631140947341919,0.643207311630249
-0.0461537353694438,0.9776372909545898,-0.1545383036136627,-0.6847637891769409,-0.0305973105132579,0.026118928566575,0.0,0.0,-0.9178030490875244,-0.4006342887878418
-0.047741986811161,0.9618906378746032,-0.1605139821767807,-0.699820876121521,-0.0289297085255384,0.0333520248532295,0.0,0.0,-0.9570627212524414,0.2074719667434692
-0.0493876449763774,0.945805013179779,-0.1666268557310104,-0.7148780822753906,-0.0269003938883543,0.0405863635241985,0.0,0.0,-0.7045765519142151,0.5756940841674805
-0.051037311553955,0.929377019405365,-0.1659882366657257,-0.7301169037818909,-0.0258895345032215,0.0202171336859464,0.0,0.0,-0.8028961420059204,0.3788137435913086
-0.0527469627559185,0.912610113620758,-0.1723590195178985,-0.7451741695404053,-0.0245180912315845,0.0274289511144161,0.0,0.0,-0.8330315947532654,0.582168459892273
-0.0544643402099609,0.8955010771751404,-0.1721201986074447,-0.7603944540023804,-0.0241361409425735,0.0076391696929931,0.0,0.0,-0.3934615850448608,0.6191515922546387
-0.0561985000967979,0.878044068813324,-0.1730060279369354,-0.775870144367218,-0.0245453901588916,-0.0081850048154592,0.0,0.0,-0.6754707098007202,-0.520317792892456
-0.0580343231558799,0.8602442145347595,-0.1844991445541381,-0.7910850644111633,-0.0236436109989881,0.0180354584008455,0.0,0.0,0.6235873699188232,0.056868553161621
-0.0598645210266113,0.8427621126174927,-0.1845626235008239,-0.7769626975059509,-0.02211145311594,0.0306429471820592,0.0,0.0,0.1022232770919799,0.4737036228179931
-0.0618228912353515,0.8257776498794556,-0.1973874419927597,-0.7548401355743408,-0.0205761808902025,0.0307053923606872,0.0,0.0,0.0473332405090332,0.8305151462554932
-0.0638701468706131,0.8092120289802551,-0.2049340456724167,-0.7362487316131592,-0.0203708130866289,0.0041071576997637,0.0,0.0,-0.77308189868927,0.6169126033782959
-0.065937615931034,0.7923042178153992,-0.2061097174882888,-0.751465380191803,-0.0210068579763174,-0.0127210346981883,0.0,0.0,-0.5368697643280029,0.7035024166107178
-0.0680044144392013,0.7750552892684937,-0.2046205103397369,-0.7666522264480591,-0.0230373181402683,-0.0406090952455997,0.0,0.0,-0.8203682899475098,0.3531711101531982
-0.0701400786638259,0.7574674487113953,-0.2118474543094635,-0.7817097902297974,-0.0247347671538591,-0.0339491367340087,0.0,0.0,0.6024904251098633,0.3679804801940918
-0.0722287148237228,0.740183413028717,-0.2079644948244094,-0.7681951522827148,-0.0256142634898424,-0.0175901763141155,0.0,0.0,0.4329395294189453,0.8930926322937012
-0.0742957144975662,0.7236031889915466,-0.2043428421020507,-0.7369344830513,-0.0279445964843034,-0.046606708317995,0.0,0.0,-0.8265852332115173,0.7408276796340942
-0.0763604193925857,0.7066783905029297,-0.2025659382343292,-0.752286970615387,-0.0317985266447067,-0.0770785883069038,0.0,0.0,-0.7673752307891846,0.6433557271957397
-0.0784535408020019,0.6894101500511169,-0.2046308070421219,-0.7675865292549133,-0.036421850323677,-0.0924665480852127,0.0,0.0,-0.6180009245872498,0.9715347290039062
-0.0805292129516601,0.6718074083328247,-0.2009268999099731,-0.7825191617012024,-0.0429785437881946,-0.1311341077089309,0.0,0.0,0.5610125064849854,0.6243417263031006
-0.0824583992362022,0.6548115015029907,-0.1856382191181183,-0.7555975317955017,-0.0501669645309448,-0.1437687426805496,0.0,0.0,-0.489102840423584,0.3015612363815307
-0.0844596847891807,0.6374773979187012,-0.1931448280811309,-0.770658552646637,-0.0570727661252021,-0.1381159573793411,0.0,0.0,-0.53383469581604,0.8925960063934326
-0.0864714607596397,0.6198074221611023,-0.1929017603397369,-0.7856678366661072,-0.0652557089924812,-0.1636588275432586,0.0,0.0,0.6264674663543701,0.2412937879562378
-0.0884817093610763,0.602340042591095,-0.1932483315467834,-0.7766864895820618,-0.0729424878954887,-0.1537356674671173,0.0,0.0,0.0017660856246948,0.4476492404937744
-0.090594008564949,0.5851773619651794,-0.2034395933151245,-0.763187825679779,-0.080658234655857,-0.1543151140213012,0.0,0.0,-0.0970301628112793,-0.110709011554718
-0.092778779566288,0.567676305770874,-0.2109377384185791,-0.7782490253448486,-0.0881330072879791,-0.149495244026184,0.0,0.0,0.9568767547607422,0.5374755859375
-0.0949002280831337,0.5509130954742432,-0.2038412541151046,-0.7455435991287231,-0.0963623002171516,-0.1645857840776443,0.0,0.0,-0.7061449885368347,0.8194880485534668
-0.0970289260149002,0.5337963700294495,-0.2031193971633911,-0.761402428150177,-0.1060320064425468,-0.1933943629264831,0.0,0.0,0.8358529806137085,0.299161434173584
-0.0992966666817665,0.5173432230949402,-0.2166098654270172,-0.7320044040679932,-0.1161347851157188,-0.2020552158355713,0.0,0.0,-0.8474348783493042,0.8681302070617676
-0.1015646010637283,0.5005501508712769,-0.215021014213562,-0.7473115921020508,-0.127838060259819,-0.2340656965970993,0.0,0.0,-0.2416375875473022,0.7767593860626221
-0.1038352027535438,0.4833976030349731,-0.2137062102556228,-0.7635328769683838,-0.1411331743001938,-0.2659022212028503,0.0,0.0,0.1706175804138183,-0.7399433255195618
-0.1061266884207725,0.4668225347995758,-0.2174917161464691,-0.7378159165382385,-0.152762621641159,-0.232588842511177,0.0,0.0,0.287090539932251,-0.5991107821464539
-0.1085588485002517,0.4504833221435547,-0.2327696979045868,-0.7272932529449463,-0.1632022261619568,-0.2087922841310501,0.0,0.0,-0.2768140435218811,0.1990633010864257
-0.1110602393746376,0.4338064193725586,-0.2398423850536346,-0.7423584461212158,-0.173513576388359,-0.2062268257141113,0.0,0.0,0.1244714260101318,0.8056397438049316
-0.1134701743721962,0.4173966646194458,-0.2292386591434478,-0.7307401895523071,-0.1853128373622894,-0.2359852790832519,0.0,0.0,0.2635717391967773,0.0107218027114868
-0.1159255057573318,0.4016292691230774,-0.2334385365247726,-0.70233154296875,-0.1974736005067825,-0.2432155907154083,0.0,0.0,-0.4754384756088257,-0.4058176875114441
-0.1184473037719726,0.3855247795581817,-0.2401967048645019,-0.7174003720283508,-0.20955790579319,-0.2416858971118927,0.0,0.0,0.4948713779449463,0.7828397750854492
-0.1209345832467079,0.3695880174636841,-0.235215425491333,-0.7102751135826111,-0.2232160568237304,-0.2731629312038421,0.0,0.0,0.6465623378753662,0.1791386604309082
-0.1233483329415321,0.3537661433219909,-0.2282405197620391,-0.7052390575408936,-0.236521229147911,-0.266103446483612,0.0,0.0,0.9654126167297364,-0.2887338995933532
-0.1257667541503906,0.3382096886634826,-0.228610560297966,-0.6935815215110779,-0.2499800026416778,-0.2691754698753357,0.0,0.0,0.9557788372039796,-0.4913015365600586
-0.128024011850357,0.3236851394176483,-0.2124852240085601,-0.6478464007377625,-0.2634838819503784,-0.2700775265693664,0.0,0.0,0.9317907094955444,-0.8937820196151733
-0.1300597190856933,0.3102011382579803,-0.1923275887966156,-0.6013532280921936,-0.27499720454216,-0.2302666455507278,0.0,0.0,0.7936159372329712,-0.213558554649353
-0.1320300102233886,0.2977108955383301,-0.1852446645498275,-0.5573887228965759,-0.2871135175228119,-0.2423253953456878,0.0,0.0,0.643751859664917,-0.9750074744224548
-0.1341787278652191,0.2854424118995666,-0.2048000991344452,-0.5472808480262756,-0.2974895238876343,-0.2075198590755462,0.0,0.0,0.8095719814300537,-0.8818289041519165
-0.1361466348171234,0.2740948796272278,-0.188493549823761,-0.5060545802116394,-0.3060603141784668,-0.1714156121015548,0.0,0.0,0.857020378112793,-0.9617873430252076
-0.1381654739379882,0.263426274061203,-0.1952194720506668,-0.4755806624889374,-0.3129710853099823,-0.1382155865430832,0.0,0.0,0.5702221393585205,-0.9411791563034058
-0.1401625573635101,0.2534043192863464,-0.1947241872549057,-0.44650399684906,-0.3181474208831787,-0.1035264953970909,0.0,0.0,0.5727744102478027,-0.585222601890564
-0.1420550346374511,0.2440230995416641,-0.185247853398323,-0.4178275465965271,-0.3222982883453369,-0.0830171331763267,0.0,0.0,0.6781237125396729,-0.4566598534584045
-0.1437226235866546,0.2351025640964508,-0.16301229596138,-0.3973058760166168,-0.3262028098106384,-0.0780906826257705,0.0,0.0,0.7672858238220215,-0.3329994678497314
-0.1452928483486175,0.2263523489236831,-0.1532126367092132,-0.3897629678249359,-0.3301740884780884,-0.0794252902269363,0.0,0.0,0.7287923097610474,-0.8865291476249695
-0.146733283996582,0.2178375124931335,-0.1419318914413452,-0.3789191544055938,-0.3323753476142883,-0.0440257713198661,0.0,0.0,0.8588035106658936,-0.6445874571800232
-0.1478824615478515,0.2098334431648254,-0.1142817735671997,-0.3558828234672546,-0.3330402374267578,-0.0132976425811648,0.0,0.0,0.909991979598999,-0.8562716245651245
-0.1488164961338043,0.2020782083272934,-0.0945243239402771,-0.3444204926490783,-0.331866592168808,0.0234726406633853,0.0,0.0,0.8741811513900757,-0.8310155272483826
-0.1495727598667144,0.1952349990606308,-0.0781107395887374,-0.3035729527473449,-0.3292661607265472,0.0520084500312805,0.0,0.0,-0.2086842060089111,-0.844118595123291
-0.150416761636734,0.1880908757448196,-0.0881989225745201,-0.3166545033454895,-0.3253069519996643,0.079184278845787,0.0,0.0,0.002050757408142,-0.5893931984901428
-0.1511205732822418,0.1811681389808654,-0.0751540213823318,-0.3066151440143585,-0.3203450739383697,0.0992374643683433,0.0,0.0,-0.604121744632721,-0.9381741285324096
-0.1519079208374023,0.1739280372858047,-0.0847264230251312,-0.3204709887504577,-0.3141227960586548,0.1244456991553306,0.0,0.0,0.0558060407638549,-0.598946750164032
-0.1526951789855957,0.1668531447649002,-0.0855388268828392,-0.3129876255989074,-0.3070713579654693,0.1410291194915771,0.0,0.0,-0.1469960212707519,-0.6501446962356567
-0.1535387933254242,0.1594687104225158,-0.0919352322816848,-0.3266104459762573,-0.2992332279682159,0.1567627191543579,0.0,0.0,-0.3005384802818298,-0.5832551121711731
-0.1544402092695236,0.1517688333988189,-0.0985652208328247,-0.3405083417892456,-0.2905399203300476,0.1738660037517547,0.0,0.0,0.1156543493270874,0.3801125288009643
-0.1552765816450119,0.1445406079292297,-0.0913274437189102,-0.3197407126426697,-0.2826295793056488,0.1582069545984268,0.0,0.0,0.3592724800109863,0.5413690805435181
-0.1558412611484527,0.1377550512552261,-0.0628708600997924,-0.3003527224063873,-0.2760538160800934,0.1315155327320099,0.0,0.0,0.0079038143157958,-0.6911450028419495
-0.1563692092895507,0.1313359141349792,-0.0601528398692607,-0.2839271426200866,-0.2685256600379944,0.150563895702362,0.0,0.0,0.3395549058914184,-0.7142981290817261
-0.1568584442138672,0.1255155205726623,-0.0571406669914722,-0.2571972906589508,-0.260100245475769,0.1685077250003814,0.0,0.0,0.486558198928833,-0.670540452003479
-0.1572998017072677,0.1200360134243965,-0.0532350055873394,-0.2419458031654358,-0.2508257329463959,0.1854897439479828,0.0,0.0,0.3509600162506103,-0.2560791373252868
-0.1576998680830001,0.1149703562259674,-0.0482222139835357,-0.2237574309110641,-0.2424653619527816,0.1672081053256988,0.0,0.0,0.5335550308227539,0.5166471004486084
-0.1580735146999359,0.1103143319487571,-0.0437048748135566,-0.2059037834405899,-0.2360214591026306,0.128878116607666,0.0,0.0,0.084747314453125,-0.461544394493103
-0.158249095082283,0.1059852465987205,-0.0237387586385011,-0.1914256513118744,-0.2297564446926117,0.1253002882003784,0.0,0.0,-0.0314178466796875,0.1026082038879394
-0.1584004461765289,0.1013194918632507,-0.0208133962005376,-0.2064965367317199,-0.2240051329135894,0.1150262206792831,0.0,0.0,0.3168253898620605,-0.2290538549423217
-0.1582754105329513,0.0971675738692283,0.0068053128197789,-0.1836731284856796,-0.2182453721761703,0.1151950806379318,0.0,0.0,0.4312485456466675,0.2733397483825683
-0.1579914987087249,0.0936697572469711,0.0233219675719738,-0.1547161936759948,-0.2131157517433166,0.1025922745466232,0.0,0.0,0.3342885971069336,0.2717286348342895
-0.1574119627475738,0.0908102393150329,0.0528950504958629,-0.1263686120510101,-0.2080031633377075,0.1022518426179885,0.0,0.0,0.0882185697555542,-0.2328071594238281
-0.156663030385971,0.0881584957242012,0.0701390355825424,-0.1171948462724685,-0.2032192498445511,0.0956782400608062,0.0,0.0,-0.0389376282691955,-0.639772891998291
-0.1559180319309234,0.0851916149258613,0.0690277218818664,-0.1311201453208923,-0.1977012008428573,0.1103609949350357,0.0,0.0,-0.2397233843803405,-0.628183901309967
-0.1551664322614669,0.0819063782691955,0.0691222175955772,-0.1452144086360931,-0.1916263997554779,0.1214959472417831,0.0,0.0,-0.1057357788085937,-0.6232060790061951
-0.1544034928083419,0.0782935470342636,0.069759652018547,-0.159739688038826,-0.1850614994764328,0.1312979757785797,0.0,0.0,0.2460693120956421,-0.5554919242858887
-0.1536395996809005,0.0750725343823432,0.0695351436734199,-0.1423177868127823,-0.1781826317310333,0.1375774443149566,0.0,0.0,-0.0691550374031066,-0.358711838722229
-0.1528141945600509,0.0715147107839584,0.0762835144996643,-0.1573886275291443,-0.171913281083107,0.1253873705863952,0.0,0.0,0.1763378381729126,-0.4306619167327881
-0.1518699675798416,0.0682170987129211,0.0888502970337867,-0.1459279209375381,-0.1663326919078827,0.1116119176149368,0.0,0.0,0.0150461196899414,-0.712344765663147
-0.1508399993181228,0.0650754049420356,0.0966067910194397,-0.1389275342226028,-0.1599395871162414,0.1278621107339859,0.0,0.0,0.0476274490356445,-0.5787734389305115
-0.1496552526950836,0.0619181245565414,0.1114208921790123,-0.1395819187164306,-0.1528923213481903,0.1409452706575393,0.0,0.0,0.2029973268508911,-0.7742204666137695
-0.1482987403869629,0.0591611713171005,0.1276037096977234,-0.1217279061675071,-0.1448570191860199,0.1607061624526977,0.0,0.0,0.1206353902816772,-0.8465019464492798
-0.1468295156955719,0.0568978153169155,0.1378052681684494,-0.0997284427285194,-0.1357638835906982,0.1818625181913375,0.0,0.0,-0.3739959001541137,-0.8642393350601196
