x_pos,y_pos,x_vel,y_vel,angle,ang_vel,leg_1,leg_2,main_booster,lat_booster
-0.0015191078418865,1.4031974077224731,-0.1544505655765533,-0.3432262241840362,0.0022726487368345,0.0448681600391864,0.0,0.0,-0.5358755588531494,0.8058352470397949
-0.0029650689102709,1.3950674533843994,-0.1455988585948944,-0.3613363802433014,0.0032604353036731,0.0197586901485919,0.0,0.0,-0.1615386009216308,0.6017366647720337
-0.0043487548828125,1.3865058422088623,-0.1384029984474182,-0.380514532327652,0.0032964318525046,0.0007201884291134,0.0,0.0,0.1540367603302002,0.1285347938537597
-0.0058121681213378,1.3780403137207031,-0.1464889347553253,-0.3762446343898773,0.0034348294138908,0.0027682287618517,0.0,0.0,-0.027657151222229,0.3040825128555298
-0.0072710989043116,1.369148015975952,-0.1465441435575485,-0.3952248692512512,0.0040744198486208,0.0127930846065282,0.0,0.0,0.799001932144165,0.9398396015167236
-0.0084877964109182,1.360715627670288,-0.1212358027696609,-0.3747639656066894,0.0036463369615375,-0.0085623580962419,0.0,0.0,0.046695590019226,0.6827380657196045
-0.0096638677641749,1.3524054288864136,-0.116300955414772,-0.3693441152572632,0.002350190654397,-0.0259250942617654,0.0,0.0,-0.5709905624389648,0.7853716611862183
-0.0107583999633789,1.3436708450317385,-0.1066842675209045,-0.3882043957710266,-0.000384993123589,-0.054709006100893,0.0,0.0,-0.2125611901283264,0.5098402500152588
-0.011808967217803,1.334514856338501,-0.101805493235588,-0.4069335162639618,-0.0036089452914893,-0.0644846484065055,0.0,0.0,-0.2443571090698242,-0.0334951877593994
-0.0128552438691258,1.324932098388672,-0.1018640249967575,-0.425910085439682,-0.0063330782577395,-0.0544873997569084,0.0,0.0,-0.7469920516014099,0.4489445686340332
-0.0138970371335744,1.3149224519729614,-0.101926103234291,-0.4448864161968231,-0.0085583683103322,-0.0445102825760841,0.0,0.0,-0.5368983149528503,0.6917397975921631
-0.0148734096437692,1.3044835329055786,-0.0943503826856613,-0.4639698565006256,-0.0118173556402325,-0.0651856288313865,0.0,0.0,-0.4999847412109375,0.344502329826355
-0.0158455856144428,1.293617844581604,-0.0944135934114456,-0.4829465746879577,-0.014578266069293,-0.0552230663597583,0.0,0.0,-0.68825763463974,0.223604679107666
-0.0168132781982421,1.282325029373169,-0.0944796949625015,-0.5019227862358093,-0.0168431531637907,-0.0453022755682468,0.0,0.0,0.8258880376815796,-0.6793013215065002
-0.017646312713623,1.271975874900818,-0.0833055600523948,-0.4599642157554626,-0.0168459210544824,-5.527485700440593e-05,0.0,0.0,-0.9734153747558594,-0.4097200632095337
-0.0184751506894826,1.2611994743347168,-0.0833817273378372,-0.4789505004882812,-0.0163561981171369,0.009795649908483,0.0,0.0,-0.8584102988243103,0.6410670280456543
-0.0192376133054494,1.2500019073486328,-0.0756516307592392,-0.4976739287376404,-0.016936507076025,-0.0116074420511722,0.0,0.0,-0.8511307239532471,-0.6013985872268677
-0.0200321190059185,1.238373041152954,-0.0802798420190811,-0.5168253183364868,-0.0161140672862529,0.0164502095431089,0.0,0.0,-0.7063562273979187,-0.352878212928772
-0.0208223350346088,1.226317286491394,-0.0803578495979309,-0.5358009338378906,-0.0148034784942865,0.0262140370905399,0.0,0.0,-0.9010538458824158,-0.2347142100334167
-0.021608542650938,1.213834524154663,-0.0804362222552299,-0.5547767281532288,-0.0130057223141193,0.0359587036073207,0.0,0.0,-0.5182411074638367,0.4925339221954345
-0.0223905555903911,1.200924515724182,-0.0805150866508483,-0.5737527012825012,-0.0107229454442858,0.0456597432494163,0.0,0.0,0.0071614980697631,0.343545913696289
-0.0231585502624511,1.1879920959472656,-0.0796234533190727,-0.5747530460357666,-0.0079241581261157,0.0559808239340782,0.0,0.0,-0.9069461822509766,0.2052490711212158
-0.0239223483949899,1.174632906913757,-0.0797023326158523,-0.5937326550483704,-0.0046449657529592,0.0655894130468368,0.0,0.0,-0.8240087032318115,0.6086053848266602
-0.0246284492313861,1.160839557647705,-0.0730427205562591,-0.6130300164222717,-0.0022381469607353,0.0481407716870307,0.0,0.0,-0.7639415860176086,-0.0220410227775573
-0.0253305435180664,1.146619439125061,-0.0731160342693328,-0.6320065855979919,0.0006445703329518,0.0576595067977905,0.0,0.0,-0.865064263343811,0.4252264499664306
-0.0260283462703228,1.1319509744644165,-0.0731870234012603,-0.6519374251365662,0.0039997911080718,0.0671044439077377,0.0,0.0,-0.7364924550056458,0.4646496772766113
-0.0267221443355083,1.1168558597564695,-0.0732478871941566,-0.6709127426147461,0.0078249154612421,0.0765023902058601,0.0,0.0,-0.713137686252594,0.785888671875
-0.0273630134761333,1.1013426780700684,-0.067199021577835,-0.6894939541816711,0.0108927488327026,0.0613565854728221,0.0,0.0,-0.7769906520843506,0.0763118267059326
-0.0279997829347848,1.0854027271270752,-0.0672521442174911,-0.7084694504737854,0.0144237838685512,0.0706208571791648,0.0,0.0,-0.6157816052436829,0.8027994632720947
-0.0285710338503122,1.0690343379974363,-0.0596053078770637,-0.7275057435035706,0.0168736632913351,0.0489975363016128,0.0,0.0,-0.2463785409927368,0.1510002613067627
-0.0291380882263183,1.0522392988204956,-0.059649534523487,-0.7464811205863953,0.0197790991514921,0.058108527213335,0.0,0.0,0.2340691089630127,0.4444209337234497
-0.029765510931611,1.0355067253112793,-0.065872922539711,-0.7437112927436829,0.0228669736534357,0.0617576651275157,0.0,0.0,0.0846314430236816,0.8865389823913574
-0.0303945541381835,1.0191454887390137,-0.064692273736,-0.7272047400474548,0.0246286690235137,0.0352339930832386,0.0,0.0,0.0769890546798706,0.1156574487686157
-0.0310667045414447,1.0027081966400146,-0.0692588239908218,-0.7305756211280823,0.0266400650143623,0.0402281172573566,0.0,0.0,0.5678613185882568,0.3716397285461426
-0.0317352302372455,0.9867374897003174,-0.0693947002291679,-0.7098571062088013,0.0291596315801143,0.0503911860287189,0.0,0.0,-0.7801077365875244,0.5031721591949463
-0.0323585495352745,0.970345675945282,-0.0642738863825798,-0.7285653352737427,0.0310790594667196,0.0383886024355888,0.0,0.0,-0.0607255697250366,-0.1795627474784851
-0.0329776778817176,0.9535271525382996,-0.0642847120761871,-0.7475410103797913,0.0334239900112152,0.0468985922634601,0.0,0.0,-0.276513934135437,0.8744354248046875
-0.0335191711783409,0.9362923502922058,-0.0550771430134773,-0.7660121321678162,0.0343380458652973,0.0182812511920928,0.0,0.0,0.323492169380188,0.1984894275665283
-0.0341112129390239,0.9196411967277528,-0.0603927448391914,-0.7400834560394287,0.0355189591646194,0.0236180610954761,0.0,0.0,-0.4647939205169678,0.7047469615936279
-0.0346405990421772,0.9025672078132628,-0.0530636608600616,-0.7588456869125366,0.0356378369033336,0.002377655589953,0.0,0.0,0.1010510921478271,-0.4830372333526611
-0.0352554321289062,0.885840654373169,-0.0616724789142608,-0.7434104681015015,0.0358259379863739,0.0037620365619659,0.0,0.0,0.3138775825500488,0.2798167467117309
-0.0357828140258789,0.8693166971206665,-0.0537889674305915,-0.7344257235527039,0.036858707666397,0.0206556655466556,0.0,0.0,-0.2284508943557739,0.2931786775588989
-0.0363060943782329,0.8523659706115723,-0.0537573508918285,-0.7534012198448181,0.0382739976048469,0.0283056162297725,0.0,0.0,0.072763442993164,0.0638097524642944
-0.0367738716304302,0.8355066776275635,-0.0488898754119873,-0.7493537664413452,0.040361326187849,0.0417467281222343,0.0,0.0,-0.1867038011550903,0.8199095726013184
-0.0371767058968544,0.8182146549224854,-0.041230596601963,-0.7685571908950806,0.0412938222289085,0.01865029707551,0.0,0.0,0.3478060960769653,0.7624883651733398
-0.0374840721487998,0.8009032011032104,-0.0305669642984867,-0.7693976163864136,0.0411234535276889,-0.0034071449190378,0.0,0.0,0.0013830661773681,-0.0394822359085083
-0.0377614982426166,0.7835730910301208,-0.0280943755060434,-0.7702339291572571,0.041469432413578,0.0069196806289255,0.0,0.0,0.118395447731018,0.8978464603424072
-0.0380766876041889,0.7666707634925842,-0.030386671423912,-0.7511856555938721,0.0403439290821552,-0.0225100312381982,0.0,0.0,0.1443746089935302,0.7109606266021729
-0.0384580604732036,0.7501632571220398,-0.0357744321227073,-0.7336047887802124,0.0380135551095008,-0.0466071739792823,0.0,0.0,0.6076176166534424,-0.1882109642028808
-0.0388747230172157,0.7339696884155273,-0.0395252592861652,-0.7196587324142456,0.0359005853533744,-0.042259432375431,0.0,0.0,-0.47468101978302,0.5434620380401611
-0.0392341613769531,0.7173523306846619,-0.0327486880123615,-0.738480806350708,0.0327500067651271,-0.0630117431282997,0.0,0.0,-0.4070501923561096,-0.1903355717658996
-0.0395895950496196,0.7003080248832703,-0.0326411500573158,-0.7574567198753357,0.0298881940543651,-0.0572362653911113,0.0,0.0,-0.069239854812622,-0.738389253616333
-0.0399887077510356,0.6828309297561646,-0.0385145284235477,-0.7767346501350403,0.0285050030797719,-0.0276639871299266,0.0,0.0,-0.149493396282196,0.2761237621307373
-0.0403839126229286,0.664927065372467,-0.0383890755474567,-0.7957097291946411,0.0273849554359912,-0.0224008858203887,0.0,0.0,0.1868230104446411,0.4214434623718261
-0.0406778343021869,0.647125780582428,-0.0290140248835086,-0.791157066822052,0.0270097814500331,-0.0075033716857433,0.0,0.0,0.5269445180892944,0.914210557937622
-0.0410070419311523,0.6295456290245056,-0.0308174639940261,-0.7813044786453247,0.0249326471239328,-0.0415426157414913,0.0,0.0,0.7658636569976807,0.0783467292785644
-0.0412531867623329,0.6128198504447937,-0.0232106484472751,-0.743347704410553,0.0235421899706125,-0.0278090927749872,0.0,0.0,0.2017350196838379,0.9393905401229858
-0.0413155555725097,0.5964134335517883,-0.0031804603058844,-0.7291266918182373,0.0205267984420061,-0.0603076815605163,0.0,0.0,0.3646358251571655,-0.1627050042152404
-0.0413264259696006,0.5806021094322205,0.0014777749311178,-0.7026938796043396,0.0179897509515285,-0.05074093490839,0.0,0.0,0.106160283088684,0.4262151718139648
-0.0413942337036132,0.5651516914367676,-0.004147071391344,-0.6866586804389954,0.0153948254883289,-0.051898431032896,0.0,0.0,-0.6261624693870544,0.2494314908981323
-0.0414584167301654,0.5492743849754333,-0.0039588697254657,-0.7056337594985962,0.0129629112780094,-0.0486382618546485,0.0,0.0,0.4220740795135498,0.4542055130004883
-0.0416132919490337,0.5338742136955261,-0.0127686485648155,-0.6844328045845032,0.0102794505655765,-0.0536692552268505,0.0,0.0,0.0053107738494873,0.3684239387512207
-0.0416928306221962,0.5185202956199646,-0.0057225404307246,-0.6823800206184387,0.0080760773271322,-0.0440674647688865,0.0,0.0,-0.6405929327011108,0.3949027061462402
-0.0417691245675087,0.5027396082878113,-0.0055085448548197,-0.7013547420501709,0.0059897764585912,-0.0417262762784957,0.0,0.0,0.6536271572113037,0.8801636695861816
-0.0417660698294639,0.4871281385421753,0.0040766606107354,-0.6938334107398987,0.0022683776915073,-0.074427954852581,0.0,0.0,0.323906660079956,-0.2687646150588989
-0.0418601036071777,0.4717999994754791,-0.0052537457086145,-0.6812496185302734,-0.0018257404444739,-0.0818823128938674,0.0,0.0,-0.2346851229667663,0.0618379116058349
-0.0419509895145893,0.4560451507568359,-0.005015212111175,-0.700225293636322,-0.0058489963412284,-0.0804650634527206,0.0,0.0,0.890981912612915,-0.0723168849945068
-0.0419429764151573,0.4403648674488067,0.0043828855268657,-0.6969212293624878,-0.0093820607289671,-0.0706613138318061,0.0,0.0,0.8815720081329346,-0.147236168384552
-0.0418920516967773,0.4257156550884247,0.0084863454103469,-0.6511020660400391,-0.0127323688939213,-0.0670062154531478,0.0,0.0,-0.2891578674316406,-0.1861162185668945
-0.0418382659554481,0.4106396436691284,0.0087478058412671,-0.6700772047042847,-0.0160571485757827,-0.0664954856038093,0.0,0.0,0.945625066757202,0.1393412351608276
-0.04187698289752,0.3963353633880615,-6.434876013372559e-06,-0.6357883810997009,-0.0198714323341846,-0.076286032795906,0.0,0.0,-0.2915120124816894,-0.627263069152832
-0.0419600494205951,0.3816069662570953,-0.0056380098685622,-0.6546332836151123,-0.0225056540220975,-0.0526841469109058,0.0,0.0,0.9788410663604736,0.5013959407806396
-0.0421405807137489,0.367978572845459,-0.0138573748990893,-0.6057782769203186,-0.0266550797969102,-0.0829888433218002,0.0,0.0,0.583726167678833,0.5232682228088379
-0.0421870239078998,0.3547488451004028,0.0004479439812712,-0.5880858302116394,-0.0316782929003238,-0.1004641503095626,0.0,0.0,0.4587833881378174,-0.8320210576057434
-0.0423192977905273,0.3416084349155426,-0.0097311604768037,-0.584097146987915,-0.0351377949118614,-0.0691898912191391,0.0,0.0,0.688753604888916,-0.7868466377258301
-0.0424234382808208,0.3285301923751831,-0.0085857799276709,-0.5812975168228149,-0.0369469858705997,-0.0361837893724441,0.0,0.0,0.9093937873840332,0.4468176364898681
-0.0425472259521484,0.3156152665615082,-0.0103065129369497,-0.5740521550178528,-0.0389965325593948,-0.0409909524023532,0.0,0.0,0.7598749399185181,0.1864733695983886
-0.0426446907222271,0.3035403788089752,-0.0075454874895513,-0.5367199182510376,-0.0411711484193801,-0.0434922985732555,0.0,0.0,0.5807532072067261,0.0497201681137084
-0.0426313392817974,0.2922037839889526,0.0032813821453601,-0.5039041638374329,-0.0430873855948448,-0.0383248440921306,0.0,0.0,0.6448229551315308,-0.4032259583473205
-0.0426922813057899,0.2816670835018158,-0.0035260252188891,-0.4683760702610016,-0.0456279478967189,-0.0508112013339996,0.0,0.0,-0.614414632320404,-0.5043231248855591
-0.0427997596561908,0.2707016468048095,-0.0092904288321733,-0.4873973727226257,-0.0470689497888088,-0.0288200825452804,0.0,0.0,0.5129590034484863,0.2608547210693359
-0.0428342819213867,0.2603914439678192,-0.0020313574932515,-0.4582758545875549,-0.0484684482216835,-0.0279898699373006,0.0,0.0,0.1522797346115112,-0.3736634254455566
-0.0429179184138774,0.250260978937149,-0.0064756623469293,-0.4503055512905121,-0.0503344647586345,-0.0373204201459884,0.0,0.0,-0.1322031617164611,-0.057031512260437
-0.0429995544254779,0.2397036701440811,-0.0061337621882557,-0.4692806899547577,-0.0523498766124248,-0.0403082557022571,0.0,0.0,0.3498187065124511,-0.8986309766769409
-0.0431315414607524,0.229586511850357,-0.01279834844172,-0.4496673047542572,-0.0527447573840618,-0.0078977709636092,0.0,0.0,0.2262407541275024,-0.1950018405914306
-0.0431743636727333,0.2196842283010482,-0.0040104873478412,-0.4401110112667084,-0.053007997572422,-0.0052651134319603,0.0,0.0,0.1779725551605224,-0.697772741317749
-0.0432388298213481,0.2097167074680328,-0.0074254400096833,-0.4429650902748108,-0.0520367212593555,0.0194253381341695,0.0,0.0,0.3790426254272461,-0.5779901146888733
-0.0432456023991107,0.1998186409473419,-0.002812335267663,-0.4398402273654938,-0.0499193519353866,0.042347140610218,0.0,0.0,0.0089730024337768,0.2086629867553711
-0.0431434623897075,0.1900096237659454,0.0078420098870992,-0.435880035161972,-0.0475782454013824,0.0468220226466655,0.0,0.0,0.0530083179473876,-0.2483388781547546
-0.0429389961063861,0.1801441758871078,0.0178597830235958,-0.4383849501609802,-0.045025210827589,0.0510608628392219,0.0,0.0,0.3207683563232422,-0.318354070186615
-0.0427104942500591,0.1707522273063659,0.0204984731972217,-0.4173492193222046,-0.0426989756524562,0.0465244501829147,0.0,0.0,0.1648868322372436,-0.2606745958328247
-0.0424358360469341,0.1617337763309478,0.0252281669527292,-0.4007604718208313,-0.0404840037226676,0.0442993007600307,0.0,0.0,-0.0381296873092651,-0.4965193271636963
-0.042159654200077,0.1522885411977768,0.0255977474153041,-0.4197358191013336,-0.0384870991110801,0.0399380885064601,0.0,0.0,-0.0397009253501892,-0.6804863214492798
-0.0419270507991313,0.142412006855011,0.0203300695866346,-0.438884824514389,-0.0355878248810768,0.0579855851829052,0.0,0.0,0.6076931953430176,-0.295227587223053
-0.0417263992130756,0.1328543275594711,0.0175976157188415,-0.4247298240661621,-0.033153872936964,0.048679132014513,0.0,0.0,0.6804263591766357,-0.3590692281723022
-0.0414092056453228,0.1241812780499458,0.0290851853787899,-0.3854149580001831,-0.0305552706122398,0.0519720502197742,0.0,0.0,0.1328068971633911,-0.6023538708686829
-0.0411441810429096,0.115669310092926,0.0229218937456607,-0.3782387375831604,-0.0270240902900695,0.0706237778067588,0.0,0.0,0.5322006940841675,-0.5591440200805664
-0.0410265922546386,0.1078489124774932,0.0076121105812489,-0.3475028574466705,-0.0229263287037611,0.081955000758171,0.0,0.0,0.2631884813308716,0.6889910697937012
-0.0407664291560649,0.1004010289907455,0.023390632122755,-0.3309798240661621,-0.0203343536704778,0.0518393591046333,0.0,0.0,0.0493395328521728,0.3859988451004028
-0.0405293479561805,0.0932420343160629,0.0215001087635755,-0.3181491792201996,-0.0181485190987586,0.0437167510390281,0.0,0.0,0.0883371829986572,0.547978401184082
-0.0402990356087684,0.0864004716277122,0.0222809705883264,-0.304064393043518,-0.0174063984304666,0.0148422960191965,0.0,0.0,-0.1504612565040588,0.2913821935653686
-0.0400674827396869,0.079131968319416,0.0226611755788326,-0.3230390548706054,-0.0169186051934957,0.0097558181732892,0.0,0.0,0.508171558380127,-0.3884522914886474
-0.0399319641292095,0.0722626522183418,0.0138228209689259,-0.305304616689682,-0.0171801168471574,-0.0052303439006209,0.0,0.0,0.6011396646499634,-0.0188856124877929
-0.0399322509765625,0.0657315105199813,0.001178796053864,-0.2902860045433044,-0.0183748640120029,-0.023894764482975,0.0,0.0,0.2706904411315918,0.6963977813720703
-0.0397748947143554,0.0596026293933391,0.0184752512723207,-0.2724318504333496,-0.0210812967270612,-0.0541286841034889,0.0,0.0,-0.0066208243370056,-0.5993029475212097
-0.0396591201424598,0.0530430898070335,0.013504272326827,-0.291564792394638,-0.0229792147874832,-0.0379583202302455,0.0,0.0,0.6386845111846924,0.8447291851043701
-0.0392978675663471,0.0471902228891849,0.0397496037185192,-0.2601836323738098,-0.0265584085136652,-0.0715839192271232,0.0,0.0,-0.2063854336738586,-0.6726981401443481
-0.038990594446659,0.0409185737371444,0.0332068316638469,-0.2787882089614868,-0.0290116239339113,-0.0490642711520195,0.0,0.0,0.6619523763656616,0.1820553541183471
-0.0385138504207134,0.035502728074789,0.0497553125023841,-0.2407470047473907,-0.0310646295547485,-0.0410600788891315,0.0,0.0,-0.0112581849098205,-0.6291999220848083
-0.0380794517695903,0.0296621657907962,0.0446776524186134,-0.2596068680286407,-0.0322885438799858,-0.024478318169713,0.0,0.0,0.729899525642395,0.1930396556854248
-0.0376239791512489,0.0246769040822982,0.0470951125025749,-0.2216025441884994,-0.0338111594319343,-0.030452374368906,0.0,0.0,-0.0275557041168212,-0.5740804672241211
-0.0372081771492958,0.019271932542324,0.0423556342720985,-0.240237757563591,-0.0345695801079273,-0.0151685792952775,0.0,0.0,0.7333090305328369,0.219027042388916
-0.0366900451481342,0.0141569236293435,0.0524422638118267,-0.227350428700447,-0.0351995937526226,-0.0126001564785838,0.0,0.0,0.4848079681396484,0.1214829683303833
-0.0362612716853618,0.0094538666307926,0.044296246021986,-0.209056869149208,-0.0365997478365898,-0.0280030854046344,0.0,0.0,0.4537432193756103,-0.132009744644165
-0.0359277725219726,0.0050093028694391,0.0355616509914398,-0.1975931376218795,-0.0387828014791011,-0.0436610504984855,0.0,0.0,0.72292160987854,0.0174612998962402
-0.0355928428471088,0.001020464929752,0.0360661670565605,-0.1773509234189987,-0.0413286946713924,-0.0509177446365356,1.0,0.0,0.907768487930298,0.2264630794525146
-0.0351686477661132,-0.0020792747382074,0.035719595849514,-0.1379192024469375,-0.0336204506456851,0.1555492281913757,1.0,0.0,0.9196678400039672,-0.2456468343734741
-0.0344843864440918,-0.0045519494451582,0.0471256896853446,-0.1095653995871543,-0.0125491861253976,0.4214738309383392,1.0,1.0,0.8918285369873047,0.6050760746002197
-0.0337319374084472,-0.0054954793304204,0.0605135783553123,-0.0420137643814086,0.001456267433241,0.2794436812400818,1.0,1.0,0.6351907253265381,0.156998872756958
-0.0331362709403038,-0.0048777484335005,0.0560463890433311,0.0274411644786596,0.004918806720525,0.0692402720451355,1.0,1.0,-0.7155829668045044,-0.8977919816970825
-0.03272170946002,-0.003967978991568,0.0435572154819965,0.0404335670173168,0.0028536757454276,-0.0412972308695316,1.0,1.0,-0.1839098334312439,-0.9434027671813964
