x_pos,y_pos,x_vel,y_vel,angle,ang_vel,leg_1,leg_2,main_booster,lat_booster
-0.0016016006702557,1.403249979019165,-0.1621694415807724,-0.3408927321434021,0.0018041107105091,0.0355903357267379,0.0,0.0,-0.790513734702698,0.6198879920300119
-0.0032270431984215,1.3952256441116333,-0.1629517972469329,-0.3566336929798126,0.0022104098461568,0.0081273820251226,0.0,0.0,-0.099466486604097,-0.8039931204494376
-0.0049763680435717,1.3868203163146973,-0.1765685230493545,-0.373568058013916,0.0038326315116137,0.0324474349617958,0.0,0.0,0.8393254595065531,0.8839896273431181
-0.0068773268721997,1.3788716793060305,-0.1896460503339767,-0.3532735109329223,0.003390067256987,-0.0088521437719464,0.0,0.0,-0.3208085399212859,0.7450936702758912
-0.0087775234133005,1.370551347732544,-0.187743455171585,-0.3697987496852875,0.0011346482206135,-0.0451123416423797,0.0,0.0,-0.4247200309216756,-0.6973004582421521
-0.010788345709443,1.361855387687683,-0.1998454630374908,-0.3864866495132446,-8.051880286075175e-05,-0.0243054628372192,0.0,0.0,-0.42497781378272,-0.9494297615400868
-0.0129423141479492,1.3527848720550537,-0.2161123752593994,-0.4031283557415008,0.0006251860177144,0.0141152758151292,0.0,0.0,-0.8894045408604454,-0.9157387150566588
-0.0152136804535985,1.343342661857605,-0.229207843542099,-0.4196551442146301,0.0026647103950381,0.0407943315804004,0.0,0.0,0.2010252050478687,-0.8913142289636435
-0.0176277160644531,1.3344480991363523,-0.2452068626880645,-0.3953295052051544,0.006430928595364,0.0753311663866043,0.0,0.0,-0.5100700098734259,-0.7426193314032639
-0.0201580040156841,1.3251830339431765,-0.2582919001579284,-0.4118061363697052,0.0116358306258916,0.1041074767708778,0.0,0.0,-0.0966554266934045,0.8008357506163118
-0.0226709358394145,1.3155457973480225,-0.2546796798706054,-0.4283512234687805,0.0149908103048801,0.067105509340763,0.0,0.0,0.6864428950726538,0.6600057790051707
-0.0251129157841205,1.306344509124756,-0.2464288175106048,-0.4089691042900085,0.0171894151717424,0.0439762324094772,0.0,0.0,0.6741686280520895,0.9820865528084592
-0.0273890495300292,1.297842502593994,-0.2280362397432327,-0.3778688013553619,0.0176043771207332,0.0083001358434557,0.0,0.0,0.6645665332471409,0.7253671135830212
-0.0295826904475688,1.2894995212554932,-0.2184444218873977,-0.3707944750785827,0.0167036782950162,-0.0180155932903289,0.0,0.0,-0.6929236120463838,-0.6869129222446835
-0.0318586342036724,1.2807879447937012,-0.2276969701051712,-0.3871791064739227,0.0168028678745031,0.0019839094020426,0.0,0.0,-0.2855368619909935,-0.7677459861070636
-0.0342210754752159,1.2716917991638184,-0.237561896443367,-0.404290109872818,0.0181020628660917,0.0259861890226602,0.0,0.0,-0.3236685074204102,-0.6472944223678117
-0.0366561897099018,1.2622276544570925,-0.2457775771617889,-0.4206574261188507,0.0203424450010061,0.0448117665946483,0.0,0.0,0.1627077485597634,-0.8605523598011842
-0.0390772819519043,1.2527787685394287,-0.2461162507534027,-0.4200086295604706,0.0243060104548931,0.0792785435914993,0.0,0.0,-0.2885679820513267,0.7439883668869827
-0.041455078870058,1.2429649829864502,-0.2400008738040924,-0.4362049996852875,0.0264979340136051,0.0438422784209251,0.0,0.0,0.4803929354533423,-0.9380505798619164
-0.0440231338143348,1.2335307598114014,-0.2607507109642029,-0.4193767011165619,0.0304083675146102,0.0782154873013496,0.0,0.0,-0.3252742867526406,0.9234216301736662
-0.04651889950037,1.223732590675354,-0.2512169182300567,-0.4355019629001617,0.0320331789553165,0.0324991419911384,0.0,0.0,-0.6375161727434755,-0.6205170213557264
-0.0490738861262798,1.2135543823242188,-0.2583149969577789,-0.4524265825748443,0.0348052345216274,0.0554463788866996,0.0,0.0,0.0492810944091697,-0.9161877203184
-0.0516222938895225,1.2035202980041504,-0.2593983709812164,-0.4460698962211609,0.0393217988312244,0.0903392806649208,0.0,0.0,-0.6725152109758825,-0.9491804470399562
-0.0542387962341308,1.1930975914001465,-0.2678295373916626,-0.4634056389331817,0.0454372875392437,0.1223205476999282,0.0,0.0,0.4991202603101263,0.9577292928029904
-0.0569501891732215,1.1831737756729126,-0.275164783000946,-0.4411915242671966,0.0494245290756225,0.0797519534826278,0.0,0.0,0.951609629254579,0.8137203115105727
-0.0598176941275596,1.1740952730178833,-0.2886588275432586,-0.4035588800907135,0.05131122097373,0.037733718752861,0.0,0.0,0.4193724786328621,-0.7097171350021547
-0.0627573952078819,1.1655776500701904,-0.297228068113327,-0.3786792159080505,0.0545353926718235,0.0644835010170936,0.0,0.0,-0.4542972192228256,0.980066166973878
-0.0656195655465126,1.156700611114502,-0.2878446578979492,-0.3945916593074798,0.0561468265950679,0.0322286412119865,0.0,0.0,-0.1689975479548984,-0.615555793809268
-0.0685190185904502,1.1474494934082031,-0.2929943203926086,-0.4112846255302429,0.0591608956456184,0.0602815262973308,0.0,0.0,-0.0980604561277103,-0.6250866280656305
-0.0714427009224891,1.1378169059753418,-0.2966242730617523,-0.4282831847667694,0.0633729100227356,0.0842402130365371,0.0,0.0,-0.7579127093710067,0.8773534850458569
-0.0742637664079666,1.1278268098831177,-0.2844554483890533,-0.4441064894199371,0.0656885281205177,0.0463125333189964,0.0,0.0,0.4833808847954204,-0.6651930892966214
-0.0772033706307411,1.1180347204208374,-0.2973960041999817,-0.4353618323802948,0.0690808668732643,0.067846730351448,0.0,0.0,-0.0266821427001549,0.7829439009180553
-0.08004941791296,1.1078810691833496,-0.2865720391273498,-0.4513679444789886,0.0710267648100853,0.0389179736375808,0.0,0.0,0.4512810521393027,0.6455589965808591
-0.0828829780220985,1.0978200435638428,-0.2837899923324585,-0.4471810460090637,0.0714634507894516,0.0087333777919411,0.0,0.0,0.9025606304269966,0.8199137515426755
-0.085633561015129,1.0884759426116943,-0.2737925946712494,-0.4152319133281708,0.070204421877861,-0.0251806043088436,0.0,0.0,0.7525985769526331,-0.9656553976273872
-0.0884420424699783,1.0799593925476074,-0.2814370095729828,-0.3785427212715149,0.0707895830273628,0.0117031363770365,0.0,0.0,-0.9902294616151626,0.7561429336289074
-0.0911357849836349,1.071070432662964,-0.2683964669704437,-0.3950156271457672,0.0698254257440567,-0.0192832201719284,0.0,0.0,-0.981658139190746,0.9478215184669008
-0.09368896484375,1.0618226528167725,-0.2522016763687134,-0.4108666479587555,0.0667401850223541,-0.0617046877741813,0.0,0.0,0.353972135027284,-0.6865449568084385
-0.0963133797049522,1.0532326698303225,-0.2605350315570831,-0.3816953897476196,0.0648450180888176,-0.0379033051431179,0.0,0.0,0.0367597125077467,0.9326505594970996
-0.0987993255257606,1.0448496341705322,-0.2446781396865844,-0.372414082288742,0.060970738530159,-0.0774854570627212,0.0,0.0,-0.8306319356962508,-0.8547525497564161
-0.101293183863163,1.0360920429229736,-0.2473734319210052,-0.3891416788101196,0.0589789077639579,-0.0398365259170532,0.0,0.0,-0.2207134962081909,0.998833417892456
-0.1036168113350868,1.0269663333892822,-0.2278076112270355,-0.4054125845432281,0.0544713288545608,-0.0901515707373619,0.0,0.0,-0.9802092909812928,0.9318159818649292
-0.1057765930891037,1.0174633264541626,-0.2091114819049835,-0.4221214950084686,0.0476898699998855,-0.1356292217969894,0.0,0.0,-0.9912651181221008,0.9841817617416382
-0.107764720916748,1.0075912475585938,-0.1895188391208648,-0.4384930729866028,0.0385038368403911,-0.1837206780910492,0.0,0.0,-0.9973418712615968,0.8754702806472778
-0.1096045523881912,0.9973394274711608,-0.1729076504707336,-0.4553933143615722,0.0275701619684696,-0.2186735570430755,0.0,0.0,-0.9888424873352052,0.8302589654922485
-0.1112874001264572,0.986709475517273,-0.1552853435277938,-0.4722566604614258,0.014733862131834,-0.2567259967327118,0.0,0.0,-0.9580948948860168,0.4244006872177124
-0.1128818541765213,0.9757074117660522,-0.1463114023208618,-0.4889108538627624,0.0017705139471217,-0.2592671513557434,0.0,0.0,-0.9929682612419128,0.2926695346832275
-0.1143857017159462,0.9643331170082092,-0.1371159851551056,-0.5055654644966125,-0.0113206850364804,-0.2618242800235748,0.0,0.0,-0.9635565280914308,-0.4576538801193237
-0.115796759724617,0.952586591243744,-0.1277137249708175,-0.5222205519676208,-0.0245403740555048,-0.2643940448760986,0.0,0.0,-0.9463534951210022,-0.955784559249878
-0.1171914115548133,0.940467894077301,-0.1279439032077789,-0.5388380289077759,-0.0359216183423996,-0.2276248186826706,0.0,0.0,-0.9642127156257628,-0.8591521382331848
-0.1185414344072341,0.9279791116714478,-0.1246641427278518,-0.5553445816040039,-0.0461303181946277,-0.2041738778352737,0.0,0.0,-0.976435363292694,-0.9974533915519714
-0.1198794394731521,0.915129542350769,-0.1255412697792053,-0.5713652968406677,-0.0542930848896503,-0.1632552444934845,0.0,0.0,-0.9890722632408142,0.1184443235397338
-0.1211176887154579,0.9019067287445068,-0.1154439821839332,-0.5880119204521179,-0.0625853538513183,-0.1658452451229095,0.0,0.0,-0.9900003671646118,-0.8177363276481628
-0.1223187446594238,0.8883237242698669,-0.113232210278511,-0.603987455368042,-0.0693861693143844,-0.1360163390636444,0.0,0.0,-0.9981173276901244,-0.9718925356864928
-0.1234752684831619,0.8743693828582764,-0.1101194024085998,-0.6204593181610107,-0.0748606696724891,-0.1094901785254478,0.0,0.0,-0.5630817413330078,-0.8245086669921875
-0.1246036514639854,0.860045850276947,-0.1090988740324974,-0.6367930173873901,-0.0785622373223304,-0.0740314573049545,0.0,0.0,-0.904153048992157,-0.9285627603530884
-0.1256885528564453,0.8453640341758728,-0.1061984896659851,-0.6526500582695007,-0.0808286666870117,-0.0453287400305271,0.0,0.0,-0.9078498482704164,-0.9745466709136964
-0.1267265379428863,0.8303189277648926,-0.1028938740491867,-0.6687149405479431,-0.0817248150706291,-0.0179229713976383,0.0,0.0,0.2501676082611084,-0.901372253894806
-0.1276121139526367,0.815841019153595,-0.0893823653459549,-0.6434162259101868,-0.0809103101491928,0.0162902288138866,0.0,0.0,-0.9624248743057252,-0.6269381046295166
-0.1284452378749847,0.8010010123252869,-0.0854370966553688,-0.6594374179840088,-0.0788126811385154,0.04195237159729,0.0,0.0,-0.7500987648963928,0.1040771007537841
-0.1291698515415191,0.7857869863510132,-0.0744486600160598,-0.6760792136192322,-0.0768390819430351,0.0394719541072845,0.0,0.0,-0.2161680459976196,0.0307229757308959
-0.1297849714756012,0.7701985239982605,-0.0633838400244712,-0.6927208304405212,-0.0749881714582443,0.0370185226202011,0.0,0.0,-0.0652980208396911,-0.3926841020584106
-0.1302900314331054,0.7542360424995422,-0.0522486679255962,-0.7093623876571655,-0.0732584148645401,0.0345951095223426,0.0,0.0,0.5263392925262451,-0.2498711347579956
-0.1306210458278656,0.7387437224388123,-0.0348325632512569,-0.688454806804657,-0.0715475082397461,0.0342183001339435,0.0,0.0,0.3762229681015014,-0.2547018527984619
-0.130810260772705,0.7233763337135315,-0.0205656029284,-0.6829222440719604,-0.0699241906404495,0.032466385513544,0.0,0.0,0.5503487586975098,-0.6854875683784485
-0.1310298889875412,0.708483874797821,-0.0246038772165775,-0.6617650985717773,-0.0673085376620292,0.0523132309317588,0.0,0.0,-0.747295081615448,-0.6851244568824768
-0.1311887800693512,0.6932305693626404,-0.01974936760962,-0.6777583956718445,-0.0634892731904983,0.0763854309916496,0.0,0.0,-0.5777387619018555,0.776343584060669
-0.1311654150485992,0.67758709192276,0.0003642689844127,-0.6951826214790344,-0.0615396574139595,0.0389922335743904,0.0,0.0,0.8461300134658813,0.2801330089569092
-0.1309397667646408,0.6629947423934937,0.0205603316426277,-0.6484678387641907,-0.0595593862235546,0.0396053791046142,0.0,0.0,-0.6891797184944153,0.2931044101715088
-0.1306002587080001,0.6480280160903931,0.0320517309010028,-0.6651092767715454,-0.0576856099069118,0.0374755375087261,0.0,0.0,0.1043065786361694,-0.5439661145210266
-0.1302311867475509,0.6333768367767334,0.0341429822146892,-0.6510630249977112,-0.0549514144659042,0.0546837262809276,0.0,0.0,-0.7196106314659119,0.4908549785614013
-0.1297475844621658,0.6183513402938843,0.045701939612627,-0.6677045822143555,-0.0523182675242424,0.0526631399989128,0.0,0.0,0.4963294267654419,0.4162536859512329
-0.1292254477739334,0.6041064262390137,0.0501873977482318,-0.6330357193946838,-0.0503229536116123,0.0399065129458904,0.0,0.0,-0.5827643275260925,0.8801287412643433
-0.1285101920366287,0.5894814133644104,0.0715960413217544,-0.6500058770179749,-0.0503877773880958,-0.0012967534130439,0.0,0.0,-0.2221262454986572,0.0327564477920532
-0.1276794373989105,0.5744819641113281,0.0832352638244628,-0.6666468381881714,-0.0505445413291454,-0.0031353109516203,0.0,0.0,0.6955927610397339,-0.9358167052268982
-0.1267124116420745,0.5595977902412415,0.0949610099196434,-0.6614609956741333,-0.0488171279430389,0.0345480479300022,0.0,0.0,0.0252422094345092,-0.290752112865448
-0.1256386786699295,0.5446563363075256,0.1058033481240272,-0.6640157699584961,-0.0472658090293407,0.0310262478888034,0.0,0.0,-0.336639404296875,-0.6201505064964294
-0.1244982704520225,0.5293496251106262,0.1112828105688095,-0.6802113056182861,-0.0445445068180561,0.0544259138405323,0.0,0.0,0.6139215230941772,-0.7584377527236938
-0.1231797188520431,0.5148687958717346,0.1274918913841247,-0.6434697508811951,-0.0402305349707603,0.086279347538948,0.0,0.0,-0.2709640264511108,-0.0965797901153564
-0.121744729578495,0.5000138282775879,0.1392191648483276,-0.6601121425628662,-0.0359916277229785,0.0847779661417007,0.0,0.0,-0.3443468809127807,-0.3245391845703125
-0.1201929077506065,0.4847846925258636,0.1509583443403244,-0.6767544150352478,-0.0318243019282817,0.0833466947078704,0.0,0.0,0.3527523279190063,-0.6454666256904602
-0.1185181587934494,0.4701583385467529,0.1619517058134079,-0.6499523520469666,-0.0263737849891185,0.1090104728937149,0.0,0.0,-0.7462795972824097,-0.0275651812553405
-0.1167264953255653,0.455157995223999,0.1737096458673477,-0.6665955185890198,-0.020987793803215,0.1077197939157486,0.0,0.0,-0.3313024044036865,0.1910169124603271
-0.1148179024457931,0.4397836625576019,0.1854746043682098,-0.6832386255264282,-0.015662832185626,0.1064990758895874,0.0,0.0,0.2208681106567382,0.0259261131286621
-0.1127928718924522,0.4248104989528656,0.1972137093544006,-0.6654280424118042,-0.0104363514110445,0.1045295745134353,0.0,0.0,-0.0936002731323242,-0.5086504220962524
-0.1106849685311317,0.4094639718532562,0.2046692818403244,-0.6820367574691772,-0.0043990039266645,0.1207468286156654,0.0,0.0,0.484758973121643,-0.7353981137275696
-0.1084932312369346,0.3941981196403503,0.2115962207317352,-0.678479790687561,0.00309075624682,0.1497951298952102,0.0,0.0,0.4162763357162475,-0.3649709820747375
-0.1061056107282638,0.37907674908638,0.2308483868837356,-0.6720985770225525,0.0109008597210049,0.1562019437551498,0.0,0.0,0.6991196870803833,-0.4518721103668213
-0.103455826640129,0.3644651472568512,0.2564091086387634,-0.6494892835617065,0.0193665884435176,0.1693145781755447,0.0,0.0,0.2692277431488037,-0.7203608751296997
-0.1006312370300293,0.3499309420585632,0.2723160982131958,-0.6461251974105835,0.0293878950178623,0.2004258185625076,0.0,0.0,0.6741049289703369,-0.5546830296516418
-0.0977616310119628,0.3361669778823852,0.2757424116134643,-0.6119858026504517,0.0404576174914836,0.221394345164299,0.0,0.0,0.3791567087173462,0.0459626913070678
-0.0947747230529785,0.3229808807373047,0.2874113917350769,-0.58638995885849,0.0516116023063659,0.223079651594162,0.0,0.0,-0.0144795775413513,0.1296265125274658
-0.0916704162955284,0.3094220161437988,0.299173355102539,-0.6030407547950745,0.0627332404255867,0.2224329710006714,0.0,0.0,0.2718763351440429,-0.3693207502365112
-0.0883873924612999,0.2958739101886749,0.3167387545108795,-0.6026614308357239,0.0741844475269317,0.2290238589048385,0.0,0.0,0.3819141387939453,-0.4214387536048889
-0.085062600672245,0.2825853228569031,0.3211504220962524,-0.5912012457847595,0.0854053646326065,0.2244181632995605,0.0,0.0,0.6479735374450684,-0.6587256193161011
-0.0816551223397255,0.2702233493328094,0.3279179334640503,-0.5502004623413086,0.0981178060173988,0.2542488276958465,0.0,0.0,0.2244036197662353,-0.3421847224235534
-0.0781893730163574,0.258116215467453,0.3338696956634521,-0.5389777421951294,0.1107282862067222,0.2522095739841461,0.0,0.0,0.5680361986160278,-0.2717735171318054
-0.0748076438903808,0.2467425614595413,0.3260476589202881,-0.5064345002174377,0.1227727457880973,0.2408894002437591,0.0,0.0,-0.3316077589988708,-0.4639638662338257
-0.0713094696402549,0.234996423125267,0.3377374112606048,-0.5230869650840759,0.1347998231649398,0.2405415326356887,0.0,0.0,0.1798754930496215,-0.1862905621528625
-0.067804716527462,0.2236664891242981,0.3385982513427734,-0.5046693086624146,0.1466347724199295,0.2366985976696014,0.0,0.0,0.6765635013580322,0.4293487071990967
-0.0643779784440994,0.213073119521141,0.3312320709228515,-0.4719864428043365,0.1580681204795837,0.2286669909954071,0.0,0.0,-0.1415662765502929,0.1681405305862426
-0.0608351714909076,0.2021070271730423,0.3428581357002258,-0.4886377155780792,0.169490247964859,0.2284425199031829,0.0,0.0,0.3595373630523681,-0.4084935188293457
-0.0573548302054405,0.1914754658937454,0.3370926082134247,-0.4737976789474487,0.1804589480161667,0.2193738967180252,0.0,0.0,0.2593648433685303,-0.3886649012565613
-0.0539435371756553,0.1810293793678283,0.3307437002658844,-0.4655724167823791,0.1908895075321197,0.2086112052202224,0.0,0.0,0.1396188735961914,-0.5237897634506226
-0.050473403185606,0.1709544956684112,0.3354687392711639,-0.4493021368980407,0.2025166302919387,0.2325420677661895,0.0,0.0,-0.1152116060256958,-0.5517218112945557
-0.0469261184334754,0.1604906618595123,0.3422159552574157,-0.4668236374855041,0.2151388823986053,0.2524449229240417,0.0,0.0,0.4136573076248169,-0.0406774878501892
-0.0432826988399028,0.1506509631872177,0.3513049185276031,-0.4392766952514648,0.2283325940370559,0.2638744711875915,0.0,0.0,0.0139036178588867,-0.3884994387626648
-0.0396469123661518,0.141130119562149,0.3506465256214142,-0.4252078831195831,0.2414603382349014,0.262554794549942,0.0,0.0,0.1398448944091797,-0.2840091586112976
-0.0359431281685829,0.1321311295032501,0.3570387959480285,-0.4022038877010345,0.2550439834594726,0.2716720700263977,0.0,0.0,-0.0532237887382507,-0.0758848190307617
-0.0321265235543251,0.1227600648999214,0.3683643937110901,-0.4188595116138458,0.2686296701431274,0.2717129290103912,0.0,0.0,0.7956340312957764,-0.1889939308166504
-0.0284406654536724,0.1142972335219383,0.3553639352321625,-0.3786090314388275,0.2821825444698334,0.2710578143596649,0.0,0.0,0.5064952373504639,-0.1786951422691345
-0.0247901920229196,0.1065201163291931,0.3516406416893005,-0.3483025431632995,0.2959963381290436,0.2762750685214996,0.0,0.0,0.5511927604675293,-0.0938074588775634
-0.0210819244384765,0.0990217998623848,0.3571222424507141,-0.3361061811447143,0.3101665079593658,0.2834030389785766,0.0,0.0,0.7745029926300049,-0.3546630144119262
-0.017591381445527,0.0920401215553283,0.3359959721565246,-0.3131495416164398,0.3237368762493133,0.2714079916477203,0.0,0.0,0.4819262027740478,-0.4857780337333679
-0.0142474174499511,0.0852878913283348,0.3218883574008941,-0.3029492199420929,0.3367841243743896,0.260944664478302,0.0,0.0,0.053607702255249,-0.5348444581031799
-0.0109679223969578,0.0786439478397369,0.3144791722297668,-0.2984969913959503,0.3509124517440796,0.2825673222541809,0.0,0.0,0.1579319238662719,-0.4350645542144775
-0.0076923370361328,0.072164162993431,0.3140541017055511,-0.2913496196269989,0.365137368440628,0.284498393535614,0.0,0.0,-0.0286272168159484,-0.3631614446640014
-0.0043105124495923,0.0653125867247581,0.3247441947460174,-0.3080064952373504,0.3793762326240539,0.2847770154476166,0.0,0.0,0.4964754581451416,-0.3715892434120178
-0.0009709357982501,0.0590013116598129,0.3201983571052551,-0.2842310965061188,0.3940389752388,0.2932539880275726,0.0,0.0,0.5276844501495361,0.0843054056167602
0.0022075653541833,0.0533647388219833,0.3040497303009033,-0.2544086277484894,0.408825933933258,0.2957390546798706,0.0,0.0,0.3470585346221924,0.4317151308059692
0.0054348944686353,0.047737680375576,0.3087844252586365,-0.2541951537132263,0.4238717555999756,0.3009162545204162,0.0,0.0,0.3767151832580566,0.2365345954895019
