x_pos,y_pos,x_vel,y_vel,angle,ang_vel,leg_1,leg_2,main_booster,lat_booster
-0.0015257835621014,1.4029722213745115,-0.1545229703187942,-0.3532382249832153,0.0017394057940691,0.0343098007142543,0.0,0.0,-0.5785440488999429,-0.7983613967964311
-0.0031118392944335,1.3943912982940674,-0.1617449671030044,-0.3813797235488891,0.0048496178351342,0.0622109249234199,0.0,0.0,-0.7183581885361054,-0.8772599464144355
-0.0047547342255711,1.3851511478424072,-0.1687859445810318,-0.4106967151165008,0.0092879878357052,0.0887757688760757,0.0,0.0,-0.6958338777399546,-0.95117896866604
-0.0064910887740552,1.3752546310424805,-0.1803894490003585,-0.4398969113826751,0.015962716192007,0.1335071325302124,0.0,0.0,-0.7590817457619814,0.6223182881820994
-0.0081727029755711,1.3647098541259766,-0.17338727414608,-0.4687219560146332,0.0211314912885427,0.1033851131796836,0.0,0.0,0.0260836269266786,-0.6810454513080915
-0.0098227504640817,1.3540196418762207,-0.1716928780078888,-0.4752326011657715,0.0277456380426883,0.1322949230670929,0.0,0.0,0.4620803823488393,0.7587426319887904
-0.011455344967544,1.3434453010559082,-0.1683934181928634,-0.4700727462768554,0.0328173451125621,0.1014437898993492,0.0,0.0,0.6669546292516477,-0.7952433123288486
-0.013012409210205,1.333205223083496,-0.1627635061740875,-0.4552846252918243,0.0397990457713604,0.1396468579769134,0.0,0.0,-0.2602319281338112,-0.9517789167554797
-0.0146535877138376,1.322319269180298,-0.1731209456920623,-0.4840764105319977,0.0487115494906902,0.1782663315534591,0.0,0.0,0.4604139155208921,-0.8244666596835711
-0.0163999553769826,1.3117448091506958,-0.1853118985891342,-0.47034952044487,0.0592704452574253,0.2111975699663162,0.0,0.0,0.9405513127707584,-0.9336446168742528
-0.0181588176637887,1.301569581031799,-0.1886433660984039,-0.4527875781059265,0.0719149410724639,0.2529129981994629,0.0,0.0,-0.79338547136068,0.6929376059104403
-0.0198667533695697,1.2907490730285645,-0.1820147782564163,-0.4814896583557129,0.0830451399087905,0.2226240336894989,0.0,0.0,0.0279266492189398,-0.6823971361592249
-0.0215829852968454,1.2799371480941772,-0.1843205988407135,-0.4812815487384796,0.0956479310989379,0.2520791292190552,0.0,0.0,-0.8545750035997983,-0.9447691214511212
-0.0233760830014944,1.2684571743011477,-0.1936962902545929,-0.5112050771713257,0.1099458634853363,0.2859844267368316,0.0,0.0,0.8135030139339405,-0.9189084487713434
-0.0251832008361816,1.2577030658721924,-0.1972460895776748,-0.479256123304367,0.1264031678438186,0.329176127910614,0.0,0.0,0.5318013679647857,0.8759380398909112
-0.0268561355769634,1.246734619140625,-0.1822469383478164,-0.488830029964447,0.1413159817457199,0.2982835173606872,0.0,0.0,-0.9516733659740048,0.8696604913194597
-0.0284613613039255,1.2351442575454712,-0.1733409762382507,-0.5163977146148682,0.1541326344013214,0.2563561797142029,0.0,0.0,0.2576109796608308,-0.6127441330090533
-0.0300545692443847,1.22333824634552,-0.1736068725585937,-0.5262583494186401,0.1684382259845733,0.2861376702785492,0.0,0.0,-0.4273608093072916,-0.9215071751718256
-0.0317255035042762,1.2108759880065918,-0.1829223334789276,-0.5557457208633423,0.1843280047178268,0.3178244531154632,0.0,0.0,-0.6999797989572594,-0.8632835109933623
-0.033489990979433,1.1977437734603882,-0.1942243576049804,-0.5859617590904236,0.2022254019975662,0.3579804003238678,0.0,0.0,-0.9055424527700932,0.7125691206028324
-0.0352073684334754,1.1839888095855713,-0.1877744048833847,-0.613608717918396,0.2184330523014068,0.3241821527481079,0.0,0.0,-0.1116446128089909,-0.8036501688773825
-0.0370044708251953,1.1695606708526611,-0.1973035633563995,-0.6439517736434937,0.2362803965806961,0.3569788634777069,0.0,0.0,-0.5250840002821253,0.9473974147074022
-0.038733959197998,1.1545145511627195,-0.1882372796535492,-0.671247124671936,0.251857042312622,0.3115608990192413,0.0,0.0,0.2629884186274387,-0.9334493207390436
-0.0405540466308593,1.1391521692276,-0.1991731822490692,-0.685818076133728,0.2694117724895477,0.3511262536048889,0.0,0.0,-0.2270086950642948,0.8564539953831225
-0.0423477180302143,1.123163819313049,-0.1952078640460968,-0.713589608669281,0.2856902778148651,0.3255991339683532,0.0,0.0,-0.9015748832469376,0.7150659722732186
-0.0441205017268657,1.1065278053283691,-0.1920619755983352,-0.7423489093780518,0.3009207248687744,0.3046087324619293,0.0,0.0,0.7629739355840068,-0.7995106744148781
-0.0462042801082134,1.0903323888778689,-0.2247089892625808,-0.7232685089111328,0.3178377747535705,0.33834108710289,0.0,0.0,0.5750593939677098,-0.8222917968963527
-0.0487544052302837,1.0745227336883545,-0.2726978063583374,-0.7066379189491272,0.3362669944763183,0.3685846924781799,0.0,0.0,-0.2219711173614107,-0.626228505524697
-0.051388930529356,1.0580410957336426,-0.2825515270233154,-0.7371008992195129,0.3563049733638763,0.4007594585418701,0.0,0.0,-0.7181644286546085,-0.8062105969726184
-0.0541120544075965,1.040875792503357,-0.2929359972476959,-0.7681750059127808,0.3781141340732574,0.4361835122108459,0.0,0.0,0.4083199205797767,-0.7027981014979123
-0.0571675300598144,1.0240575075149536,-0.3274196982383728,-0.7534491419792175,0.4014440476894378,0.4665986895561218,0.0,0.0,0.2703633253612802,-0.8482259127674496
-0.0605078712105751,1.0069762468338013,-0.357328325510025,-0.7659682631492615,0.4265379011631012,0.5018764138221741,0.0,0.0,-0.2813776109074466,0.6628515812512791
-0.0638407692313194,0.9892836809158324,-0.355265200138092,-0.7931840419769287,0.4504851400852203,0.4789454042911529,0.0,0.0,0.8521635022187413,-0.836940049877074
-0.0675094574689865,0.9713918566703796,-0.3900969326496124,-0.8029012084007263,0.4760946631431579,0.5121907591819763,0.0,0.0,-0.5019273515120353,0.7335555010457513
-0.0711600333452224,0.9528971910476683,-0.3865962028503418,-0.8295890092849731,0.5001675486564636,0.4814584255218506,0.0,0.0,-0.9630236050257908,-0.6632570045238366
-0.0748907104134559,0.9337261915206908,-0.3955646753311157,-0.8604708313941956,0.525634765625,0.5093444585800171,0.0,0.0,-0.0204303906409417,-0.9195171558601324
-0.078720286488533,0.913850963115692,-0.4069367945194244,-0.8928801417350769,0.5531869530677795,0.5510438680648804,0.0,0.0,-0.3428084954901451,-0.7099998025053065
-0.082633301615715,0.8932966589927673,-0.4160999655723572,-0.9240331053733826,0.5821886658668518,0.5800343155860901,0.0,0.0,-0.8734308745378361,-0.9528661616486626
-0.0866551399230957,0.8720440864562988,-0.4283344149589538,-0.95638906955719,0.61338871717453,0.6240009069442749,0.0,0.0,-0.2361950427880994,0.6538788057959822
-0.0906737297773361,0.8501961827278137,-0.4262703061103821,-0.9827995300292968,0.6431388258934021,0.5950018167495728,0.0,0.0,0.6696856162673652,-0.6961767153164518
-0.0953445434570312,0.8285011649131775,-0.4920015931129455,-0.9770316481590272,0.6741933822631836,0.6210912466049194,0.0,0.0,-0.846173882484436,0.9998035430908204
-0.0999832153320312,0.8062491416931152,-0.4861494898796081,-1.0011703968048096,0.7026340365409851,0.568813681602478,0.0,0.0,-0.7358072996139526,0.9991095066070556
-0.1045902222394943,0.7834310531616211,-0.4805465340614319,-1.0256081819534302,0.7285534739494324,0.5183894038200378,0.0,0.0,-0.7718054056167603,0.9992890357971193
-0.1091711074113845,0.7600547671318054,-0.4755680561065674,-1.0495601892471311,0.7519079446792603,0.4670888483524322,0.0,0.0,-0.8052631616592407,0.9998364448547364
-0.1137355789542198,0.7360965609550476,-0.4720805287361145,-1.0747380256652832,0.7732145190238953,0.4261319637298584,0.0,0.0,-0.7733988165855408,0.9981662034988404
-0.1182780265808105,0.7115694880485535,-0.4678486883640289,-1.0990937948226929,0.7921369075775146,0.3784481585025787,0.0,0.0,-0.4663699865341186,0.9970824718475342
-0.1228004470467567,0.6864795684814453,-0.4638713002204895,-1.123080134391785,0.8085978627204895,0.3292191922664642,0.0,0.0,-0.7900930643081665,0.9840922355651855
-0.1273278295993805,0.6608135104179382,-0.4628981947898865,-1.1479105949401855,0.8232281804084778,0.2926065921783447,0.0,0.0,-0.8403415679931641,0.989803433418274
-0.1318615972995758,0.6345676183700562,-0.4621787071228027,-1.1728837490081787,0.8360855579376221,0.2571480274200439,0.0,0.0,-0.8797093629837036,0.9968503713607788
-0.1363869607448578,0.6077508330345154,-0.4597479701042175,-1.1972228288650513,0.8467479348182678,0.2132491171360016,0.0,0.0,-0.8850780725479126,0.9939467906951904
-0.1408925950527191,0.5803881287574768,-0.4557979702949524,-1.220096230506897,0.8545864224433899,0.1567700654268264,0.0,0.0,-0.8744977116584778,0.997389554977417
-0.1453991830348968,0.5524559020996094,-0.4544671475887298,-1.2443681955337524,0.8603305816650391,0.1148836016654968,0.0,0.0,-0.888168215751648,0.9982519149780272
-0.1498871743679046,0.5239703059196472,-0.4508026242256164,-1.2675747871398926,0.8633590340614319,0.0605706982314586,0.0,0.0,-0.9165419936180116,0.983873963356018
-0.1543743163347244,0.4949243664741516,-0.4491789937019348,-1.291300654411316,0.864075243473053,0.0143240187317132,0.0,0.0,-0.88821941614151,0.9935989379882812
-0.1588418036699295,0.4653315842151642,-0.4453306198120117,-1.3141292333602903,0.8619226813316345,-0.0430510230362415,0.0,0.0,-0.8547550439834595,0.9862226247787476
-0.1633100509643554,0.4351558685302734,-0.4441229701042175,-1.3390551805496216,0.857837975025177,-0.0816943943500518,0.0,0.0,-0.9014708399772644,0.9768075942993164
-0.1677711457014084,0.4044313430786133,-0.4416415095329284,-1.3621004819869995,0.8511080145835876,-0.1345997601747512,0.0,0.0,-0.863527774810791,0.8842635154724121
-0.1722247153520584,0.3731510043144226,-0.4391373693943023,-1.3855489492416382,0.8418383598327637,-0.1853925287723541,0.0,0.0,-0.8324825167655945,0.6612372398376465
-0.1766897141933441,0.3412869274616241,-0.4390220046043396,-1.4106504917144775,0.830807626247406,-0.2206149101257324,0.0,0.0,-0.6741423010826111,-0.0212833881378173
-0.1812010705471038,0.3087711334228515,-0.4435261189937591,-1.439639925956726,0.8197189569473267,-0.2217735946178436,0.0,0.0,-0.5629777312278748,-0.7618553042411804
-0.1857920587062835,0.2755405604839325,-0.4524730145931244,-1.47221577167511,0.8101616501808167,-0.1911460906267166,0.0,0.0,-0.3143839836120605,-0.8549657464027405
-0.1904847174882888,0.2415776401758194,-0.464089572429657,-1.5058658123016355,0.802787184715271,-0.1474882811307907,0.0,0.0,-0.3330530524253845,-0.8292179703712463
-0.1952579468488693,0.2069063335657119,-0.4731265902519226,-1.5380651950836182,0.7968342304229736,-0.1190594583749771,0.0,0.0,-0.3968019485473633,-0.7660602331161499
-0.2001180201768875,0.1715224832296371,-0.482900321483612,-1.5705097913742063,0.7924635410308838,-0.0874132364988327,0.0,0.0,-0.2997426390647888,-0.656149685382843
-0.2050573825836181,0.1354293227195739,-0.4918106496334076,-1.6027072668075562,0.7894800901412964,-0.0596690848469734,0.0,0.0,-0.2355777025222778,-0.3724600076675415
-0.2100436687469482,0.0986832678318023,-0.4964343607425689,-1.6316888332366943,0.7864096164703369,-0.0614096224308013,0.0,0.0,-0.0368472933769226,-0.6994544863700867
-0.2151175439357757,0.0612347684800624,-0.5061991810798645,-1.6635843515396118,0.7847517132759094,-0.0331579223275184,0.0,1.0,0.9841184616088868,0.9894576072692872
-0.2202270925045013,0.0244219154119491,-0.5125373601913452,-1.6517261266708374,0.7890735864639282,0.0325692519545555,0.0,1.0,0.9820177555084229,0.9602510929107666
-0.2214079350233078,0.0165047496557235,-0.2314246445894241,-0.3744138777256012,1.081123948097229,6.023731231689453,0.0,1.0,0.9820177555084229,0.9602510929107666
