x_pos,y_pos,x_vel,y_vel,angle,ang_vel,leg_1,leg_2,main_booster,lat_booster
-0.0015150069957599,1.4034849405288696,-0.1542079597711563,-0.330452412366867,0.0024252138100564,0.0478886291384696,0.0,0.0,-0.3885197043418884,0.9527808427810668
-0.0029404640663415,1.3959290981292725,-0.143525168299675,-0.3358170688152313,0.0033984500914812,0.0194674134254455,0.0,0.0,-0.4635519385337829,0.7044956684112549
-0.0042900084517896,1.3882285356521606,-0.1348769664764404,-0.3422511219978332,0.0033206336665898,-0.0015566177899017,0.0,0.0,-0.148720383644104,0.4343841075897217
-0.0056317327544093,1.3803883790969849,-0.1347425431013107,-0.3484569191932678,0.0038901029620319,0.0113901942968368,0.0,0.0,-0.0296754240989685,0.8627469539642334
-0.0068836212158203,1.3724117279052734,-0.1243169456720352,-0.3545124232769012,0.0030309632420539,-0.017184505239129,0.0,0.0,0.2383837699890136,0.3784334659576416
-0.008026790805161,1.364906668663025,-0.1145894154906272,-0.3335553705692291,0.0033044239971786,0.0054695843718945,0.0,0.0,-0.2833478450775146,0.7070095539093018
-0.009109878912568,1.3572622537612915,-0.1078587993979454,-0.339747816324234,0.0028657056391239,-0.008775289170444,0.0,0.0,-0.5811643004417419,0.6848692893981934
-0.0101196290925145,1.3494808673858645,-0.0994550436735153,-0.345842957496643,0.0013677991228178,-0.029961297288537,0.0,0.0,-0.5555421710014343,0.0826286077499389
-0.0111237522214651,1.341559886932373,-0.0995375365018844,-0.352045476436615,0.000497824512422,-0.0174011029303073,0.0,0.0,-0.3380423784255981,0.8303680419921875
-0.0120577812194824,1.3335044384002686,-0.0914818495512008,-0.358014851808548,-0.0013927317922934,-0.0378146320581436,0.0,0.0,-0.6205974221229553,0.0865863561630249
-0.0129874227568507,1.3253096342086792,-0.0916759818792343,-0.3642175495624542,-0.0026648163329809,-0.0254442207515239,0.0,0.0,-0.7676638960838318,0.578566312789917
-0.0138625148683786,1.3169739246368408,-0.0855421721935272,-0.3704844117164612,-0.004606117028743,-0.0388297103345394,0.0,0.0,-0.9292445182800292,-0.3806278705596924
-0.0147346500307321,1.3084986209869385,-0.0858616977930069,-0.3766869008541107,-0.0059401160106062,-0.0266825817525386,0.0,0.0,-0.8346490859985352,0.6800312995910645
-0.0155448913574218,1.299876689910889,-0.0787544474005699,-0.3832005262374878,-0.008176733739674,-0.0447366386651992,0.0,0.0,-0.9628462195396424,0.0240732431411743
-0.0163536071777343,1.291115403175354,-0.0792100578546524,-0.3894029259681701,-0.0098181646317243,-0.0328319743275642,0.0,0.0,-0.8042558431625366,0.745215892791748
-0.017092227935791,1.2822047472000122,-0.0710274949669838,-0.396051287651062,-0.0126197049394249,-0.0560360625386238,0.0,0.0,-0.8465269207954407,-0.0103863477706909
-0.0178309436887502,1.2731544971466064,-0.0716288834810257,-0.4022539258003235,-0.014839457347989,-0.0443987138569355,0.0,0.0,-0.9124698042869568,0.3678605556488037
-0.0185707099735736,1.2639646530151367,-0.0723098069429397,-0.4084562361240387,-0.0164858140051364,-0.0329303368926048,0.0,0.0,-0.7836686372756958,-0.2087923288345337
-0.0193123817443847,1.2546350955963137,-0.0730715095996856,-0.4146584272384643,-0.017566155642271,-0.0216087512671947,0.0,0.0,-0.9633484482765198,0.4756612777709961
-0.0200568195432424,1.2451658248901367,-0.0739160552620887,-0.4208604097366333,-0.0180884916335344,-0.0104478197172284,0.0,0.0,-0.9199094772338868,0.6710035800933838
-0.0207406990230083,1.2355600595474243,-0.0667788088321685,-0.4269416034221649,-0.0196761395782232,-0.0317559354007244,0.0,0.0,-0.8259499669075012,0.1458474397659301
-0.021429156884551,1.225814700126648,-0.0677889138460159,-0.4331439733505249,-0.0207220111042261,-0.0209193620830774,0.0,0.0,-0.915959894657135,-0.1897748708724975
-0.0221232417970895,1.215929627418518,-0.0688870772719383,-0.4393459260463714,-0.0212361682206392,-0.0102839674800634,0.0,0.0,-0.9790027141571044,0.4536161422729492
-0.0228239055722951,1.2059047222137451,-0.0700736492872238,-0.4455478489398956,-0.0212276820093393,0.000169654857018,0.0,0.0,-0.96346515417099,-0.3283843994140625
-0.0235321037471294,1.1957401037216189,-0.0713497400283813,-0.4517497718334198,-0.0207063313573598,0.010428063571453,0.0,0.0,-0.8893892765045166,0.1798510551452636
-0.0242492668330669,1.1854143142700195,-0.0727447867393493,-0.4589051604270935,-0.0196820627897977,0.0204852614551782,0.0,0.0,-0.9735776782035828,-0.1620441675186157
-0.0249758716672658,1.174949049949646,-0.0741981714963913,-0.4651049971580505,-0.0181653276085853,0.0303347762674093,0.0,0.0,-0.8894160985946655,0.7380419969558716
-0.0256670955568552,1.1643506288528442,-0.0699939802289009,-0.471033900976181,-0.0173156764358282,0.0169932320713996,0.0,0.0,-0.8821011781692505,0.1552255153656005
-0.0263700485229492,1.153612494468689,-0.0716257914900779,-0.4772338569164276,-0.0159953813999891,0.0264057125896215,0.0,0.0,-0.9117072224617004,0.5749239921569824
-0.0270416252315044,1.1427316665649414,-0.0678402036428451,-0.4835889041423797,-0.0153194982558488,0.0135175138711929,0.0,0.0,-0.9624136686325072,0.1564811468124389
-0.0277267452329397,1.1317111253738403,-0.0696505159139633,-0.4897889494895935,-0.0141961816698312,0.0224664807319641,0.0,0.0,-0.9805361032485962,0.7463088035583496
-0.0283750537782907,1.1205456256866455,-0.065101072192192,-0.4962435960769653,-0.0139301279559731,0.005321055650711,0.0,0.0,-0.966818630695343,-0.4974364638328552
-0.0290390010923147,1.1092405319213867,-0.0670884475111961,-0.5024436712265015,-0.0132410237565636,0.0137818753719329,0.0,0.0,-0.9701833128929138,0.323061466217041
-0.0297194477170705,1.097795844078064,-0.0691633448004722,-0.5086438059806824,-0.0121415266767144,0.0219900943338871,0.0,0.0,-0.993956983089447,0.3115191459655761
-0.0304175373166799,1.0862115621566772,-0.0713248401880264,-0.5148440003395081,-0.0106444917619228,0.0299406833946704,0.0,0.0,-0.9886199831962584,-0.3335676193237304
-0.0311342235654592,1.074487805366516,-0.0735718458890914,-0.5210443735122681,-0.0087630348280072,0.0376288779079914,0.0,0.0,-0.97478049993515,0.6046855449676514
-0.0318246856331825,1.0626208782196045,-0.0701624229550361,-0.5274160504341125,-0.0076607158407568,0.0220466889441013,0.0,0.0,-0.9700596332550048,0.5441606044769287
-0.0324898734688758,1.0506179332733154,-0.066829577088356,-0.5334595441818237,-0.0073512527160346,0.0061891940422356,0.0,0.0,-0.9634771347045898,0.6068117618560791
-0.0331315025687217,1.038481831550598,-0.0636899322271347,-0.5393878221511841,-0.0078256474807858,-0.0094877444207668,0.0,0.0,-0.979272484779358,-0.4814900159835815
-0.0337956435978412,1.0262060165405271,-0.0662648454308509,-0.5455881357192993,-0.0079700211063027,-0.0028871572576463,0.0,0.0,-0.957816243171692,0.5981607437133789
-0.0344440452754497,1.0137953758239746,-0.0640283674001693,-0.5515902638435364,-0.0087767662480473,-0.016135087236762,0.0,0.0,-0.9701625108718872,0.6690037250518799
-0.0350529663264751,1.001242756843567,-0.0587533488869667,-0.5579047799110413,-0.0108845606446266,-0.0421559587121009,0.0,0.0,-0.8743100166320801,-0.2238490581512451
-0.0356870666146278,0.9885506629943848,-0.0615552365779876,-0.5641053915023804,-0.0127043658867478,-0.0363963060081005,0.0,0.0,-0.9462355971336364,-0.4857387542724609
-0.0363470092415809,0.975719153881073,-0.0644284784793853,-0.5703060030937195,-0.0142503064125776,-0.0309187229722738,0.0,0.0,-0.9771944284439088,-0.9518906474113464
-0.0371142402291297,0.9627385139465332,-0.0774699002504348,-0.5769122838973999,-0.0135163571685552,0.014679042622447,0.0,0.0,-0.9883486032485962,-0.1469103693962097
-0.0379091277718544,0.9496182799339294,-0.0804787129163742,-0.5831125974655151,-0.0125366915017366,0.0195933990180492,0.0,0.0,-0.9223027229309082,0.902507185935974
-0.0386537536978721,0.9363521933555604,-0.0736869871616363,-0.5896148681640625,-0.0133021054789423,-0.0153082255274057,0.0,0.0,-0.9856443405151368,-0.2527084350585937
-0.0394274704158306,0.9229463934898376,-0.0768212229013443,-0.595815122127533,-0.013849688693881,-0.0109516270458698,0.0,0.0,-0.9883190989494324,-0.4320836067199707
-0.0402311310172081,0.9094010591506958,-0.0800141543149948,-0.602015495300293,-0.0141932060942053,-0.0068703866563737,0.0,0.0,-0.8744350671768188,-0.4518049359321594
-0.0410653129220008,0.8957163691520691,-0.0832629948854446,-0.6082159280776978,-0.014346276409924,-0.0030614358838647,0.0,0.0,-0.9723688960075378,0.0754494667053222
-0.0419306755065918,0.8818920254707336,-0.0865648761391639,-0.614416241645813,-0.014322331175208,0.0004789467493537,0.0,0.0,-0.9345170855522156,-0.1049757003784179
-0.0428278930485248,0.8679279685020447,-0.0899168774485588,-0.6206166744232178,-0.0141345830634236,0.0037549715489149,0.0,0.0,-0.9901176691055298,-0.2168603539466858
-0.0437576286494731,0.8538245558738708,-0.0933160260319709,-0.626816987991333,-0.0137959998100996,0.0067714727483689,0.0,0.0,-0.9542286396026612,-0.117785632610321
-0.044720459729433,0.8395814895629883,-0.0967592746019363,-0.633017361164093,-0.0133193032816052,0.0095336874946951,0.0,0.0,-0.9804093837738036,-0.6496658325195312
-0.0457555763423442,0.8251972794532776,-0.1050997823476791,-0.6392834782600403,-0.0117448167875409,0.0314897894859313,0.0,0.0,-0.9294623136520386,-0.559943437576294
-0.0468759536743164,0.8106721639633179,-0.1150654107332229,-0.6455446481704712,-0.0087667219340801,0.0595621094107627,0.0,0.0,-0.9936131834983826,0.4713442325592041
-0.0480309501290321,0.7960073947906494,-0.1186222210526466,-0.6517458558082581,-0.0056868470273911,0.0615978240966796,0.0,0.0,-0.9646701216697692,-0.6376556158065796
-0.049259852617979,0.781206488609314,-0.1270897090435028,-0.6578136682510376,-0.0015391815686598,0.0829532518982887,0.0,0.0,-0.8567075133323669,0.7204024791717529
-0.0504599586129188,0.7662733793258667,-0.1226642355322837,-0.6636940240859985,0.0010774504626169,0.0523327216506004,0.0,0.0,-0.8773026466369629,0.0077426433563232
-0.0516957268118858,0.751200795173645,-0.1263053864240646,-0.6698951721191406,0.0037627110723406,0.0537049770355224,0.0,0.0,-0.9374507069587708,0.4691305160522461
-0.052967645227909,0.7359888553619385,-0.1299679726362228,-0.6760963201522827,0.0065062898211181,0.0548716783523559,0.0,0.0,-0.9796459674835204,0.6874771118164062
-0.0542305000126361,0.7206414937973022,-0.1279602944850921,-0.6821141839027405,0.0081587610766291,0.0330494865775108,0.0,0.0,-0.8056030869483948,0.9715976715087892
-0.0554372780025005,0.7051533460617065,-0.120028018951416,-0.6883608102798462,0.0075219506397843,-0.0127362888306379,0.0,0.0,-0.6637163758277893,0.7759416103363037
-0.056616973131895,0.6895274519920349,-0.1157284379005432,-0.6944698095321655,0.0053116991184651,-0.044204868376255,0.0,0.0,-0.5545075535774231,0.4087473154067993
-0.057833481580019,0.6737622022628784,-0.1194419115781784,-0.7006707787513733,0.0031229492742568,-0.0437749847769737,0.0,0.0,-0.8672807812690735,0.8163719177246094
-0.0590357780456543,0.6578583121299744,-0.1167192235589027,-0.7068376541137695,-0.000342131301295,-0.0693015679717063,0.0,0.0,-0.0802052021026611,0.2275967597961425
-0.0602752678096294,0.6418150067329407,-0.1204365342855453,-0.7130392789840698,-0.0038014343008399,-0.0691862180829048,0.0,0.0,-0.4596623182296753,0.4640017747879028
-0.0615517608821392,0.6256324648857117,-0.1241501793265342,-0.7192407846450806,-0.0072621372528374,-0.0692141875624656,0.0,0.0,-0.292448341846466,0.2752983570098877
-0.0628655403852462,0.609310507774353,-0.1278563290834427,-0.7254422307014465,-0.0107309250161051,-0.0693760365247726,0.0,0.0,0.4164659976959228,0.8332278728485107
-0.0642370209097862,0.5934547781944275,-0.1318263560533523,-0.7047461867332458,-0.0159855186939239,-0.1050919070839881,0.0,0.0,-0.9426321983337402,0.6860537528991699
-0.0655994415283203,0.5774617195129395,-0.1297298371791839,-0.7108832001686096,-0.0224163495004177,-0.1286163479089737,0.0,0.0,-0.7088190317153931,0.4164886474609375
-0.0669987648725509,0.5613297820091248,-0.1333899497985839,-0.7170872092247009,-0.0288724564015865,-0.1291224062442779,0.0,0.0,-0.6834219098091125,0.7809441089630127
-0.0683859810233116,0.5450656414031982,-0.1309163868427276,-0.7230204343795776,-0.0365788340568542,-0.1541274785995483,0.0,0.0,0.2368518114089965,0.7559019327163696
-0.0696717277169227,0.5293042659759521,-0.1192870512604713,-0.7007572650909424,-0.0457523725926876,-0.1834708750247955,0.0,0.0,-0.8876013159751892,0.4212299585342407
-0.0709935203194618,0.5134044885635376,-0.1228641271591186,-0.7069650292396545,-0.054964106529951,-0.1842347085475921,0.0,0.0,-0.3414701223373413,-0.3657838702201843
-0.0723511725664138,0.4973663985729217,-0.1264048516750335,-0.7131729125976562,-0.0642173811793327,-0.1850657165050506,0.0,0.0,-0.4188491106033325,0.4790215492248535
-0.0737441033124923,0.4811899662017822,-0.1299046874046325,-0.719380795955658,-0.0735151022672653,-0.1859544813632965,0.0,0.0,-0.0925663709640502,0.4327495098114013
-0.0751721411943435,0.4648752510547638,-0.1333590149879455,-0.7255887985229492,-0.0828596726059913,-0.1868915855884552,0.0,0.0,0.5082252025604248,0.6222941875457764
-0.0764441490173339,0.4495258629322052,-0.1166455000638961,-0.6828150153160095,-0.0933178290724754,-0.2091629803180694,0.0,0.0,-0.4591277241706848,0.1659213304519653
-0.0777499228715896,0.4340384304523468,-0.1199947744607925,-0.6890251040458679,-0.1038262546062469,-0.2101684808731079,0.0,0.0,-0.0445718169212341,-0.1855714917182922
-0.0790891647338867,0.4184130430221557,-0.1232840418815612,-0.6952353119850159,-0.1143859922885894,-0.2111945897340774,0.0,0.0,-0.2430405020713806,-0.6573891043663025
-0.0805086120963096,0.4026636779308319,-0.1325145661830902,-0.7007230520248413,-0.1237713769078254,-0.1877079904079437,0.0,0.0,0.3835819959640503,-0.6806522607803345
-0.0820472687482833,0.3875206410884857,-0.1455790549516677,-0.6737335920333862,-0.1320138722658157,-0.1648496389389038,0.0,0.0,-0.1078642606735229,-0.4939414262771606
-0.0836171135306358,0.3722389936447143,-0.1486566066741943,-0.6799402832984924,-0.1403080970048904,-0.165884643793106,0.0,0.0,0.5451428890228271,-0.6301594972610474
-0.0851868614554405,0.3578063249588012,-0.1498503237962722,-0.6421409249305725,-0.1474190205335617,-0.1422184407711029,0.0,0.0,-0.3536874651908874,-0.6291149854660034
-0.0868282318115234,0.3432443141937256,-0.1580434590578079,-0.6478180289268494,-0.1535037904977798,-0.1216953843832016,0.0,0.0,0.3818075656890869,-0.5576848387718201
-0.0884773284196853,0.3289673626422882,-0.1599277555942535,-0.6350522637367249,-0.1584762334823608,-0.0994492247700691,0.0,0.0,0.7635033130645752,-0.6531978845596313
-0.0900321006774902,0.315170019865036,-0.1520109474658966,-0.6135879158973694,-0.1619336009025573,-0.0691476836800575,0.0,0.0,0.9192256927490234,-0.0711053609848022
-0.0913376808166503,0.3021740913391113,-0.1278500109910965,-0.57789546251297,-0.1646443009376526,-0.0542139038443565,0.0,0.0,0.772028923034668,0.1748737096786499
-0.0924518555402755,0.2896279394626617,-0.1093603819608688,-0.5578351616859436,-0.1667044162750244,-0.0412021018564701,0.0,0.0,0.8691232204437256,-0.5707390904426575
-0.093499943614006,0.2782166004180908,-0.1038407683372497,-0.5072774291038513,-0.1676757335662841,-0.0194259006530046,0.0,0.0,-0.3842237591743469,-0.7419252395629883
-0.0946251899003982,0.2666853964328766,-0.112934872508049,-0.5124542117118835,-0.1672680824995041,0.0081529365852475,0.0,0.0,-0.5660580992698669,-0.0328959822654724
-0.0957720726728439,0.2550146579742431,-0.1150713339447975,-0.5186551809310913,-0.1668906658887863,0.0075482218526303,0.0,0.0,0.3063042163848877,-0.3469225764274597
-0.0968177765607833,0.243566408753395,-0.1052896156907081,-0.5087299942970276,-0.1661703437566757,0.014406556263566,0.0,0.0,0.1216281652450561,0.6247444152832031
-0.0978160873055458,0.2324860244989395,-0.0992185398936271,-0.4925282895565033,-0.1667795777320861,-0.012184826657176,0.0,0.0,-0.7860851883888245,-0.6204789876937866
-0.0988723784685134,0.2212840467691421,-0.1060732156038284,-0.4978178739547729,-0.1663326323032379,0.0089391320943832,0.0,0.0,0.616710901260376,0.2965699434280395
-0.0998745933175087,0.2107719928026199,-0.100555919110775,-0.4671623408794403,-0.1660023033618927,0.0066064996644854,0.0,0.0,-0.3474897146224975,-0.4253090620040893
-0.1008909195661544,0.2001205533742904,-0.1019574999809265,-0.4733629822731018,-0.1656773835420608,0.006498378701508,0.0,0.0,-0.0224325060844421,0.1775753498077392
-0.1019196510314941,0.1893294900655746,-0.1031939983367919,-0.4795635342597961,-0.165352001786232,0.0065080500207841,0.0,0.0,0.5262434482574463,0.1416685581207275
-0.1028935462236404,0.1794367134571075,-0.0974986255168914,-0.4396704733371734,-0.1652488112449646,0.0020638694986701,0.0,0.0,-0.5001497268676758,-0.7994092106819153
-0.1039464920759201,0.1694277077913284,-0.1072319149971008,-0.4446291029453277,-0.1633082628250122,0.0388109870254993,0.0,0.0,0.786231517791748,0.8139798641204834
-0.1048847213387489,0.1600649505853653,-0.0940957888960838,-0.4160958230495453,-0.1630366742610931,0.0054313861764967,0.0,0.0,-0.3359095454216003,0.1247569322586059
-0.1058279052376747,0.1505625545978546,-0.0946166738867759,-0.4222960174083709,-0.1627384573221206,0.0059642540290951,0.0,0.0,0.5274002552032471,0.8270612955093384
-0.1067847236990928,0.1416573375463485,-0.0941238477826118,-0.3959570825099945,-0.1642934381961822,-0.0310996379703283,0.0,0.0,0.4076026678085327,-0.0168346166610717
-0.1075532883405685,0.1334964781999588,-0.0757556557655334,-0.3628281950950622,-0.1653899699449539,-0.021930718794465,0.0,0.0,-0.3024235963821411,-0.3384021520614624
-0.1083207130432128,0.1251959353685379,-0.0756894499063491,-0.3690281510353088,-0.1664379388093948,-0.020959373563528,0.0,0.0,0.530224084854126,0.4632689952850342
-0.108835220336914,0.117767721414566,-0.0510823726654052,-0.330185204744339,-0.1668083220720291,-0.0074075511656701,0.0,0.0,-0.1651950478553772,-0.5570988655090332
-0.1093888282775878,0.1102157682180404,-0.0562184527516365,-0.3355460464954376,-0.1659536808729171,0.0170928612351417,0.0,0.0,0.2880169153213501,-0.7292041182518005
-0.1097575202584266,0.103501446545124,-0.0394266210496425,-0.2981323897838592,-0.1633931845426559,0.0512098968029022,0.0,0.0,0.1027092933654785,-0.2928070425987243
-0.110003188252449,0.0972076952457428,-0.0274478793144226,-0.2794117927551269,-0.1605172008275985,0.0575200095772743,0.0,0.0,0.3774242401123047,0.1317828893661499
-0.1101340278983116,0.0917837023735046,-0.016023525968194,-0.2407534420490265,-0.1575809270143509,0.0587257966399192,0.0,0.0,-0.1844537258148193,0.1095795631408691
-0.1102507561445236,0.0862200856208801,-0.0147023666650056,-0.2469534426927566,-0.154548242688179,0.0606537945568561,0.0,0.0,0.4773329496383667,0.6896893978118896
-0.1101559624075889,0.0810901224613189,0.0075683472678065,-0.2278004735708236,-0.1526442915201187,0.038078885525465,0.0,0.0,-0.0847729444503784,0.1316890716552734
-0.1100425720214843,0.0758204758167266,0.0093161966651678,-0.2339998930692672,-0.1506273299455642,0.0403390601277351,0.0,0.0,0.0761401653289794,-0.048383891582489
-0.1099407225847244,0.0709272697567939,0.008429504930973,-0.2173020541667938,-0.1488758325576782,0.0350298509001731,0.0,0.0,0.1485668420791626,0.3761826753616333
-0.1097725853323936,0.0664789527654647,0.0150031596422195,-0.1975224018096923,-0.1470639258623123,0.0362381972372531,0.0,0.0,0.2335160970687866,0.7887649536132812
-0.1094374656677246,0.0624618642032146,0.033116664737463,-0.1784988194704055,-0.1466705501079559,0.0078676864504814,0.0,0.0,-0.2731642723083496,-0.1487811207771301
-0.1090749725699424,0.0583049394190311,0.0357017666101455,-0.1846975833177566,-0.14613077044487,0.0107954470440745,0.0,0.0,0.218194842338562,-0.3318403959274292
-0.1085385307669639,0.0547407492995262,0.0526095516979694,-0.1583077162504196,-0.1451039910316467,0.020535934716463,0.0,0.0,-0.191843032836914,0.5074968338012695
-0.1079288497567176,0.05103250592947,0.0608375184237957,-0.1647980660200119,-0.1449688225984573,0.0027034333907067,0.0,0.0,-0.2447351217269897,-0.760036051273346
