x_pos,y_pos,x_vel,y_vel,angle,ang_vel,leg_1,leg_2,main_booster,lat_booster
-0.0015235900646075,1.4030492305755615,-0.1543631255626678,-0.3498142063617706,0.0017942414851859,0.0353951714932918,0.0,0.0,0.009090640594189,-0.9720146119958176
-0.0030858993995934,1.395044207572937,-0.159947782754898,-0.3557852208614349,0.0054743299260735,0.0736093297600746,0.0,0.0,0.1079416958030496,0.7388526917362848
-0.0044890404678881,1.3868659734725952,-0.1426934152841568,-0.3634902536869049,0.007820582948625,0.0469293370842933,0.0,0.0,0.944160007009336,-0.9391409531050772
-0.0061254501342773,1.3789887428283691,-0.1675939857959747,-0.3501277565956116,0.0117415050044655,0.0784255266189575,0.0,0.0,-0.3137961034912264,0.7092724756429964
-0.0076939584687352,1.370539665222168,-0.1591165363788604,-0.3755330443382263,0.0139803513884544,0.0447811223566532,0.0,0.0,0.7102989166688589,-0.8012151625645507
-0.0091767311096191,1.3623597621917725,-0.1524964869022369,-0.3635980784893036,0.0181468557566404,0.0833379551768302,0.0,0.0,-0.4231996623312839,0.9196307012302044
-0.0105897905305027,1.3536064624786377,-0.1437691003084182,-0.3890644311904907,0.0205814018845558,0.0486955307424068,0.0,0.0,0.9404861681294848,-0.9673635181857536
-0.0119001390412449,1.3454245328903198,-0.135824054479599,-0.3637212514877319,0.0253170635551214,0.0947219431400299,0.0,0.0,0.2853778418197061,-0.7865160130332365
-0.0132995601743459,1.3376495838165283,-0.1463126838207245,-0.3456755876541137,0.031616773456335,0.1260057687759399,0.0,0.0,-0.2876025697423756,-0.8359250783403656
-0.0147648807615041,1.3293020725250244,-0.1546044647693634,-0.3711886405944824,0.0395964123308658,0.1596076637506485,0.0,0.0,0.6627854941904985,-0.5822417253596784
-0.0162065513432025,1.3212803602218628,-0.153665229678154,-0.3567919135093689,0.0489980317652225,0.188049629330635,0.0,0.0,-0.9537939958425854,0.9943295303810818
-0.0175606720149517,1.3126888275146484,-0.1427073776721954,-0.3821025192737579,0.05621799826622,0.1444125473499298,0.0,0.0,0.7192359449291625,0.6746882897496637
-0.0187558177858591,1.3046331405639648,-0.1258279830217361,-0.3582771718502044,0.0624735429883003,0.125122457742691,0.0,0.0,-0.6076307510216707,0.8025879515121661
-0.0198801048099994,1.2960017919540403,-0.1169741153717041,-0.3838168680667877,0.066977173089981,0.0900804474949836,0.0,0.0,0.7121002200559479,0.8706995676388015
-0.0208313949406147,1.2881062030792236,-0.0982325598597526,-0.3510570228099823,0.0700569227337837,0.0616005845367908,0.0,0.0,-0.7437574797752609,0.7917316899063209
-0.0217082984745502,1.27963387966156,-0.0889489203691482,-0.3766127526760101,0.071303091943264,0.0249254144728183,0.0,0.0,-0.9902919043934946,-0.7522697714533363
-0.0226310733705759,1.2705901861190796,-0.0947187840938568,-0.4020568132400512,0.0737238451838493,0.0484196916222572,0.0,0.0,0.6703188947164935,-0.8418898593713053
-0.0234881397336721,1.261541485786438,-0.0901430398225784,-0.4023925364017486,0.0781217813491821,0.0879669934511184,0.0,0.0,0.0136085093622153,0.8034080253480911
-0.0242509841918945,1.252677321434021,-0.0791539847850799,-0.3941183984279632,0.0809631571173667,0.0568325445055961,0.0,0.0,-0.1026226588164267,0.7342126386101244
-0.0249634739011526,1.24324369430542,-0.0728698596358299,-0.4193634390830993,0.0825635939836502,0.0320116989314556,0.0,0.0,-0.302984215090365,0.9453322138229828
-0.0255860332399606,1.233253002166748,-0.0615876801311969,-0.4439950585365295,0.0819059163331985,-0.0131545243784785,0.0,0.0,0.1264489210493706,0.6099576309516774
-0.0261757858097553,1.2231416702270508,-0.0571242496371269,-0.4492897093296051,0.0800730288028717,-0.0366611182689666,0.0,0.0,-0.0943129395722783,0.836971578021787
-0.0266848560422658,1.2124637365341189,-0.0470483154058456,-0.4743706583976745,0.0762390196323394,-0.0766870528459549,0.0,0.0,0.5327781374493072,0.912069702329341
-0.0270702354609966,1.201650619506836,-0.0329575948417186,-0.4803054928779602,0.0707068964838981,-0.1106522530317306,0.0,0.0,-0.8995406612077272,-0.9970821228497616
-0.0275526046752929,1.190255045890808,-0.0451544895768165,-0.506328821182251,0.0676517486572265,-0.0611085407435894,0.0,0.0,0.9578312067659608,0.5725331798474036
-0.0282283779233694,1.1795008182525637,-0.0628277510404586,-0.4777595698833465,0.0629556477069854,-0.0939216166734695,0.0,0.0,0.1353917419783683,0.8340750927884957
-0.0288665778934955,1.168931007385254,-0.0574234127998352,-0.4695160686969757,0.0566230826079845,-0.1266513168811798,0.0,0.0,0.3031668411808181,0.6795024511724128
-0.0296027176082134,1.1587635278701782,-0.0656704530119896,-0.4516113400459289,0.0487767979502677,-0.156925767660141,0.0,0.0,-0.2616839179029646,-0.7148732442736705
-0.0304075237363576,1.148022174835205,-0.0743219703435897,-0.4771974384784698,0.0426836125552654,-0.121863804757595,0.0,0.0,0.227514292167233,0.9017316678975622
-0.0311744697391986,1.1372495889663696,-0.0687179490923881,-0.478581041097641,0.0348107777535915,-0.1574566066265106,0.0,0.0,0.1102812506958916,-0.7781652365401401
-0.0320082679390907,1.1267616748809814,-0.0770117491483688,-0.4659967720508575,0.0285181980580091,-0.1258515268564224,0.0,0.0,-0.9601719975471495,-0.170067548751831
-0.0328420624136924,1.115699052810669,-0.0770254656672477,-0.4915623664855957,0.0222490951418876,-0.1253822147846222,0.0,0.0,-0.7819845080375671,-0.9639225006103516
-0.0337626449763774,1.1040679216384888,-0.0879356786608696,-0.5168870687484741,0.0181825030595064,-0.0813318714499473,0.0,0.0,-0.5930400490760803,-0.2737375497817993
-0.0346831306815147,1.0918617248535156,-0.0879549831151962,-0.5424507260322571,0.0141393179073929,-0.080863669514656,0.0,0.0,-0.9710670113563538,-0.3452829122543335
-0.0356036201119422,1.0790807008743286,-0.0879772454500198,-0.5680143237113953,0.0101195089519023,-0.0803960338234901,0.0,0.0,-0.7388010025024414,-0.669385552406311
-0.0365755073726177,1.065729022026062,-0.0944513231515884,-0.5933983325958252,0.007413753774017,-0.054115243256092,0.0,0.0,-0.9969751238822936,0.5477222204208374
-0.0375060066580772,1.051799774169922,-0.0892769545316696,-0.6190599203109741,0.0036896185483783,-0.0744824856519699,0.0,0.0,-0.9848646521568298,-0.7687323689460754
-0.0384936332702636,1.0373011827468872,-0.096460610628128,-0.6443778872489929,0.001420649816282,-0.04537970200181,0.0,0.0,-0.9008392095565796,-0.7664188742637634
-0.0395460128784179,1.022235870361328,-0.104603923857212,-0.6695699095726013,0.0007984014810062,-0.0124451722949743,0.0,0.0,-0.9384261965751648,-0.3583393096923828
-0.0405985824763774,1.0065953731536863,-0.1046429723501205,-0.6951320767402649,0.0001993039186345,-0.0119821410626173,0.0,0.0,-0.6774550676345825,-0.5181261897087097
-0.041699506342411,0.9903841614723206,-0.110742449760437,-0.7205010056495667,0.0008362318039871,0.012738449499011,0.0,0.0,-0.3616315126419067,0.0910230875015258
-0.0428007133305072,0.9735977053642272,-0.1107890009880065,-0.746063232421875,0.0014961753040552,0.01319879014045,0.0,0.0,0.4681824445724487,0.1206872463226318
-0.0438162796199321,0.9566542506217957,-0.1026508659124374,-0.7530375123023987,0.0025784443132579,0.0216452050954103,0.0,0.0,-0.2825486660003662,-0.2640179395675659
-0.04483213275671,0.9391357898712158,-0.1027052998542785,-0.778599739074707,0.0036835465580224,0.02210234105587,0.0,0.0,0.2830411195755005,0.0180459022521972
-0.0458806976675987,0.9213851690292358,-0.1058558374643325,-0.7889226675033569,0.0046654040925204,0.0196371730417013,0.0,0.0,0.838109016418457,0.1311354637145996
-0.0468804351985454,0.9036173224449158,-0.1012189835309982,-0.7896856665611267,0.0059063574299216,0.0248188879340887,0.0,0.0,0.5449423789978027,0.503403902053833
-0.0477819442749023,0.8858993053436279,-0.090588092803955,-0.7874681353569031,0.0063312933780252,0.008498796261847,0.0,0.0,-0.6045929193496704,0.1962213516235351
-0.0486840233206748,0.8676061034202576,-0.0906592011451721,-0.8130303621292114,0.0067786634899675,0.0089474273845553,0.0,0.0,0.9082460403442384,0.1464160680770874
-0.0497459396719932,0.8501017689704895,-0.1059543490409851,-0.7779719233512878,0.0065393932163715,-0.0047852960415184,0.0,0.0,0.627551794052124,-0.5164122581481934
-0.0508749969303607,0.8327718377113342,-0.1136541813611984,-0.7702285051345825,0.0072888340801,0.014988750219345,0.0,0.0,0.1000910997390747,0.4260177612304687
-0.0519118309020996,0.8154380321502686,-0.1049106121063232,-0.770397961139679,0.0085020745173096,0.0242647044360637,0.0,0.0,-0.4143139123916626,0.6209542751312256
-0.0529047958552837,0.7975337505340576,-0.0994251817464828,-0.7957444787025452,0.0086202155798673,0.0023629050701856,0.0,0.0,0.2095141410827636,-0.233883798122406
-0.0538213737308979,0.7795435190200806,-0.0921695828437805,-0.799565851688385,0.0091302432119846,0.0102002089843153,0.0,0.0,0.5913012027740479,0.6188396215438843
-0.0546934120357036,0.7621370553970337,-0.0864984914660453,-0.7736157774925232,0.0084385387599468,-0.0138339521363377,0.0,0.0,0.2886664867401123,0.0679460763931274
-0.0554532036185264,0.7447274327278137,-0.0758425369858741,-0.7737628221511841,0.0083056902512907,-0.0026568805333226,0.0,0.0,-0.1181110143661499,0.4116413593292236
-0.0562138557434082,0.7267426252365112,-0.0759486332535743,-0.7993249893188477,0.008193883113563,-0.0022363355383276,0.0,0.0,0.8126211166381836,0.4440335035324096
-0.0568793304264545,0.709495484828949,-0.0669412761926651,-0.7665414214134216,0.0085799433290958,0.0077213421463966,0.0,0.0,0.304448127746582,0.1629755496978759
-0.0574413314461708,0.692473292350769,-0.0571257770061492,-0.7565450072288513,0.0094905430451035,0.0182121954858303,0.0,0.0,-0.0978413820266723,0.4576187133789062
-0.0580043792724609,0.6748759746551514,-0.0572447963058948,-0.7821072340011597,0.010421403683722,0.0186172369867563,0.0,0.0,0.534246563911438,0.8716623783111572
-0.0585865974426269,0.6578056812286377,-0.0573117546737194,-0.7586802840232849,0.0095304995775222,-0.0178183540701866,0.0,0.0,0.2571215629577636,0.3202061653137207
-0.0591335296630859,0.640583336353302,-0.0539940893650054,-0.7654348611831665,0.0088394088670611,-0.0138219613581895,0.0,0.0,0.58347487449646,0.4917967319488525
-0.059783648699522,0.623792827129364,-0.0638776868581771,-0.7462342977523804,0.0077230194583535,-0.022327821701765,0.0,0.0,0.0341098308563232,0.4870434999465942
-0.0603600516915321,0.6069137454032898,-0.0568936988711357,-0.7501785755157471,0.0069831851869821,-0.0147967441007494,0.0,0.0,0.6965060234069824,0.9062857627868652
-0.0608433708548545,0.5904060006141663,-0.0458135232329368,-0.7336671948432922,0.0045010345056653,-0.0496432706713676,0.0,0.0,0.1167964935302734,0.9541103839874268
-0.0612472519278526,0.5737231373786926,-0.0359748043119907,-0.741449236869812,0.0001396501611452,-0.0872275903820991,0.0,0.0,0.5015089511871338,0.7333705425262451
-0.0617189407348632,0.5572717785835266,-0.0410657152533531,-0.731185793876648,-0.0058830105699598,-0.1204532012343406,0.0,0.0,0.7677420377731323,-0.3966152667999267
-0.0621635429561138,0.5416190028190613,-0.0384853109717369,-0.6957147121429443,-0.01178212556988,-0.1179821714758873,0.0,0.0,-0.0976001024246215,0.1082994937896728
-0.0626094788312912,0.5253915190696716,-0.0386395566165447,-0.7212797999382019,-0.0176643282175064,-0.117644228041172,0.0,0.0,0.772554874420166,-0.165749192237854
-0.0630116462707519,0.509962260723114,-0.0344126895070076,-0.6858265995979309,-0.0233960039913654,-0.1146334260702133,0.0,0.0,-0.1074159741401672,-0.3691728115081787
-0.0634152442216873,0.4939582049846649,-0.0345737822353839,-0.7113915085792542,-0.0291117709130048,-0.1143151298165321,0.0,0.0,0.9505367279052734,-0.133691668510437
-0.0639054328203201,0.4785829186439514,-0.0427374728024005,-0.683483898639679,-0.0353136658668518,-0.1240378469228744,0.0,0.0,0.7930867671966553,0.0923336744308471
-0.0643398314714431,0.4636436700820923,-0.0373376719653606,-0.6641224026679993,-0.0413463152945041,-0.1206527575850486,0.0,0.0,-0.1347588896751403,0.0423947572708129
-0.0647758468985557,0.4481297731399536,-0.0375082306563854,-0.6896875500679016,-0.0473646633327007,-0.1203670278191566,0.0,0.0,0.9564387798309326,-0.617015540599823
-0.0651369094848632,0.4330624639987945,-0.0315304175019264,-0.6698067784309387,-0.0518890246748924,-0.0904870703816413,0.0,0.0,0.7788383960723877,-0.2883844971656799
-0.0655139908194542,0.4180539846420288,-0.0329767279326915,-0.6672164797782898,-0.0565682500600814,-0.0935845002532005,0.0,0.0,0.8990298509597778,-0.7653467059135437
-0.0658474937081337,0.4030199348926544,-0.0303644780069589,-0.668296754360199,-0.0595239140093326,-0.0591133944690227,0.0,0.0,0.9431960582733154,-0.1892961859703064
-0.0661961585283279,0.3880118727684021,-0.0317058004438877,-0.6671510338783264,-0.0626396760344505,-0.0623153932392597,0.0,0.0,0.8797910213470459,-0.082000732421875
-0.0664994269609451,0.3737807869911194,-0.0271428041160106,-0.6326280832290649,-0.0657883286476135,-0.0629731267690658,0.0,0.0,0.8793953657150269,-0.3716135025024414
-0.0666525810956955,0.3603547215461731,-0.0125655587762594,-0.5968395471572876,-0.0685053244233131,-0.0543399155139923,0.0,0.0,0.9728083610534668,-0.6987572908401489
-0.0669393539428711,0.3478414714336395,-0.0269919969141483,-0.556220293045044,-0.0701802745461463,-0.0334988795220851,0.0,0.0,0.2716498374938965,0.3748211860656738
-0.0673094764351844,0.3351451754570007,-0.0348626747727394,-0.564384400844574,-0.0723067373037338,-0.0425294190645217,0.0,0.0,0.7698361873626709,-0.0967993140220642
-0.0675771683454513,0.3231358826160431,-0.0248261932283639,-0.53383868932724,-0.07422486692667,-0.0383625961840152,0.0,0.0,0.9354772567749025,0.2591712474822998
-0.0679149627685546,0.3115733563899994,-0.0313016064465045,-0.5140184164047241,-0.0766843631863594,-0.0491900891065597,0.0,0.0,-0.3470715284347534,-0.1643368005752563
-0.068254753947258,0.2994356751441955,-0.031497549265623,-0.5395810008049011,-0.0791367813944816,-0.0490484647452831,0.0,0.0,0.8987473249435425,-0.6612613201141357
-0.0685995072126388,0.2879359424114227,-0.0333032570779323,-0.5111634135246277,-0.0803023055195808,-0.0233102906495332,0.0,0.0,-0.0359928011894226,-0.7806199789047241
-0.0689989104866981,0.2758674919605255,-0.0401090458035469,-0.5363649129867554,-0.080132395029068,0.0033984282054007,0.0,0.0,0.8316229581832886,-0.6807802319526672
-0.0693956390023231,0.2637876868247986,-0.0412825867533683,-0.5367933511734009,-0.0785352513194084,0.0319425538182258,0.0,0.0,0.7451207637786865,0.3521468639373779
-0.0696632415056228,0.2517572343349457,-0.0288354251533746,-0.5345777869224548,-0.0764806568622589,0.0410918816924095,0.0,0.0,0.624558687210083,0.0995857715606689
-0.069745734333992,0.2399749606847763,-0.0109973279759287,-0.523517906665802,-0.0737532749772071,0.0545474775135517,0.0,0.0,0.904044508934021,-0.1423990726470947
-0.0696364417672157,0.2282798886299133,0.0074205799028277,-0.5196136832237244,-0.0702798590064048,0.0694681257009506,0.0,0.0,0.9235794544219972,0.6027312278747559
-0.069426916539669,0.2173186689615249,0.0186676997691392,-0.4870613515377044,-0.0680225640535354,0.0451457127928733,0.0,0.0,0.4529175758361816,0.8192663192749023
-0.0690786391496658,0.2067770808935165,0.0341472178697586,-0.4684841334819793,-0.067351333796978,0.0134243834763765,0.0,0.0,0.6337237358093262,-0.6813445091247559
-0.068607710301876,0.196642056107521,0.0447508245706558,-0.4503430128097534,-0.0650330334901809,0.0463662184774875,0.0,0.0,0.3563809394836426,-0.6701439619064331
-0.0680831894278526,0.186322271823883,0.0486026331782341,-0.4584914147853851,-0.0612224638462066,0.0762110501527786,0.0,0.0,0.4351749420166015,-0.1053816080093383
-0.0675792694091796,0.176094114780426,0.046759758144617,-0.4544416964054107,-0.0576234497129917,0.0719802305102348,0.0,0.0,0.4995911121368408,0.307369589805603
-0.06695556640625,0.1664570420980453,0.058373749256134,-0.4281648099422455,-0.0536701194941997,0.0790667384862899,0.0,0.0,-0.1756435632705688,-0.6240715384483337
-0.0663850754499435,0.1562491208314895,0.0517363660037517,-0.4535078406333923,-0.0484284274280071,0.1048337444663047,0.0,0.0,0.847057580947876,-0.089759349822998
-0.0659127235412597,0.1468088179826736,0.0425903536379337,-0.4194231331348419,-0.0438324436545372,0.0919196903705596,0.0,0.0,0.479063868522644,-0.7774730920791626
-0.0653895363211631,0.1377323716878891,0.0459539331495761,-0.4032275378704071,-0.0375549606978893,0.1255496889352798,0.0,0.0,0.5720105171203613,-0.1474496722221374
-0.0648926720023155,0.129154160618782,0.0435746908187866,-0.3811128735542297,-0.0315164066851139,0.1207709908485412,0.0,0.0,0.1503820419311523,0.5130405426025391
-0.0644039139151573,0.1207876801490783,0.0439215265214443,-0.3717496991157532,-0.0266280360519886,0.0977676957845687,0.0,0.0,0.2260434627532959,0.1387504339218139
-0.06392602622509,0.1124011576175689,0.0429378971457481,-0.3726551830768585,-0.0218293201178312,0.095974214375019,0.0,0.0,0.3982502222061157,0.4798929691314697
-0.0635377913713455,0.1042063310742378,0.0344320349395275,-0.3641581535339355,-0.0174921154975891,0.0867439433932304,0.0,0.0,0.8401327133178711,0.3204652070999145
-0.0633089989423751,0.0963158458471298,0.0192723535001277,-0.3506516516208648,-0.0139354495331645,0.0711332038044929,0.0,0.0,0.6710245609283447,0.8897793292999268
-0.0628822296857833,0.0889417752623558,0.0406824611127376,-0.3277216255664825,-0.0119693707674741,0.0393216051161289,0.0,0.0,0.1675217151641845,0.5953352451324463
-0.06235933303833,0.0813767313957214,0.0514276921749115,-0.3362184464931488,-0.0111135868355631,0.0171159021556377,0.0,0.0,0.8216345310211182,0.0763416290283203
-0.0616692528128623,0.0744955390691757,0.0674003660678863,-0.305817574262619,-0.009524505585432,0.0317815467715263,0.0,0.0,-0.0104376077651977,-0.0650502443313598
-0.060981273651123,0.067039281129837,0.0671929344534874,-0.3313799798488617,-0.0079422947019338,0.0316444933414459,0.0,0.0,0.8740489482879639,0.2483799457550048
-0.0601258277893066,0.0604599341750144,0.083185888826847,-0.2924075126647949,-0.0056186518631875,0.0464728996157646,0.0,0.0,0.197497010231018,0.2781033515930176
-0.0592148788273334,0.0539350844919681,0.088488295674324,-0.2899828553199768,-0.0030467831529676,0.0514374487102031,0.0,0.0,0.5548661947250366,-0.4207203388214111
-0.0583105087280273,0.047987874597311,0.0878734961152076,-0.264317512512207,-0.000514238839969,0.0506508760154247,0.0,0.0,-0.0553801655769348,-0.2582303881645202
-0.0574081428349018,0.0414656735956668,0.0876699984073638,-0.2898802459239959,0.00201011961326,0.0504871793091297,0.0,0.0,0.8132731914520264,0.828865647315979
-0.0563461296260356,0.0351194255053997,0.1051294580101966,-0.2820562422275543,0.0030662978533655,0.0211236365139484,0.0,0.0,0.8550592660903931,-0.5738885998725891
-0.055480383336544,0.0292395930737257,0.0847720056772232,-0.2613323926925659,0.0048513570800423,0.035700999200344,0.0,0.0,0.7326161861419678,0.1045501232147216
-0.0547538772225379,0.0235933642834424,0.0714818090200424,-0.2509475946426391,0.0060046785511076,0.0230662431567907,0.0,0.0,0.849586009979248,0.5387089252471924
-0.0540162101387977,0.0183184966444969,0.0737675279378891,-0.234439805150032,0.0060042524710297,-8.578812412451953e-06,0.0,0.0,0.6129679679870605,0.0057892799377441
-0.0532584190368652,0.0132498359307646,0.0756772980093956,-0.2252728343009948,0.006111642345786,0.0021477092523127,0.0,0.0,0.7071027755737305,0.5389060974121094
-0.0523179993033409,0.0081601832062006,0.0946330800652504,-0.2262044847011566,0.0055296132341027,-0.0116404574364423,0.0,0.0,0.8154571056365967,0.0500147342681884
-0.0512765869498252,0.0036233162973076,0.1042371243238449,-0.2016384899616241,0.005433153361082,-0.0019291531061753,0.0,0.0,0.7702504396438599,-0.606847882270813
-0.0502610206604003,-0.0001866006787167,0.1003642082214355,-0.1693338453769683,0.0066072191111743,0.0234815888106822,0.0,0.0,0.5037479400634766,-0.2091023921966552
-0.0492881760001182,-0.0034482383634895,0.1149823069572448,-0.1449715942144394,-0.0108427992090582,-0.3489749133586883,1.0,1.0,0.96868097782135,-0.9685919284820556
