x_pos,y_pos,x_vel,y_vel,angle,ang_vel,leg_1,leg_2,main_booster,lat_booster
-0.0015087127685546,1.4033939838409424,-0.1527774780988693,-0.3344923555850982,0.0017010580049827,0.0335505679249763,0.0,0.0,-0.8650158521495224,0.8848471821485234
-0.0029271126259118,1.3956564664840698,-0.1415351927280426,-0.3438874185085296,0.0013984506949782,-0.006052047945559,0.0,0.0,-0.2937962811417205,-0.6613587063666082
-0.0043709753081202,1.3876831531524658,-0.1450416147708892,-0.3543709814548492,0.0020553639624267,0.0131394220516085,0.0,0.0,0.6181124652189798,0.6454369742276024
-0.0058765411376953,1.3802109956741333,-0.1495623290538787,-0.3320949375629425,0.0010686998721212,-0.0197353847324848,0.0,0.0,-0.0607782239507568,-0.7570231075753396
-0.0074137686751782,1.372510552406311,-0.1538553237915039,-0.3422416150569916,0.0012051359517499,0.0027289285790175,0.0,0.0,0.3101601355864958,0.976069360295332
-0.0087331775575876,1.365224838256836,-0.1301445364952087,-0.3238123953342438,-0.0005636138375848,-0.0353784337639808,0.0,0.0,0.3684204734445633,-0.8787799285043812
-0.0101273534819483,1.3584259748458862,-0.1393096148967743,-0.3021683990955353,-0.000666647683829,-0.0020611018408089,0.0,0.0,-0.2207975279473535,0.6292992319576511
-0.0114443777129054,1.351398468017578,-0.1299719363451004,-0.3123355805873871,-0.0023726026993244,-0.0341224186122417,0.0,0.0,0.0620599755935822,0.6337773846779159
-0.0127033237367868,1.344954252243042,-0.1228542178869247,-0.2864144742488861,-0.0053879977203905,-0.060313481837511,0.0,0.0,-0.9255841142446836,0.6449326756547221
-0.0138959884643554,1.3382834196090698,-0.1148927956819534,-0.2965076565742492,-0.0097180362790822,-0.086608275771141,0.0,0.0,-0.8981898555814014,0.6639823424281383
-0.015013312920928,1.3313820362091064,-0.1057922467589378,-0.3067754209041595,-0.0155856516212224,-0.1173628345131874,0.0,0.0,0.0637005497459366,0.9913840241332672
-0.0159767158329486,1.3247559070587158,-0.0883735939860344,-0.2945988774299621,-0.0234617181122303,-0.1575361341238021,0.0,0.0,-0.1002402260656338,-0.8405790863025577
-0.0169760696589946,1.3179060220718384,-0.0932740792632103,-0.304557204246521,-0.0300533939152956,-0.131845623254776,0.0,0.0,0.7846362934941498,0.8849856106694061
-0.0177959445863962,1.3113864660263062,-0.073677584528923,-0.2899410128593445,-0.0382686965167522,-0.1643210351467132,0.0,0.0,0.0859470430088686,0.8826696905919513
-0.0184001922607421,1.3054487705230713,-0.0503748878836631,-0.2641893029212951,-0.0482171848416328,-0.1989881992340088,0.0,0.0,0.7933296258601059,0.8826362914365298
-0.018772030249238,1.299740433692932,-0.0256050527095794,-0.2541140019893646,-0.0596823468804359,-0.2293239384889602,0.0,0.0,-0.1833215706143967,-0.8985530754791194
-0.0191818233579397,1.2938183546066284,-0.0308028012514114,-0.2636305689811706,-0.0697652027010917,-0.2016753852367401,0.0,0.0,-0.4910794510732879,0.8204627160038925
-0.0194958690553903,1.2876522541046145,-0.0192049760371446,-0.2746559083461761,-0.0818564146757125,-0.2418463677167892,0.0,0.0,-0.2804043466307604,-0.7538963707237323
-0.0198428146541118,1.281270980834961,-0.0238024722784757,-0.2842541337013244,-0.0926685780286789,-0.2162627726793289,0.0,0.0,0.4604582306630549,-0.6499745495414546
-0.0202561374753713,1.2754249572753906,-0.0316099599003791,-0.2604400813579559,-0.102322407066822,-0.1930943429470062,0.0,0.0,-0.4607495823426586,-0.8897125164647162
-0.0207077022641897,1.269364595413208,-0.0368894152343273,-0.269936203956604,-0.1105432882905006,-0.1644319593906402,0.0,0.0,0.3610300479721231,0.8472283114691236
-0.0210255626589059,1.2636007070541382,-0.0218871850520372,-0.2569398283958435,-0.1204012408852577,-0.1971769630908966,0.0,0.0,-0.4719853598292676,0.8038017009594224
-0.0212504379451274,1.2575925588607788,-0.01068708114326,-0.2680214345455169,-0.1321569383144378,-0.2351349145174026,0.0,0.0,-0.5358739752654802,-0.67683275434596
-0.0215061195194721,1.2513573169708252,-0.0150534240528941,-0.2780852317810058,-0.142660841345787,-0.2100964784622192,0.0,0.0,-0.9740152589093792,-0.6583752068383699
-0.0218089111149311,1.2449082136154177,-0.0214563757181167,-0.2874928116798401,-0.1514692902565002,-0.1761844158172607,0.0,0.0,0.9236628829547142,-0.8008217282340407
-0.0222187042236328,1.2394843101501465,-0.0334473364055156,-0.2418510466814041,-0.1589935421943664,-0.1504850089550018,0.0,0.0,-0.4460117287043788,-0.7376498589013982
-0.0226688385009765,1.2338485717773438,-0.0390520915389061,-0.2511244714260101,-0.1649616658687591,-0.119362436234951,0.0,0.0,0.9632064589813084,-0.7656124378940543
-0.0231666564941406,1.2294979095458984,-0.0450589098036289,-0.1938935369253158,-0.1696813702583313,-0.0943939462304115,0.0,0.0,0.7705621364089235,0.953130625201326
-0.0235865600407123,1.226172685623169,-0.0352606996893882,-0.1485770493745803,-0.176433190703392,-0.1350364089012146,0.0,0.0,0.794738548836327,0.6667360012276781
-0.0238699913024902,1.223389744758606,-0.0203309096395969,-0.1246599927544593,-0.1844662129878997,-0.1606603860855102,0.0,0.0,0.0754989534084262,-0.6937114039496323
-0.0240751262754201,1.2212083339691162,-0.0140460385009646,-0.0977684631943702,-0.190963327884674,-0.1299420595169067,0.0,0.0,0.0568612864307238,0.6086463081322997
-0.0242189411073923,1.2192084789276123,-0.0067674457095563,-0.0898816138505935,-0.1986209005117416,-0.1531514376401901,0.0,0.0,-0.1068871552480033,0.8546096147146307
-0.0242882724851369,1.2169694900512695,0.0019965949468314,-0.1007378995418548,-0.2076080441474914,-0.1797432750463485,0.0,0.0,0.53911691820465,0.606303837645234
-0.0242888443171978,1.2149937152862549,0.0100442422553896,-0.0892648920416832,-0.2178075015544891,-0.2039898931980133,0.0,0.0,-0.1784602977011016,-0.89530613834291
-0.0243399627506732,1.2128121852874756,0.0030752958264201,-0.0981832295656204,-0.2260851711034774,-0.1655534207820892,0.0,0.0,0.6844510809390012,-0.6609596258002927
-0.024232292547822,1.211543321609497,0.0173937994986772,-0.0574232749640941,-0.2328047305345535,-0.1343913823366165,0.0,0.0,0.9337652902332452,0.6570098750751774
-0.0239676479250192,1.2108123302459717,0.034288041293621,-0.0337496809661388,-0.240749329328537,-0.1588915586471557,0.0,0.0,0.0378406621826366,0.6965198298627688
-0.0234920494258403,1.2105237245559692,0.0565403290092945,-0.0143326725810766,-0.2498765289783477,-0.1825442910194397,0.0,0.0,0.8515512794213833,0.9715575505954116
-0.0227380748838186,1.211377739906311,0.0861280485987663,0.0360934324562549,-0.2608264088630676,-0.2189977467060089,0.0,0.0,-0.3295241691884614,-0.7205769205468533
-0.0220203399658203,1.2120237350463867,0.0809211581945419,0.0270603895187377,-0.2701689004898071,-0.1868495047092437,0.0,0.0,0.3360627544886925,-0.9057344739786746
-0.0212812423706054,1.2134251594543457,0.0810723379254341,0.0609489046037197,-0.2775167524814605,-0.1469573080539703,0.0,0.0,-0.6067341566085815,-0.992707133293152
-0.0205867774784564,1.2146193981170654,0.0748189091682434,0.0520456992089748,-0.2830300033092499,-0.1102649196982383,0.0,0.0,-0.8862767219543457,-0.985227346420288
-0.0199413299560546,1.2155994176864624,0.0680400282144546,0.0428718365728855,-0.286631315946579,-0.0720256865024566,0.0,0.0,-0.5648367404937744,-0.9694331884384156
-0.0193422324955463,1.2163732051849363,0.061567485332489,0.0340678505599498,-0.2883358001708984,-0.0340900160372257,0.0,0.0,0.0482642650604248,-0.9245137572288512
-0.0187763217836618,1.217218041419983,0.0561702735722065,0.0376334078609943,-0.2879021167755127,0.0086738662794232,0.0,0.0,-0.2205179929733276,-0.8835076689720154
-0.0182589534670114,1.2178503274917605,0.0494488514959812,0.0285502392798662,-0.2855471968650818,0.0470984801650047,0.0,0.0,0.0300631523132324,-0.5729919075965881
-0.0176514629274606,1.218650460243225,0.056998997926712,0.0362848788499832,-0.2816926836967468,0.0770900696516037,0.0,0.0,-0.0843596458435058,-0.3290796279907226
-0.0170294754207134,1.2192190885543823,0.0581536367535591,0.0260502081364393,-0.2775485813617706,0.0828825458884239,0.0,0.0,-0.7135959267616272,-0.6295150518417358
-0.0164505951106548,1.2195868492126465,0.0520324632525444,0.0174470487982034,-0.2715435326099396,0.1201010942459106,0.0,0.0,-0.4524931907653808,-0.2485406994819641
-0.0158578865230083,1.2197235822677612,0.053109310567379,0.0072107855230569,-0.2652329206466675,0.1262123882770538,0.0,0.0,-0.6276857852935791,-0.4989039897918701
-0.0152516365051269,1.2196295261383057,0.0541434101760387,-0.0030257755424827,-0.2586091756820678,0.1324751675128936,0.0,0.0,-0.3104373812675476,-0.6037484407424927
-0.014682007022202,1.21932852268219,0.0488478355109691,-0.0119693195447325,-0.2503232955932617,0.1657174676656723,0.0,0.0,0.0264003276824951,-0.4017004370689392
-0.0139653207734227,1.2191731929779053,0.0629012808203697,-0.0054385205730795,-0.2413958758115768,0.178548663854599,0.0,0.0,-0.469221830368042,-0.3906190395355224
-0.0132362367585301,1.2187873125076294,0.0637885108590126,-0.0156785286962986,-0.2321343570947647,0.1852308213710785,0.0,0.0,-0.1503643989562988,-0.765144407749176
-0.0125399585813283,1.2181843519210815,0.0590109005570411,-0.0251667443662881,-0.2213736027479171,0.2152148932218551,0.0,0.0,-0.9175404906272888,-0.2295747399330139
-0.0118321422487497,1.2173514366149902,0.0597845800220966,-0.0354100503027439,-0.2102663218975067,0.2221459448337555,0.0,0.0,-0.9211987257003784,-0.799796998500824
-0.0111644743010401,1.2163128852844238,0.0540431253612041,-0.04440164193511,-0.1974437534809112,0.2564511597156524,0.0,0.0,-0.9740521907806396,0.217130422592163
-0.0104864118620753,1.2150449752807615,0.0546905621886253,-0.0546494796872139,-0.1842635124921798,0.2636048197746277,0.0,0.0,-0.970172643661499,-0.3054391741752624
-0.0097986217588186,1.213548183441162,0.055270779877901,-0.0648984238505363,-0.1707205325365066,0.2708600163459778,0.0,0.0,-0.930984914302826,-0.4055468440055847
-0.0091017726808786,1.211822748184204,0.0557808950543403,-0.0751485452055931,-0.1568100452423095,0.2782098650932312,0.0,0.0,-0.9424450397491456,-0.5379116535186768
-0.0084355352446436,1.2098735570907593,0.0513420104980468,-0.0850960686802864,-0.1415452659130096,0.3052955269813537,0.0,0.0,-0.9268052577972412,-0.1494598388671875
-0.0077614784240722,1.2076964378356934,0.0517034418880939,-0.0953511521220207,-0.1259046196937561,0.3128125071525574,0.0,0.0,-0.983887255191803,-0.1191950440406799
-0.0070804595015943,1.2052911520004272,0.0519874021410942,-0.1056077033281326,-0.1098845079541206,0.320402443408966,0.0,0.0,-0.984074592590332,0.67775559425354
-0.0063379285857081,1.2026503086090088,0.0591510906815528,-0.1163325607776641,-0.0948862135410308,0.2999659180641174,0.0,0.0,-0.9549124836921692,0.4375430345535278
-0.0055899620056152,1.19978129863739,0.0592753104865551,-0.1265884637832641,-0.0795021802186966,0.3076803088188171,0.0,0.0,-0.9755163192749025,0.9817030429840088
-0.0047759055159986,1.196677803993225,0.0670404955744743,-0.1372312009334564,-0.0652833133935928,0.2843775451183319,0.0,0.0,-0.9309067726135254,0.1648991107940673
-0.0039582252502441,1.19334614276886,0.0669999793171882,-0.1474862098693847,-0.0506740547716617,0.2921850681304931,0.0,0.0,-0.962502121925354,0.995309829711914
-0.0030487061012536,1.1897679567337036,0.0780522897839546,-0.1586495190858841,-0.0379254706203937,0.254971444606781,0.0,0.0,-0.930506706237793,0.9999334812164308
-0.002054214477539,1.1859679222106934,0.08824223279953,-0.1686503440141677,-0.0268604755401611,0.2213001251220703,0.0,0.0,-0.944244146347046,0.9279868602752686
-0.0009966850047931,1.1819322109222412,0.0957175940275192,-0.1792190074920654,-0.0169589035212993,0.1980315893888473,0.0,0.0,-0.9653723835945128,0.9874472618103028
0.0001273155212402,1.1776694059371948,0.1036599725484848,-0.1893776059150695,-0.0083267455920577,0.17264324426651,0.0,0.0,-0.8574931621551514,0.8500808477401733
0.0013216972583904,1.17317795753479,0.1120812147855758,-0.1996019780635833,-0.0010767636122182,0.1449999660253524,0.0,0.0,-0.8455489873886108,0.7656921148300171
0.0025622367393225,1.1684648990631104,0.1175282150506973,-0.209470048546791,0.0053704297170042,0.1289440095424652,0.0,0.0,-0.6808061599731445,0.9999927282333374
0.0038895606994628,1.1635228395462036,0.1280621737241745,-0.2196740359067917,0.0099795442074537,0.0921821594238281,0.0,0.0,-0.8909430503845215,-0.6912031173706055
0.0051562311127781,1.1583445072174072,0.1201371178030967,-0.2302045673131942,0.0164319835603237,0.1290484815835952,0.0,0.0,-0.5971211194992065,0.996042251586914
0.0065073012374341,1.1529278755187988,0.1304014772176742,-0.2407963573932647,0.0210701618343591,0.0927637666463851,0.0,0.0,-0.7711817026138306,0.7000713348388672
0.0079066278412938,1.1472759246826172,0.1361750960350036,-0.2512568533420563,0.0247767977416515,0.0741329342126846,0.0,0.0,-0.1670334339141845,0.3591458797454834
0.0093008996918797,1.1413938999176023,0.1352882534265518,-0.2614990472793579,0.0288676023483276,0.0818161219358444,0.0,0.0,-0.4478000402450561,-0.6692181825637817
0.0106434822082519,1.1352866888046265,0.1285674124956131,-0.2715556919574737,0.034492403268814,0.1124959960579872,0.0,0.0,-0.5891863107681274,-0.252962589263916
0.0119798658415675,1.1289496421813965,0.1275599151849746,-0.2817996442317962,0.0404936969280242,0.1200260296463966,0.0,0.0,-0.7887623906135559,0.9937806129455566
0.0133713725954294,1.1223763227462769,0.1342662274837494,-0.2922903895378113,0.0453160554170608,0.0964471027255058,0.0,0.0,-0.8359532952308655,0.8591692447662354
0.0148276332765817,1.1155855655670166,0.142222449183464,-0.3019185364246368,0.0486797653138637,0.0672742128372192,0.0,0.0,-0.7707194089889526,-0.7249295115470886
0.0162089355289936,1.1085598468780518,0.1326600760221481,-0.3124366998672485,0.0540894456207752,0.1081936582922935,0.0,0.0,-0.2513182163238525,0.7093431949615479
0.0176325794309377,1.1013115644454956,0.1378344595432281,-0.3223178088665008,0.0585697963833808,0.0896068140864372,0.0,0.0,-0.9188275337219238,0.7072958946228027
0.0191019065678119,1.093841791152954,0.1434424817562103,-0.3321325480937958,0.0620169751346111,0.06894351541996,0.0,0.0,-0.8923202157020569,0.125277042388916
0.0205616950988769,1.0861420631408691,0.1421532481908798,-0.3423755466938019,0.06580401211977,0.0757407918572425,0.0,0.0,-0.6047720313072205,-0.0118593573570251
0.02201166190207,1.0782122611999512,0.1408281773328781,-0.3526187539100647,0.0699226930737495,0.0823734551668167,0.0,0.0,-0.7897549867630005,0.0880157947540283
0.0234511382877826,1.0700527429580688,0.1394700855016708,-0.3628622591495514,0.0743641480803489,0.0888288468122482,0.0,0.0,-0.6646649241447449,0.2366023063659668
0.024880027398467,1.0616633892059326,0.138081669807434,-0.3731060922145843,0.0791188478469848,0.0950940698385238,0.0,0.0,-0.8998886346817017,-0.4217472076416015
0.0262976642698049,1.053044319152832,0.1366654932498932,-0.3833501935005188,0.0841766446828842,0.1011559516191482,0.0,0.0,-0.9115028381347656,-0.2121486067771911
0.0277039520442485,1.0441954135894775,0.1352239996194839,-0.3935945928096771,0.0895267054438591,0.1070012301206588,0.0,0.0,-0.6091676354408264,-0.1778843402862548
0.0290983207523822,1.0351169109344482,0.1337593644857406,-0.4038392603397369,0.0951575189828872,0.1126164346933364,0.0,0.0,-0.8339052796363831,-0.2537235021591186
0.0304805748164653,1.0258089303970337,0.1322737038135528,-0.4140842854976654,0.1010569185018539,0.1179879456758499,0.0,0.0,-0.7802311778068542,0.5724663734436035
0.031903363764286,1.0162731409072876,0.137412279844284,-0.4241494238376617,0.1058815866708755,0.0964933261275291,0.0,0.0,-0.834803581237793,0.2483432292938232
0.0333132743835449,1.0065076351165771,0.1358902007341385,-0.4343937337398529,0.1109484061598777,0.1013363972306251,0.0,0.0,-0.8314104676246643,-0.2298016548156738
0.0347101204097271,0.9965123534202576,0.1343525350093841,-0.444638192653656,0.1162431240081787,0.105894461274147,0.0,0.0,-0.5700274705886841,-0.0436087846755981
0.0360934250056743,0.9862872958183287,0.1328008770942688,-0.454882800579071,0.1217508167028427,0.1101537123322486,0.0,0.0,-0.7982296943664551,0.1386198997497558
0.0374631881713867,0.97583270072937,0.131236657500267,-0.4651275873184204,0.1274558454751968,0.1141003966331482,0.0,0.0,-0.7706277966499329,0.3629351854324341
0.0388189330697059,0.9651485085487366,0.1296612024307251,-0.4753724634647369,0.1333418786525726,0.1177208423614502,0.0,0.0,-0.8492006063461304,0.6019314527511597
0.0402029976248741,0.9542474150657654,0.1334355324506759,-0.484942615032196,0.1382941752672195,0.0990457087755203,0.0,0.0,-0.7852221131324768,0.816778302192688
0.0416272170841693,0.9431339502334596,0.1387180387973785,-0.494285374879837,0.1419817507266998,0.0737518817186355,0.0,0.0,-0.7073980569839478,0.56319260597229
0.0430790893733501,0.931797444820404,0.1424412429332733,-0.5041049122810364,0.1447190046310424,0.0547453388571739,0.0,0.0,-0.9106488227844238,-0.6912853717803955
0.0444512367248535,0.9202175736427308,0.1327158361673355,-0.5151045322418213,0.1492150723934173,0.0899211913347244,0.0,0.0,-0.722014307975769,0.7434422969818115
0.045851994305849,0.9084159731864928,0.1365938484668731,-0.5248721837997437,0.152686208486557,0.0694229900836944,0.0,0.0,-0.9280126690864564,0.5604124069213867
0.0472883209586143,0.8963992595672607,0.1414082497358322,-0.5343051552772522,0.1549066603183746,0.0444089397788047,0.0,0.0,-0.8221873641014099,-0.077034056186676
0.0487088188529014,0.8841522336006165,0.1397828161716461,-0.5445463061332703,0.1571760773658752,0.0453881695866584,0.0,0.0,-0.907670795917511,0.037221074104309
0.0501132979989051,0.8716750144958496,0.1381535977125167,-0.5547873973846436,0.1594733297824859,0.0459449812769889,0.0,0.0,-0.7996294498443604,0.4795856475830078
0.0515014640986919,0.8589674830436707,0.1365211904048919,-0.5650281310081482,0.1617768257856369,0.0460698530077934,0.0,0.0,-0.6442373991012573,0.903226375579834
0.0529591552913188,0.8460612893104553,0.1457255482673645,-0.5736171007156372,0.1618214845657348,0.0008929265895858,0.0,0.0,-0.6890308856964111,-0.0495050549507141
0.0544001571834087,0.832924485206604,0.1440883129835128,-0.5838567614555359,0.1618279665708542,0.0001297051639994,0.0,0.0,-0.8291988372802734,0.271381139755249
0.055824089795351,0.8195571899414062,0.1424494981765747,-0.5940962433815002,0.1617735922336578,-0.0010875662555918,0.0,0.0,-0.9213460683822632,0.2022175788879394
0.0572308525443077,0.805959165096283,0.140809491276741,-0.604335367679596,0.1616353839635849,-0.0027640997432172,0.0,0.0,-0.667512059211731,0.5058975219726562
0.0586650855839252,0.7921392917633057,0.1448179334402084,-0.614073634147644,0.1602431982755661,-0.0278439559042453,0.0,0.0,-0.2887936234474182,-0.434977650642395
0.0600815787911415,0.7780885100364685,0.1431767642498016,-0.6243122816085815,0.1587206870317459,-0.030450141057372,0.0,0.0,-0.2713505029678345,-0.6048199534416199
0.0614230148494243,0.7637917399406433,0.1343569904565811,-0.6353883743286133,0.158514067530632,-0.0041325348429381,0.0,0.0,-0.5125841498374939,0.1927670240402221
0.0627463310956955,0.7492642998695374,0.132715955376625,-0.6456262469291687,0.1581303179264068,-0.0076748905703425,0.0,0.0,-0.7765122056007385,-0.064968466758728
0.0640512481331825,0.7345060110092163,0.1310754120349884,-0.6558637619018555,0.1575460880994796,-0.0116845536977052,0.0,0.0,-0.256953477859497,-0.2300098538398742
0.0653374642133712,0.7195168137550354,0.1294356137514114,-0.6661010980606079,0.1567381024360656,-0.0161593947559595,0.0,0.0,0.4699550867080688,-0.3796983957290649
0.0665955543518066,0.7052184343338013,0.1264665424823761,-0.635416567325592,0.1560844182968139,-0.0130737144500017,0.0,0.0,-0.907096028327942,-0.1952923536300659
0.0678345710039138,0.6906891465187073,0.124828889966011,-0.6456533670425415,0.1551610678434372,-0.0184670016169548,0.0,0.0,-0.0035582780838012,0.1742715835571289
0.0690544098615646,0.6759287118911743,0.1231926083564758,-0.6558898091316223,0.153945505619049,-0.0243113655596971,0.0,0.0,0.6548271179199219,-0.8810900449752808
