x_pos,y_pos,x_vel,y_vel,angle,ang_vel,leg_1,leg_2,main_booster,lat_booster
-0.0015531539684161,1.4035322666168213,-0.1566668450832367,-0.3283525109291076,0.0012090975651517,0.0238097477704286,0.0,0.0,0.7753902533131483,-0.4779634735015773
-0.0030809403397142,1.39681875705719,-0.1536527574062347,-0.2983761429786682,0.0020716942381113,0.0172541514039039,0.0,0.0,0.6472488215643295,0.0306458008028044
-0.0045062066055834,1.3906168937683103,-0.1434493660926818,-0.2756364941596985,0.0029880630318075,0.0183292143046855,0.0,0.0,0.292226696674654,-0.191743883417803
-0.0060555459931492,1.3849084377288818,-0.1548152267932891,-0.2537086904048919,0.0028699995018541,-0.0023616827093064,0.0,0.0,0.1386825592587357,0.8508715290581406
-0.0074658393859863,1.379785418510437,-0.1386715620756149,-0.2276960909366607,0.0005462413537316,-0.0464797690510749,0.0,0.0,0.1945406381176193,0.3863456032401005
-0.0088067054748535,1.3751590251922607,-0.131615936756134,-0.2056191712617874,-0.0018929705256596,-0.0487887524068355,0.0,0.0,0.7238343851877143,0.9375249231994706
-0.0101285930722951,1.3713440895080566,-0.1271990835666656,-0.1695625931024551,-0.0068235010839998,-0.0986199751496315,0.0,0.0,0.2368993772510779,0.898777500287379
-0.0112765310332179,1.3681645393371582,-0.1074998751282692,-0.1413637846708297,-0.014032763428986,-0.1441986113786697,0.0,0.0,-0.2938600398074003,0.6516371485465772
-0.0124035831540822,1.3648996353149414,-0.1035316735506057,-0.1452168375253677,-0.0231000036001205,-0.181361511349678,0.0,0.0,0.1896041006116535,0.6836595112976388
-0.0134944915771484,1.3623309135437012,-0.0979632884263992,-0.1143771484494209,-0.0341164655983448,-0.2203498631715774,0.0,0.0,0.924496342636242,-0.112764426886989
-0.0144907953217625,1.3607044219970703,-0.088374026119709,-0.0725755169987678,-0.0452514365315437,-0.2227199524641037,0.0,0.0,0.6177828742590896,0.2625787674855586
-0.0154236797243356,1.3597581386566162,-0.0817726999521255,-0.042444035410881,-0.0566551089286804,-0.2280939370393753,0.0,0.0,0.3156362077805643,0.935391975157338
-0.0161608699709177,1.3595446348190308,-0.0598239302635192,-0.010071855969727,-0.0704209506511688,-0.2753420174121856,0.0,0.0,0.7341298755272558,-0.9221793658527015
-0.016893196851015,1.3597899675369265,-0.0607258006930351,0.0102680921554565,-0.0828216671943664,-0.2480369508266449,0.0,0.0,0.8270927478221615,0.2844149026679652
-0.0174236297607421,1.361289143562317,-0.04068573564291,0.0658999606966972,-0.0950862467288971,-0.2453139126300811,0.0,0.0,0.3009010685247362,-0.9698101373503046
-0.0179379470646381,1.3630330562591553,-0.0404789075255394,0.0767783373594284,-0.1059689596295356,-0.217673972249031,0.0,0.0,0.5580413202947287,0.926190982948818
-0.0181765556335449,1.3658666610717771,-0.0106590371578931,0.1249522864818573,-0.1191016063094139,-0.2626770138740539,0.0,0.0,0.6562540312906453,-0.5604626801172071
-0.0182913783937692,1.3691461086273191,0.000768422614783,0.1447323709726333,-0.1313117742538452,-0.244225263595581,0.0,0.0,-0.7677957571773022,0.3225221131341256
-0.018435001373291,1.3723363876342771,-0.0015242372173815,0.140609934926033,-0.1441221088171005,-0.2562297582626343,0.0,0.0,0.905944223695681,0.872885153668614
-0.0185463912785053,1.3764142990112305,0.0042109382338821,0.179676815867424,-0.1594757735729217,-0.3071012496948242,0.0,0.0,0.846826132383915,-0.3585765271332062
-0.0184118263423442,1.3816145658493042,0.0287044439464807,0.2294193357229232,-0.1747616827487945,-0.3057454526424408,0.0,0.0,0.1301637941081879,-0.6845076774834321
-0.0182977672666311,1.3871817588806152,0.0258522275835275,0.2456639558076858,-0.1892681717872619,-0.2901557981967926,0.0,0.0,0.2146896469220414,0.8138887777777548
-0.0179660804569721,1.3932007551193235,0.0496862791478633,0.2653214335441589,-0.2059151381254196,-0.332969456911087,0.0,0.0,0.1892575768087689,0.0849478399623312
-0.0175669677555561,1.3994470834732056,0.0567268207669258,0.2751880586147308,-0.2229261696338653,-0.3402509391307831,0.0,0.0,0.5083333166326329,0.4890771059978916
-0.0171920768916606,1.406509518623352,0.0554282143712043,0.3110679090023041,-0.2411366552114486,-0.3642421066761017,0.0,0.0,0.6799465853769009,-0.9683876442890292
-0.0169122703373432,1.4145994186401367,0.0447232648730278,0.3567110598087311,-0.2581993341445923,-0.3412536978721618,0.0,0.0,0.5096408849048952,-0.284572830890057
-0.0164873115718364,1.4235644340515137,0.0597339160740375,0.3953033685684204,-0.2758460342884063,-0.3529336750507355,0.0,0.0,0.410215759441896,0.4325529133247904
-0.0160054210573434,1.433505654335022,0.0664410218596458,0.4382817447185516,-0.2946086227893829,-0.3752521872520447,0.0,0.0,-0.7924638306413767,-0.5672546302214051
-0.0156017299741506,1.443389654159546,0.0577294826507568,0.435665100812912,-0.3125632405281067,-0.3590921759605407,0.0,0.0,0.0032532809717833,-0.6602390435214609
-0.0151978489011526,1.4536384344100952,0.0569421760737896,0.4518412053585052,-0.3297863304615021,-0.3444616496562958,0.0,0.0,0.4732257846790741,-0.1521258882502297
-0.0145605085417628,1.4648646116256714,0.0806881487369537,0.4949750602245331,-0.3475314080715179,-0.3549018502235412,0.0,0.0,-0.9247759580612184,-0.9598299860954284
-0.0140313152223825,1.4760433435440063,0.0682423636317253,0.4930437803268432,-0.3636604249477386,-0.322579562664032,0.0,0.0,-0.9555570483207704,-0.9715958833694458
-0.0136075019836425,1.4871902465820312,0.0560239665210247,0.4918879568576813,-0.3781062662601471,-0.288917064666748,0.0,0.0,-0.955183207988739,-0.983590006828308
-0.0132917407900094,1.4982891082763672,0.0436092391610145,0.4900437295436859,-0.3909200429916382,-0.256275475025177,0.0,0.0,-0.9374237060546876,-0.9521082043647766
-0.0130688669160008,1.5093438625335691,0.0330218635499477,0.4883319735527038,-0.4024154543876648,-0.2299079149961471,0.0,0.0,-0.9539830684661864,-0.9701567888259888
-0.012938117608428,1.5203609466552734,0.0225077327340841,0.4869411587715149,-0.4125507771968841,-0.2027063816785812,0.0,0.0,-0.9484286904335022,-0.9475647807121276
-0.0129056926816701,1.5313323736190796,0.0113046616315841,0.4852424263954162,-0.4212378263473511,-0.1737412512302398,0.0,0.0,-0.9088475704193116,-0.960505485534668
-0.0129609107971191,1.5422654151916504,0.0013046071399003,0.4838542342185974,-0.4286407232284546,-0.1480580270290374,0.0,0.0,-0.9230258464813232,-0.9744033217430116
-0.0131123540922999,1.5531705617904663,-0.0097870538011193,0.4830264151096344,-0.4344632625579834,-0.116450086236,0.0,0.0,-0.9142301082611084,-0.9331315159797668
-0.0133516313508152,1.5640320777893066,-0.0197409652173519,0.4814313948154449,-0.4390243589878082,-0.091221809387207,0.0,0.0,-0.9154112935066224,-0.9272412061691284
-0.0136905666440725,1.5748662948608398,-0.031271681189537,0.4806984066963196,-0.4418900907039642,-0.0573145560920238,0.0,0.0,-0.8521609306335449,-0.8855580687522888
-0.0141041753813624,1.585645318031311,-0.0395401939749717,0.4784912467002868,-0.4438791573047638,-0.0397813692688941,0.0,0.0,-0.8629773855209351,-0.9457947015762328
-0.0146007537841796,1.5963661670684814,-0.0487978905439376,0.4762068390846252,-0.4448150396347046,-0.0187175814062356,0.0,0.0,-0.7977513074874878,-0.8580954074859619
-0.0151717187836766,1.6070325374603271,-0.0570673868060112,0.4740584194660187,-0.4448428452014923,-0.0005561577854678,0.0,0.0,-0.850408136844635,-0.8798320889472961
-0.0158348083496093,1.6176482439041138,-0.0675280690193176,0.4721965789794922,-0.4435080587863922,0.0266949590295553,0.0,0.0,-0.8463548421859741,-0.9508926272392272
-0.0165849681943655,1.6282105445861816,-0.0773675069212913,0.4701835513114929,-0.4409345686435699,0.0514700710773468,0.0,0.0,-0.7693589925765991,-0.8860719203948975
-0.0174142830073833,1.63871967792511,-0.086277812719345,0.4681192636489868,-0.4372845590114593,0.0730002298951149,0.0,0.0,-0.4774229526519775,-0.7203072905540466
-0.0183225627988576,1.6491894721984863,-0.0953051447868347,0.466708242893219,-0.4324168860912323,0.0973537117242813,0.0,0.0,-0.6492190361022949,-0.7909502387046814
-0.019317340105772,1.6596243381500244,-0.1052985414862632,0.4655486941337585,-0.4261010289192199,0.1263172477483749,0.0,0.0,-0.6169565320014954,-0.758909285068512
-0.020387839525938,1.6700068712234497,-0.1138689890503883,0.4634887278079986,-0.4187215566635132,0.147589161992073,0.0,0.0,-0.7261469960212708,-0.5881819128990173
-0.0215085037052631,1.6803221702575684,-0.1192611083388328,0.4605658650398254,-0.4109743535518646,0.1549441367387771,0.0,0.0,-0.6996440887451172,-0.3894814252853393
-0.0226466171443462,1.6905488967895508,-0.1204935684800148,0.4564422369003296,-0.4037845730781555,0.1437953859567642,0.0,0.0,-0.6018111109733582,-0.5866573452949524
-0.0238365177065134,1.700705885887146,-0.1261082291603088,0.4534360468387604,-0.3961577415466308,0.1525371521711349,0.0,0.0,-0.7486082911491394,-0.5672163963317871
-0.0250811576843261,1.7108049392700195,-0.1321930438280105,0.4509709179401397,-0.3879049718379974,0.1650555580854416,0.0,0.0,-0.7188131213188171,-0.2866612076759338
-0.026340102776885,1.7208150625228882,-0.1331386119127273,0.4468480944633484,-0.3801930844783783,0.1542375385761261,0.0,0.0,-0.8050865530967712,-0.6883639097213745
-0.0276713371276855,1.7307684421539309,-0.1414156109094619,0.4445609152317047,-0.3713755011558532,0.176351398229599,0.0,0.0,-0.8850685954093933,-0.6332501173019409
-0.0290521625429391,1.740661382675171,-0.1469576060771942,0.4419646263122558,-0.3619782030582428,0.1879461109638214,0.0,0.0,-0.8155444264411926,-0.1172606945037841
-0.0304438583552837,1.7504656314849854,-0.1475800275802612,0.4378419816493988,-0.3530999422073364,0.1775647848844528,0.0,0.0,-0.8892677426338196,-0.4344135522842407
-0.0318449959158897,1.760180950164795,-0.1480876058340072,0.4337206184864044,-0.3447320461273193,0.1673581004142761,0.0,0.0,-0.9114015102386476,-0.8056321740150452
-0.0333200469613075,1.7698500156402588,-0.1568078994750976,0.4319265484809875,-0.3349977135658264,0.1946869194507599,0.0,0.0,-0.9454837441444396,-0.4405297040939331
-0.0348023399710655,1.779429912567139,-0.1570809334516525,0.4278051257133484,-0.3257537484169006,0.184879794716835,0.0,0.0,-0.9200766682624816,-0.5344583988189697
-0.0363362319767475,1.7889471054077148,-0.1630440354347229,0.4251236617565155,-0.3157123327255249,0.2008281946182251,0.0,0.0,-0.9441481232643129,-0.0516223907470703
-0.037874698638916,1.7983752489089966,-0.163077637553215,0.4210031628608703,-0.3061374425888061,0.1914975494146347,0.0,0.0,-0.93371319770813,-0.3397223949432373
-0.0394165031611919,1.8077138662338257,-0.1629910618066787,0.4168840050697326,-0.2970155775547027,0.1824375689029693,0.0,0.0,-0.9481828212738036,-0.4501935243606567
-0.0409601218998432,1.8169628381729128,-0.1627852022647857,0.4127662479877472,-0.2883320152759552,0.1736714839935302,0.0,0.0,-0.9197049140930176,-0.6880163550376892
-0.0425669662654399,1.8261510133743288,-0.1703544557094574,0.4102285206317901,-0.2783857882022857,0.1989242881536483,0.0,0.0,-0.9611910581588744,-0.1609627604484558
-0.0441730506718158,1.835249423980713,-0.169916421175003,0.4061108231544494,-0.2688448131084442,0.1908197849988937,0.0,0.0,-0.9712988138198853,-0.3972203731536865
-0.0457772240042686,1.8442578315734863,-0.1693654656410217,0.4019945561885834,-0.259690523147583,0.1830856949090957,0.0,0.0,-0.9728699326515198,-0.2120118737220764
-0.0473782531917095,1.8531765937805176,-0.1687048375606537,0.3978795111179352,-0.2509030401706695,0.175749272108078,0.0,0.0,-0.9598433971405028,-0.2386901378631591
-0.0489748008549213,1.8620047569274905,-0.1679381728172302,0.3937656581401825,-0.2424611002206802,0.1688382476568222,0.0,0.0,-0.9804677963256836,-0.080073058605194
-0.0505656227469444,1.8707432746887207,-0.1670695394277572,0.3896530270576477,-0.2343420535326004,0.1623805463314056,0.0,0.0,-0.9493631720542908,-0.4269139766693115
-0.0521494857966899,1.8793907165527344,-0.166103258728981,0.3855414390563965,-0.2265218645334243,0.1564039289951324,0.0,0.0,-0.9799945950508118,-0.2657545804977417
-0.0537253394722938,1.8879474401474,-0.1650438904762268,0.3814309239387512,-0.2189750969409942,0.1509356200695037,0.0,0.0,-0.94793701171875,-0.5528199076652527
-0.0553294196724891,1.8964260816574097,-0.1686018854379654,0.3780195116996765,-0.2106978148221969,0.165545716881752,0.0,0.0,-0.960279941558838,-0.7268635034561157
-0.0569832809269428,1.9048277139663696,-0.1749046444892883,0.3747258484363556,-0.2010995000600814,0.191966101527214,0.0,0.0,-0.9547697901725768,-0.3503015041351318
-0.0586257949471473,1.913138747215271,-0.1735956370830536,0.3706147372722626,-0.1916908472776413,0.1881730705499649,0.0,0.0,-0.9764647483825684,-0.6029894948005676
-0.0603057853877544,1.9213672876358032,-0.1784761101007461,0.3670425713062286,-0.1811716705560684,0.2103831470012664,0.0,0.0,-0.9697213768959044,-0.3418608903884887
-0.0619724281132221,1.9295058250427248,-0.1770243793725967,0.3629311323165893,-0.1707810461521148,0.2078128159046173,0.0,0.0,-0.9635201692581176,-0.1634396314620971
-0.0636245757341384,1.9375532865524288,-0.1755079478025436,0.3588204681873321,-0.1604871749877929,0.2058775424957275,0.0,0.0,-0.9623520970344543,0.0730612277984619
-0.0652615576982498,1.9455103874206543,-0.1739313304424286,0.3547104895114898,-0.1502577662467956,0.2045884132385254,0.0,0.0,-0.964820683002472,-0.6967831254005432
-0.0669491738080978,1.9533849954605105,-0.180681824684143,0.3511238694190979,-0.1383707374334335,0.2377405166625976,0.0,0.0,-0.972977876663208,-0.2245689034461975
-0.0686197280883789,1.9611687660217283,-0.1789981424808502,0.3470117747783661,-0.1264826953411102,0.2377606183290481,0.0,0.0,-0.945797324180603,-0.0003182291984558
-0.0702725425362587,1.9688622951507568,-0.1772665083408355,0.3429000675678253,-0.1145608499646186,0.2384367734193802,0.0,0.0,-0.9499940872192384,-0.1086325049400329
-0.0719067603349685,1.9764652252197263,-0.1754905879497528,0.3387884795665741,-0.1025726422667503,0.2397643327713012,0.0,0.0,-0.954929530620575,0.3797047138214111
-0.073521614074707,1.9839776754379272,-0.1736737936735153,0.3346769511699676,-0.0904859080910682,0.2417346984148025,0.0,0.0,-0.9472023248672484,-0.2894089221954345
-0.0751165375113487,1.9913997650146484,-0.1718193739652633,0.3305653929710388,-0.0782691091299057,0.2443358153104782,0.0,0.0,-0.9604388475418092,0.1704276800155639
-0.076690673828125,1.9987313747406008,-0.1699303686618805,0.3264535963535309,-0.0658915117383003,0.2475520074367523,0.0,0.0,-0.943070352077484,0.2436056137084961
-0.0782437324523925,2.005972623825073,-0.1680094897747039,0.3223414421081543,-0.0533232800662517,0.2513648569583893,0.0,0.0,-0.9540513157844543,0.4770927429199219
-0.0797749534249305,2.013123750686645,-0.1660593450069427,0.3182288110256195,-0.0405356027185916,0.2557531893253326,0.0,0.0,-0.9661442637443542,0.6674644947052002
-0.0812190026044845,2.0201752185821533,-0.1559405773878097,0.3136676847934723,-0.0291369464248418,0.2279730290174484,0.0,0.0,-0.9585298895835876,0.3850691318511963
-0.0826401710510253,2.0271365642547607,-0.1539386361837387,0.3095570504665375,-0.0174648575484752,0.2334419935941696,0.0,0.0,-0.9210333824157716,0.5615452527999878
-0.0839912444353103,2.0340096950531006,-0.146047294139862,0.3055667579174042,-0.0066681592725217,0.2159338891506195,0.0,0.0,-0.9516804218292236,0.1092159748077392
-0.0853186622262001,2.040792465209961,-0.1440018713474273,0.3014567494392395,0.0044507985003292,0.2223791182041168,0.0,0.0,-0.940040647983551,-0.2996681928634643
-0.086621955037117,2.0474846363067627,-0.1419373899698257,0.2973458468914032,0.0159143712371587,0.2292714565992355,0.0,0.0,-0.9198899865150452,0.7848703861236572
-0.0878439918160438,2.0540850162506104,-0.1327401846647262,0.2932097017765045,0.0263189598917961,0.2080916464328766,0.0,0.0,-0.937889277935028,0.2687472105026245
-0.0890411362051963,2.0605950355529785,-0.1306421756744384,0.2890993952751159,0.0371088199317455,0.2157971560955047,0.0,0.0,-0.9446505904197692,0.6570669412612915
-0.0901631340384483,2.067017078399658,-0.1222610473632812,0.2851329743862152,0.0470457710325717,0.1987389922142028,0.0,0.0,-0.9474503993988036,-0.4244827032089233
-0.0912596732378006,2.0733482837677,-0.1201349273324012,0.2810226082801819,0.0574033483862876,0.2071518898010254,0.0,0.0,-0.9336043000221252,0.7757461071014404
-0.0922605544328689,2.0795986652374268,-0.1092090383172035,0.2774219810962677,0.066429391503334,0.1805206835269928,0.0,0.0,-0.9163681268692015,-0.306971788406372
-0.0932352989912033,2.0857584476470947,-0.1070595011115074,0.2733122408390045,0.0759065076708793,0.1895424574613571,0.0,0.0,-0.9384312629699708,-0.2668882608413696
-0.0941840186715126,2.091827630996704,-0.1048996224999427,0.269201397895813,0.085848219692707,0.1988341510295868,0.0,0.0,-0.93651020526886,0.2449831962585449
-0.0951062217354774,2.097806692123413,-0.1027302742004394,0.2650893032550812,0.0962669402360916,0.2083745449781417,0.0,0.0,-0.9117931723594666,0.2133768796920776
-0.0960018187761306,2.1036953926086426,-0.1005522832274437,0.2609758973121643,0.1071741357445716,0.2181437909603119,0.0,0.0,-0.9348655939102172,0.6798288822174072
-0.0968303680419921,2.1094987392425537,-0.093320295214653,0.2571545839309692,0.1175637021660804,0.2077912539243698,0.0,0.0,-0.9127480983734132,-0.3347772359848022
-0.0976320281624794,2.1152126789093018,-0.0911274552345275,0.2530401647090912,0.1284618973731994,0.2179642468690872,0.0,0.0,-0.9097667932510376,0.015600562095642
-0.0984066948294639,2.1208367347717285,-0.088928073644638,0.2489243000745773,0.1398776322603225,0.2283141165971756,0.0,0.0,-0.8858860731124878,0.9424748420715332
-0.0990633964538574,2.1263973712921143,-0.07528917491436,0.2462088614702224,0.1494776159524917,0.1919996738433838,0.0,0.0,-0.8775430917739868,-0.2561509609222412
-0.0996928215026855,2.1318681240081787,-0.0730793923139572,0.2420941442251205,0.1596106886863708,0.2026609182357788,0.0,0.0,-0.9247212409973145,0.427443265914917
-0.1002947837114334,2.137249231338501,-0.0708649232983589,0.2379780411720276,0.1702835857868194,0.2134579122066497,0.0,0.0,-0.8729663491249084,-0.6914552450180054
-0.1009164825081825,2.142529010772705,-0.0745572298765182,0.2331856042146682,0.1827124059200287,0.2485760450363159,0.0,0.0,-0.9184143543243408,0.2874305248260498
-0.1015106216073036,2.1477200984954834,-0.0723341554403305,0.2290640324354171,0.1956928819417953,0.2596099376678467,0.0,0.0,-0.8912556171417236,0.0173633098602294
-0.1020773872733116,2.152822256088257,-0.0701076611876487,0.2249406278133392,0.2092302590608596,0.2707474827766418,0.0,0.0,-0.927765727043152,-0.478490948677063
-0.1026166900992393,2.1578369140625,-0.067878171801567,0.2208153903484344,0.2233292460441589,0.2819797992706299,0.0,0.0,-0.8913189172744751,-0.6755069494247437
-0.1031912788748741,2.162743330001831,-0.0735349506139755,0.2155463546514511,0.2396303564310073,0.3260218799114227,0.0,0.0,-0.902962565422058,0.0262651443481445
-0.1037385910749435,2.16756272315979,-0.0712990462779998,0.2114128917455673,0.2565012872219085,0.3374184966087341,0.0,0.0,-0.8693572878837585,0.495204210281372
-0.1042587310075759,2.172295331954956,-0.0690609663724899,0.2072771340608596,0.2739456593990326,0.3488875031471252,0.0,0.0,-0.8961730003356934,0.9407720565795898
-0.1046766266226768,2.176971435546875,-0.0574039593338966,0.2048230767250061,0.2899791300296783,0.3206692337989807,0.0,0.0,-0.9038354754447936,0.7978084087371826
-0.1049924865365028,2.181586265563965,-0.0457841157913208,0.2022162973880767,0.3046273589134216,0.2929648756980896,0.0,0.0,-0.933110237121582,-0.9604381322860718
-0.1053425818681716,2.1860897541046143,-0.0512609966099262,0.1966662257909774,0.3214927315711975,0.337307333946228,0.0,0.0,-0.8300389051437378,0.8306722640991211
-0.1056024581193924,2.190546751022339,-0.0410306267440319,0.1946753114461898,0.3371684849262237,0.3135155737400055,0.0,0.0,-0.876114010810852,-0.6383081674575806
-0.1058761626482009,2.1948885917663574,-0.0439897961914539,0.1889900416135788,0.3546078503131866,0.3487878739833832,0.0,0.0,-0.8017662167549133,0.7847083806991577
