x_pos,y_pos,x_vel,y_vel,angle,ang_vel,leg_1,leg_2,main_booster,lat_booster
-0.0015148163074627,1.403472661972046,-0.1532129645347595,-0.3310022950172424,0.0015534090343862,0.0306265316903591,0.0,0.0,0.1111218929290771,0.5148603916168213
-0.0029420852661132,1.3963593244552612,-0.1430810242891311,-0.3161468505859375,0.001901754993014,0.006968424655497,0.0,0.0,-0.0650439262390136,-0.0333935618400573
-0.004359817598015,1.3890933990478516,-0.1418757736682891,-0.322925716638565,0.0020068874582648,0.0021030299831181,0.0,0.0,-0.3189332485198974,0.5610579252243042
-0.0057322503998875,1.3816739320755005,-0.1361836045980453,-0.3297544717788696,0.0009631816647015,-0.0208764486014843,0.0,0.0,-0.2180272936820984,0.624122142791748
-0.0070348740555346,1.3741047382354736,-0.1274165511131286,-0.3364146649837494,-0.0018509546061977,-0.0562881529331207,0.0,0.0,-0.3750360012054443,-0.4152438640594482
-0.0083269122987985,1.366383671760559,-0.1260793656110763,-0.3431669175624847,-0.0049506542272865,-0.061999462544918,0.0,0.0,0.2616770267486572,-0.0023327469825744
-0.0096234325319528,1.3591723442077637,-0.1261288225650787,-0.3205142319202423,-0.0084326053038239,-0.069645419716835,0.0,0.0,-0.1614767909049987,0.3908419609069824
-0.0109089855104684,1.35180926322937,-0.124721847474575,-0.3272725045681,-0.0122271962463855,-0.0758987963199615,0.0,0.0,0.0761369466781616,-0.5178945660591125
-0.0122261047363281,1.3451186418533323,-0.1285785883665084,-0.2973887324333191,-0.0153381787240505,-0.0622251518070697,0.0,0.0,-0.5514377355575562,0.0408154726028442
-0.0135321617126464,1.3382762670516968,-0.1271149218082428,-0.3041485548019409,-0.018787246197462,-0.0689876675605773,0.0,0.0,-0.6636967062950134,0.1046018600463867
-0.0148267745971679,1.331282377243042,-0.1256246268749237,-0.3108992278575897,-0.0225854758173227,-0.0759714990854263,0.0,0.0,-0.5401487946510315,-0.1493104696273803
-0.0161099433898925,1.324136734008789,-0.1241105645895004,-0.3176521956920624,-0.0267442222684621,-0.0831823647022247,0.0,0.0,-0.5371280312538147,0.583857536315918
-0.0173254013061523,1.3168402910232544,-0.1155497282743454,-0.3243989646434784,-0.0326816290616989,-0.1187591403722763,0.0,0.0,-0.4713432192802429,0.0369560718536376
-0.01852922514081,1.3093928098678589,-0.1139904856681823,-0.3311545550823211,-0.0389995090663433,-0.1263690590858459,0.0,0.0,-0.7345910668373108,-0.2483447194099426
-0.01972122117877,1.301794171333313,-0.1124150156974792,-0.3379108309745788,-0.0457083880901336,-0.1341902762651443,0.0,0.0,-0.7991283535957336,0.0834171772003173
-0.0209012981504201,1.2940443754196167,-0.11082474142313,-0.3446682095527649,-0.0528171472251415,-0.1421883106231689,0.0,0.0,-0.7323328256607056,0.1141861677169799
-0.0220694541931152,1.2861436605453491,-0.1092220172286033,-0.3514265716075897,-0.0603344328701496,-0.1503596007823944,0.0,0.0,-0.8365924954414368,-0.3055623769760132
-0.0232256893068552,1.2780920267105105,-0.1076090112328529,-0.3581858277320862,-0.0682684257626533,-0.1586946994066238,0.0,0.0,-0.8819657564163208,-0.5956448316574097
-0.0244091041386127,1.2698993682861328,-0.1109014153480529,-0.3644717335700989,-0.0756322816014289,-0.1472903192043304,0.0,0.0,-0.7978743314743042,-0.6204753518104553
-0.0256359092891216,1.2615618705749512,-0.1162314265966415,-0.3708936870098114,-0.0820293053984642,-0.1279522031545639,0.0,0.0,-0.8794531226158142,0.1983897686004638
-0.0268508903682231,1.2530735731124878,-0.1146068200469017,-0.377653032541275,-0.0888656750321388,-0.1367394179105758,0.0,0.0,-0.792638897895813,-0.7762031555175781
-0.0281142238527536,1.2444379329681396,-0.1205243319272995,-0.3841612935066223,-0.0946331918239593,-0.1153608411550521,0.0,0.0,-0.9602235555648804,-0.0299452543258667
-0.0293658263981342,1.2356513738632202,-0.1189019232988357,-0.3909208178520202,-0.1008529812097549,-0.1244068145751953,0.0,0.0,-0.9914523363113404,-0.4853410720825195
-0.0306058879941701,1.2267138957977295,-0.1172810196876525,-0.3976812660694122,-0.1075297594070434,-0.1335474103689193,0.0,0.0,-0.8568421006202698,0.6083357334136963
-0.0317975990474224,1.2176218032836914,-0.1110638156533241,-0.4046985507011413,-0.1155955642461776,-0.1613304764032364,0.0,0.0,-0.8229752779006958,-0.0024957060813903
-0.0329796783626079,1.2083580493927002,-0.1096145138144493,-0.4124098718166351,-0.1241292357444763,-0.1706736236810684,0.0,0.0,-0.7470468282699585,-0.500078022480011
-0.034189224243164,1.1989545822143557,-0.1129036098718643,-0.4186260998249054,-0.132142573595047,-0.1602670103311538,0.0,0.0,-0.3364071249961853,-0.4789630174636841
-0.0353878960013389,1.1894007921218872,-0.1113331094384193,-0.4253868460655212,-0.1406333595514297,-0.1698158234357834,0.0,0.0,-0.8248281478881836,-0.7715514898300171
-0.0366484634578228,1.1797189712524414,-0.1189468502998352,-0.4309970736503601,-0.1477260142564773,-0.1418529599905014,0.0,0.0,-0.6150915026664734,-0.3386214971542358
-0.0378983505070209,1.1698867082595823,-0.1174041852355003,-0.4377574324607849,-0.1553037911653518,-0.1515558063983917,0.0,0.0,-0.9302712082862854,-0.1884652376174926
-0.039137840270996,1.1599044799804688,-0.1158783286809921,-0.4445186555385589,-0.163370132446289,-0.1613269001245498,0.0,0.0,-0.8618547916412354,-0.2009006142616272
-0.0403672233223915,1.1497724056243896,-0.1143710166215896,-0.4512808918952942,-0.1719281822443008,-0.171161264181137,0.0,0.0,-0.8487284183502197,-0.687961220741272
-0.0416464805603027,1.1395126581192017,-0.1204651221632957,-0.4568751752376556,-0.1794093549251556,-0.1496236622333526,0.0,0.0,-0.7883245348930359,-0.3622248768806457
-0.0429160110652446,1.1291028261184692,-0.1189994215965271,-0.4636373817920685,-0.1873879134654998,-0.1595710664987564,0.0,0.0,-0.975746750831604,0.0316090583801269
-0.0441760048270225,1.1185433864593506,-0.1175572276115417,-0.4704006314277649,-0.1958663165569305,-0.1695682108402252,0.0,0.0,-0.9415796399116516,0.3179645538330078
-0.0454266555607318,1.1078343391418457,-0.1161401495337486,-0.4771648943424225,-0.2048468440771103,-0.1796107441186905,0.0,0.0,-0.9462119936943054,-0.8364374041557312
-0.0467361435294151,1.0969924926757812,-0.1232957020401954,-0.4829410314559936,-0.2125799506902694,-0.1546621322631836,0.0,0.0,-0.2678510546684265,-0.8195821046829224
-0.0480953231453895,1.0860261917114258,-0.129298448562622,-0.4883583486080169,-0.2192698121070861,-0.1337971687316894,0.0,0.0,-0.9615185260772704,-0.8574721217155457
-0.0495150573551654,1.074942708015442,-0.1366830170154571,-0.4933924674987793,-0.2246210277080536,-0.1070241779088974,0.0,0.0,-0.368976354598999,-0.8738954067230225
-0.0509905815124511,1.0637321472167969,-0.1434275358915329,-0.4988779127597809,-0.2288029193878173,-0.0836376026272773,0.0,0.0,-0.459547221660614,-0.7276745438575745
-0.0525232329964637,1.0524005889892578,-0.1503506600856781,-0.5040870904922485,-0.2317640632390976,-0.0592228658497333,0.0,0.0,-0.0185057520866394,-0.5621371865272522
-0.0540831573307514,1.0409295558929443,-0.1534512937068939,-0.5102231502532959,-0.2343372702598571,-0.0514640621840953,0.0,0.0,0.0839674472808837,-0.6778560876846313
-0.0555710792541503,1.0295947790145874,-0.1471660733222961,-0.5040318965911865,-0.2359884232282638,-0.0330230593681335,0.0,0.0,-0.0182140469551086,-0.4739607572555542
-0.0570523254573345,1.0181095600128174,-0.1459967494010925,-0.5107923746109009,-0.2381538301706314,-0.0433080121874809,0.0,0.0,0.5905590057373047,-0.6482148766517639
-0.0585528388619422,1.0069133043289185,-0.148598700761795,-0.4978502094745636,-0.2396255135536193,-0.0294334329664707,0.0,0.0,-0.5865666270256042,-0.7364696264266968
-0.0601008422672748,0.9955786466598512,-0.1541860699653625,-0.5038659572601318,-0.2402464002370834,-0.0124179851263761,0.0,0.0,0.283818244934082,-0.5898154377937317
-0.0615558624267578,0.984594464302063,-0.1456421315670013,-0.4881616830825805,-0.2400973737239837,0.0029802571516484,0.0,0.0,-0.1967765092849731,0.1438484191894531
-0.063005730509758,0.9734598994255066,-0.1446253359317779,-0.4949221611022949,-0.2404653429985046,-0.0073594124987721,0.0,0.0,0.3143172264099121,-0.2470470666885376
-0.064404010772705,0.9631264805793762,-0.1384853571653366,-0.4594891965389251,-0.2418389320373535,-0.02747218683362,0.0,0.0,-0.1829262375831604,-0.4673824310302734
-0.0657980889081955,0.9526426792144777,-0.1375500559806823,-0.4662498831748962,-0.2437302321195602,-0.0378257259726524,0.0,0.0,-0.8910485506057739,-0.6878563165664673
-0.0672285109758377,0.9420235753059388,-0.1417106240987777,-0.4721814393997192,-0.2450815290212631,-0.0270257536321878,0.0,0.0,-0.978552520275116,-0.6627521514892578
-0.0687102302908897,0.9312793016433716,-0.1477853208780288,-0.477584958076477,-0.2454806566238403,-0.0079823285341262,0.0,0.0,-0.9227896928787231,-0.3889339566230774
-0.0701889991760253,0.92038494348526,-0.1469767391681671,-0.4843456447124481,-0.2463977038860321,-0.0183410495519638,0.0,0.0,-0.9484818577766418,-0.2773342132568359
-0.0716651901602745,0.9093403816223145,-0.1462112963199615,-0.4911065101623535,-0.2478325515985489,-0.0286975614726543,0.0,0.0,-0.626789391040802,-0.713636040687561
-0.0731808692216873,0.8981586694717407,-0.1507047116756439,-0.4971109926700592,-0.2487024366855621,-0.0173977967351675,0.0,0.0,-0.9732919931411744,0.0456254482269287
-0.0746947303414344,0.8868266940116882,-0.1500262916088104,-0.5038718581199646,-0.2500896453857422,-0.0277440100908279,0.0,0.0,-0.9595242738723756,-0.8624711036682129
-0.0762615203857421,0.8753737807273865,-0.1562661230564117,-0.509098470211029,-0.2505162060260772,-0.0085310582071542,0.0,0.0,-0.9761869311332704,-0.6765859127044678
-0.0778669342398643,0.8637884855270386,-0.1606487333774566,-0.5148848295211792,-0.2504028677940368,0.0022665415890514,0.0,0.0,-0.9603898525238036,-0.6072554588317871
-0.0795114487409591,0.8520745635032654,-0.1651173084974289,-0.5205034017562866,-0.2497250735759735,0.0135559886693954,0.0,0.0,-0.9550030827522278,-0.8705118894577026
-0.0812296867370605,0.8402465581893921,-0.1739273220300674,-0.5253321528434753,-0.2475743740797042,0.0430135950446128,0.0,0.0,-0.9582341909408568,-0.6151961088180542
-0.082992173731327,0.828279435634613,-0.1789741665124893,-0.5314099788665771,-0.2448055148124694,0.0553773716092109,0.0,0.0,-0.9481265544891356,-0.2127206921577453
-0.0847556143999099,0.8161622881889343,-0.1785561740398407,-0.5381713509559631,-0.2425500601530075,0.0451091900467872,0.0,0.0,-0.9050521850585938,-0.3729890584945678
-0.0865202918648719,0.803895115852356,-0.1781803220510482,-0.5449321866035461,-0.2408069968223571,0.0348613671958446,0.0,0.0,-0.9778717160224916,-0.668996274471283
-0.088335707783699,0.7914966940879822,-0.1840311735868454,-0.5506346225738525,-0.2382768988609314,0.0506019070744514,0.0,0.0,-0.9844679236412048,-0.7247141003608704
-0.0902089104056358,0.778963029384613,-0.1907261610031128,-0.5565091371536255,-0.2348179370164871,0.069179281592369,0.0,0.0,-0.9078439474105836,-0.2038201689720153
-0.092084601521492,0.7662789225578308,-0.1904733180999755,-0.5632702708244324,-0.2318675965070724,0.0590067394077777,0.0,0.0,-0.9966503381729126,-0.5761774182319641
-0.0940047279000282,0.7534665465354919,-0.1955286413431167,-0.568894624710083,-0.2282986491918563,0.071378968656063,0.0,0.0,-0.9718544483184814,-0.6067180633544922
-0.0959693938493728,0.740510880947113,-0.2005321085453033,-0.5751839280128479,-0.2241848260164261,0.0822765305638313,0.0,0.0,-0.8878614902496338,-0.3957140445709228
-0.0979376807808876,0.7274049520492554,-0.2003945857286453,-0.5819448828697205,-0.220574676990509,0.0722033604979515,0.0,0.0,-0.9290083050727844,-0.4899463653564453
-0.0999097824096679,0.7141489386558533,-0.2002932280302047,,-0.2174662053585052,0.0621695145964622,0.0,0.0,-0.8490743637084961,-0.857454776763916
-0.1019618958234787,0.7007712721824646,-0.2097597122192382,-0.5938981771469116,-0.212865337729454,0.0920173898339271,0.0,0.0,-0.7678889036178589,-0.2286924719810485
-0.1040185913443565,0.6872434616088867,-0.2097275704145431,-0.6006588339805603,-0.2087617069482803,0.0820726603269577,0.0,0.0,-0.8921711444854736,-0.3434524536132812
-0.1060800552368164,0.6735652089118958,-0.2097278535366058,-0.6074190139770508,-0.2051527947187423,0.0721783712506294,0.0,0.0,-0.2061312198638916,-0.4183045625686645
-0.1081467643380165,0.6597365736961365,-0.2097591906785965,-0.6141786575317383,-0.2020358592271804,0.0623388104140758,0.0,0.0,-0.8990665078163147,-0.2375965118408203
-0.1102189049124717,0.6457576155662537,-0.2098201513290405,-0.620937705039978,-0.1994079351425171,0.0525585524737834,0.0,0.0,-0.443514347076416,-0.6042954325675964
-0.1123391166329383,0.6316344738006592,-0.2152116596698761,-0.6272719502449036,-0.1961932927370071,0.0642929151654243,0.0,0.0,-0.3020421266555786,-0.3998302817344665
-0.1144652366638183,0.6173607110977173,-0.2153274565935135,-0.6340308785438538,-0.1934609562158584,0.0546466410160064,0.0,0.0,0.373916745185852,-0.2779585123062134
-0.1164774894714355,0.6039093732833862,-0.203435331583023,-0.5975502729415894,-0.1912393420934677,0.0444322861731052,0.0,0.0,-0.8571956753730774,-0.1793304085731506
-0.1184961348772049,0.590307354927063,-0.2035992592573166,-0.6043083667755127,-0.1894921511411667,0.0349434204399585,0.0,0.0,-0.2671376466751098,-0.0244271159172058
-0.1205212622880935,0.5765547156333923,-0.20378477871418,-0.6110661625862122,-0.1882150024175644,0.025543238967657,0.0,0.0,-0.5093526244163513,0.4188504219055176
-0.122553065419197,0.5626513361930847,-0.20399010181427,-0.6178237199783325,-0.1874030381441116,0.0162392333149909,0.0,0.0,0.1461403369903564,-0.1975319385528564
-0.1244620308279991,0.5493976473808289,-0.1913737952709198,-0.5889931321144104,-0.1869216114282608,0.0096284821629524,0.0,0.0,-0.2483457922935485,0.5207021236419678
-0.1263442933559417,0.535983681678772,-0.1873871833086013,-0.5962851643562317,-0.1877636760473251,-0.0168412011116743,0.0,0.0,-0.5759777426719666,0.5698422193527222
-0.1281930953264236,0.5224097967147827,-0.1825571060180664,-0.6035779714584351,-0.1900919079780578,-0.046564694494009,0.0,0.0,-0.8069381713867188,-0.1983999013900756
-0.1300488412380218,0.5086852312088013,-0.1828233003616333,-0.6103355288505554,-0.1928617507219314,-0.0553967244923114,0.0,0.0,-0.5292147994041443,-0.3706799745559692
-0.1319116652011871,0.4948100745677948,-0.1830999553203582,-0.6170932650566101,-0.1960660368204116,-0.0640853196382522,0.0,0.0,0.5075972080230713,0.8580573797225952
-0.1336315125226974,0.4812086820602417,-0.1666979491710662,-0.605213463306427,-0.201394036412239,-0.1065604463219642,0.0,0.0,0.4343471527099609,-0.6895279288291931
-0.1352554261684417,0.4679553508758545,-0.1582182347774505,-0.589610755443573,-0.2055991888046264,-0.084102839231491,0.0,0.0,0.8560649156570435,-0.144108772277832
-0.1365935355424881,0.4554429054260254,-0.1299927234649658,-0.5566455721855164,-0.2094489187002182,-0.0769948810338974,0.0,0.0,0.8213374614715576,-0.1649996042251587
-0.1376978904008865,0.4433697462081909,-0.1069220528006553,-0.5370824337005615,-0.2129871696233749,-0.0707649365067482,0.0,0.0,0.5605654716491699,0.0365161895751953
-0.1386641561985016,0.4321881532669067,-0.0927171856164932,-0.497529536485672,-0.2169390022754669,-0.0790369138121604,0.0,0.0,-0.0790001153945922,0.1657215356826782
-0.1396370828151703,0.4208559989929199,-0.0930141881108284,-0.504287838935852,-0.2212682515382766,-0.0865850523114204,0.0,0.0,0.800123929977417,-0.9832218885421752
-0.1403841078281402,0.4104159772396087,-0.0722387507557869,-0.4643720984458923,-0.2237615883350372,-0.0498664379119873,0.0,0.0,0.7873274087905884,0.4157254695892334
-0.1409526765346527,0.4003053903579712,-0.0545478537678718,-0.4497116208076477,-0.2261021882295608,-0.0468117520213127,0.0,0.0,0.7653458118438721,-0.8611368536949158
-0.1415325105190277,0.3908807039260864,-0.0569412000477314,-0.4190336465835571,-0.2271557599306106,-0.0210718587040901,0.0,0.0,0.1694656610488891,-0.9140207767486572
-0.1419809311628341,0.3822090029716491,-0.0453288219869136,-0.3853340446949005,-0.226663276553154,0.0098495557904243,0.0,0.0,-0.5494752526283264,-0.4171624183654785
-0.1424349844455719,0.3733863234519958,-0.0455844961106777,-0.3920900225639343,-0.2264774143695831,0.003717275802046,0.0,0.0,0.3597348928451538,0.1413120031356811
-0.1428470611572265,0.3654040694236755,-0.0406343825161457,-0.3548515737056732,-0.2270547449588775,-0.0115466341376304,0.0,0.0,-0.577931821346283,-0.3491525650024414
-0.1432640105485916,0.3572708368301391,-0.0408587045967578,-0.3616069257259369,-0.2279033064842224,-0.0169711001217365,0.0,0.0,-0.7767601609230042,-0.44592946767807
-0.1436855345964431,0.3489864468574524,-0.0410641394555568,-0.3683619201183319,-0.2290038019418716,-0.0220099911093711,0.0,0.0,-0.538591206073761,0.0559221506118774
-0.1441110670566558,0.3405509293079376,-0.041248545050621,-0.3751165568828583,-0.2303359359502792,-0.0266424175351858,0.0,0.0,-0.1073436141014099,-0.628075361251831
-0.1445910483598709,0.3319798111915588,-0.0477660074830055,-0.3809728324413299,-0.2305615842342376,-0.0045128846541047,0.0,0.0,0.3544431924819946,-0.0120608210563659
-0.1450545340776443,0.3240102231502533,-0.0455080159008502,-0.3543386161327362,-0.2314175814390182,-0.0171200223267078,0.0,0.0,0.12986421585083,0.6416511535644531
-0.1455020010471344,0.3164331614971161,-0.0423156097531318,-0.3371435403823852,-0.2338859140872955,-0.0493667945265769,0.0,0.0,0.0861101150512695,-0.2343750596046447
-0.1457744538784027,0.3093698024749756,-0.0249878130853176,-0.3142857551574707,-0.2361726909875869,-0.0457351468503475,0.0,0.0,-0.656765878200531,-0.2685016989707947
-0.1460484564304351,0.3021550178527832,-0.0250350330024957,-0.3210386633872986,-0.2385750859975814,-0.0480478666722774,0.0,0.0,-0.0163527727127075,-0.7380091547966003
-0.1463654488325119,0.2948099076747894,-0.0303657837212085,-0.3266667425632477,-0.2399323135614395,-0.0271444413810968,0.0,0.0,-0.2617802619934082,-0.8267046809196472
-0.1467474997043609,0.2873439192771911,-0.0385142490267753,-0.3317709863185882,-0.2396158874034881,0.0063281641341745,0.0,0.0,-0.6122932434082031,0.1479830741882324
-0.1471292525529861,0.2797261476516723,-0.0384536422789096,-0.3385219275951385,-0.2393368482589721,0.0055808653123676,0.0,0.0,-0.3203573226928711,0.0543535947799682
-0.1475102454423904,0.2719566226005554,-0.0383530333638191,-0.3452722728252411,-0.239068329334259,0.005370408296585,0.0,0.0,0.0007005929946899,-0.6042751669883728
-0.1478224694728851,0.2647803127765655,-0.032709002494812,-0.3187047839164734,-0.2375644892454147,0.030076390132308,0.0,0.0,-0.7643604278564453,-0.0906085968017578
-0.1481325179338455,0.2574521005153656,-0.0325224995613098,-0.3254542946815491,-0.2360172569751739,0.0309450626373291,0.0,0.0,-0.565696656703949,0.0367306470870971
-0.1484394073486328,0.2499718070030212,-0.0322901234030723,-0.3322032690048218,-0.2343997657299041,0.0323498472571373,0.0,0.0,-0.2954546213150024,-0.0996702909469604
-0.1487425863742828,0.2423393875360489,-0.032010018825531,-0.3389517366886139,-0.2326855659484863,0.0342844240367412,0.0,0.0,-0.4465529918670654,0.0289444923400878
-0.1490412652492523,0.2345546782016754,-0.0316803827881813,-0.3456997573375702,-0.2308485805988311,0.0367396399378776,0.0,0.0,-0.6376281380653381,-0.4748568534851074
-0.1493347138166427,0.2266177684068679,-0.0312994793057441,-0.3524473309516907,-0.2288634032011032,0.0397036112844944,0.0,0.0,-0.2574405670166015,-0.2496619820594787
-0.1496220529079437,0.2185285240411758,-0.0308656487613916,-0.3591944873332977,-0.2267052978277206,0.0431620888411998,0.0,0.0,0.0182107686996459,-0.2406443357467651
-0.1497742682695388,0.2105835974216461,-0.0179200805723667,-0.352694422006607,-0.2239780724048614,0.054544847458601,0.0,0.0,-0.4813503623008728,-0.8001968860626221
-0.1499700546264648,0.2025074362754821,-0.0238184537738561,-0.3583002388477325,-0.2196771949529647,0.0860176831483841,0.0,0.0,-0.3336616158485412,-0.2426599264144897
