x_pos,y_pos,x_vel,y_vel,angle,ang_vel,leg_1,leg_2,main_booster,lat_booster
-0.0015948296058923,1.4032902717590332,-0.1620582491159439,-0.3391070961952209,0.0023054482880979,0.0455175973474979,0.0,0.0,-0.1992708444595337,0.8897279500961304
-0.0031818388961255,1.3953452110290527,-0.1595388054847717,-0.3531143367290497,0.0031332394573837,0.0165581665933132,0.0,0.0,-0.5080417990684509,0.8956761360168457
-0.0047468184493482,1.387059211730957,-0.1556521952152252,-0.3682615160942077,0.0022926395758986,-0.016813363879919,0.0,0.0,0.4270859956741333,0.5161950588226318
-0.0064431191422045,1.3790844678878784,-0.1679500788450241,-0.3544337153434753,0.0006383103900589,-0.0330898910760879,0.0,0.0,-0.0786595940589904,0.6702903509140015
-0.008130932226777,1.3707774877548218,-0.1659930646419525,-0.3691994547843933,-0.0021222874056547,-0.0552171245217323,0.0,0.0,0.1469631195068359,0.4779343605041504
-0.009773826226592,1.362701654434204,-0.162468820810318,-0.3589306473731994,-0.0039207935333251,-0.035973485559225,0.0,0.0,-0.0450623631477355,0.7131788730621338
-0.0114092826843261,1.3542910814285278,-0.1608563959598541,-0.3738099336624145,-0.0065701594576239,-0.0529921427369117,0.0,0.0,0.4673354625701904,0.5318285226821899
-0.0128973964601755,1.3464080095291138,-0.1459730714559555,-0.3503738939762115,-0.009389080107212,-0.0563838891685009,0.0,0.0,-0.5972866415977478,0.1815797090530395
-0.0144223216921091,1.3381905555725098,-0.1501533538103103,-0.3652380406856537,-0.0116955442354083,-0.0461332909762859,0.0,0.0,-0.5358887910842896,0.4463155269622803
-0.0159787181764841,1.3296388387680054,-0.1538159251213073,-0.3800920844078064,-0.0134883439168334,-0.0358596555888652,0.0,0.0,-0.6131423115730286,0.8484659194946289
-0.0174846649169921,1.3207519054412842,-0.1473584473133087,-0.3950082957744598,-0.0166885070502758,-0.0640092492103576,0.0,0.0,0.1473664045333862,0.8977545499801636
-0.0188767425715923,1.3120758533477783,-0.1347260773181915,-0.3856564462184906,-0.0211290493607521,-0.0888190120458602,0.0,0.0,0.0748742818832397,0.8556466102600098
-0.0201072692871093,1.3037474155426023,-0.117398478090763,-0.3702509999275207,-0.0267169121652841,-0.1117676123976707,0.0,0.0,-0.3044384717941284,-0.3039640188217163
-0.0213466640561819,1.2950844764709473,-0.1188171058893203,-0.3851127922534942,-0.031790591776371,-0.1014830842614173,0.0,0.0,-0.4770468473434448,-0.1136142015457153
-0.0225893016904592,1.2860876321792605,-0.1196472644805908,-0.3999688327312469,-0.0363517478108406,-0.0912315919995307,0.0,0.0,-0.440612256526947,0.6586413383483887
-0.0237678531557321,1.276745319366455,-0.1121977940201759,-0.4153566062450409,-0.0419474579393863,-0.1119241267442703,0.0,0.0,-0.8641017079353333,0.551915168762207
-0.02488374710083,1.267072081565857,-0.1050951033830642,-0.4301170706748962,-0.0483779832720756,-0.1286223381757736,0.0,0.0,-0.9483123421669006,-0.08793306350708
-0.0259846691042184,1.257064700126648,-0.10410837829113,-0.4449761509895324,-0.0543003901839256,-0.1184588074684143,0.0,0.0,-0.92008638381958,0.5073585510253906
-0.027017880231142,1.2467243671417236,-0.0966664999723434,-0.4598329663276672,-0.0608871951699256,-0.1317479908466339,0.0,0.0,-0.6087880730628967,-0.8659994602203369
-0.0281013492494821,1.236056208610535,-0.1041753441095352,-0.4743157625198364,-0.0650186687707901,-0.0826369076967239,0.0,0.0,-0.9705106019973756,-0.6237291097640991
-0.0291902534663677,1.2250618934631348,-0.1062148362398147,-0.4887591004371643,-0.0676724165678024,-0.0530795939266681,0.0,0.0,-0.8927704691886902,0.3698272705078125
-0.030240248888731,1.2137327194213867,-0.1028134375810623,-0.5036144852638245,-0.0698292404413223,-0.0431403294205665,0.0,0.0,-0.7163074612617493,-0.7198998332023621
-0.0312898643314838,1.2020726203918457,-0.1044156551361084,-0.5182531476020813,-0.0703684985637664,-0.0107864569872617,0.0,0.0,-0.8778700828552246,-0.7670617699623108
-0.0323427207767963,1.1900749206542969,-0.1066006869077682,-0.5331705212593079,-0.0690703615546226,0.0259650405496358,0.0,0.0,-0.6493123173713684,0.4610345363616943
-0.0333394035696983,1.1777424812316897,-0.1014714688062667,-0.5480251312255859,-0.0672857239842414,0.0356963388621807,0.0,0.0,-0.8664902448654175,0.0827672481536865
-0.0342753417789936,1.1650540828704834,-0.0958861261606216,-0.5638313293457031,-0.0650171488523483,0.045371625572443,0.0,0.0,-0.5072258710861206,0.4468753337860107
-0.0351441390812397,1.1520310640335083,-0.0896636396646499,-0.5786842107772827,-0.0622677318751812,0.0549882762134075,0.0,0.0,-0.7375882267951965,0.683059811592102
-0.035898208618164,1.1386765241622925,-0.0775927156209945,-0.5934431552886963,-0.0601034127175807,0.0432863160967826,0.0,0.0,-0.5573986172676086,0.1616795063018798
-0.0365750305354595,1.1249873638153076,-0.0703526362776756,-0.6082962155342102,-0.0574638955295085,0.0527903959155082,0.0,0.0,-0.8194115161895752,-0.1067119240760803
-0.0371699333190918,1.1109639406204224,-0.0626337751746177,-0.6231496334075928,-0.0543519034981727,0.0622400045394897,0.0,0.0,-0.821488082408905,0.509490966796875
-0.0376365669071674,1.0966081619262695,-0.0492277778685092,-0.6379373073577881,-0.0518144369125366,0.0507494397461414,0.0,0.0,-0.8377559781074524,0.1315381526947021
-0.0380123145878315,1.0819181203842163,-0.0406150743365287,-0.652790904045105,-0.0488097183406353,0.0600942485034465,0.0,0.0,-0.8414565920829773,-0.162229835987091
-0.0382930748164653,1.0668938159942627,-0.0315880887210369,-0.6676448583602905,-0.0453402772545814,0.069389060139656,0.0,0.0,-0.9085733294487,-0.0081525444984436
-0.0384749397635459,1.05153489112854,-0.0221687275916337,-0.6824991703033447,-0.0414085090160369,0.0786353275179863,0.0,0.0,-0.4042721390724182,0.2074156999588012
-0.0385542884469032,1.0358418226242063,-0.0123787531629204,-0.6973539590835571,-0.0370167717337608,0.0878348723053932,0.0,0.0,-0.8720898628234863,0.1581940650939941
-0.0385275855660438,1.0198146104812622,-0.002239630324766,-0.712209165096283,-0.032167300581932,0.0969892963767051,0.0,0.0,-0.6572980880737305,0.5702791213989258
-0.0383484847843647,1.0034481287002563,0.0136345997452735,-0.727310836315155,-0.027947561815381,0.0843949764966964,0.0,0.0,-0.7269018888473511,0.7441942691802979
-0.037994384765625,0.9867506623268129,0.0322740264236927,-0.7420580983161926,-0.0248475559055805,0.0620000436902046,0.0,0.0,-0.7536196112632751,0.3533015251159668
-0.0375250801444053,0.969718873500824,0.0433369800448417,-0.7569130659103394,-0.0212961081415414,0.071028783917427,0.0,0.0,-0.768625795841217,0.727562427520752
-0.0368775352835655,0.9523517489433287,0.0622320286929607,-0.7718345522880554,-0.0188100300729274,0.0497219040989875,0.0,0.0,-0.7199705839157104,0.3539066314697265
-0.0361096374690532,0.934650421142578,0.0738146230578422,-0.7866895198822021,-0.0158763341605663,0.0586739107966423,0.0,0.0,-0.6326655149459839,0.6264429092407227
-0.0351593978703022,0.9166120886802672,0.0931234061717987,-0.8016870021820068,-0.0139981051906943,0.0375647544860839,0.0,0.0,-0.0890678763389587,-0.1715564727783203
-0.0340843200683593,0.8982394933700562,0.1051562428474426,-0.8165417909622192,-0.0116758877411484,0.0464443378150463,0.0,0.0,-0.8041664361953735,-0.2439771890640258
-0.0328825004398822,0.8795326948165894,0.1173903942108154,-0.8313968777656555,-0.008911439217627,0.0552889294922351,0.0,0.0,-0.5529478192329407,-0.2158927917480468
-0.0315518379211425,0.8604915738105774,0.1298111826181411,-0.8462522625923157,-0.0057064937427639,0.0640990063548088,0.0,0.0,-0.7997272610664368,0.1719787120819091
-0.0300909038633108,0.8411164283752441,0.1424047946929931,-0.8611080050468445,-0.0020627346821129,0.0728750601410865,0.0,0.0,-0.3916635513305664,-0.0309508442878723
-0.0284979827702045,0.8214072585105896,0.1551583111286163,-0.8759641647338867,0.0020181213039904,0.0816171765327453,0.0,0.0,-0.8557735085487366,-0.5172122120857239
-0.0268201828002929,0.8013696670532227,0.1619649976491928,-0.8905820846557617,0.0077547528780996,0.1147325634956359,0.0,0.0,-0.7185555100440979,0.2198314666748047
-0.0250077247619628,0.7809983491897583,0.1750028729438781,-0.9054402112960817,0.013925083912909,0.1234065443277359,0.0,0.0,-0.7659744024276733,-0.173745572566986
-0.0230591781437397,0.7602932453155518,0.1881667822599411,-0.920298993587494,0.0205273889005184,0.132046028971672,0.0,0.0,-0.3196707963943481,-0.7861389517784119
-0.0210207942873239,0.7392532825469971,0.1955021619796753,-0.9352492690086364,0.0287508964538574,0.1644701659679412,0.0,0.0,0.351863145828247,-0.554271936416626
-0.0189568512141704,0.7187836766242981,0.1966357380151748,-0.9099780917167664,0.0383921973407268,0.1928258687257766,0.0,0.0,0.1492125988006591,0.4615554809570312
-0.0166895873844623,0.6984492540359497,0.2161788046360016,-0.904055953025818,0.0488117448985576,0.2083910405635833,0.0,0.0,0.3852574825286865,-0.1156121492385864
-0.0143122673034667,0.6787847280502319,0.2267502099275589,-0.8743776679039001,0.0596682168543338,0.2171295136213302,0.0,0.0,-0.0106149911880493,0.1373896598815918
-0.0117941852658987,0.6587879061698914,0.2404116094112396,-0.8892447352409363,0.0709473267197609,0.2255821228027343,0.0,0.0,0.6603103876113892,0.2062925100326538
-0.0092638973146677,0.6391571164131165,0.2416655272245407,-0.8730562329292297,0.0822027400135994,0.225108116865158,0.0,0.0,0.5086236000061035,0.2377815246582031
-0.0065654753707349,0.6202929615974426,0.2576570808887481,-0.8391231298446655,0.0942735373973846,0.2414160966873169,0.0,0.0,0.4386913776397705,0.2162094116210937
-0.00366001133807,0.6019912958145142,0.2774093151092529,-0.8142946362495422,0.107316255569458,0.2608541846275329,0.0,0.0,0.7285115718841553,0.2587404251098633
-0.000625705695711,0.5846554040908813,0.2895294725894928,-0.7715393304824829,0.1211340576410293,0.2763561308383941,0.0,0.0,0.153070330619812,-0.2416223883628845
0.0024334907066076,0.5677955746650696,0.2918658554553985,-0.7505287528038025,0.1351168900728225,0.2796566784381866,0.0,0.0,0.2280266284942627,0.0519009828567504
0.0056374548003077,0.5510215759277344,0.3057945370674133,-0.7468960881233215,0.1496839523315429,0.2913413047790527,0.0,0.0,0.4529951810836792,-0.0746993422508239
0.0088069913908839,0.5348122715950012,0.3023741841316223,-0.7219436764717102,0.1642482727766037,0.2912860512733459,0.0,0.0,0.2090336084365844,0.6458766460418701
0.0122097013518214,0.5188679099082947,0.3264612555503845,-0.7102199196815491,0.1780749261379242,0.2765329778194427,0.0,0.0,0.7950348854064941,-0.6036220788955688
0.0156197547912597,0.5035718083381653,0.3255590796470642,-0.6817538142204285,0.1935809552669525,0.3101201951503753,0.0,0.0,0.7897872924804688,-0.4672115445137024
0.0190999992191791,0.488587349653244,0.3322059214115143,-0.6681221127510071,0.2095210254192352,0.3188016414642334,0.0,0.0,0.7198599576950073,-0.24801766872406
0.0224720947444438,0.4741354584693908,0.3216367363929748,-0.6445881724357605,0.225255861878395,0.3146966397762298,0.0,0.0,0.8238711357116699,0.9207476377487184
0.0258738510310649,0.4607783555984497,0.3260830640792846,-0.5958649516105652,0.2395569533109665,0.2860220074653625,0.0,0.0,0.7355846166610718,-0.0824203491210937
0.0294327735900878,0.4475694298744201,0.3410741984844208,-0.5895478129386902,0.2546387612819671,0.3016362190246582,0.0,0.0,-0.2682060599327087,0.6497014760971069
0.0331885330379009,0.434057742357254,0.3617954850196838,-0.602973222732544,0.268717885017395,0.2815830409526825,0.0,0.0,0.5187246799468994,-0.2102608680725097
0.0368918403983116,0.4208104908466339,0.3566360771656036,-0.5913439393043518,0.2827678620815277,0.2809997498989105,0.0,0.0,0.5045027732849121,0.5506048202514648
0.040524385869503,0.4081034064292907,0.3505504429340362,-0.5672699213027954,0.2958464920520782,0.2615724503993988,0.0,0.0,-0.1247169971466064,0.5147918462753296
0.0443442352116107,0.3950852453708648,0.3700518906116485,-0.5810614228248596,0.308182030916214,0.2467110455036163,0.0,0.0,0.582011342048645,0.319068431854248
0.0479480735957622,0.3828359246253967,0.3487139344215393,-0.5469421148300171,0.3202976882457733,0.2423124611377716,0.0,0.0,0.3327248096466064,0.6936146020889282
0.0516665466129779,0.3709755539894104,0.3611565232276916,-0.529532790184021,0.3314418494701385,0.2228836566209793,0.0,0.0,0.6447875499725342,0.2771629095077514
0.0553735718131065,0.359319806098938,0.3598792850971222,-0.520556628704071,0.3427645564079284,0.2264539450407028,0.0,0.0,0.824637770652771,0.3340165615081787
0.0591776855289936,0.3478781580924988,0.3689829409122467,-0.5112853050231934,0.3547587990760803,0.2398848831653595,0.0,0.0,0.5819487571716309,0.2421622276306152
0.0629872307181358,0.336546927690506,0.3694252073764801,-0.5065103769302368,0.3669268190860748,0.2433601319789886,0.0,0.0,0.9573662281036376,0.4552243947982788
0.0665971785783767,0.3261951208114624,0.3492752313613891,-0.4631327092647552,0.3793513178825378,0.2484894692897796,0.0,0.0,0.8830304145812988,0.4346334934234619
0.0700942054390907,0.3168587982654571,0.3373707234859466,-0.4182828962802887,0.3924877941608429,0.2627298235893249,0.0,0.0,0.8378539085388184,0.3323099613189697
0.0732746124267578,0.3083801567554474,0.3060548901557922,-0.380188524723053,0.4053236842155456,0.2567175924777984,0.0,0.0,0.911353588104248,-0.0955501794815063
0.0763126388192176,0.3000103235244751,0.292287141084671,-0.3753388524055481,0.4177297949790954,0.2481222152709961,0.0,0.0,0.821258544921875,-0.202747106552124
0.0791839584708213,0.2925313115119934,0.2752636671066284,-0.3359678983688354,0.4305887818336487,0.2571796774864197,0.0,0.0,0.7158854007720947,-0.4317373037338257
0.0818561539053917,0.2854701578617096,0.2556522190570831,-0.317423939704895,0.4431917071342468,0.2520584166049957,0.0,0.0,0.8039244413375854,0.1846563816070556
0.0843027085065841,0.2790423035621643,0.2332106530666351,-0.2893564403057098,0.4557308554649353,0.2507829070091247,0.0,0.0,0.4733365774154663,0.0592767000198364
0.086610697209835,0.2731161117553711,0.2192960232496261,-0.2671984136104584,0.4684150218963623,0.2536827623844147,0.0,0.0,0.7573249340057373,-0.1259669065475464
0.0888671875,0.2677498459815979,0.2136821001768112,-0.2425983697175979,0.4817025661468506,0.2657508254051208,0.0,0.0,0.2278519868850708,0.3084689378738403
0.0911663025617599,0.2624028921127319,0.2178121507167816,-0.2419238537549972,0.4952249526977539,0.2704479694366455,0.0,0.0,0.4664883613586426,0.6554813385009766
0.0935660377144813,0.2572927474975586,0.2289212644100189,-0.231151282787323,0.5076726078987122,0.2489528208971023,0.0,0.0,0.4451761245727539,0.3944551944732666
0.0959796905517578,0.2525995969772339,0.2297611683607101,-0.2129451185464859,0.5208236575126648,0.2630200088024139,0.0,0.0,0.3264980316162109,-0.0855504870414733
0.0984765067696571,0.2480704337358474,0.2376475632190704,-0.2059656679630279,0.5345763564109802,0.2750535607337951,0.0,0.0,0.2800887823104858,-0.5021814703941345
0.100780963897705,0.2439307570457458,0.2175431549549102,-0.1891591548919677,0.5494390726089478,0.2972541749477386,0.0,0.0,0.2226754426956176,0.5986146926879883
0.1029947251081466,0.240237608551979,0.2096271961927414,-0.1690023839473724,0.5630916953086853,0.2730523943901062,0.0,0.0,0.5905778408050537,-0.069471001625061
0.1051093116402626,0.2371231615543365,0.1993405520915985,-0.1435992568731308,0.5773058533668518,0.2842825055122375,0.0,0.0,-0.5771254301071167,0.6412009000778198
0.1074171066284179,0.2337183356285095,0.2201306372880935,-0.1560094356536865,0.5899053812026978,0.2519900202751159,0.0,0.0,-0.1900315284729004,0.0709316730499267
0.1098663359880447,0.2299806177616119,0.2344037592411041,-0.1708734333515167,0.6024579405784607,0.2510496973991394,0.0,0.0,-0.1755269169807434,0.0544788837432861
0.1124565154314041,0.2259099632501602,0.248644471168518,-0.1857359111309051,0.6149359941482544,0.2495615482330322,0.0,0.0,0.1778641939163208,-0.1082730889320373
0.11493930965662,0.221988707780838,0.2381476461887359,-0.1791105717420578,0.6272353529930115,0.2459870278835296,0.0,0.0,0.5576431751251221,0.649641752243042
0.1170568466186523,0.2185810208320617,0.2031633108854293,-0.1556396037340164,0.6377343535423279,0.2099801003932953,0.0,0.0,-0.5234773755073547,-0.0590315461158752
0.1193135231733322,0.2148390859365463,0.2172797471284866,-0.170494332909584,0.6480774283409119,0.2068613767623901,0.0,0.0,0.1396616697311401,0.3670028448104858
0.1213669776916503,0.2113479226827621,0.1972997188568115,-0.1592558175325393,0.6580672264099121,0.1997959166765213,0.0,0.0,-0.4703487157821655,-0.0234848260879516
0.1235583275556564,0.2075220197439193,0.2113111913204193,-0.1741068810224533,0.6678487658500671,0.1956306397914886,0.0,0.0,-0.2991200685501098,0.6151258945465088
0.1259234398603439,0.203401431441307,0.2299555838108062,-0.1866039633750915,0.6761088371276855,0.1652014702558517,0.0,0.0,-0.3424839377403259,0.9746522903442384
0.1284718513488769,0.1990029662847519,0.2498993873596191,-0.1981521248817443,0.6823849678039551,0.1255220621824264,0.0,0.0,-0.156865119934082,0.6852583885192871
0.1311875283718109,0.1943046003580093,0.2677417695522308,-0.2108965665102005,0.6872529983520508,0.0973622500896453,0.0,0.0,0.5381858348846436,0.661449670791626
0.1337345093488693,0.190199390053749,0.2521089911460876,-0.1838722079992294,0.6905554533004761,0.0660490468144416,0.0,0.0,-0.4369659423828125,0.7899847030639648
0.1364700347185135,0.18581622838974,0.2727157771587372,-0.195267379283905,0.6916286945343018,0.0214650984853506,0.0,0.0,-0.2741024494171142,-0.0984951853752136
0.1393382102251052,0.1810959726572036,0.2862508296966553,-0.2101040929555893,0.6923570036888123,0.0145663172006607,0.0,0.0,-0.5678068399429321,0.4587376117706299
0.1423378884792328,0.1760383248329162,0.2996782660484314,-0.2249397337436676,0.6927213072776794,0.0072857374325394,0.0,0.0,0.0351748466491699,0.0697331428527832
0.1451945304870605,0.1713468879461288,0.2853536605834961,-0.2086789458990097,0.6931171417236328,0.0079168416559696,0.0,0.0,-0.5459811687469482,-0.2608518600463867
0.1481799185276031,0.1663178503513336,0.2985334992408752,-0.2235126942396164,0.6931143999099731,-5.452639379655011e-05,0.0,0.0,-0.2909411787986755,-0.0710347890853881
0.1512924134731292,0.1609510034322738,0.3115712106227875,-0.2383455783128738,0.6926976442337036,-0.0083354944363236,0.0,0.0,-0.5144310593605042,0.0209097862243652
0.154530331492424,0.1552463322877884,0.3244532942771911,-0.2531777024269104,0.6918525099754333,-0.0169026516377925,0.0,0.0,-0.29661625623703,0.1334723234176635
0.1578919440507888,0.1492036432027816,0.3371648788452148,-0.2680092453956604,0.690565824508667,-0.0257334969937801,0.0,0.0,0.1720674037933349,0.3191156387329101
0.1610288619995117,0.1432472765445709,0.3153749108314514,-0.2638088166713714,0.6884241104125977,-0.0428342707455158,0.0,0.0,0.6744694709777832,0.5663461685180664
0.1638807356357574,0.1374648660421371,0.2884647250175476,-0.2552029192447662,0.6842377185821533,-0.08372812718153,0.0,0.0,0.4154119491577148,0.2691808938980102
0.1665302217006683,0.1318883746862411,0.2686765789985657,-0.2458250075578689,0.6794911026954651,-0.094932772219181,0.0,0.0,-0.0499050617218017,0.4040058851242065
0.1692941635847091,0.1259738504886627,0.2805340886116028,-0.2606560289859772,0.6742604374885559,-0.1046129316091537,0.0,0.0,0.1964037418365478,0.8787336349487305
0.1721492707729339,0.1201863586902618,0.2915606200695038,-0.2540221512317657,0.6666433811187744,-0.1523407399654388,0.0,0.0,0.2677388191223144,0.4774709939956665
0.1748476028442382,0.1147490590810775,0.2760287225246429,-0.2384257912635803,0.6588724851608276,-0.1554176062345504,0.0,0.0,-0.0143541693687438,-0.0897145867347717
0.1776513159275055,0.1089740842580795,0.2870247364044189,-0.2532588839530945,0.6505953073501587,-0.1655437052249908,0.0,0.0,-0.0111822485923767,0.2903381586074829
0.1805571615695953,0.1028615087270736,0.2976828217506408,-0.2680924832820892,0.6418060064315796,-0.175785630941391,0.0,0.0,0.0469539165496826,0.4396371841430664
