x_pos,y_pos,x_vel,y_vel,angle,ang_vel,leg_1,leg_2,main_booster,lat_booster
-0.0015526771312579,1.403434991836548,-0.1577502489089965,-0.3326753675937652,0.0022252588532865,0.043929636478424,0.0,0.0,0.2200322151184082,0.7433145046234131
-0.0030335425399243,1.3962910175323486,-0.1492964923381805,-0.3175072073936462,0.0034156311303377,0.0238105617463588,0.0,0.0,-0.331692099571228,0.6799334287643433
-0.0044782636687159,1.388952374458313,-0.144451767206192,-0.3261606097221374,0.0033949096687138,-0.0004144701524637,0.0,0.0,-0.1550806760787964,0.7938904762268066
-0.0059020044282078,1.38142192363739,-0.1415021270513534,-0.3346877992153168,0.0025447246152907,-0.0170053448528051,0.0,0.0,-0.4325747489929199,-0.1838492751121521
-0.0073545454069972,1.373701810836792,-0.14483442902565,-0.3431126177310943,0.0021249784622341,-0.0083958627656102,0.0,0.0,-0.0286778211593627,0.67266845703125
-0.0087712286040186,1.3657915592193604,-0.1400167346000671,-0.3515690267086029,0.0005006819264963,-0.0324887819588184,0.0,0.0,0.2104140520095825,0.0451271533966064
-0.0102334972470998,1.3583263158798218,-0.144935131072998,-0.3317889273166656,-0.000772820378188,-0.0254728198051452,0.0,0.0,-0.6374022960662842,0.1506648063659668
-0.0117246629670262,1.3506712913513184,-0.1482557654380798,-0.3402191400527954,-0.0016183952102437,-0.0169130470603704,0.0,0.0,-0.1278042793273925,0.336238145828247
-0.01324462890625,1.3428268432617188,-0.1515728682279586,-0.3486420810222626,-0.0020367708057165,-0.0083683589473366,0.0,0.0,0.0064150094985961,0.9380768537521362
-0.0147192003205418,1.3354623317718506,-0.1455818563699722,-0.3273202180862427,-0.0038872556760907,-0.0370131358504295,0.0,0.0,-0.2316320538520813,0.7206639051437378
-0.0161575321108102,1.3279080390930176,-0.1407425701618194,-0.335749089717865,-0.0069437297061085,-0.0611353330314159,0.0,0.0,-0.2071443200111389,0.7889684438705444
-0.0175549499690532,1.3201624155044556,-0.1353203356266021,-0.3442846834659576,-0.0113229332491755,-0.0875918343663215,0.0,0.0,-0.1259751319885254,0.1282110214233398
-0.0189808849245309,1.3122270107269287,-0.1386017054319381,-0.3527109026908874,-0.0152787892147898,-0.0791242867708206,0.0,0.0,-0.5701864957809448,-0.0647826790809631
-0.0204353332519531,1.3041024208068848,-0.1418763250112533,-0.361136645078659,-0.0188136920332908,-0.0707043409347534,0.0,0.0,-0.5314021706581116,0.3965891599655151
-0.0219182018190622,1.2957881689071655,-0.1451434940099716,-0.3695622086524963,-0.021929033100605,-0.0623123571276664,0.0,0.0,0.1151541471481323,0.6895451545715332
-0.0232869144529104,1.287572741508484,-0.1328608691692352,-0.3651953041553497,-0.0258962791413068,-0.0793521031737327,0.0,0.0,0.2970330715179443,0.6471166610717773
-0.0244953148066997,1.2801756858825684,-0.1161792129278183,-0.3288450837135315,-0.0305167492479085,-0.0924173891544342,0.0,0.0,-0.8090260028839111,0.0259522199630737
-0.0257319454103708,1.2725892066955566,-0.1194101125001907,-0.3372782468795776,-0.0347234308719635,-0.0841412395238876,0.0,0.0,-0.9080994129180908,0.7148401737213135
-0.0269309040158987,1.2648162841796875,-0.1143929809331893,-0.3455906510353088,-0.0401666574180126,-0.1088742762804031,0.0,0.0,-0.8336671590805054,0.1068971157073974
-0.0281576160341501,1.2568542957305908,-0.1175927072763443,-0.354017436504364,-0.0452003069221973,-0.1006817817687988,0.0,0.0,-0.7737129926681519,0.8009178638458252
-0.0293354038149118,1.2487034797668457,-0.1111478582024574,-0.362473577260971,-0.0517560765147209,-0.1311274766921997,0.0,0.0,-0.4936938285827636,-0.3817054033279419
-0.0305405613034963,1.240363359451294,-0.1143104434013366,-0.3709012269973755,-0.0579077266156673,-0.1230441108345985,0.0,0.0,-0.8650069236755371,-0.0387592911720275
-0.0317731872200965,1.2318336963653564,-0.1174550503492355,-0.3793283700942993,-0.0636596903204917,-0.115049347281456,0.0,0.0,-0.9870575070381165,-0.4542054533958435
-0.0330330841243267,1.2231146097183228,-0.1205796599388122,-0.3877549767494201,-0.0690151005983352,-0.1071177944540977,0.0,0.0,-0.8237910270690918,0.1581841707229614
-0.0343198776245117,1.2142058610916138,-0.1236816793680191,-0.3961811363697052,-0.0739776864647865,-0.0992605090141296,0.0,0.0,-0.8687461614608765,0.6763222217559814
-0.0355940833687782,1.205085277557373,-0.1217695921659469,-0.4056497514247894,-0.0795717611908912,-0.111881136894226,0.0,0.0,-0.7969868779182434,0.1920229196548462
-0.0368949882686138,1.1957751512527466,-0.1248316317796707,-0.4140730202198028,-0.0847820863127708,-0.1042066216468811,0.0,0.0,-0.3931143283843994,0.7808977365493774
-0.0381736755371093,1.1862775087356567,-0.1217664256691932,-0.4224794209003448,-0.0908291637897491,-0.120941437780857,0.0,0.0,-0.935160994529724,0.3565304279327392
-0.0394784919917583,1.1765902042388916,-0.1247623413801193,-0.4309028387069702,-0.09650219976902,-0.1134608760476112,0.0,0.0,-0.684579610824585,0.8253504037857056
-0.0407466888427734,1.1667014360427856,-0.1198669895529747,-0.4399713277816772,-0.1033955365419387,-0.1378666907548904,0.0,0.0,-0.8249833583831787,-0.130919337272644
-0.0420403480529785,1.156623125076294,-0.1227842569351196,-0.4483953416347503,-0.109925776720047,-0.130604937672615,0.0,0.0,-0.8945412039756775,0.4349451065063476
-0.0433589927852153,1.146355390548706,-0.1256566941738128,-0.4568187594413757,-0.116098903119564,-0.1234625801444053,0.0,0.0,-0.0230624675750732,-0.425634503364563
-0.0447023399174213,1.135897874832153,-0.1284803003072738,-0.4652417302131653,-0.1219212412834167,-0.1164466738700866,0.0,0.0,-0.3737305402755737,-0.1859356164932251
-0.0460700020194053,1.1252509355545044,-0.1312508434057235,-0.4736642241477966,-0.1273994445800781,-0.1095644459128379,0.0,0.0,-0.4299697279930115,0.9019378423690796
-0.047388456761837,1.114402174949646,-0.1248235329985618,-0.4827825427055359,-0.1343896389007568,-0.1398042887449264,0.0,0.0,0.4303607940673828,-0.507605254650116
-0.0486649498343467,1.1043455600738523,-0.122022233903408,-0.4474753737449646,-0.1399921476840973,-0.1120500788092613,0.0,0.0,-0.9518489241600036,0.8594892024993896
-0.0498999580740928,1.0940815210342407,-0.11656204611063,-0.4568504691123962,-0.1469181627035141,-0.1385203599929809,0.0,0.0,0.4381313323974609,0.5719722509384155
-0.0509791374206543,1.0845978260040283,-0.1002289652824401,-0.422280490398407,-0.1545912623405456,-0.1534621268510818,0.0,0.0,-0.9046313166618348,-0.2998343110084533
-0.0520794875919818,1.0749244689941406,-0.1026606559753418,-0.4307046234607696,-0.1619593799114227,-0.1473626643419265,0.0,0.0,-0.0313873887062072,-0.2438065409660339
-0.0532002449035644,1.0650618076324463,-0.105007566511631,-0.4391282796859741,-0.16903156042099,-0.1414437144994735,0.0,0.0,-0.138956606388092,-0.3402913808822632
-0.0543405525386333,1.0550094842910769,-0.1072634905576706,-0.4475515484809875,-0.1758172363042831,-0.1357132941484451,0.0,0.0,-0.3696434497833252,-0.3602738380432129
-0.0554996505379676,1.0447676181793213,-0.1094220429658889,-0.4559744596481323,-0.1823261976242065,-0.1301793754100799,0.0,0.0,-0.0702123641967773,-0.5142497420310974
-0.0567108169198036,1.0343399047851562,-0.1157572269439697,-0.4641279280185699,-0.1877072900533676,-0.1076221093535423,0.0,0.0,-0.8830435872077942,-0.4177522659301758
-0.0579388625919818,1.0237221717834473,-0.1177011355757713,-0.4725494980812073,-0.1928325295448303,-0.1025047525763511,0.0,0.0,-0.8669694066047668,-0.4983527064323425
-0.0591825470328331,1.0129146575927734,-0.1195279508829116,-0.4809709191322326,-0.1977128982543945,-0.0976069644093513,0.0,0.0,-0.9731194972991944,0.0082441568374633
-0.0604410171508789,1.0019173622131348,-0.1212310791015625,-0.4893922507762909,-0.2023596912622451,-0.0929359719157219,0.0,0.0,-0.8347509503364563,-0.6963099241256714
-0.0617619529366493,0.990741491317749,-0.1289431750774383,-0.4971466958522796,-0.2055297046899795,-0.0634004324674606,0.0,0.0,-0.9225872159004213,-0.0366922616958618
-999.0,0.9793753623962402,-0.1303798258304596,-0.5055671334266663,-0.2084898799657821,-0.0592033490538597,0.0,0.0,-0.2463098764419555,-0.3140647411346435
-0.0644391030073165,0.9678193926811218,-0.1316744685173034,-0.51398766040802,-0.2112524956464767,-0.0552524700760841,0.0,0.0,-0.9865479469299316,-0.4937509298324585
-0.0657928436994552,0.9560734629631042,-0.1328216940164566,-0.5224081873893738,-0.2138301730155944,-0.0515532381832599,0.0,0.0,-0.406842827796936,-0.9369951486587524
-0.0672100037336349,0.9441553354263306,-0.1407482922077179,-0.5298369526863098,-0.2147996127605438,-0.0193890016525983,0.0,0.0,-0.3811372518539428,-0.9728618860244752
-0.0687150955200195,0.9320803880691528,-0.1518381983041763,-0.5364710688591003,-0.2134601473808288,0.026789341121912,0.0,0.0,-0.9475520849227904,-0.4773505926132202
-0.0702255219221115,0.919815480709076,-0.1525166183710098,-0.5448917150497437,-0.2119748145341873,0.0297067370265722,0.0,0.0,-0.9959997534751892,-0.6409968137741089
-0.0717882141470909,0.907382607460022,-0.1591407060623169,-0.5521674752235413,-0.2090699076652526,0.0580982193350791,0.0,0.0,-0.9742059707641602,0.3158129453659057
-0.0733530968427658,0.8947598934173584,-0.1594918668270111,-0.5605892539024353,-0.2060459852218628,0.0604787953197956,0.0,0.0,-0.963828146457672,0.5246953964233398
-0.0748850852251052,0.8819343447685242,-0.1554170399904251,-0.5697110295295715,-0.2038058191537857,0.0448031909763813,0.0,0.0,-0.8614546656608582,-0.5852398872375488
-0.0764537826180458,0.8689364790916443,-0.160167708992958,-0.5772368311882019,-0.200477197766304,0.0665721222758293,0.0,0.0,-0.8159095048904419,-0.2170257568359375
-0.078020192682743,0.8557490110397339,-0.1600220054388046,-0.5856596231460571,-0.1970702409744262,0.0681390911340713,0.0,0.0,-0.9306803345680236,-0.1712754964828491
-0.0795827880501747,0.8423718810081482,-0.1597126424312591,-0.5940826535224915,-0.1935984492301941,0.0694357380270958,0.0,0.0,-0.9266816973686218,-0.2755099534988403
-0.0811402350664138,0.8288053274154663,-0.1592420190572738,-0.6025059223175049,-0.1900752633810043,0.0704637914896011,0.0,0.0,-0.9621142745018004,-0.431542694568634
-0.0826909095048904,0.8150492310523987,-0.1586132794618606,-0.610929548740387,-0.1865139752626419,0.0712257176637649,0.0,0.0,-0.7898383140563965,-0.3504335880279541
-0.0842335671186447,0.8011037707328796,-0.1578302681446075,-0.6193533539772034,-0.1829277276992797,0.0717248320579528,0.0,0.0,-0.9318487048149108,-0.239700973033905
-0.0857666954398155,0.7869688868522644,-0.156897485256195,-0.6277773976325989,-0.1793294697999954,0.0719648525118827,0.0,0.0,-0.8896161913871765,-0.5633624792098999
-0.087331011891365,0.772657036781311,-0.1610997766256332,-0.6355258226394653,-0.1746459752321243,0.0936699211597442,0.0,0.0,-0.9467983245849608,-0.1965364813804626
-0.0888832062482833,0.7581559419631958,-0.1598830968141555,-0.6439510583877563,-0.1699756830930709,0.093405857682228,0.0,0.0,-0.916434645652771,-0.3651038408279419
-0.0904221534729003,0.7434656023979187,-0.1585328727960586,-0.6523763537406921,-0.1653307974338531,0.0928978845477104,0.0,0.0,-0.7008051872253418,-0.4296281933784485
-0.0919466018676757,0.7285862565040588,-0.1570551544427871,-0.660801887512207,-0.1607231944799423,0.0921520665287971,0.0,0.0,-0.6894457936286926,-0.3371511697769165
-0.0934555977582931,0.7135176658630371,-0.1554562002420425,-0.6692274808883667,-0.1561644375324249,0.0911748558282852,0.0,0.0,-0.813300609588623,-0.2355773448944091
-0.0949480086565017,0.6982600092887878,-0.1537422835826873,-0.6776531934738159,-0.1516657769680023,0.0899730622768402,0.0,0.0,-0.2204372882843017,0.0919249057769775
-0.0964227691292762,0.6828131675720215,-0.151919737458229,-0.6860789656639099,-0.147238090634346,0.0885538533329963,0.0,0.0,-0.8509042859077454,0.4790775775909424
-0.0978792160749435,0.6671772599220276,-0.1499948501586914,-0.6945047378540039,-0.1428918689489364,0.0869245752692222,0.0,0.0,-0.627048671245575,0.6846489906311035
-0.0992597565054893,0.6513413786888123,-0.1408877819776535,-0.7035523653030396,-0.1400752961635589,0.0563315823674202,0.0,0.0,-0.4163849949836731,0.6308189630508423
-0.1005808860063552,0.6353148818016052,-0.1338346153497696,-0.7121250629425049,-0.138347715139389,0.0345516577363014,0.0,0.0,-0.2998805046081543,0.5971050262451172
-0.1018284782767295,0.6190881729125977,-0.1250490099191665,-0.7211614847183228,-0.1380697786808014,0.0055587282404303,0.0,0.0,-0.4678928852081299,0.3435801267623901
-0.1030547171831131,0.6026721596717834,-0.1227745190262794,-0.7295859456062317,-0.1379114538431167,0.0031665340065956,0.0,0.0,0.7342991828918457,0.1209408044815063
-0.1041410416364669,0.5865590572357178,-0.108995221555233,-0.7161014080047607,-0.1375510990619659,0.0072068693116307,0.0,0.0,0.847825288772583,0.1286746263504028
-0.1051875129342079,0.5708280801773071,-0.1047094240784645,-0.699148416519165,-0.1374905854463577,0.0012102619512006,0.0,0.0,0.6139028072357178,-0.3045225739479065
-0.1061125770211219,0.5560608506202698,-0.0923796147108078,-0.656333863735199,-0.1376119703054428,-0.0024280454963445,0.0,0.0,-0.5727741122245789,-0.6117076873779297
-0.1070547103881836,0.5411190390586853,-0.0950033813714981,-0.6640082001686096,-0.1368218511343002,0.0158020853996276,0.0,0.0,-0.3323415517807007,-0.2019914984703064
-0.1079725250601768,0.525987982749939,-0.092410996556282,-0.6724331974983215,-0.1361901462078094,0.0126341488212347,0.0,0.0,0.7951183319091797,-0.6591074466705322
-0.1090192794799804,0.5112373232841492,-0.1060956493020057,-0.6554547548294067,-0.134777083992958,0.0282608084380626,0.0,0.0,-0.6210286617279053,0.6089721918106079
-0.1099894493818283,0.4962925910949707,-0.0969636440277099,-0.6642186045646667,-0.1348309516906738,-0.0010770742082968,0.0,0.0,0.9493691921234132,-0.2639866471290588
-0.1109612435102462,0.4821919500827789,-0.0963933020830154,-0.626763641834259,-0.1356150060892105,-0.0156810861080884,0.0,0.0,0.0372554063796997,-0.4504660367965698
-0.1118837371468544,0.4685416519641876,-0.0911168009042739,-0.6067837476730347,-0.1367408484220504,-0.0225168205797672,0.0,0.0,0.2039171457290649,0.1354248523712158
-0.1127191558480262,0.4554611444473266,-0.0821835771203041,-0.5814802050590515,-0.1380947530269622,-0.0270776934921741,0.0,0.0,-0.5630056858062744,-0.502655029296875
-0.1135617271065712,0.4421985745429992,-0.0835687071084976,-0.5895100235939026,-0.1387819349765777,-0.0137437675148248,0.0,0.0,-0.0317630767822265,-0.0876391530036926
-0.1143775954842567,0.4287469089031219,-0.0806954652070999,-0.5979354977607727,-0.1396659463644027,-0.017680512741208,0.0,0.0,0.1381466388702392,-0.520628809928894
-0.1150994300842285,0.4155083000659942,-0.0722656697034835,-0.5883765816688538,-0.1395769268274307,0.001780217164196,0.0,0.0,0.697105884552002,-0.6277164816856384
-0.1155998259782791,0.402927964925766,-0.0515761002898216,-0.5589831471443176,-0.1380456089973449,0.0306266993284225,0.0,0.0,-0.0178195834159851,-0.06601083278656
-0.1160728484392166,0.3901585042476654,-0.0486240088939666,-0.5674088597297668,-0.1367224156856537,0.0264638811349868,0.0,0.0,0.5119580030441284,0.2402310371398925
-0.1164295226335525,0.3782226741313934,-0.0367666445672512,-0.5303827524185181,-0.1356345862150192,0.0217567663639783,0.0,0.0,-0.0021134614944458,-0.4833146333694458
-0.1167584434151649,0.3660977184772491,-0.0337721742689609,-0.5388084650039673,-0.1347608566284179,0.0174747351557016,0.0,0.0,0.2118651866912841,-0.921212911605835
-0.1169601455330848,0.354507565498352,-0.0227148123085498,-0.5148874521255493,-0.1322196722030639,0.0508235171437263,0.0,0.0,0.2461247444152832,-0.4025461673736572
-0.1170257553458213,0.3430795073509216,-0.0092509305104613,-0.5076797008514404,-0.1295455247163772,0.0534830316901207,0.0,0.0,0.4637928009033203,0.5214588642120361
-0.1170138344168663,0.3321336507797241,-0.0001015135640045,-0.4863696694374084,-0.1282589584589004,0.0257309637963771,0.0,0.0,0.2281227111816406,-0.5746865272521973
-0.116867259144783,0.321954995393753,0.0123048005625605,-0.4521800577640533,-0.1259144246578216,0.046890627592802,0.0,0.0,-0.5211686491966248,-0.1303604841232299
-0.1166922599077224,0.3115873634815216,0.0153769012540578,-0.460606038570404,-0.123793788254261,0.0424127094447612,0.0,0.0,-0.4055259823799133,-0.5567516684532166
-0.1165408119559288,0.3010455667972564,0.0118821347132325,-0.4682584404945373,-0.1205546930432319,0.0647819191217422,0.0,0.0,0.2998087406158447,-0.1380028128623962
-0.1162267699837684,0.2911199629306793,0.0280603021383285,-0.4408720433712005,-0.1172247752547264,0.0665983408689498,0.0,0.0,-0.3324406743049621,0.4393432140350342
-0.1158839240670204,0.281005322933197,0.0311635192483663,-0.4492983520030975,-0.1141213774681091,0.0620681121945381,0.0,0.0,-0.0784060359001159,-0.2948199510574341
-0.1155121773481369,0.2707016468048095,0.0342750363051891,-0.4577245116233825,-0.1112448424100875,0.0575307086110115,0.0,0.0,0.1077011823654174,-0.3321676254272461
-0.1150910407304763,0.260709285736084,0.0395217761397361,-0.4439122080802917,-0.1086724698543548,0.0514474287629127,0.0,0.0,0.0193812847137451,-0.6465393900871277
-0.1147329360246658,0.2511034905910492,0.0322383269667625,-0.426667183637619,-0.1051202267408371,0.071044698357582,0.0,0.0,-0.5194525122642517,-0.0452181100845336
-0.1143457442522049,0.2413086295127868,0.0353690311312675,-0.4350933730602264,-0.1017944663763046,0.0665152072906494,0.0,0.0,-0.1928946375846862,0.0924165248870849
-0.1139294654130935,0.2313247323036193,0.0385044477880001,-0.4435193836688995,-0.0986945703625679,0.0619979128241539,0.0,0.0,0.5756210088729858,0.4708410501480102
-0.1133912056684494,0.2216684222221374,0.0506615936756134,-0.4289665520191192,-0.0955490916967392,0.062909610569477,0.0,0.0,0.1352260112762451,-0.4857776165008545
-0.1126744300127029,0.2125913947820663,0.0682636797428131,-0.4032078981399536,-0.0921665951609611,0.067650094628334,0.0,0.0,-0.4962011575698852,-0.7961029410362244
-0.1119931191205978,0.2033410668373108,0.0632782876491546,-0.4108372330665588,-0.0873577147722244,0.0961774066090583,0.0,0.0,-0.2692901492118835,0.0278382301330566
-0.111282542347908,0.1939016878604889,0.0664245337247848,-0.4192639291286468,-0.0827699974179267,0.0917543023824691,0.0,0.0,0.1653478145599365,-0.0410652756690979
-0.1104553192853927,0.1848778128623962,0.0780648291110992,-0.4008108377456665,-0.0781528130173683,0.0923437401652336,0.0,0.0,-0.1739557981491089,-0.5964520573616028
-0.1096460372209549,0.175676479935646,0.0752680450677871,-0.4086606204509735,-0.0725492686033248,0.1120707243680954,0.0,0.0,0.0679953098297119,0.3612507581710815
-0.1087314635515213,0.1670437008142471,0.0858349204063415,-0.3834169209003448,-0.0669797286391258,0.1113908514380455,0.0,0.0,0.1187467575073242,-0.1878132820129394
-0.1077122688293457,0.1586811393499374,0.0962483361363411,-0.3714249432086944,-0.0613707788288593,0.1121786087751388,0.0,0.0,-0.1448574066162109,-0.3853226900100708
-0.1066638007760047,0.1501296907663345,0.0993921011686325,-0.3798518478870392,-0.0559722520411014,0.1079705134034156,0.0,0.0,-0.1118462085723877,-0.5164603590965271
-0.1056354492902755,0.1413921266794204,0.0963167548179626,-0.3881067037582397,-0.0495347306132316,0.1287504434585571,0.0,0.0,0.0327239036560058,-0.3932020664215088
-0.1045738235116005,0.1329945921897888,0.0999190285801887,-0.3730289340019226,-0.043364193290472,0.1234104484319686,0.0,0.0,-0.2315424084663391,0.3551900386810303
-0.1034829169511795,0.1244081556797027,0.1030529737472534,-0.381456047296524,-0.0373952202498912,0.1193797141313552,0.0,0.0,0.3180956840515136,-0.2787808179855346
-0.1022478118538856,0.1160569787025451,0.1171797886490821,-0.371017724275589,-0.0311425030231475,0.1250543594360351,0.0,0.0,0.7408615350723267,-0.411945104598999
-0.1008583083748817,0.1085924208164215,0.1323337107896804,-0.3316380679607391,-0.0246094949543476,0.1306600868701934,0.0,0.0,-0.3978233337402344,0.1670607328414917
-0.0994395241141319,0.1009389013051986,0.1354513615369796,-0.3400652706623077,-0.0182674676179885,0.1268403679132461,0.0,0.0,0.2192400693893432,-0.333518385887146
