x_pos,y_pos,x_vel,y_vel,angle,ang_vel,leg_1,leg_2,main_booster,lat_booster
-0.0015021323924884,1.4031327962875366,-0.151962012052536,-0.3461038172245025,0.001562051125802,0.0307979527860879,0.0,0.0,-0.4333785772323608,0.2769606113433838
-0.0029825209639966,1.3948768377304075,-0.1493836939334869,-0.3669295012950897,0.0028861330356448,0.0264846682548522,0.0,0.0,-0.0098179578781127,0.8600742816925049
-0.0043582916259765,1.3861228227615356,-0.1366059929132461,-0.3890643417835235,0.0019323480082675,-0.0190772376954555,0.0,0.0,-0.1533806920051574,0.5986378192901611
-0.0056736944243311,1.3768752813339231,-0.1294094771146774,-0.4110018014907837,-0.0001733602257445,-0.0421184785664081,0.0,0.0,-0.1075838208198547,0.6217203140258789
-0.0069068907760083,1.367138147354126,-0.1194792985916137,-0.4327698349952698,-0.0039762943051755,-0.0760657787322998,0.0,0.0,0.1450610160827636,0.199527621269226
-0.0080204959958791,1.357473373413086,-0.1077605336904525,-0.4295539557933807,-0.0075301206670701,-0.0710832923650741,0.0,0.0,0.1501772403717041,-0.0011008381843566
-0.0091235162690281,1.3479204177856443,-0.1064158678054809,-0.4246043264865875,-0.011367592960596,-0.0767567008733749,0.0,0.0,0.3329784870147705,0.3018929958343506
-0.0100763319060206,1.338656663894653,-0.0917853191494941,-0.4117514491081238,-0.0148400086909532,-0.0694543644785881,0.0,0.0,-0.4175472259521484,0.5179330110549927
-0.0109656332060694,1.3289062976837158,-0.084185853600502,-0.4334095120429992,-0.0195291526615619,-0.093791477382183,0.0,0.0,-0.5527689456939697,-0.2440247535705566
-0.0118310926482081,1.31866455078125,-0.0815825164318084,-0.455261766910553,-0.0244301259517669,-0.0980285108089447,0.0,0.0,-0.6663838028907776,0.4014937877655029
-0.0126724243164062,1.3079315423965454,-0.0789611563086509,-0.4771167337894439,-0.029545122757554,-0.1023095846176147,0.0,0.0,-0.2887049913406372,-0.4114905595779419
-0.0134895322844386,1.2967071533203125,-0.0763224735856056,-0.4989725947380066,-0.0348751917481422,-0.1066109761595726,0.0,0.0,-0.7917038202285767,-0.8644779920578003
-0.0143355373293161,1.284998893737793,-0.0803567618131637,-0.5204769968986511,-0.0390768386423587,-0.0840406790375709,0.0,0.0,0.2768402099609375,-0.8226403594017029
-0.0151507379487156,1.273202896118164,-0.0787607505917549,-0.5243335366249084,-0.0418006777763366,-0.0544817857444286,0.0,0.0,0.2344827651977539,-0.6903408169746399
-0.0158517844974994,1.261841893196106,-0.0686888694763183,-0.5049784183502197,-0.0431966483592987,-0.0279221478849649,0.0,0.0,-0.7192981243133545,-0.7924148440361023
-0.01657953299582,1.2499829530715942,-0.0724447146058082,-0.5270674824714661,-0.043527390807867,-0.0066152936778962,0.0,0.0,-0.7048550248146057,-0.8211241364479065
-0.0173322670161724,1.2376455068588257,-0.0759912282228469,-0.548310399055481,-0.0428199507296085,0.0141503540799021,0.0,0.0,-0.8532763123512268,0.0338945388793945
-0.0180603023618459,1.2248165607452393,-0.0732912570238113,-0.5701647996902466,-0.0423344820737838,0.0097104925662279,0.0,0.0,-0.507368803024292,-0.1014256477355957
-0.0187634471803903,1.211495876312256,-0.0705806165933609,-0.5920193195343018,-0.0420711077749729,0.0052677579224109,0.0,0.0,-0.7758158445358276,-0.5582752823829651
-0.0194915775209665,1.1976865530014038,-0.0741295292973518,-0.6137099862098694,-0.0407731942832469,0.0259605459868907,0.0,0.0,-0.7920854091644287,-0.0880290865898132
-0.0201947204768657,1.1833856105804443,-0.0714042410254478,-0.6355646848678589,-0.0396996140480041,0.0214737188071012,0.0,0.0,-0.872444212436676,-0.3552501201629638
-0.0208728797733783,1.1685932874679563,-0.0686704963445663,-0.6574192643165588,-0.038850050419569,0.0169926732778549,0.0,0.0,-0.5559166073799133,-0.4425399303436279
-0.0215258598327636,1.1533091068267822,-0.0659291744232177,-0.6792739033699036,-0.0382252968847751,0.0124960867688059,0.0,0.0,-0.5091083645820618,-0.8776502013206482
-0.0222151763737201,1.1375274658203125,-0.0708993822336196,-0.7013656497001648,-0.0362843088805675,0.0388232246041297,0.0,0.0,-0.500835120677948,-0.5376753807067871
-0.0229318626224994,1.1212583780288696,-0.0747380256652832,-0.7229948043823242,-0.0332479439675807,0.0607328116893768,0.0,0.0,-0.3759180307388305,0.0115102529525756
-0.0236237533390522,1.1044764518737793,-0.0720337778329849,-0.74580317735672,-0.0304375644773244,0.0562076978385448,0.0,0.0,-0.5052131414413452,-0.0896099209785461
-0.0242901798337698,1.087203025817871,-0.0692698657512664,-0.7676562070846558,-0.0278531983494758,0.051687441766262,0.0,0.0,0.5933139324188232,0.0184710025787353
-0.0250351913273334,1.0706368684768677,-0.0762912780046463,-0.7362460494041443,-0.0260779000818729,0.0355058796703815,0.0,0.0,-0.0767745971679687,-0.6364586353302002
-0.0258158687502145,1.053586721420288,-0.0811987519264221,-0.7577313780784607,-0.0229881666600704,0.0617949143052101,0.0,0.0,0.3945482969284057,-0.1786317825317382
-0.0265792850404977,1.0366628170013428,-0.0791690126061439,-0.7521283626556396,-0.0202065743505954,0.0556319765746593,0.0,0.0,-0.4841209650039673,0.3011473417282104
-0.0273174289613962,1.0192474126815796,-0.0763958245515823,-0.7739810943603516,-0.0176510699093341,0.051110316067934,0.0,0.0,-0.1492765545845031,-0.0301097631454467
-0.0280301086604595,1.001340627670288,-0.073621779680252,-0.7958337068557739,-0.0153215387836098,0.0465904623270034,0.0,0.0,0.6202250719070435,-0.1010000705718994
-0.0287861824035644,0.9841232299804688,-0.0773575454950332,-0.7652041912078857,-0.013592499308288,0.0345808342099189,0.0,0.0,0.0121906995773315,-0.3554461002349853
-0.0295527465641498,0.9667463898658752,-0.0780046358704567,-0.7722927927970886,-0.0122697930783033,0.0264543052762746,0.0,0.0,0.4880709648132324,-0.0851581096649169
-0.0302723888307809,0.9497248530387878,-0.07314033806324,-0.7564965486526489,-0.0111047374084591,0.0233010277152061,0.0,0.0,0.5391331911087036,-0.1525732278823852
-0.0309416763484478,0.933268427848816,-0.0679695606231689,-0.7313893437385559,-0.0100865308195352,0.0203643050044775,0.0,0.0,0.0691941976547241,0.3488740921020508
-0.0315997116267681,0.9167625904083252,-0.0665207058191299,-0.733587920665741,-0.0093717230483889,0.0142962764948606,0.0,0.0,0.4916467666625976,0.2116317749023437
-0.0321914665400981,0.9007955193519592,-0.0598322339355945,-0.7096452116966248,-0.0087224207818508,0.0129860360175371,0.0,0.0,-0.8110647201538086,-0.1258536577224731
-0.0327577590942382,0.8843366503715515,-0.0570691153407096,-0.7314971089363098,-0.008297175168991,0.0085049495100975,0.0,0.0,-0.3906784057617187,-0.707041323184967
-0.0333521850407123,0.8673879504203796,-0.0610002391040325,-0.7532719969749451,-0.0067555215209722,0.030833089724183,0.0,0.0,-0.0850498676300048,0.3994073867797851
-0.0339213386178016,0.8499475717544556,-0.058246087282896,-0.7751241326332092,-0.0054369233548641,0.0263719409704208,0.0,0.0,0.6243253946304321,0.4738248586654663
-0.0343409553170204,0.8327865600585938,-0.0436503067612648,-0.76270592212677,-0.0037794902455061,0.0331486649811267,0.0,0.0,-0.5814525485038757,0.0056074857711791
-0.034735582768917,0.8151340484619141,-0.0409080646932125,-0.7845580577850342,-0.0023438800126314,0.0287120547145605,0.0,0.0,0.6865451335906982,0.4680702686309814
-0.0350023284554481,0.7977989912033081,-0.0283842086791992,-0.7704496383666992,-0.0006605625385418,0.0336665399372577,0.0,0.0,-0.0317049026489257,0.2025645971298217
-0.0352440848946571,0.77997225522995,-0.0256571620702743,-0.792301595211029,0.0008024080307222,0.0292595420032739,0.0,0.0,0.6641871929168701,0.6998558044433594
-0.0353551879525184,0.7621516585350037,-0.0110743213444948,-0.7920250296592712,0.0007620700052939,-0.0008066841401159,0.0,0.0,-0.2529407739639282,0.6024610996246338
-0.0353889465332031,0.7438362240791321,-0.001777714700438,-0.8140199184417725,-0.0008162503363564,-0.0315663777291774,0.0,0.0,0.0846331119537353,-0.2739611864089966
-0.035471249371767,0.7258502840995789,-0.0060670347884297,-0.7993761301040649,-0.0029535014182329,-0.0427448898553848,0.0,0.0,-0.0834158062934875,-0.4029383659362793
-0.0355289466679096,0.707372784614563,-0.0033818800002336,-0.8212282657623291,-0.0053072641603648,-0.0470754876732826,0.0,0.0,0.1050939559936523,-0.4935644865036011
-0.0355744361877441,0.6889141798019409,-0.0018775050994008,-0.8203946948051453,-0.0079418877139687,-0.0526924356818199,0.0,0.0,-0.3236235380172729,-0.6166262626647949
-0.0356326103210449,0.6699643135070801,-0.0038842267822474,-0.8422299027442932,-0.009856573306024,-0.0382933653891086,0.0,0.0,0.5629466772079468,0.185827374458313
-0.0357141494750976,0.6515689492225647,-0.0057451287284493,-0.8175885081291199,-0.0122360046952962,-0.0475885458290576,0.0,0.0,0.5842578411102295,-0.6023654341697693
-0.0357005111873149,0.6333167552947998,0.0024954103864729,-0.8112132549285889,-0.0133616123348474,-0.0225119404494762,0.0,0.0,-0.1701915264129638,-0.4983909726142883
-0.0356630310416221,0.614573061466217,0.0051005203276872,-0.8330653309822083,-0.0146969771012663,-0.0267071928828954,0.0,0.0,0.3682026863098144,-0.3663161396980285
-0.0354724898934364,0.5959406495094299,0.0200398918241262,-0.8281171321868896,-0.0156695954501628,-0.0194525048136711,0.0,0.0,0.6848973035812378,0.062009572982788
-0.0353484153747558,0.5775396227836609,0.0140693886205554,-0.8178399205207825,-0.0172992572188377,-0.0325936153531074,0.0,0.0,0.5793020725250244,-0.4776140451431274
-0.0350977890193462,0.559787392616272,0.0264921076595783,-0.7890081405639648,-0.0187175888568162,-0.0283664166927337,0.0,0.0,0.5131312608718872,-0.7803758978843689
-0.034733772277832,0.5424708724021912,0.0362385101616382,-0.7696226835250854,-0.0185571033507585,0.0032098167575895,0.0,0.0,0.5595561265945435,-0.5618678331375122
-0.0343009009957313,0.5258331894874573,0.0420081429183483,-0.7394360303878784,-0.0172913819551467,0.0253144800662994,0.0,0.0,0.1839708089828491,-0.2546679973602295
-0.0338902473449707,0.5095499157905579,0.0402326546609401,-0.7236925363540649,-0.0164759159088134,0.0163095723837614,0.0,0.0,0.2953300476074219,-0.2930383682250976
-0.0334126465022563,0.4932095408439636,0.0469534695148468,-0.7262334227561951,-0.0156700201332569,0.0161177478730678,0.0,0.0,0.0966606140136718,-0.8118436932563782
-0.0330471992492675,0.4770833253860473,0.0343229249119758,-0.7166976928710938,-0.0134811457246541,0.0437774732708931,0.0,0.0,-0.3671612739562988,-0.2073860764503479
-0.032660387456417,0.4604654908180237,0.0366623476147651,-0.738550066947937,-0.0114819975569844,0.039982758462429,0.0,0.0,0.7838951349258423,0.5239505767822266
-0.0321763046085834,0.4443484246730804,0.0475522764027118,-0.71630859375,-0.0106345880776643,0.0169481262564659,0.0,0.0,0.455074667930603,-0.5988414883613586
-0.0317076668143272,0.4282655417919159,0.0449631288647651,-0.7147859334945679,-0.0087636476382613,0.0374190807342529,0.0,0.0,0.4492061138153076,-0.2797781229019165
-0.031322956085205,0.4124699831008911,0.0372683331370353,-0.7020171880722046,-0.0075751016847789,0.0237708985805511,0.0,0.0,0.7082202434539795,-0.2012885808944702
-0.030889606103301,0.397509753704071,0.042201317846775,-0.6648910641670227,-0.0064603481441736,0.0222949646413326,0.0,0.0,0.8555731773376465,-0.5580362677574158
-0.0303811077028512,0.3825434446334839,0.0484987422823905,-0.6651598811149597,-0.0041335229761898,0.046536386013031,0.0,0.0,0.5354392528533936,-0.019851803779602
-0.0298255924135446,0.36827552318573,0.0532458648085594,-0.6341269612312317,-0.0018591142725199,0.0454879961907863,0.0,0.0,0.416312575340271,-0.3126246929168701
-0.029332160949707,0.3541248440742492,0.0475873351097106,-0.6289169788360596,-0.0001222468708874,0.0347373522818088,0.0,0.0,0.7864906787872314,-0.0760091543197631
-0.0289206504821777,0.3405809104442596,0.0400158800184726,-0.6019558310508728,0.0009953958215191,0.0223529543727636,0.0,0.0,0.7711642980575562,-0.2262872457504272
-0.0284604076296091,0.327546089887619,0.044898547232151,-0.579326331615448,0.0021104558836668,0.022300960496068,0.0,0.0,0.5156936645507812,0.0167969465255737
-0.0281042102724313,0.3151813745498657,0.0351934060454368,-0.5495415925979614,0.0025285482406616,0.0083620008081197,0.0,0.0,0.6868448257446289,-0.1201699376106262
-0.0276597030460834,0.3032097220420837,0.0438285842537879,-0.5320743322372437,0.0031486190855503,0.0124017614871263,0.0,0.0,-0.1099454164505004,-0.222161591053009
-0.0272010806947946,0.2907464504241943,0.0453661046922206,-0.5539261102676392,0.003629031125456,0.0096083907410502,0.0,0.0,0.3244162797927856,-0.7999288439750671
-0.0267321579158306,0.2781739234924316,0.0448623597621917,-0.5587860941886902,0.0056387158110737,0.0401937216520309,0.0,0.0,0.6660058498382568,0.1233749389648437
-0.0262849815189838,0.2656228244304657,0.0429658852517604,-0.5578312277793884,0.007372795138508,0.0346814952790737,0.0,0.0,0.889928936958313,-0.4060428142547607
-0.0258429534733295,0.2539410591125488,0.0426093488931655,-0.5191986560821533,0.008940415456891,0.0313524566590786,0.0,0.0,0.7449438571929932,-0.1020023226737976
-0.0253143310546875,0.2430611401796341,0.0510047487914562,-0.4835647940635681,0.0107832048088312,0.0368554778397083,0.0,0.0,-0.0754209756851196,-0.5347952842712402
-0.0248270034790039,0.2316942363977432,0.0456860922276973,-0.5052230954170227,0.0137779442593455,0.0598949305713176,0.0,0.0,0.4031285047531128,0.2118452787399292
-0.0244460105895996,0.2202552855014801,0.0356848873198032,-0.5084197521209717,0.0161615777760744,0.047672901302576,0.0,0.0,0.8327598571777344,0.580024003982544
-0.0239791870117187,0.2096474766731262,0.045402143150568,-0.471475750207901,0.0174251832067966,0.0252721197903156,0.0,0.0,0.5825700759887695,-0.0301774740219116
-0.0236140247434377,0.199372112751007,0.0357862971723079,-0.4566887319087982,0.0181508082896471,0.0145122092217206,0.0,0.0,0.4746147394180298,0.0174344778060913
-0.0233050342649221,0.18951116502285,0.0304820537567138,-0.4382709860801697,0.018568193539977,0.0083476835861802,0.0,0.0,0.4523494243621826,-0.0885534286499023
-0.0230154041200876,0.1800800859928131,0.0286542512476444,-0.4191613793373108,0.0188622344285249,0.0058811460621654,0.0,0.0,0.5631866455078125,-0.3068345785140991
-0.0226528160274028,0.1709853261709213,0.0356504842638969,-0.4042220115661621,0.019470615312457,0.0121673960238695,0.0,0.0,0.821782112121582,0.0445592403411865
-0.0222717281430959,0.1619656682014465,0.0374329648911953,-0.4008825421333313,0.0201399270445108,0.0133863044902682,0.0,0.0,0.625464677810669,-0.5235568881034851
-0.0218440052121877,0.1530462801456451,0.0408221632242202,-0.3964425325393677,0.0220599938184022,0.0384015180170536,0.0,0.0,0.7755930423736572,-0.9264436364173888
-0.0213302616029977,0.1445589214563369,0.0473231188952922,-0.37728151679039,0.0260588005185127,0.0799760073423385,0.0,0.0,0.4855706691741943,-0.5737621188163757
-0.0207397453486919,0.1361110955476761,0.0535642281174659,-0.3755646049976349,0.0314772576093673,0.1083690896630287,0.0,0.0,0.3887284994125366,-0.7858186364173889
-0.0202425960451364,0.12812140583992,0.0426876097917556,-0.3552609384059906,0.0384205989539623,0.1388667523860931,0.0,0.0,0.3992081880569458,-0.0704013109207153
-0.019750976935029,0.1206051409244537,0.0420238487422466,-0.334255963563919,0.0454624518752098,0.1408371180295944,0.0,0.0,0.0689469575881958,0.2017269134521484
-0.0192070957273244,0.1132500991225242,0.0469042845070362,-0.3271353840827942,0.0528616942465305,0.1479850113391876,0.0,0.0,-0.1647322177886963,0.8010632991790771
-0.0185987465083599,0.1054014563560485,0.0552414059638977,-0.3490385115146637,0.0583933666348457,0.1106332316994667,0.0,0.0,0.2888040542602539,-0.4314234256744385
-0.0180654525756835,0.0976527333259582,0.0479279868304729,-0.3446066081523895,0.0637344866991043,0.1068226471543312,0.0,0.0,0.5907402038574219,-0.2856130599975586
-0.0175158493220806,0.0906641110777854,0.0491700135171413,-0.3108617961406708,0.0694587156176567,0.1144844517111778,0.0,0.0,0.1600302457809448,0.869408369064331
-0.0169576648622751,0.0837869942188263,0.0517801940441131,-0.3058413565158844,0.0734562054276466,0.0799500048160553,0.0,0.0,0.2946966886520386,-0.2522926926612854
-0.0165568348020315,0.0773403272032737,0.036481000483036,-0.2867012321949005,0.0770223513245582,0.0713229328393936,0.0,0.0,0.3736978769302368,0.9342516660690308
-0.0160597804933786,0.0712926983833313,0.0478928536176681,-0.2688788175582886,0.0788185968995094,0.0359249040484428,0.0,0.0,0.0466011762619018,0.785487174987793
-0.0155941005796194,0.0654725134372711,0.0463154353201389,-0.2586882710456848,0.0790635198354721,0.0048985476605594,0.0,0.0,0.2698527574539184,0.2123845815658569
-0.0152545925229787,0.0600137561559677,0.033962856978178,-0.2426102459430694,0.0790531858801841,-0.0002066439919872,0.0,0.0,0.1752173900604248,0.5938413143157959
-0.0149337770417332,0.0545943342149257,0.0332727469503879,-0.2407997697591781,0.077872447669506,-0.0236148908734321,0.0,0.0,0.1024004220962524,0.6649227142333984
-0.0146985054016113,0.0492800585925579,0.0261142700910568,-0.2360593825578689,0.0753142535686492,-0.0511638335883617,0.0,0.0,0.5061963796615601,0.413017988204956
-0.014655590057373,0.0441729873418808,0.0074589797295629,-0.226825550198555,0.0721776783466339,-0.0627315491437912,0.0,0.0,0.2029752731323242,0.9799628257751464
-0.0145032880827784,0.0393812768161296,0.0203047003597021,-0.2127254605293274,0.0671632662415504,-0.10028837621212,0.0,0.0,0.119131326675415,-0.0374975204467773
-0.0143472673371434,0.0344766229391098,0.0204101912677288,-0.2177774012088775,0.062407799065113,-0.0951093733310699,0.0,0.0,0.4670281410217285,0.1722971200942993
-0.0141264917328953,0.0301068406552076,0.0262055601924657,-0.1940458565950393,0.0583197809755802,-0.0817605480551719,0.0,0.0,-0.2412641644477844,0.5291018486022949
-0.013887882232666,0.0252536162734031,0.0289399717003107,-0.2155076116323471,0.0532940290868282,-0.1005150899291038,0.0,0.0,0.497241735458374,-0.1898878216743469
-0.0135841369628906,0.021079383790493,0.0347754433751106,-0.1853712648153305,0.0489472486078739,-0.0869356617331504,0.0,0.0,-0.0322928428649902,-0.4755008220672607
-0.0133035657927393,0.0164138413965702,0.0323747284710407,-0.2072249054908752,0.0446854978799819,-0.0852347463369369,0.0,0.0,0.5871427059173584,-0.7435966730117798
-0.0131481168791651,0.0124351596459746,0.0182800814509391,-0.1767517626285553,0.0419766865670681,-0.0541763231158256,0.0,0.0,0.2226097583770752,-0.1777476668357849
-0.0129962917417287,0.0088411783799529,0.0176205914467573,-0.1596644073724746,0.0395684391260147,-0.0481648072600364,0.0,0.0,0.1159145832061767,0.3459575176239013
-0.0128266336396336,0.0052230930887162,0.0190492998808622,-0.1607511788606643,0.0375084728002548,-0.0411994867026805,0.0,0.0,0.577376127243042,0.0982218980789184
-0.0128205297514796,0.001991746481508,0.0031475122086703,-0.1435541361570358,0.035008255392313,-0.0500045530498027,0.0,0.0,0.5654518604278564,0.789798378944397
-0.013008308596909,-0.0004370474780444,0.0007317309500649,-0.1076299175620079,0.0156520269811153,-0.3872331380844116,0.0,1.0,0.365307092666626,0.0961054563522338
-0.0132217407226562,-0.0026545906439423,-0.0016947209369391,-0.0984784886240959,-0.0037882644683122,-0.3888686299324035,1.0,1.0,0.7280271053314209,-0.259613037109375
-0.0133603094145655,-0.0040527726523578,-0.0040386104956269,-0.0623650699853897,-0.0128978481516242,-0.1814551800489425,1.0,1.0,0.5029333829879761,-0.2005255222320556
-0.0133036617189645,-0.0047123455442488,0.0046907826326787,-0.0293315704911947,-0.0119633004069328,0.0186625309288501,1.0,1.0,-0.7076423168182373,-0.0972298383712768
-0.0132299419492483,-0.0049303197301924,0.0026639390271157,-0.0096744000911712,-0.0073449057526886,0.0923403427004814,1.0,1.0,-0.5452924966812134,0.6221263408660889
-0.0131760593503713,-0.0046632434241473,0.0027133768890053,0.0118782771751284,-0.0047485120594501,0.0518846996128559,1.0,1.0,-0.7337440848350525,0.3303654193878174
-0.0131345745176076,-0.0039432309567928,0.0025350018404424,0.0319978632032871,-0.0031656965147703,0.0316424556076526,1.0,1.0,-0.7685834765434265,0.344081163406372
