x_pos,y_pos,x_vel,y_vel,angle,ang_vel,leg_1,leg_2,main_booster,lat_booster
-0.0014849662547931,1.4034042358398438,-0.1503546237945556,-0.3340444266796112,0.0016616204520687,0.0327692441642284,0.0,0.0,-0.740935742855072,0.4988890886306762
-0.0029333115089684,1.395691156387329,-0.1463878005743026,-0.342810571193695,0.0031983687076717,0.0307385828346014,0.0,0.0,-0.1783710718154907,0.3471732139587402
-0.0043470384553074,1.3877570629119873,-0.1428450047969818,-0.3526276648044586,0.0046541024930775,0.0291175544261932,0.0,0.0,-0.1834693551063537,0.7793686389923096
-0.005679321475327,1.3796004056930542,-0.1333673447370529,-0.3625187575817108,0.0047945077531039,0.0028082493226975,0.0,0.0,-0.1942278146743774,0.7502615451812744
-0.0069101331755518,1.371226191520691,-0.1213264614343643,-0.3721795082092285,0.0030589075759053,-0.0347153022885322,0.0,0.0,-0.3415592908859253,0.8031713962554932
-0.0080360416322946,1.36263108253479,-0.1087993830442428,-0.3820049464702606,-0.0006988744717091,-0.0751624256372451,0.0,0.0,-0.4048806428909302,-0.0049952864646911
-0.0091375354677438,1.3538157939910889,-0.1062746047973632,-0.391799658536911,-0.0045247408561408,-0.0765243619680404,0.0,0.0,0.0871486663818359,0.664422869682312
-0.0100517272949218,1.3454197645187378,-0.0863017663359642,-0.3731802701950073,-0.0095891561359167,-0.1012975573539733,0.0,0.0,-0.4940743446350097,-0.3541469573974609
-0.0109472274780273,1.3368035554885864,-0.0843681171536445,-0.3829809129238128,-0.0147150419652462,-0.1025270968675613,0.0,0.0,-0.6368574500083923,0.0851998329162597
-0.0118271829560399,1.3279675245285034,-0.0827482044696807,-0.3927748799324035,-0.0198994148522615,-0.1036968976259231,0.0,0.0,-0.5956559181213379,-0.3086923360824585
-0.012694644741714,1.3189114332199097,-0.081450916826725,-0.402569979429245,-0.0251384414732456,-0.1047900468111038,0.0,0.0,-0.5672932267189026,0.1317204236984253
-0.0135529516264796,1.3096354007720947,-0.0804839730262756,-0.4123662114143371,-0.0304283555597066,-0.1058078184723854,0.0,0.0,-0.5512439608573914,-0.4768338203430176
-0.014405345544219,1.300139546394348,-0.0798529610037803,-0.4221625328063965,-0.0357652232050895,-0.1067470461130142,0.0,0.0,-0.5199763178825378,-0.179847240447998
-0.0152554512023925,1.2904236316680908,-0.079561710357666,-0.4319590032100677,-0.0411450117826461,-0.1076058000326156,0.0,0.0,-0.9182261824607848,-0.4422785639762878
-0.0161063186824321,1.2804877758026123,-0.0796120390295982,-0.4417556524276733,-0.0465636327862739,-0.1083822846412658,0.0,0.0,-0.7780305743217468,-0.4365290999412536
-0.0169613845646381,1.270331859588623,-0.0800037086009979,-0.4515524506568908,-0.0520168878138065,-0.1090749353170394,0.0,0.0,-0.1662673950195312,-0.2222617268562317
-0.0178241729736328,1.2599560022354126,-0.080734446644783,-0.4613493978977203,-0.0575005076825618,-0.1096824258565902,0.0,0.0,-0.825396716594696,-0.8186804056167603
-0.018747329711914,1.2493574619293213,-0.0880094915628433,-0.471217930316925,-0.0617695748805999,-0.0853889435529708,0.0,0.0,-0.9636322855949402,-0.4638492465019226
-0.0196846015751361,1.2385388612747192,-0.0894072130322456,-0.4810140430927276,-0.0660611093044281,-0.0858383625745773,0.0,0.0,-0.50291508436203,-0.6388562321662903
-0.0206965450197458,1.227505445480347,-0.0982906520366668,-0.490508109331131,-0.0689299553632736,-0.0573822632431983,0.0,0.0,-0.5872986912727356,-0.2938517332077026
-0.0217288974672555,1.2162517309188845,-0.1003245115280151,-0.5003034472465515,-0.0718129426240921,-0.0576647520065307,0.0,0.0,-0.8699021935462952,-0.6246280670166016
-0.0228331573307514,1.2047791481018066,-0.1087336093187332,-0.5099649429321289,-0.073487251996994,-0.0334891378879547,0.0,0.0,-0.8563462495803833,-0.0841099023818969
-0.023963738232851,0.0,-0.1113597378134727,-0.5197595953941345,-0.0751672238111496,-0.0336026921868324,0.0,0.0,0.0938102006912231,-0.2607025504112243
-0.0250617023557424,1.181477427482605,-0.1083124876022338,-0.5160360932350159,-0.0766332074999809,-0.0293223764747381,0.0,0.0,0.0941269397735595,0.618480920791626
-0.0262149814516305,1.1702936887741089,-0.1124656200408935,-0.4972080588340759,-0.0794730260968208,-0.0568017363548278,0.0,0.0,-0.6362671256065369,-0.0895791053771972
-0.027403449639678,1.1588681936264038,-0.1159869655966758,-0.5079554319381714,-0.08230522274971,-0.0566440895199775,0.0,0.0,-0.2939704060554504,-0.5291007161140442
-0.0286696441471576,1.147230863571167,-0.1248219236731529,-0.5173157453536987,-0.0840785205364227,-0.0354661755263805,0.0,0.0,-0.3567976951599121,-0.3422197103500366
-0.0299742706120014,1.1353732347488403,-0.1286918520927429,-0.5271080732345581,-0.08583764731884,-0.0351825952529907,0.0,0.0,-0.2554300427436828,-0.6747308373451233
-0.0313838943839073,1.1233091354370115,-0.1408575177192688,-0.5361877679824829,-0.0859418585896492,-0.0020843395031988,0.0,0.0,-0.3117667436599731,0.5615777969360352
-0.0327933318912982,1.1110169887542725,-0.1397748738527298,-0.5463813543319702,-0.0871057361364364,-0.0232774596661329,0.0,0.0,0.1508382558822631,0.4224367141723633
-0.0341828353703022,1.099384307861328,-0.1378510892391204,-0.5170783400535583,-0.0881852582097053,-0.02159059420228,0.0,0.0,-0.9504652619361876,0.8664095401763916
-0.0355588905513286,1.087518334388733,-0.1350292861461639,-0.5275341272354126,-0.0907427445054054,-0.0511498153209686,0.0,0.0,-0.8041154742240906,0.5087826251983643
-0.0369474403560161,1.075432062149048,-0.1354240328073501,-0.5373783707618713,-0.0941436886787414,-0.0680187717080116,0.0,0.0,-0.8411226272583008,-0.2945386171340942
-0.0383847244083881,1.063125491142273,-0.1403308808803558,-0.5471712350845337,-0.0975119322538375,-0.0673651844263076,0.0,0.0,-0.7157465815544128,0.0532550811767578
-0.0398719795048236,1.0505988597869873,-0.145368292927742,-0.5569639801979065,-0.1008448973298072,-0.0666594728827476,0.0,0.0,0.1989045143127441,-0.2781223058700561
-0.0413420684635639,1.038669228553772,-0.1437471807003021,-0.5304368138313293,-0.1040790900588035,-0.0646839216351509,0.0,0.0,-0.9912804961204528,0.8681375980377197
-0.0427994728088378,1.0265045166015625,-0.1408449709415435,-0.5409971475601196,-0.1089307740330696,-0.0970335081219673,0.0,0.0,-0.7338829040527344,0.5255873203277588
-0.0442657470703125,1.014116883277893,-0.1406687796115875,-0.5510141849517822,-0.1148533225059509,-0.1184508651494979,0.0,0.0,-0.1644026637077331,0.2426868677139282
-0.045786190778017,1.0015090703964231,-0.1461312025785446,-0.5608088374137878,-0.1207315400242805,-0.1175642162561416,0.0,0.0,-0.1319813132286071,0.9106414318084716
-0.047286607325077,0.9886690974235536,-0.1422706097364425,-0.5713122487068176,-0.1284661293029785,-0.1546918451786041,0.0,0.0,0.6904793977737427,-0.5714550614356995
-0.048901367932558,0.976830780506134,-0.1545995771884918,-0.526761531829834,-0.1353122740983963,-0.1369224935770034,0.0,0.0,-0.9530506730079652,0.6792027950286865
-0.0505085960030555,0.9647579789161682,-0.1522568017244339,-0.5373556017875671,-0.1437447369098663,-0.1686495542526245,0.0,0.0,0.0329031944274902,-0.0527638792991638
-0.0520845428109169,0.9527438282966614,-0.1494798511266708,-0.5347694754600525,-0.1518450230360031,-0.1620057523250579,0.0,0.0,-0.9835087060928344,-0.0306218862533569
-0.0537181869149208,0.940510094165802,-0.1553014665842056,-0.5445663928985596,-0.1598927527666092,-0.1609547436237335,0.0,0.0,0.3916735649108886,-0.3494922518730163
-0.0554040893912315,0.928432285785675,-0.1604487597942352,-0.5376902222633362,-0.1680450290441513,-0.1630454957485199,0.0,0.0,-0.9984288215637208,-0.5796669721603394
-0.0571910850703716,0.9161396026611328,-0.1716824471950531,-0.5471532344818115,-0.1750732660293579,-0.1405645012855529,0.0,0.0,-0.9986368417739868,0.2124388217926025
-0.0590371116995811,0.9036270976066588,-0.1776528656482696,-0.5569486021995544,-0.1820455193519592,-0.1394447833299636,0.0,0.0,-0.9907779097557068,-0.7769848108291626
-0.0610131248831748,0.8909225463867188,-0.1925698071718216,-0.5652739405632019,-0.1871062815189361,-0.1012153476476669,0.0,0.0,-0.993453860282898,0.0348681211471557
-0.0630491226911544,0.877997875213623,-0.1986185610294342,-0.5750672221183777,-0.19210946559906,-0.1000635996460914,0.0,0.0,0.1035407781600952,0.4666099548339844
-0.0650942772626876,0.8653573393821716,-0.1995363533496856,-0.5624563097953796,-0.197119802236557,-0.1002067476511001,0.0,0.0,-0.9942233562469482,-0.6468263864517212
-0.0672381371259689,0.8525077700614929,-0.2104519605636596,-0.5716181993484497,-0.201081782579422,-0.0792392045259475,0.0,0.0,-0.6214526295661926,0.7204310894012451
-0.0693917274475097,0.8394272923469543,-0.2101896703243255,-0.5820629596710205,-0.2062905430793762,-0.1041754633188247,0.0,0.0,-0.7966651916503906,0.0879406929016113
-0.0716063529253006,0.8261266946792603,-0.216358333826065,-0.5918562412261963,-0.2114399075508117,-0.1029873490333557,0.0,0.0,-0.9290157556533812,0.2190690040588379
-0.0738821998238563,0.8126060366630554,-0.2225505858659744,-0.6016495227813721,-0.2165297269821167,-0.1017964631319046,0.0,0.0,-0.3238028287887573,0.2596528530120849
-0.076219655573368,0.7988651394844055,-0.2287642657756805,-0.6114426851272583,-0.2215599864721298,-0.1006052121520042,0.0,0.0,-0.9893689155578612,-0.6916643381118774
-0.078680895268917,0.7849218249320984,-0.2428075969219207,-0.6202033162117004,-0.2249192297458648,-0.0671849623322486,0.0,0.0,-0.9775756001472472,0.4908062219619751
-0.0812040343880653,0.7707581520080566,-0.2490579634904861,-0.6299952864646912,-0.2282192409038543,-0.0660002678632736,0.0,0.0,-0.8920771479606628,0.4574202299118042
-0.0837893486022949,0.7563742399215698,-0.2553242146968841,-0.6397872567176819,-0.2314603626728058,-0.0648223906755447,0.0,0.0,-0.971929132938385,-0.4292517900466919
-0.0864367485046386,0.7417698502540588,-0.2616048455238342,-0.6495791077613831,-0.2346430420875549,-0.0636537075042724,0.0,0.0,-0.9960174560546876,-0.1516101360321045
-0.0891464203596115,0.7269450426101685,-0.2678984701633453,-0.6593709588050842,-0.2377678751945495,-0.0624966137111187,0.0,0.0,-0.9445986151695251,0.3764436244964599
-0.0919186621904373,0.7119000554084778,-0.2742036879062652,-0.6691627502441406,-0.2408355623483657,-0.0613536424934864,0.0,0.0,-0.8118206858634949,0.5393457412719727
-0.0947185531258583,0.6966246366500854,-0.2761383354663849,-0.6795436143875122,-0.2447519898414611,-0.0783285796642303,0.0,0.0,-0.8361393809318542,0.5552735328674316
-0.0975301712751388,0.681108295917511,-0.2760367691516876,-0.690470278263092,-0.2499655783176422,-0.1042721271514892,0.0,0.0,-0.7216790318489075,0.328488826751709
-0.1004044562578201,0.6653719544410706,-0.2823702394962311,-0.7002633810043335,-0.2551248967647552,-0.1031865328550338,0.0,0.0,-0.5362772345542908,0.0040667057037353
-0.1033416762948036,0.6494154334068298,-0.2887107729911804,-0.7100566029548645,-0.2602311372756958,-0.1021252423524856,0.0,0.0,0.009721040725708,0.5529934167861938
-0.1062882393598556,0.6337785124778748,-0.2885079681873321,-0.6960783004760742,-0.2665243148803711,-0.1258635073900222,0.0,0.0,-0.309900164604187,0.2305589914321899
-0.1092978492379188,0.617921769618988,-0.294860303401947,-0.7058725953102112,-0.2727672159671783,-0.1248581632971763,0.0,0.0,0.7191574573516846,0.0205442905426025
-0.1122060790657997,0.6022498607635498,-0.2851777076721191,-0.6975919008255005,-0.2785663604736328,-0.115982748568058,0.0,0.0,0.8712130784988403,0.5400300025939941
-0.1148381233215332,0.587727427482605,-0.25663822889328,-0.6467077136039734,-0.2853155136108398,-0.1349830031394958,0.0,0.0,-0.8693352341651917,-0.3224629163742065
-0.117533303797245,0.5729851722717285,-0.2630013525485992,-0.6565025448799133,-0.2920195162296295,-0.1340800374746322,0.0,0.0,0.6864120960235596,-0.4319672584533691
-0.1201823204755783,0.559056282043457,-0.2580220699310303,-0.620455801486969,-0.299113929271698,-0.1418879926204681,0.0,0.0,-0.0729534029960632,-0.1438974142074585
-0.1228943839669227,0.5449075698852539,-0.2643883228302002,-0.6302510499954224,-0.3061671853065491,-0.1410652697086334,0.0,0.0,-0.3371591567993164,-0.3667994737625122
-0.1256696730852127,0.5305390357971191,-0.2707549333572387,-0.6400461196899414,-0.3131814897060394,-0.1402861177921295,0.0,0.0,0.8005092144012451,-0.0283889770507812
-0.1282380074262619,0.5168116092681885,-0.250468909740448,-0.6114944815635681,-0.3197887241840362,-0.1321448981761932,0.0,0.0,0.1662813425064087,-0.8184596300125122
-0.1308712065219879,0.5032945275306702,-0.2585925757884979,-0.6018120050430298,-0.3247151672840118,-0.0985287502408027,0.0,0.0,0.7214441299438477,-0.6298194527626038
-0.1334356367588043,0.4900195598602295,-0.2531490623950958,-0.5907418727874756,-0.3281485140323639,-0.0686663389205932,0.0,0.0,0.9420130252838136,-0.6604044437408447
-0.1360232383012771,0.4771290123462677,-0.2566775977611542,-0.5733876824378967,-0.3303115963935852,-0.0432618036866188,0.0,0.0,0.7614531517028809,-0.7159358859062195
-0.1384607255458831,0.4652561247348785,-0.2430892884731292,-0.5278337001800537,-0.3309986591339111,-0.0137411830946803,0.0,0.0,0.9150338172912598,0.8490397930145264
-0.1404929161071777,0.4544301033020019,-0.2011216878890991,-0.4816389679908752,-0.3331895470619201,-0.0438179448246955,0.0,0.0,0.9254448413848876,0.1132291555404663
-0.1424003541469574,0.4447981119155884,-0.1880903393030166,-0.4287031888961792,-0.3359643518924713,-0.0554960146546363,0.0,0.0,-0.3999829292297363,-0.3866789937019348
-0.1443710327148437,0.4349458217620849,-0.1944299638271331,-0.4384954571723938,-0.3387209773063659,-0.0551326163113117,0.0,0.0,0.7455174922943115,-0.530304491519928
-0.1461227387189865,0.4260573387145996,-0.1737098097801208,-0.3953857421875,-0.3402473330497741,-0.0305269919335842,0.0,0.0,0.7326242923736572,-0.5861892700195312
-0.147887036204338,0.4178820252418518,-0.1758546531200409,-0.3634831011295318,-0.3408513069152832,-0.0120794055983424,0.0,0.0,0.8540141582489014,-0.6041752696037292
-0.1495663672685623,0.4106208980083465,-0.1683835536241531,-0.3226105272769928,-0.3403784036636352,0.0094580026343464,0.0,0.0,0.8659460544586182,0.0703362226486206
-0.1510577201843261,0.404262900352478,-0.1495349109172821,-0.282486230134964,-0.3399621248245239,0.0083256671205163,0.0,0.0,0.8662865161895752,-0.7196881175041199
-0.1523455679416656,0.398589015007019,-0.1308243572711944,-0.2516941726207733,-0.3378275036811828,0.0426922105252742,0.0,0.0,0.9693779945373536,-0.9313938021659852
-0.1536027938127517,0.3932846784591675,-0.1296311914920807,-0.2348381876945495,-0.3337422609329223,0.0817048996686935,0.0,0.0,0.973824381828308,-0.9345332980155944
-0.1547206938266754,0.3884117603302002,-0.1177315115928649,-0.2152111679315567,-0.3275391757488251,0.1240618228912353,0.0,0.0,0.7891840934753418,-0.9154601097106934
-0.1556028425693512,0.3841466903686523,-0.0962247997522354,-0.18776436150074,-0.3191931247711181,0.1669209748506546,0.0,0.0,-0.0266771912574768,-0.6850293278694153
-0.1565877944231033,0.3796769380569458,-0.1075419560074806,-0.1966900080442428,-0.3097889721393585,0.1880823820829391,0.0,0.0,-0.6552362442016602,-0.4336388111114502
-0.1576347351074218,0.3749879896640777,-0.1137663498520851,-0.20648954808712,-0.3003985285758972,0.1878089010715484,0.0,0.0,-0.5046626329421997,-0.8166107535362244
-0.1588005125522613,0.3701131045818329,-0.1272012591361999,-0.2145078182220459,-0.2894426882266998,0.2191168367862701,0.0,0.0,0.245076298713684,-0.4684842824935913
-0.1597946137189865,0.3657021224498749,-0.1104625463485717,-0.1938923895359039,-0.2780730128288269,0.2273934632539749,0.0,0.0,-0.5280518531799316,-0.7203965187072754
-0.1608969718217849,0.3610849380493164,-0.1224916353821754,-0.2029291987419128,-0.2655178904533386,0.2511026263236999,0.0,0.0,-0.2403920888900756,-0.2419781684875488
-0.1620606482028961,0.356249451637268,-0.1286293864250183,-0.2127346694469452,-0.2529897689819336,0.2505623698234558,0.0,0.0,-0.2375741004943847,0.2011996507644653
-0.1632852554321289,0.3511958718299866,-0.1347395628690719,-0.2225401550531387,-0.2404919862747192,0.2499557435512542,0.0,0.0,-0.3769336938858032,-0.0617104172706604
-0.164570614695549,0.3459240198135376,-0.1408197581768036,-0.2323456555604934,-0.2280278503894806,0.2492827177047729,0.0,0.0,0.8516545295715332,0.0529996156692504
-0.1658507287502288,0.3417839705944061,-0.1396587491035461,-0.182248443365097,-0.2162458449602127,0.2356400489807129,0.0,0.0,0.3444589376449585,0.0702534914016723
-0.1670000106096267,0.3382347226142883,-0.1268897801637649,-0.1560412049293518,-0.2041764706373214,0.2413875162601471,0.0,0.0,0.0695136785507202,-0.3086973428726196
-0.1681446135044098,0.335191011428833,-0.1262484043836593,-0.1336930096149444,-0.1923110038042068,0.2373097836971283,0.0,0.0,-0.6658415794372559,-0.1530424356460571
-0.1693487167358398,0.3319290280342102,-0.1321799755096435,-0.1434974819421768,-0.1804923415184021,0.2363733947277069,0.0,0.0,-0.5848849415779114,0.3110990524291992
-0.170611947774887,0.3284485340118408,-0.1380662024021148,-0.1533018946647644,-0.1687237322330474,0.2353720366954803,0.0,0.0,0.4101747274398803,-0.1960428953170776
-0.1719458550214767,0.325533777475357,-0.1446380466222763,-0.1283081620931625,-0.1574690341949463,0.2250939905643463,0.0,0.0,-0.0031094551086425,-0.7419937252998352
-0.173410415649414,0.3224163353443146,-0.1595349758863449,-0.1372220516204834,-0.1444156318902969,0.2610683143138885,0.0,0.0,0.3475543260574341,-0.5442532896995544
-0.1747975349426269,0.3199434280395508,-0.1530521064996719,-0.1085815653204917,-0.130123883485794,0.285834789276123,0.0,0.0,0.2478169202804565,-0.8636440634727478
-0.1762209832668304,0.3176631927490234,-0.1584230661392212,-0.1000182852149009,-0.1141349226236343,0.3197790384292602,0.0,0.0,0.2930320501327514,-0.2240678071975708
-0.1775199919939041,0.3160366117954254,-0.1464681625366211,-0.0711066648364067,-0.0976868942379951,0.3289608359336853,0.0,0.0,0.1831978559494018,-0.3532640933990478
-0.1788367331027984,0.3150255382061004,-0.1481241434812545,-0.043946523219347,-0.0813837796449661,0.3260623216629028,0.0,0.0,0.4059884548187256,-0.7300701141357422
-0.1800716370344162,0.3148841857910156,-0.1415864080190658,-0.0053944811224937,-0.0634790211915969,0.3580954968929291,0.0,0.0,-0.1565638184547424,-0.3109810352325439
-0.1813607215881347,0.3145268559455871,-0.1469454020261764,-0.0152138210833072,-0.0456494949758052,0.3565908372402191,0.0,0.0,-0.098568320274353,-0.4615886807441711
-0.1827031075954437,0.3139533698558807,-0.1522116363048553,-0.0250328704714775,-0.0278981626033782,0.3550267517566681,0.0,0.0,-0.0597955584526062,-0.4473760724067688
-0.1840978562831878,0.3131638765335083,-0.1573779881000518,-0.034851599484682,-0.0102279782295227,0.353403627872467,0.0,0.0,-0.2211636900901794,0.1224098205566406
-0.1855441033840179,0.3121580779552459,-0.1624369770288467,-0.0446699857711792,0.0073581207543611,0.3517219424247741,0.0,0.0,-0.3312822580337524,0.5381977558135986
-0.1870067566633224,0.3109372854232788,-0.1631224304437637,-0.0544261820614337,0.0240042991936206,0.3329234719276428,0.0,0.0,-0.5293476581573486,0.6398546695709229
-0.1884787529706955,0.3094993233680725,-0.1629419922828674,-0.064236082136631,0.0395594350993633,0.3111025989055633,0.0,0.0,-0.4647828340530395,0.7447967529296875
-0.189941793680191,0.3078467845916748,-0.1605032980442047,-0.0738792195916175,0.0535932295024395,0.2806759178638458,0.0,0.0,-0.620932936668396,0.9500734806060792
-0.1913729608058929,0.3059806823730469,-0.155217558145523,-0.0834137573838234,0.0655596330761909,0.2393280267715454,0.0,0.0,-0.9090858101844788,0.97444486618042
-0.1927551329135894,0.3038960695266723,-0.1478271633386612,-0.0930976197123527,0.0750692635774612,0.1901923269033432,0.0,0.0,-0.9678065776824952,0.9920306205749512
-0.1940900832414627,0.3016066253185272,-0.1406742632389068,-0.1021285578608512,0.0821812152862548,0.1422391831874847,0.0,0.0,-0.9789857864379884,0.9996891021728516
-0.1953851729631424,0.2991169691085815,-0.1344905197620391,-0.1109330654144287,0.0871121436357498,0.0986184105277061,0.0,0.0,-0.9847198128700256,0.9956974983215332
