x_pos,y_pos,x_vel,y_vel,angle,ang_vel,leg_1,leg_2,main_booster,lat_booster
-0.0014736175071448,1.4035292863845823,-0.1492164134979248,-0.3284919857978821,0.001661127898842,0.0327598415315151,0.0,0.0,-0.5140165686607361,0.6451336145401001
-0.0028460503090173,1.3960628509521484,-0.1374154984951019,-0.331837922334671,0.0018273530295118,0.0033255133312195,0.0,0.0,-0.251943290233612,0.6253235340118408
-0.0041165351867675,1.388496160507202,-0.1256251186132431,-0.3362956345081329,0.0004261905269231,-0.0280257612466812,0.0,0.0,0.1713572740554809,0.0546494722366333
-0.0054340362548828,1.381365418434143,-0.1298681199550628,-0.3169271051883697,-0.0014270610408857,-0.0370689146220684,0.0,0.0,0.1313577890396118,0.0295630693435668
-0.006629467010498,1.374808669090271,-0.1180579289793968,-0.291410744190216,-0.0028951480053365,-0.029364351183176,0.0,0.0,-0.3584687709808349,0.2092307806015014
-0.0077966689132153,1.3681564331054688,-0.1152047514915466,-0.2956559956073761,-0.0043920134194195,-0.0299401096999645,0.0,0.0,-0.3858671188354492,0.2340967655181884
-0.0089405057951807,1.361409068107605,-0.1128519922494888,-0.2998956143856048,-0.0059078061021864,-0.0303186662495136,0.0,0.0,-0.0865389704704284,0.1189727783203125
-0.0100661274045705,1.3545660972595217,-0.1110131368041038,-0.3041366934776306,-0.0074336640536785,-0.0305202454328537,0.0,0.0,-0.1389756202697754,0.6881444454193115
-0.0111253736540675,1.3476345539093018,-0.1030340641736984,-0.3080792725086212,-0.0102963168174028,-0.0572586357593536,0.0,0.0,-0.6259192824363708,0.0256555080413818
-0.0121767045930027,1.3406078815460205,-0.1022524461150169,-0.3123217225074768,-0.013150991871953,-0.0570985786616802,0.0,0.0,-0.7094533443450928,-0.1060214638710022
-0.0132255554199218,1.333485722541809,-0.1020158752799034,-0.3165642023086548,-0.0159902572631835,-0.0567903891205787,0.0,0.0,-0.2975587844848633,-0.4424997568130493
-0.0142772672697901,1.326268196105957,-0.1023301482200622,-0.320806622505188,-0.0188058018684387,-0.0563162453472614,0.0,0.0,-0.4930417537689209,0.3160494565963745
-0.0153373721987009,1.318955421447754,-0.1031999215483665,-0.3250490128993988,-0.0215899422764778,-0.0556876175105571,0.0,0.0,-0.6892766952514648,-0.1041076183319091
-0.0164114944636821,1.3115473985671997,-0.1046276837587356,-0.3292915225028991,-0.0243352148681879,-0.0549103245139122,0.0,0.0,-0.6886905431747437,0.1612951755523681
-0.0175047870725393,1.3040441274642944,-0.1066137179732322,-0.3335340321063995,-0.0270344838500022,-0.0539904832839965,0.0,0.0,-0.9328991174697876,0.7441861629486084
-0.0185539238154888,1.2964338064193726,-0.1004678234457969,-0.3383218050003052,-0.0314270257949829,-0.0878588706254959,0.0,0.0,-0.8438884615898132,0.4111578464508056
-0.0196332931518554,1.2887283563613892,-0.1035570055246353,-0.3425652384757995,-0.0357593037188053,-0.0866536274552345,0.0,0.0,-0.9265359044075012,0.0492323637008667
-0.0207483284175395,1.280927658081055,-0.1071933284401893,-0.3468087911605835,-0.0400263294577598,-0.0853480622172355,0.0,0.0,-0.9032527208328248,0.2964694499969482
-0.0219043735414743,1.2730315923690796,-0.1113675460219383,-0.351052314043045,-0.044221956282854,-0.0839199870824813,0.0,0.0,-0.787597119808197,0.3779555559158325
-0.0231066700071096,1.265040397644043,-0.1160696595907211,-0.3552959263324737,-0.0483408086001873,-0.0823844447731971,0.0,0.0,-0.8482441306114197,0.6102513074874878
-0.024301815778017,1.2569540739059448,-0.1139501109719276,-0.3595775663852691,-0.0538469068706035,-0.1101317778229713,0.0,0.0,-0.7779130935668945,0.2533750534057617
-0.0255532264709472,1.2487727403640747,-0.1196659803390502,-0.363822340965271,-0.0592658407986164,-0.1083883494138717,0.0,0.0,-0.5200421214103699,0.3364686965942383
-0.0268656723201274,0.0,-0.1258701980113983,-0.3680669069290161,-0.0645943582057952,-0.106579914689064,0.0,0.0,-0.7621874809265137,-0.0476253628730773
-0.0282439235597848,1.2321245670318604,-0.1325455605983734,-0.3723115921020508,-0.0698284208774566,-0.1046903878450393,0.0,0.0,-0.6499488949775696,0.3534998893737793
-0.0296924598515033,1.2236576080322266,-0.1396749168634414,-0.376556247472763,-0.0749646797776222,-0.1027344316244125,0.0,0.0,-0.8373452425003052,0.5977451801300049
-0.0311808586120605,1.2150733470916748,-0.1428443938493728,-0.3818358182907104,-0.0809021443128585,-0.1187489181756973,0.0,0.0,-0.9583213925361632,0.4583020210266113
-0.0327481254935264,1.2063939571380615,-0.1508404910564422,-0.3860780596733093,-0.0867377817630767,-0.116712786257267,0.0,0.0,-0.8979182839393616,0.7027559280395508
-0.0343545898795127,1.19762122631073,-0.153748407959938,-0.3903126120567322,-0.09356439858675,-0.1365324407815933,0.0,0.0,-0.8593378067016602,0.7251228094100952
-0.0360024459660053,1.1887534856796265,-0.1568672955036163,-0.3946418762207031,-0.101417101919651,-0.1570540815591812,0.0,0.0,-0.6718883514404297,0.8545639514923096
-0.0376757606863975,1.1797778606414795,-0.1578713506460189,-0.3995812535285949,-0.1108111292123794,-0.1878806501626968,0.0,0.0,-0.9560561180114746,0.2623636722564697
-0.0394426360726356,1.170707941055298,-0.1673416048288345,-0.4038276076316833,-0.1201008781790733,-0.1857949644327163,0.0,0.0,-0.918578326702118,0.6777729988098145
-0.0412603393197059,1.1615315675735474,-0.1713444292545318,-0.4087163805961609,-0.1304668337106704,-0.2073189318180084,0.0,0.0,-0.901275396347046,0.4912110567092895
-0.0431777015328407,1.1522607803344729,-0.1814367175102234,-0.4129642248153686,-0.1407302021980285,-0.2052677422761917,0.0,0.0,-0.9457973837852478,0.7097089290618896
-0.0451486594974994,1.1428792476654053,-0.1856324225664138,-0.4180848002433777,-0.1521643251180648,-0.2286825627088546,0.0,0.0,-0.9529896378517152,0.3456984758377075
-0.0472248084843158,1.133403778076172,-0.1962740123271942,-0.4223343431949615,-0.1634994447231292,-0.2267030030488968,0.0,0.0,-0.8896454572677612,0.9140528440475464
-0.0493344292044639,1.1238232851028442,-0.1978628635406494,-0.4272980093955993,-0.1766198277473449,-0.262407511472702,0.0,0.0,-0.7969324588775635,0.0215612649917602
-0.051554013043642,1.1141493320465088,-0.2089861333370208,-0.4315508008003235,-0.1896465718746185,-0.260535180568695,0.0,0.0,-0.7472168207168579,0.6946604251861572
-0.0538277626037597,1.1043710708618164,-0.21305513381958,-0.4364917576313019,-0.2040620148181915,-0.2883089184761047,0.0,0.0,-0.8835163712501526,-0.8355175852775574
-0.0562831871211528,1.0945298671722412,-0.2331301867961883,-0.4391489624977112,-0.2165950834751129,-0.2506611943244934,0.0,0.0,-0.5832041501998901,-0.3601046204566955
-0.0588547699153423,1.084594964981079,-0.2448592185974121,-0.4434003531932831,-0.2290458083152771,-0.249014526605606,0.0,0.0,-0.9186351895332336,-0.8755727410316467
-0.0616223327815532,1.074601173400879,-0.26662278175354,-0.4457822144031524,-0.2393351197242736,-0.2057858407497406,0.0,0.0,-0.8061654567718506,-0.9759308695793152
-0.0645695701241493,0.0,-0.2862083315849304,-0.4489067792892456,-0.2479874938726425,-0.1730473041534423,0.0,0.0,-0.5164231657981873,0.4083602428436279
-0.0676380172371864,1.05436909198761,-0.2984206974506378,-0.4531514048576355,-0.2565720081329345,-0.1716911494731903,0.0,0.0,-0.9035810232162476,-0.668432354927063
-0.0708720237016677,1.044126272201538,-0.3161582350730896,-0.4565167725086212,-0.2639664709568023,-0.1478892415761947,0.0,0.0,-0.8320218324661255,0.2958992719650268
-999.0,1.0337886810302734,-0.328636884689331,,-0.2713042497634887,-0.1467555165290832,0.0,0.0,-0.4944270849227905,-0.12177175283432
-0.0777134895324707,1.0233561992645264,-0.3412339687347412,-0.465003103017807,-0.2785913050174713,-0.1457408219575882,0.0,0.0,-0.6488873362541199,-0.2085186243057251
-0.0813233405351638,1.0128288269042969,-0.353940486907959,-0.469246357679367,-0.2858338057994842,-0.1448501944541931,0.0,0.0,-0.4890470504760742,-0.4872592687606811
-0.0850606933236122,1.002206563949585,-0.3667480051517486,-0.4734896719455719,-0.2930382192134857,-0.1440881788730621,0.0,0.0,-0.7878722548484802,-0.4692482948303222
-0.0889266952872276,0.9914895296096802,-0.3796487152576446,-0.4777330458164215,-0.3002111613750458,-0.1434590965509414,0.0,0.0,-0.7815003395080566,-0.4277787208557129
-0.0929222106933593,0.9806775450706482,-0.3926352262496948,-0.4819765388965606,-0.3073594868183136,-0.1429666578769683,0.0,0.0,-0.7008123397827148,-0.3679839968681335
-0.0970479995012283,0.9697707891464232,-0.4057007730007171,-0.4862201511859894,-0.3144901990890503,-0.142614334821701,0.0,0.0,-0.7606958746910095,0.4527127742767334
-0.1013048142194747,0.958769142627716,-0.4188391268253326,-0.4904638826847076,-0.3216104507446289,-0.1424051821231842,0.0,0.0,-0.4047235250473022,0.4494540691375732
-0.1056936234235763,0.9476727843284608,-0.4320444166660309,-0.494707852602005,-0.3287275433540344,-0.1423418521881103,0.0,0.0,-0.687886655330658,0.8147358894348145
-0.1101523414254188,0.9364577531814576,-0.4374472498893738,-0.5003871321678162,-0.3375142812728882,-0.175734594464302,0.0,0.0,-0.6347241997718811,0.4893579483032226
-0.1147440895438194,0.9251482486724854,-0.4507716298103332,-0.5046335458755493,-0.3463127315044403,-0.1759697645902633,0.0,0.0,-0.8417176008224487,0.7002843618392944
-0.1194266304373741,0.9137181639671326,-0.4587106704711914,-0.5103355646133423,-0.356341540813446,-0.2005763053894043,0.0,0.0,-0.596169650554657,0.5848191976547241
-0.1241921409964561,0.90217125415802,-0.4657137393951416,-0.5159226059913635,-0.3677788972854614,-0.2287472486495971,0.0,0.0,-0.7018784880638123,0.6041491031646729
-0.1290370970964431,0.8905019760131836,-0.4722380042076111,-0.5218409895896912,-0.3807753920555115,-0.2599294185638428,0.0,0.0,-0.6847259998321533,0.4712371826171875
-0.1340167969465255,0.8787394762039185,-0.4857489466667175,-0.5260955095291138,-0.3938145339488983,-0.2607830166816711,0.0,0.0,-0.6020908355712891,0.603107213973999
-0.1390922516584396,0.8668652176856995,-0.494326651096344,-0.5314735770225525,-0.4079860150814056,-0.2834290862083435,0.0,0.0,-0.6094032526016235,0.4922864437103271
-0.1443033218383789,0.8548982739448547,-0.5079086422920227,-0.5357310175895691,-0.4222159087657928,-0.2845980525016784,0.0,0.0,-0.7013221979141235,0.4917886257171631
-0.1496500968933105,0.8428389430046082,-0.5215207934379578,-0.5399887561798096,-0.4365121722221374,-0.2859250009059906,0.0,0.0,-0.5820662379264832,-0.1899054646492004
-0.1551332473754882,0.8306868672370911,-0.5351603627204895,-0.5442469716072083,-0.4508826434612274,-0.2874091863632202,0.0,0.0,0.2622640132904053,0.2162795066833496
-0.1605325639247894,0.8190629482269287,-0.5268717408180237,-0.5209044218063354,-0.4652518630027771,-0.2873839735984802,0.0,0.0,-0.2348789572715759,0.085245132446289
-0.166068747639656,0.8073466420173645,-0.5405579805374146,-0.5251632928848267,-0.4797108173370361,-0.2891789078712463,0.0,0.0,0.1832246780395507,-0.4887721538543701
-0.1716250479221344,0.7961626052856445,-0.5422242879867554,-0.5017895698547363,-0.4946772456169128,-0.2993291318416595,0.0,0.0,-0.3633254766464233,0.0476176738739013
-0.1773183792829513,0.7848865985870361,-0.5559488534927368,-0.5060503482818604,-0.509748637676239,-0.3014277815818786,0.0,0.0,0.1481958627700805,-0.1777212619781494
-0.1830001771450042,0.7737427949905396,-0.5550247430801392,-0.5002537369728088,-0.5246685147285461,-0.2983978986740112,0.0,0.0,0.1513122320175171,-0.0637822747230529
-0.1885049790143966,0.7632651329040527,-0.5374221205711365,-0.4707899093627929,-0.5396209955215454,-0.2990499138832092,0.0,0.0,0.234486699104309,-0.0704874396324157
-0.1940259933471679,0.7532050609588623,-0.5387623310089111,-0.4525269567966461,-0.5550256371498108,-0.3080926239490509,0.0,0.0,-0.2757014036178589,-0.4769021868705749
-0.1996846199035644,0.743053138256073,-0.5525370836257935,-0.4567898213863373,-0.5705641508102417,-0.3107703328132629,0.0,0.0,0.3073655366897583,-0.2294490933418274
-0.2051944285631179,0.7334114909172058,-0.5377665162086487,-0.4342580735683441,-0.5861308574676514,-0.3113338053226471,0.0,0.0,0.3000701665878296,-0.7479197978973389
-0.2106144875288009,0.7246579527854919,-0.5300610065460205,-0.3944087922573089,-0.6003484725952148,-0.2843517363071441,0.0,0.0,0.6583688259124756,-0.1836620569229126
-0.2157843112945556,0.7164672613143921,-0.5053023099899292,-0.369432270526886,-0.6143788695335388,-0.2806081175804138,0.0,0.0,0.9162240028381348,-0.4539012312889099
-0.2208626270294189,0.7087742686271667,-0.495990514755249,-0.3475512862205505,-0.6287503838539124,-0.287430465221405,0.0,0.0,0.8280057907104492,-0.8887482285499573
-0.2258599698543548,0.7014057040214539,-0.4895418286323547,-0.332495778799057,-0.6412451267242432,-0.2498946189880371,0.0,0.0,0.920768976211548,-0.8926318287849426
-0.2308511734008789,0.6945099234580994,-0.49037566781044,-0.3108659982681274,-0.6520522236824036,-0.2161424905061721,0.0,0.0,0.7705625295639038,-0.4136359691619873
-0.2354721575975418,0.6885430812835693,-0.4532520174980163,-0.2697345316410064,-0.6630783081054688,-0.2205217629671096,0.0,0.0,0.9136365652084352,-0.889538049697876
-0.2396202087402343,0.683576762676239,-0.4075883328914642,-0.2245121151208877,-0.6721552014350891,-0.1815363019704818,0.0,0.0,0.9171969890594482,-0.8736793994903564
-0.2434773445129394,0.6798340082168579,-0.3797181248664856,-0.1695498824119568,-0.6797338724136353,-0.1515734642744064,0.0,0.0,0.9791989326477052,-0.8557218313217163
-0.2474106848239898,0.6766759753227234,-0.3884400725364685,-0.1430085450410843,-0.6859537363052368,-0.1243972554802894,0.0,0.0,0.984020471572876,-0.8650640845298767
-0.2508888840675354,0.674545407295227,-0.3443732559680938,-0.0965813472867012,-0.6903566122055054,-0.0880575478076934,0.0,0.0,0.9460217952728271,-0.4123344421386719
-0.2541661262512207,0.6732193231582642,-0.3237049579620361,-0.061160635203123,-0.6955113410949707,-0.1030949130654335,0.0,0.0,0.8717581033706665,-0.9269171357154846
-0.2571958005428314,0.6728216409683228,-0.3003217875957489,-0.0191474184393882,-0.6989203691482544,-0.0681801736354827,0.0,0.0,0.8901951313018799,-0.9696405529975892
-0.2599160075187683,0.6733397841453552,-0.2708696722984314,0.0223812237381935,-0.7004085183143616,-0.0297633204609155,0.0,0.0,0.3375815153121948,-0.9833375811576844
-0.2624666094779968,0.6742991805076599,-0.2554369270801544,0.0428510457277298,-0.6999229788780212,0.0097107123583555,0.0,0.0,0.2724092006683349,-0.9020230770111084
-0.265026718378067,0.6755078434944153,-0.2577593624591827,0.0546972677111625,-0.6976680755615234,0.0450979210436344,0.0,0.0,-0.3443053364753723,-0.7320148348808289
-0.2677637636661529,0.6766650080680847,-0.276345282793045,0.0529029555618763,-0.6942702531814575,0.0679564923048019,0.0,0.0,-0.2295276522636413,-0.3898546695709228
-0.2706384658813476,0.6777287125587463,-0.2899505198001861,0.0486507080495357,-0.6910873055458069,0.0636585727334022,0.0,0.0,0.2321231365203857,-0.3821696639060974
-0.2733829021453857,0.6789395213127136,-0.2771419584751129,0.0552969723939895,-0.6876396536827087,0.0689529627561569,0.0,0.0,-0.072989821434021,-0.6240320801734924
-0.2763000428676605,0.6801069378852844,-0.2953377366065979,0.0538547821342945,-0.6830148696899414,0.0924942418932914,0.0,0.0,-0.2310050725936889,0.255054235458374
-0.2793537676334381,0.6811808347702026,-0.3088424801826477,0.0496019087731838,-0.6786077618598938,0.0881416052579879,0.0,0.0,0.0526551008224487,0.733104944229126
-0.2821607589721679,0.6825205087661743,-0.2827667891979217,0.0606502406299114,-0.6759895086288452,0.0523661561310291,0.0,0.0,-0.4526289105415344,-0.6331633925437927
-0.2851382195949554,0.6837998032569885,-0.3005545139312744,0.0583556815981864,-0.6724441647529602,0.0709073543548584,0.0,0.0,0.0308520793914794,0.1027506589889526
-0.2880787849426269,0.6853892207145691,-0.2965745627880096,0.071972019970417,-0.669268012046814,0.0635224655270576,0.0,0.0,-0.0753871202468872,-0.4050072431564331
-0.2911540865898132,0.6868849992752075,-0.3098880648612976,0.0677201002836227,-0.6663088798522949,0.0591834262013435,0.0,0.0,-0.2191845178604126,-0.3641096949577331
-0.2943636476993561,0.6882873177528381,-0.3231415450572967,0.0634683668613433,-0.6635656952857971,0.0548634119331836,0.0,0.0,-0.0096091628074646,-0.3473050594329834
-0.2977067530155182,0.6895961165428162,-0.3363293409347534,0.0592168159782886,-0.6610373258590698,0.0505688115954399,0.0,0.0,-0.1420714855194091,-0.5834464430809021
-0.3012118935585022,0.6908490657806396,-0.3532469272613525,0.0571023933589458,-0.6576253771781921,0.0682385340332984,0.0,0.0,-0.1449251770973205,0.4420684576034546
-0.3048489987850189,0.6920086741447449,-0.3662842214107513,0.0528508350253105,-0.6544246077537537,0.0640154480934143,0.0,0.0,-0.2340098023414611,-0.1134822368621826
-0.3086172640323639,0.6930745244026184,-0.3792350590229034,0.0485995300114154,-0.6514326930046082,0.0598386228084564,0.0,0.0,-0.4070352911949157,-0.4122478365898132
-0.3125156760215759,0.6940465569496155,-0.392091155052185,0.0443484857678413,-0.6486470103263855,0.0557148084044456,0.0,0.0,-0.2960927486419678,-0.3740415573120117
-0.3165432512760162,0.6949251890182495,-0.4048435688018799,0.0400977134704589,-0.6460644006729126,0.0516507551074028,0.0,0.0,-0.0329812169075012,-0.0316079854965209
-0.3206987977027893,0.6957099437713623,-0.4174825251102447,0.0358472131192684,-0.6436817049980164,0.0476533472537994,0.0,0.0,0.3318409919738769,-0.0720368027687072
-0.3245650231838226,0.6970191597938538,-0.3887192010879516,0.0592316798865795,-0.641100287437439,0.0516280829906463,0.0,0.0,-0.5217289328575134,-0.5339267253875732
-0.3285882472991943,0.6982641220092773,-0.4051086902618408,0.0567180477082729,-0.6376753449440002,0.0684993714094162,0.0,0.0,-0.2456980943679809,-0.0893419981002807
-0.3327352106571197,0.699415385723114,-0.4173397421836853,0.0524679236114025,-0.6344380378723145,0.0647456720471382,0.0,0.0,-0.3060351014137268,-0.4234328269958496
-0.3370043337345123,0.7004728317260742,-0.4294084906578064,0.0482181534171104,-0.6313835978507996,0.0610882118344306,0.0,0.0,-0.5439503788948059,0.0751872062683105
-0.341393768787384,0.701436460018158,-0.4413000047206878,0.0439687594771385,-0.6285068988800049,0.0575341656804084,0.0,0.0,-0.4435861110687256,-0.2701051235198974
-0.3459015786647796,0.7023060321807861,-0.4529979228973388,0.039719745516777,-0.6258023977279663,0.0540906861424446,0.0,0.0,-0.4384053945541382,-0.1526436805725097
-0.3505255579948425,0.7030815482139587,-0.464484840631485,0.0354711078107357,-0.6232641339302063,0.0507650598883628,0.0,0.0,-0.5404746532440186,-0.0537872910499572
-0.3552634119987488,0.7037630081176758,-0.4757418036460876,0.0312228742986917,-0.6208859086036682,0.0475644990801811,0.0,0.0,-0.4991909265518188,-0.2045022845268249
-0.360112577676773,0.7043504118919373,-0.4867486357688904,0.0269750338047742,-0.618661105632782,0.0444962829351425,0.0,0.0,-0.6932526230812073,-0.003445029258728
-0.3650702536106109,0.7048434615135193,-0.4974835515022278,0.0227276049554348,-0.6165827512741089,0.0415674224495887,0.0,0.0,-0.5023446679115295,0.2531559467315674
-0.3701334595680237,0.7052423357963562,-0.5079233646392822,0.018480597063899,-0.6146435141563416,0.0387853309512138,0.0,0.0,-0.5189664959907532,0.5067329406738281
-0.3752680718898773,0.7055136561393738,-0.5140820741653442,0.0123539827764034,-0.6138933300971985,0.0150037081912159,0.0,0.0,-0.2676494717597961,0.1585277318954467
-0.3805014491081238,0.7056905031204224,-0.5238564610481262,0.0081080133095383,-0.6132665276527405,0.0125356065109372,0.0,0.0,-0.2863870859146118,0.6510727405548096
-0.385781854391098,0.7057152390480042,-0.5270373821258545,0.0006207422702573,-0.6144785284996033,-0.0242395754903554,0.0,0.0,-0.2471729516983032,0.7935161590576172
-0.3910933136940002,0.7055861949920654,-0.5284058451652527,-0.0070223291404545,-0.6177855134010315,-0.0661399215459823,0.0,0.0,0.408376932144165,0.6666836738586426
-0.3960289061069488,0.7061432600021362,-0.4896057546138763,0.0228771921247243,-0.6225838661193848,-0.0959660857915878,0.0,0.0,-0.0201624035835266,0.0754659175872802
