x_pos,y_pos,x_vel,y_vel,angle,ang_vel,leg_1,leg_2,main_booster,lat_booster
-0.0014633178943768,1.4034113883972168,-0.1476415693759918,-0.3337161839008331,0.0011625121114775,0.0228876434266567,0.0,0.0,-0.3466843366622925,0.4103342294692993
-0.00286445626989,1.395712971687317,-0.14068503677845,-0.3421539664268493,0.0017265134956687,0.011281699873507,0.0,0.0,-0.219321608543396,0.3541489839553833
-0.0042013167403638,1.387800931930542,-0.1336845904588699,-0.3516426682472229,0.0017229415243491,-7.127075514290482e-05,0.0,0.0,-0.3586678504943847,-0.2926810979843139
-0.005472183227539,1.3796759843826294,-0.1265042573213577,-0.3611123263835907,0.0011530035408213,-0.0114000644534826,0.0,0.0,-0.413459300994873,0.155572772026062
-0.0066751479171216,1.371337890625,-0.1191490069031715,-0.370578408241272,1.7477947039878927e-05,-0.0227127857506275,0.0,0.0,0.2518931627273559,0.7112246751785278
-0.0076357843354344,1.3634032011032104,-0.093110591173172,-0.3526536822319031,-0.0029128417372703,-0.0586117431521415,0.0,0.0,-0.7946213483810425,-0.1503902077674865
-0.008525276556611,1.3552557229995728,-0.0854165628552436,-0.3621250689029693,-0.0064055481925606,-0.0698603242635726,0.0,0.0,-0.7008042335510254,-0.4028852581977844
-0.0093419076874852,1.346895456314087,-0.07756307721138,-0.3715899884700775,-0.0104593755677342,-0.0810840129852294,0.0,0.0,-0.8825722932815552,-0.2672338485717773
-0.010084057226777,1.338322639465332,-0.0695551261305809,-0.381056398153305,-0.0150719825178384,-0.0922605246305465,0.0,0.0,-0.7488064169883728,-0.7606072425842285
-0.0108102802187204,1.329543113708496,-0.068918727338314,-0.3902378380298614,-0.0187317300587892,-0.0732019916176796,0.0,0.0,-0.6062949895858765,-0.0514653921127319
-0.011459064669907,1.3205511569976809,-0.0606229491531848,-0.3997054100036621,-0.0229456815868616,-0.0842868089675903,0.0,0.0,-0.763399064540863,0.0530205965042114
-0.0120290759950876,1.3113465309143066,-0.0521886348724365,-0.4091732800006866,-0.027709525078535,-0.095285415649414,0.0,0.0,-0.8536905646324158,-0.8194464445114136
-0.0125695224851369,1.301935791969299,-0.0499662235379219,-0.4183387160301208,-0.0317455343902111,-0.080727569758892,0.0,0.0,-0.6886518597602844,-0.7250100374221802
-0.0130792614072561,1.2923082113265991,-0.0476396605372428,-0.4279736280441284,-0.0350519232451915,-0.0661333948373794,0.0,0.0,-0.1287730932235717,-0.8266306519508362
-0.0135561944916844,1.2824790477752686,-0.0450757667422294,-0.43691486120224,-0.0376390144228935,-0.0517467074096202,0.0,0.0,-0.7639530897140503,-0.3664097189903259
-0.0139492992311716,1.2724372148513794,-0.0361562892794609,-0.446382999420166,-0.0407593287527561,-0.06241200491786,0.0,0.0,-0.9317453503608704,-0.8377629518508911
-0.0143080707639455,1.2621955871582031,-0.0334943421185016,-0.4552445411682129,-0.0431222170591354,-0.0472618304193019,0.0,0.0,-0.958703339099884,-0.8840828537940979
-0.0146344183012843,1.2517375946044922,-0.0310669541358947,-0.4648549854755401,-0.0446672029793262,-0.0309028290212154,0.0,0.0,-0.4173296689987182,-0.4959827661514282
-0.0148736955597996,1.2410666942596436,-0.0218405686318874,-0.4743229448795318,-0.0467270836234092,-0.0412014983594417,0.0,0.0,-0.9326292872428894,-0.7811667323112488
-0.0150947570800781,1.2301877737045288,-0.021290423348546,-0.4835346639156341,-0.0475340262055397,-0.01614042930305,0.0,0.0,-0.6472460627555847,-0.8281696438789368
-0.0152780534699559,1.2191059589385986,-0.0183326955884695,-0.4925288558006286,-0.0475426167249679,-0.0001716537371976,0.0,0.0,-0.6332563757896423,-0.5636674761772156
-0.0154153825715184,1.2078113555908203,-0.0143344942480325,-0.5019649267196655,-0.0469440519809722,0.0119724944233894,0.0,0.0,-0.5313807129859924,-0.7219080924987793
-0.0155067443847656,1.1963061094284058,-0.010391348041594,-0.5113013982772827,-0.0457013696432113,0.0248556714504957,0.0,0.0,-0.7493957281112671,-0.4296709299087524
-0.0155065534636378,1.1845881938934326,-0.0007633432978764,-0.5207694172859192,-0.0449306927621364,0.0154151367023587,0.0,0.0,-0.9125846028327942,-0.5522212386131287
-0.0154679296538233,1.1726627349853516,0.0021697601769119,-0.5299665927886963,-0.0432628281414508,0.0333604589104652,0.0,0.0,-0.9427733421325684,-0.5938798785209656
-0.015395164489746,1.1605103015899658,0.0045543699525296,-0.5400362014770508,-0.040576659142971,0.0537237040698528,0.0,0.0,-0.8581653237342834,-0.2042457461357116
-0.0152286533266305,1.1481451988220217,0.0143693434074521,-0.5495021939277649,-0.0383267253637313,0.0449987463653087,0.0,0.0,-0.8492919206619263,-0.7360751628875732
-0.0150384902954101,1.135579228401184,0.0153662292286753,-0.5584012866020203,-0.0347161516547203,0.0722115039825439,0.0,0.0,-0.9276446104049684,-0.1056885123252868
-0.014753246679902,1.1228004693984983,0.0252775102853775,-0.5678673982620239,-0.0315132401883602,0.0640584975481033,0.0,0.0,-0.9001591205596924,0.3733799457550049
-0.0143725397065281,1.109809160232544,0.0352296642959117,-0.5773332715034485,-0.0287023447453975,0.0562177821993827,0.0,0.0,-0.7403138875961304,-0.2757605314254761
-0.013895702548325,1.0966051816940308,0.0452178828418254,-0.5867987275123596,-0.0262669920921325,0.0487069860100746,0.0,0.0,-0.9245490431785583,0.4445980787277221
-0.0133222583681344,1.083188533782959,0.0552373602986335,-0.5962639451026917,-0.0241897776722908,0.0415441468358039,0.0,0.0,-0.812508225440979,-0.571686863899231
-0.0127032278105616,1.069566249847412,0.0588391721248626,-0.6053863763809204,-0.0211591143161058,0.0606135055422782,0.0,0.0,-0.8802493810653687,0.1108069419860839
-0.0119867324829101,1.0557312965393066,0.0689068362116813,-0.6148516535758972,-0.0184490494430065,0.054201066493988,0.0,0.0,-0.8173238039016724,-0.426744282245636
-0.0111723896116018,1.0416834354400637,0.078991450369358,-0.6243166327476501,-0.0160395074635744,0.0481909662485122,0.0,0.0,-0.9642117619514464,-0.7682169675827026
-0.0103187561035156,1.0274300575256348,0.0816979706287384,-0.633446455001831,-0.0124276038259267,0.0722380429506301,0.0,0.0,-0.932610809803009,0.0279809236526489
-0.0093667982146143,1.0129640102386477,0.0918021351099014,-0.6429117918014526,-0.0090733394026756,0.0670851916074752,0.0,0.0,-0.9667582511901855,-0.9121907353401184
-0.0083836559206247,0.9982933402061462,0.0934287905693054,-0.6520134806632996,-0.0042545911855995,0.0963751822710037,0.0,0.0,-0.8929128050804138,-0.931616187095642
-0.0073801996186375,0.9834208488464355,0.0936817228794097,-0.6609914898872375,0.0023263730108737,0.1316194832324981,0.0,0.0,-0.6069159507751465,-0.2994197010993957
-0.006277656648308,0.9683361053466796,0.1037788987159729,-0.670458972454071,0.0087201092392206,0.1278747320175171,0.0,0.0,-0.976745307445526,0.0411937236785888
-0.0050759315490722,0.9530389308929444,0.1138638705015182,-0.6799261569976807,0.0149515438824892,0.1246284693479538,0.0,0.0,-0.96640944480896,-0.4713063240051269
-0.003774833632633,0.93752920627594,0.1239315718412399,-0.689393162727356,0.0210461970418691,0.1218931823968887,0.0,0.0,-0.8472590446472168,-0.6619836688041687
-0.002418327378109,0.9217984080314636,0.1284756660461425,-0.6992627382278442,0.0281348340213298,0.141772836446762,0.0,0.0,-0.7655223608016968,-0.8707075119018555
-0.0010198593372479,0.9058513641357422,0.1312793493270874,-0.7089453339576721,0.0365857295691967,0.1690182089805603,0.0,0.0,-0.9229716062545776,0.3934957981109619
0.0004776954592671,0.8896921873092651,0.1412637829780578,-0.7184151411056519,0.0449794195592403,0.1678740084171295,0.0,0.0,-0.969245195388794,0.1015543937683105
0.0020744323264807,0.8733211159706116,0.1512095034122467,-0.727884829044342,0.0533431358635425,0.1672740280628204,0.0,0.0,-0.9683725833892822,-0.4230273962020874
0.0037701607216149,0.8567379117012024,0.1611107438802719,-0.737354576587677,0.061704222112894,0.1672217547893524,0.0,0.0,-0.9814541935920716,-0.9275086522102356
0.0054771425202488,0.8399448394775391,0.1600133776664734,-0.7468319535255432,0.0722786635160446,0.2114887237548828,0.0,0.0,-0.8648043870925903,-0.7194470763206482
0.0072130202315747,0.8229395151138306,0.1610829532146453,-0.7564437389373779,0.0846518576145172,0.2474638670682907,0.0,0.0,-0.1933662295341491,-0.1800503134727478
0.0090467454865574,0.8057233095169067,0.1708153039216995,-0.7659210562705994,0.0971045643091201,0.2490540444850921,0.0,0.0,-0.3899793624877929,-0.0021847486495971
0.0109781268984079,0.7882964015007019,0.1804783642292022,-0.7753989100456238,0.1096638366580009,0.2511857748031616,0.0,0.0,0.1216510534286499,-0.0118333101272583
0.0129129411652684,0.7713981866836548,0.1808894574642181,-0.7520058751106262,0.1221756339073181,0.2502362430095672,0.0,0.0,-0.3955223560333252,0.564774751663208
0.0149968145415186,0.7542957067489624,0.1969956755638122,-0.7610849142074585,0.1335162967443466,0.2268130779266357,0.0,0.0,0.0789467096328735,0.9368433952331544
0.0171822551637887,0.7377804517745972,0.2088657319545745,-0.734912633895874,0.1431662887334823,0.1929998248815536,0.0,0.0,-0.7856864929199219,0.915453553199768
0.0195526126772165,0.7210693359375,0.2294358760118484,-0.7434598207473755,0.1507456600666046,0.1515873968601226,0.0,0.0,-0.7921177744865417,-0.7416280508041382
0.0219504348933696,0.7041283845901489,0.2302368134260177,-0.7539310455322266,0.1602810025215149,0.1907065957784652,0.0,0.0,-0.7668288350105286,0.6698384284973145
0.0245013236999511,0.6869968771934509,0.2468539476394653,-0.7623172998428345,0.168521448969841,0.1648096144199371,0.0,0.0,-0.8642125725746155,-0.4170080423355102
0.0271446220576763,0.6696537733078003,0.2558183372020721,-0.7717906832695007,0.1770440489053726,0.1704515963792801,0.0,0.0,-0.8591440320014954,0.0145525932312011
0.029879093170166,0.6520995497703552,0.2646484971046448,-0.7812650799751282,0.1858709305524826,0.1765378415584564,0.0,0.0,-0.8177664875984192,0.4496102333068847
0.0327034965157508,0.634334146976471,0.2733344435691833,-0.790740430355072,0.1950234919786453,0.1830516159534454,0.0,0.0,-0.7300004363059998,0.4302401542663574
0.0356164947152137,0.6163580417633057,0.2818657755851745,-0.8002169132232666,0.2045222818851471,0.189975768327713,0.0,0.0,-0.7237129807472229,0.3158793449401855
0.0386165603995323,0.598171055316925,0.2902315557003021,-0.8096944689750671,0.2143869400024414,0.1972930431365966,0.0,0.0,0.3772218227386474,0.4288443326950073
0.0417110435664653,0.5804382562637329,0.2988386452198028,-0.7896979451179504,0.2251125127077102,0.2145117223262787,0.0,0.0,0.1432360410690307,0.3389985561370849
0.0448103919625282,0.5631209015846252,0.2988876402378082,-0.771384596824646,0.2363161295652389,0.2240725755691528,0.0,0.0,0.7554740905761719,0.8125869035720825
0.0479641929268837,0.5462344288825989,0.3055286705493927,-0.7521211504936218,0.2463222444057464,0.2001221626996994,0.0,0.0,0.1671798229217529,0.3620004653930664
0.0510110855102539,0.5297132730484009,0.2948479354381561,-0.735961377620697,0.2563598155975342,0.2007514685392379,0.0,0.0,0.2488749027252197,0.8297398090362549
0.054051399230957,0.513961672782898,0.2953930497169494,-0.7016037702560425,0.2651774287223816,0.1763520985841751,0.0,0.0,-0.1384597420692443,0.8089127540588379
0.0572388656437397,0.4980187714099884,0.3114845752716064,-0.7099034786224365,0.2726089656352997,0.1486312747001648,0.0,0.0,0.2592720985412597,-0.4683370590209961
0.0603441223502159,0.4828138053417206,0.3027124106884002,-0.6772528290748596,0.2806159257888794,0.1601397544145584,0.0,0.0,-0.3752451539039612,0.3438558578491211
0.0635197609663009,0.467398464679718,0.3092943131923675,-0.6867333650588989,0.289116233587265,0.1700063347816467,0.0,0.0,0.8058305978775024,-0.529538631439209
0.0664093047380447,0.4527759850025177,0.2794675827026367,-0.6517983078956604,0.2988956570625305,0.1955886334180832,0.0,0.0,0.7198622226715088,0.8082849979400635
0.069266989827156,0.4389175474643707,0.277338445186615,-0.6176854372024536,0.3076113164424896,0.1743132323026657,0.0,0.0,-0.3126033544540405,0.9659680128097534
0.0722409263253212,0.4248865842819214,0.2899841368198395,-0.6251878142356873,0.3152981698513031,0.1537376046180725,0.0,0.0,0.0184736251831054,0.8385360240936279
0.0752763748168945,0.4112086892127991,0.2972736060619354,-0.609282374382019,0.3218160271644592,0.130357027053833,0.0,0.0,-0.0867649316787719,0.5828266143798828
0.0784089118242263,0.3973370194435119,0.3075377643108368,-0.6178035140037537,0.3277660310268402,0.1190003156661987,0.0,0.0,-0.1124204397201538,0.5593804121017456
0.0816405266523361,0.3832731544971466,0.3181342482566833,-0.6262068152427673,0.333010733127594,0.1048939675092697,0.0,0.0,0.0577630996704101,-0.2431631684303283
0.0848296135663986,0.3692975044250488,0.3134371340274811,-0.6224167943000793,0.3387312591075897,0.11441071331501,0.0,0.0,0.7042953968048096,-0.1549153327941894
0.0877823829650878,0.3562651872634887,0.2893024682998657,-0.5806316137313843,0.3449902534484863,0.1251799911260604,0.0,0.0,0.2734651565551758,0.5698317289352417
0.090666577219963,0.3439730107784271,0.2828952074050903,-0.5476547479629517,0.3507923185825348,0.1160414367914199,0.0,0.0,0.3043972253799438,0.6951782703399658
0.0933214202523231,0.3323637545108795,0.2608921825885772,-0.5170926451683044,0.3556114733219147,0.0963829159736633,0.0,0.0,0.3166737556457519,0.60888671875
0.0958553329110145,0.3208756744861603,0.2496229410171508,-0.5115192532539368,0.3595828115940094,0.0794269368052482,0.0,0.0,0.0406196117401123,0.921595811843872
0.0983345955610275,0.3099386990070343,0.2454033195972442,-0.4867281019687652,0.362252801656723,0.0533997602760791,0.0,0.0,0.7105368375778198,0.3127903938293457
0.1005266159772872,0.2995716333389282,0.2165447026491165,-0.4614273905754089,0.3650552034378052,0.0560482814908027,0.0,0.0,0.5341684818267822,0.8482193946838379
0.1025192290544509,0.2898852229118347,0.1977421790361404,-0.4308968484401703,0.366657555103302,0.0320477485656738,0.0,0.0,0.3655812740325928,0.7437989711761475
0.1043601036071777,0.2808272242546081,0.1834513843059539,-0.4027443826198578,0.3673419654369354,0.0136879403144121,0.0,0.0,0.8248887062072754,0.7590315341949463
0.1061312705278396,0.2725477814674377,0.1771341264247894,-0.3679714202880859,0.3673226535320282,-0.0003861999139189,0.0,0.0,0.9053659439086914,0.022184133529663
0.1077886596322059,0.2646258175373077,0.1650217473506927,-0.3522682785987854,0.3680738806724548,0.0150244310498237,0.0,0.0,0.8937989473342896,0.5948033332824707
0.1094279289245605,0.2572225034236908,0.1634648591279983,-0.3291561007499695,0.368560642004013,0.0097352666780352,0.0,0.0,0.9113047122955322,0.2217167615890503
0.1109803169965744,0.2506257593631744,0.1534128785133361,-0.2936585545539856,0.3704906702041626,0.0386009886860847,0.0,0.0,0.9354605674743652,-0.3233490586280823
0.1125049591064453,0.2445541024208068,0.1492973715066909,-0.270673394203186,0.3738376200199127,0.0669396966695785,0.0,0.0,0.9812357425689696,-0.0906981825828552
0.1136763542890548,0.2395272850990295,0.1133900731801986,-0.224402979016304,0.3778201341629028,0.0796501561999321,0.0,0.0,0.9839082956314088,0.1707398891448974
0.1145235076546669,0.2355815023183822,0.0801713019609451,-0.1765749007463455,0.3826465904712677,0.0965291410684585,0.0,0.0,0.992099404335022,0.122089147567749
0.1151817291975021,0.2326299995183944,0.0600092411041259,-0.1327541619539261,0.3888446986675262,0.12396190315485,0.0,0.0,0.9713256359100342,0.5492300987243652
0.1158190742135047,0.2301017791032791,0.0579981431365013,-0.1139420121908187,0.3949648737907409,0.1224036663770675,0.0,0.0,0.759728193283081,0.372623085975647
0.1161583885550499,0.2280834019184112,0.0278212092816829,-0.091422826051712,0.4015123248100281,0.1309491842985153,0.0,0.0,0.6531836986541748,0.4707027673721313
0.1161960586905479,0.2270978540182113,-0.0033416536170989,-0.0458307638764381,0.4091419279575348,0.1525926142930984,0.0,0.0,-0.5244503021240234,0.2258749008178711
0.1161867156624794,0.2259038090705871,-0.0086560156196355,-0.0553223565220832,0.4174659252166748,0.1664799898862838,0.0,0.0,-0.6563295125961304,0.9197180271148682
0.1161759346723556,0.2245438247919082,-0.0080104302614927,-0.062512956559658,0.42496258020401,0.1499333083629608,0.0,0.0,-0.404765784740448,0.457482099533081
0.1161093711853027,0.2229754030704498,-0.0142010059207677,-0.0720054656267166,0.4331609308719635,0.163966879248619,0.0,0.0,-0.5807119011878967,0.8756928443908691
0.1160380393266677,0.2212437689304351,-0.0137828979641199,-0.0790236890316009,0.4403949081897735,0.1446795910596847,0.0,0.0,-0.198313295841217,0.8606166839599609
0.1159536391496658,0.2193466275930404,-0.0142847653478384,-0.0861705839633941,0.4467810094356537,0.1277219355106353,0.0,0.0,-0.4775178432464599,0.9568870067596436
0.1158674210309982,0.217284619808197,-0.0133537771180272,-0.0931641906499862,0.4519681930541992,0.1037438958883285,0.0,0.0,-0.5211910009384155,0.9753670692443848
0.1157651916146278,0.215055376291275,-0.0140983955934643,-0.1003405973315239,0.4562248289585113,0.0851334333419799,0.0,0.0,-0.6078905463218689,0.9866334199905396
0.1156411170959472,0.2126538306474685,-0.0155242532491683,-0.1077598258852958,0.4596535563468933,0.0685737580060958,0.0,0.0,-0.578153133392334,0.9709072113037108
0.1155175194144249,0.2101081758737564,-0.0139450849965214,-0.1136649996042251,0.461403876543045,0.0350062288343906,0.0,0.0,-0.290743887424469,0.9782469272613524
0.1153912544250488,0.2074026465415954,-0.0128327114507555,-0.1203157007694244,0.4616312980651855,0.004548146855086,0.0,0.0,-0.733772873878479,0.9624912738800048
0.1152626052498817,0.2045574337244033,-0.0114514930173754,-0.1259823888540268,0.4600708186626434,-0.0312093682587146,0.0,0.0,-0.7242697477340698,0.9847844839096068
0.1151112541556358,0.2015603631734848,-0.0125586669892072,-0.1323584616184234,0.4572408199310303,-0.0566001906991004,0.0,0.0,-0.6684027910232544,0.9922599792480468
0.1149535179138183,0.1984286159276962,-0.0115115586668252,-0.1377982199192047,0.4525538682937622,-0.0937390029430389,0.0,0.0,-0.8576516509056091,0.8541271686553955
-999.0,0.19513800740242,-0.0127174211665987,-0.144498273730278,0.4465841054916382,-0.1193949952721595,0.0,0.0,-0.8691412806510925,0.9726479053497314
0.1145612746477127,0.1916964799165725,-0.014414575882256,-0.150849312543869,0.4393244981765747,-0.1451924294233322,0.0,0.0,-0.6719571352005005,0.9424655437469482
0.1143258064985275,0.1881062537431717,-0.0155622186139225,-0.1570846438407898,0.4306221604347229,-0.1740470230579376,0.0,0.0,-0.6222062110900879,0.952895164489746
0.1140704154968261,0.1843570321798324,-0.0161166582256555,-0.1637830883264541,0.4204106330871582,-0.2042303830385208,0.0,0.0,-0.8174623847007751,0.9391064643859864
0.1137681007385253,0.1804375797510147,-0.0199983716011047,-0.1711905896663665,0.4093760251998901,-0.2206919193267822,0.0,0.0,-0.7966611385345459,0.9843857288360596
0.1134204864501953,0.1763445883989334,-0.0236686076968908,-0.1787508577108383,0.3974738121032715,-0.2380440980195999,0.0,0.0,-0.8090335726737976,0.954742431640625
0.1130362525582313,0.1720858216285705,-0.0261785089969635,-0.1859107166528701,0.384403645992279,-0.2614032626152038,0.0,0.0,-0.700980007648468,0.9692716598510742
0.1126212105154991,0.167663112282753,-0.0279272049665451,-0.1929724365472793,0.3699855804443359,-0.2883610427379608,0.0,0.0,-0.7994255423545837,0.9518630504608154
0.1121869087219238,0.1630751639604568,-0.0282320044934749,-0.2000602781772613,0.3539309203624725,-0.3210930228233337,0.0,0.0,-0.746152937412262,0.9935929775238036
0.1117288619279861,0.1583326011896133,-0.0289441794157028,-0.2067303657531738,0.33623868227005,-0.3538450598716736,0.0,0.0,-0.3572511672973633,0.9837946891784668
0.1112358123064041,0.1534333080053329,-0.0310264080762863,-0.2136028409004211,0.3171757757663727,-0.3812578916549682,0.0,0.0,-0.5732295513153076,0.932159662246704
0.110711857676506,0.1483571380376815,-0.032678410410881,-0.221423715353012,0.2967582941055298,-0.4083498418331146,0.0,0.0,-0.774452805519104,0.9094189405441284
0.1101560592651367,0.1431146711111068,-0.0343563258647918,-0.2288258969783783,0.2749252021312713,-0.4366627335548401,0.0,0.0,-0.5823628306388855,0.8774704933166504
