x_pos,y_pos,x_vel,y_vel,angle,ang_vel,leg_1,leg_2,main_booster,lat_booster
-0.0015112876426428,1.403186559677124,-0.1524602472782135,-0.3437147438526153,0.0011895410716533,0.023422222584486,0.0,0.0,-0.5470883250236511,0.3640007972717285
-0.0030039786361157,1.3950382471084597,-0.1498525589704513,-0.3621509969234466,0.0017631914233788,0.0114750564098358,0.0,0.0,-0.3055421710014343,0.5547492504119873
-0.0044183731079101,1.3864474296569824,-0.1400687545537948,-0.3818100690841675,0.0004015582089778,-0.027235010638833,0.0,0.0,-0.2323377132415771,0.4939001798629761
-0.0058016777038574,1.3774186372756958,-0.136334627866745,-0.4012778997421264,-0.0015648988774046,-0.0393329076468944,0.0,0.0,0.2333589792251587,0.5816233158111572
-0.0069951056502759,1.3686838150024414,-0.1157859787344932,-0.3882242441177368,-0.0050825825892388,-0.0703602060675621,0.0,0.0,-0.0463894605636596,-0.0784900784492492
-0.0081454273313283,1.3595110177993774,-0.1108477711677551,-0.4076954424381256,-0.0092246243730187,-0.0828481167554855,0.0,0.0,0.6974031925201416,0.6304192543029785
-0.0092170713469386,1.3507905006408691,-0.1010077372193336,-0.3876294493675232,-0.0153122618794441,-0.1217638701200485,0.0,0.0,-0.2570469379425049,-0.1809003949165344
-0.0102345468476414,1.341632604598999,-0.0949471220374107,-0.4071042835712433,-0.0220407340675592,-0.1345818638801574,0.0,0.0,-0.4149563312530517,-0.5790054202079773
-0.0112391468137502,1.332045316696167,-0.0941868796944618,-0.4262037873268127,-0.0282485056668519,-0.1241666451096534,0.0,0.0,-0.3390630483627319,-0.282888650894165
-0.0121796606108546,1.3220210075378418,-0.0871080607175827,-0.445672333240509,-0.0351135581731796,-0.1373137533664703,0.0,0.0,-0.6426481604576111,-0.3165009021759033
-0.0130513189360499,1.3115599155426023,-0.0795563906431198,-0.4651416838169098,-0.0426420271396636,-0.1505832821130752,0.0,0.0,-0.8455416560173035,-0.7898086905479431
-0.0139047624543309,1.300663709640503,-0.0784512460231781,-0.4844891130924225,-0.0494583398103714,-0.1363385766744613,0.0,0.0,-0.8365817070007324,-0.8678389191627502
-0.0147341731935739,1.2893388271331787,-0.076744794845581,-0.503540575504303,-0.0556011646986007,-0.1228677630424499,0.0,0.0,-0.4716954231262207,-0.8286861777305603
-0.015540599822998,1.2775741815567017,-0.075218990445137,-0.5230850577354431,-0.0609718300402164,-0.1074230298399925,0.0,0.0,-0.5130003690719604,-0.7165107131004333
-0.0163051597774028,1.2653839588165283,-0.0714438557624816,-0.5420057773590088,-0.0659393072128295,-0.099358394742012,0.0,0.0,-0.4821726083755493,-0.9412338137626648
-0.0170427318662405,1.252751350402832,-0.0695916935801506,-0.5616315007209778,-0.07007297873497,-0.0826810747385025,0.0,0.0,-0.2794413566589355,-0.9617863893508912
-0.0177469253540039,1.2396992444992063,-0.0670460984110832,-0.5802606344223022,-0.073427990078926,-0.0671060904860496,0.0,0.0,-0.8289863467216492,-0.9600968956947328
-999.0,1.2262080907821655,-0.0642141699790954,-0.5997386574745178,-0.0760305896401405,-0.0520561933517456,0.0,0.0,-0.5595316290855408,-0.9804791808128356
-0.0190513618290424,1.2122962474822998,-0.0619078204035759,-0.6183851957321167,-0.0777024254202842,-0.0334402173757553,0.0,0.0,-0.7604104280471802,-0.8956127762794495
-0.0196681022644042,1.1979562044143677,-0.0613097734749317,-0.6373531818389893,-0.0780659690499305,-0.00727159390226,0.0,0.0,-0.4925394654273987,-0.8368710875511169
-0.0202350616455078,1.183191180229187,-0.0569349899888038,-0.6562114953994751,-0.0778307914733886,0.0047041061334311,0.0,0.0,-0.7055563926696777,-0.4025044441223144
-0.0206986423581838,1.1679890155792236,-0.0458586663007736,-0.6756808161735535,-0.0783142149448394,-0.0096694771200418,0.0,0.0,-0.1833065748214721,-0.9250401854515076
-0.0211138725280761,1.1523549556732178,-0.041767168790102,-0.6948317885398865,-0.0780748948454856,0.0047868662513792,0.0,0.0,-0.6052905321121216,-0.9067915678024292
-0.021485710516572,1.136281132698059,-0.0382960252463817,-0.7143344879150391,-0.0769678726792335,0.0221424251794815,0.0,0.0,-0.0894238352775573,-0.8995248079299927
-0.0218361858278512,1.11978280544281,-0.0376680120825767,-0.7331279516220093,-0.074374683201313,0.0518684908747673,0.0,0.0,-0.5355867743492126,-0.6261231303215027
-0.0221386905759573,1.1028361320495603,-0.0336923860013484,-0.7530189752578735,-0.0709627419710159,0.0682387575507164,0.0,0.0,-0.7429987788200378,0.0733587741851806
-0.0223294254392385,1.0854521989822388,-0.0217803753912448,-0.7724869847297668,-0.0682830959558487,0.0535931177437305,0.0,0.0,-0.6912351250648499,-0.4357459545135498
-0.0224071498960256,1.0676312446594238,-0.0097415624186396,-0.7919543981552124,-0.0663372948765754,0.0389160737395286,0.0,0.0,-0.1449393033981323,-0.8865269422531128
-0.0224555972963571,1.0493888854980469,-0.0082412818446755,-0.8106234669685364,-0.0629777088761329,0.067191869020462,0.0,0.0,0.1167317628860473,0.0516984462738037
-0.0223822593688964,1.0312042236328125,0.0047442382201552,-0.8081064224243164,-0.0604203231632709,0.051147811114788,0.0,0.0,-0.3692729473114013,-0.6532781720161438
-0.0222425460815429,1.0125939846038818,0.0108578708022832,-0.8269933462142944,-0.0573391541838645,0.0616235733032226,0.0,0.0,0.1033549308776855,-0.0646177530288696
-0.0220209117978811,0.9939894676208496,0.0200383197516202,-0.8267919421195984,-0.0552369728684425,0.0420435257256031,0.0,0.0,-0.0621895194053649,-0.4317426681518554
-0.0216814037412405,0.9749475121498108,0.0325654856860637,-0.8462584018707275,-0.053874347358942,0.0272527281194925,0.0,0.0,-0.3512828350067138,-0.0651426315307617
-0.0212234500795602,0.9554681181907654,0.0451665222644805,-0.8657245635986328,-0.0532520040869712,0.0124471075832843,0.0,0.0,-0.5303009748458862,-0.6788488030433655
-0.0206984523683786,0.9355570673942566,0.0512908399105072,-0.8848950862884521,-0.0520558804273605,0.0239221379160881,0.0,0.0,-0.2940883040428161,-0.8035410046577454
-0.0201149936765432,0.9152194857597352,0.056314431130886,-0.9038254022598268,-0.0500494129955768,0.0401293896138668,0.0,0.0,-0.0811672806739807,-0.5558702349662781
-0.0194571502506732,0.8944450616836548,0.0633383467793464,-0.9232255816459656,-0.0476310513913631,0.0483673997223377,0.0,0.0,-0.1373529434204101,0.6581509113311768
-0.0186229702085256,0.8732344508171082,0.083132266998291,-0.942687213420868,-0.0473463535308837,0.0056940764188766,0.0,0.0,0.369732141494751,-0.1384946703910827
-0.0176669117063283,0.8526353240013123,0.0962186083197593,-0.9155353903770448,-0.0479549430310726,-0.0121717909350991,0.0,0.0,-0.5509327054023743,-0.8568072319030762
-0.0166536327451467,0.8316044211387634,0.1010495871305465,-0.9346935153007508,-0.0476810857653617,0.0054770605638623,0.0,0.0,-0.1945784091949463,-0.0808600187301635
-0.0155182834714651,0.8101362586021423,0.1140146851539611,-0.9541592001914978,-0.0481497459113597,-0.0093735018745064,0.0,0.0,-0.0807088017463684,-0.6940000653266907
-0.0143040660768747,0.788232147693634,0.1215376630425453,-0.9735187292099,-0.0482633225619792,-0.0022715008817613,0.0,0.0,0.5529618263244629,-0.7243470549583435
-0.0129098892211914,0.7663211226463318,0.138636901974678,-0.9737961888313292,-0.0474893972277641,0.0154784005135297,0.0,0.0,0.3912214040756225,-0.8901799321174622
-0.0113467220216989,0.7446361780166626,0.1543935984373092,-0.963718831539154,-0.0455919094383716,0.037949688732624,0.0,0.0,0.2035549879074096,-0.94237220287323
-0.0097599029541015,0.7228316068649292,0.1556279361248016,-0.969004213809967,-0.0425734408199787,0.060369748622179,0.0,0.0,0.6230388879776001,-0.9870322942733764
-0.0080628395080566,0.7010733485221863,0.1653617769479751,-0.9669176936149596,-0.0382750891149044,0.0859666243195533,0.0,0.0,0.8430747985839844,-0.9688746333122252
-0.006223774049431,0.6796198487281799,0.1782321780920028,-0.9533532857894896,-0.0326712578535079,0.112076535820961,0.0,0.0,0.8706932067871094,-0.9935185313224792
-0.0044500352814793,0.6591662764549255,0.1706701070070266,-0.908922791481018,-0.0260499194264411,0.132426843047142,0.0,0.0,0.65509033203125,-0.976390779018402
-0.002758502960205,0.6394769549369812,0.1614216119050979,-0.8749634027481079,-0.0184121783822774,0.1527549922466278,0.0,0.0,-0.1651862859725952,-0.9157370924949646
-0.0010175704956054,0.6193503737449646,0.1651910841464996,-0.8944339752197266,-0.0096279419958591,0.1756848841905594,0.0,0.0,0.8080770969390869,-0.9329432845115662
0.0009546279907226,0.599722683429718,0.1868967711925506,-0.8723042011260986,0.0005583283491432,0.2037254273891449,0.0,0.0,0.6683216094970703,-0.9557026624679564
0.0029100417159497,0.5807808041572571,0.1841270327568054,-0.8419036865234375,0.0118214152753353,0.2252618819475174,0.0,0.0,0.3004345893859863,-0.6045179963111877
0.00503292074427,0.5619249939918518,0.2002238929271698,-0.8381726741790771,0.0237316153943538,0.2382039278745651,0.0,0.0,0.8217607736587524,-0.5671571493148804
0.0072184563614428,0.5439558029174805,0.2060937583446502,-0.798873782157898,0.0360461063683033,0.2462897598743438,0.0,0.0,0.175374150276184,-0.0029698014259338
0.0096224788576364,0.5260759592056274,0.2281755656003952,-0.7949943542480469,0.0481190718710422,0.2414591759443283,0.0,0.0,0.00201416015625,-0.6479617357254028
0.0120204929262399,0.5081766843795776,0.2270865738391876,-0.7959805727005005,0.060688242316246,0.2513834834098816,0.0,0.0,0.6003210544586182,-0.395595371723175
0.0145875932648777,0.4910050630569458,0.2443141043186187,-0.763729989528656,0.0729507133364677,0.2452492713928222,0.0,0.0,0.2561075687408447,-0.7259621024131775
0.0173027031123638,0.4741735756397247,0.2582423985004425,-0.7487599849700928,0.0860863327980041,0.2627124488353729,0.0,0.0,0.3213380575180053,-0.5444890856742859
0.0201077461242675,0.4578983783721924,0.2667547464370727,-0.7241919040679932,0.0997236371040344,0.2727460563182831,0.0,0.0,0.3651028871536255,-0.2378019094467163
0.0229106899350881,0.4421462118625641,0.2675716280937195,-0.7009923458099365,0.1123493686318397,0.2525146603584289,0.0,0.0,0.4947758913040161,-0.5399569272994995
0.0258085243403911,0.4264532327651977,0.276608407497406,-0.698509931564331,0.125459536910057,0.2622031271457672,0.0,0.0,0.7856954336166382,-0.2553294897079468
0.028629207983613,0.411431074142456,0.2701177895069122,-0.6686960458755493,0.1373542696237564,0.2378946840763092,0.0,0.0,0.7317508459091187,-0.4560939073562622
0.0316289886832237,0.3968037962913513,0.2881582975387573,-0.6512362957000732,0.1491374969482422,0.2356645166873932,0.0,0.0,0.560260534286499,-0.6248198747634888
0.0346426963806152,0.3825930953025818,0.2889837622642517,-0.6328787207603455,0.1615176051855087,0.2476023733615875,0.0,0.0,0.5052388906478882,0.0040794610977172
0.0377297401428222,0.3684871792793274,0.2970069944858551,-0.6282411813735962,0.1732287257909774,0.2342220246791839,0.0,0.0,0.568818211555481,-0.0410062074661254
0.0407292358577251,0.3547422587871551,0.2895146012306213,-0.6121378540992737,0.1836989521980285,0.2094044387340545,0.0,0.0,0.5667459964752197,-0.9727900624275208
0.0436512008309364,0.3417526483535766,0.280507743358612,-0.5788065195083618,0.1954459547996521,0.2349400073289871,0.0,0.0,0.3973116874694824,-0.4297232627868652
0.0467181205749511,0.3287093043327331,0.2953892946243286,-0.5812371969223022,0.2068279683589935,0.2276400029659271,0.0,0.0,0.7220577001571655,-0.6279403567314148
0.0497072227299213,0.3165354430675506,0.2869978547096252,-0.5427734851837158,0.2188610881567001,0.240662544965744,0.0,0.0,0.5192515850067139,0.1575644016265869
0.0526420585811138,0.3045325875282287,0.2826601862907409,-0.5351027250289917,0.2298209369182586,0.2191968411207199,0.0,0.0,0.3485200405120849,-0.5434693694114685
0.0554541572928428,0.2928583920001983,0.2701684832572937,-0.5206167697906494,0.2410293668508529,0.2241681814193725,0.0,0.0,0.5214948654174805,-0.4361696243286133
0.0582814216613769,0.2815907001495361,0.2722366452217102,-0.5025416612625122,0.2517115175724029,0.2136429548263549,0.0,0.0,0.3165708780288696,-0.1062238216400146
0.0609662048518657,0.2708236575126648,0.2591030299663543,-0.4801715016365051,0.2612703740596771,0.1911772191524505,0.0,0.0,-0.0956668853759765,-0.6262256503105164
0.0637332946062088,0.2596009373664856,0.2669036984443664,-0.5005682706832886,0.2713030576705932,0.2006531506776809,0.0,0.0,0.4135982990264892,0.2414063215255737
0.0665070563554763,0.2484111934900283,0.2683380544185638,-0.4990237355232239,0.2805739641189575,0.1854182034730911,0.0,0.0,0.7240946292877197,-0.3921041488647461
0.0693791359663009,0.237300768494606,0.2784642875194549,-0.4954995214939117,0.2895561456680298,0.1796444356441497,0.0,0.0,0.3738689422607422,-0.0586785078048706
0.0722691565752029,0.2261456400156021,0.28099125623703,-0.4973967671394348,0.2978121936321258,0.1651211678981781,0.0,0.0,0.5868958234786987,-0.4783558845520019
0.0750514045357704,0.2156399637460708,0.2708542943000793,-0.4684439897537231,0.305439829826355,0.1525526940822601,0.0,0.0,0.5208950042724609,-0.2610422968864441
0.0778015106916427,0.2058023959398269,0.2678797841072082,-0.4387408494949341,0.3128314018249511,0.1478312313556671,0.0,0.0,0.2723655700683594,-0.449062168598175
0.080398753285408,0.1963836997747421,0.2535359859466553,-0.4199558794498443,0.3192618191242218,0.1286080032587051,0.0,0.0,-0.1627761125564575,-0.7881776690483093
0.0830490142107009,0.1864823400974273,0.2574865520000458,-0.4417416155338287,0.3271098732948303,0.1569611877202987,0.0,0.0,0.3246774673461914,-0.3722500801086426
0.0856487303972244,0.1770574897527694,0.2528051435947418,-0.4205200374126434,0.3345807194709778,0.1494167745113372,0.0,0.0,0.5390981435775757,-0.581922173500061
0.0880546569824218,0.1678798943758011,0.2330275475978851,-0.4096629321575165,0.3424976766109466,0.1583399027585983,0.0,0.0,0.2892123460769653,-0.0125401616096496
0.0903641730546951,0.1589888483285904,0.2240655422210693,-0.3968158066272735,0.3497295975685119,0.1446386575698852,0.0,0.0,0.0840176343917846,-0.3214396238327026
0.0926302894949913,0.150300920009613,0.2202131748199463,-0.3877038061618805,0.3564598262310028,0.134604662656784,0.0,0.0,-0.2552181482315063,0.5832353830337524
0.0950661674141883,0.1412009298801422,0.2389222085475921,-0.4056090414524078,0.361377090215683,0.0983454436063766,0.0,0.0,-0.1181654930114746,-0.4329797029495239
0.0976221114397049,0.1316613554954528,0.2513309121131897,-0.4250611662864685,0.3658764958381653,0.0899878814816474,0.0,0.0,-0.161178708076477,-0.5277626514434814
0.100265696644783,0.1216599345207214,0.2595965266227722,-0.445732444524765,0.3709062039852142,0.1005949825048446,0.0,0.0,0.642762303352356,-0.7191432118415833
0.1029185280203819,0.1120691373944282,0.2592018246650696,-0.4278494119644165,0.3773659467697143,0.1291941255331039,0.0,0.0,0.6926040649414062,-0.5491535067558289
0.1056433692574501,0.1026595905423164,0.2652821838855743,-0.4201236665248871,0.3850238919258117,0.1531591862440109,0.0,0.0,0.3725208044052124,-0.1029014587402343
0.1082463264465332,0.0936763361096382,0.2534177899360657,-0.4011313319206238,0.3923525214195251,0.1465727984905243,0.0,0.0,0.7635197639465332,-0.4276316165924072
0.1106859222054481,0.0853955373167991,0.2372292578220367,-0.3699084818363189,0.3995569050312042,0.1440877616405487,0.0,0.0,0.8052096366882324,0.5496940612792969
0.1131294220685958,0.0777950137853622,0.2385649979114532,-0.3394438624382019,0.4057703912258148,0.1242699027061462,0.0,0.0,0.5353567600250244,0.4345322847366333
0.1156528443098068,0.0702296122908592,0.2463611662387848,-0.3379693627357483,0.4122039079666137,0.1286708861589431,0.0,0.0,0.8541476726531982,-0.3230941891670227
0.1180053725838661,0.0629757717251777,0.2297096252441406,-0.3240208327770233,0.4181840419769287,0.1196028217673301,0.0,0.0,0.7465095520019531,0.5111241340637207
0.1202199906110763,0.0566218011081218,0.2168060839176178,-0.2837893068790436,0.4232127070426941,0.1005730479955673,0.0,0.0,0.8900852203369141,0.04127037525177
0.1222517937421798,0.0507035590708255,0.1987572759389877,-0.2643680870532989,0.4280044138431549,0.0958342477679252,0.0,0.0,0.7821973562240601,0.5352804660797119
0.1239412277936935,0.0454598031938076,0.1659987121820449,-0.2339546531438827,0.4312058091163635,0.0640285015106201,0.0,0.0,0.604616641998291,0.6118583679199219
0.125560849905014,0.0417587123811244,0.1761460751295089,-0.1602174788713455,0.415855199098587,-0.3069976270198822,0.0,1.0,0.9920283555984496,0.614433765411377
0.1267361640930175,0.0396623723208904,0.1458062827587127,-0.0851521864533424,0.385498970746994,-0.607150673866272,0.0,1.0,0.9633207321166992,-0.3914382457733154
0.1274414956569671,0.0387302488088607,0.1067563667893409,-0.0320899300277233,0.3471604287624359,-0.7667675018310547,0.0,1.0,0.8882365226745605,-0.585614800453186
0.127915471792221,0.0381109826266765,0.0813790932297706,-0.0197346433997154,0.3116961419582367,-0.7092850804328918,0.0,1.0,0.8228890895843506,-0.1899545192718505
0.1280601471662521,0.0379581302404403,0.0494066104292869,0.0003004176251124,0.2756388485431671,-0.7211467027664185,0.0,0.0,-0.999961793422699,-0.0382603406906127
0.1283043920993805,0.037383995950222,0.0597521737217903,-0.0192668419331312,0.2395682334899902,-0.7214133143424988,0.0,0.0,-0.9999143481254578,-0.3783051967620849
0.1286463737487793,0.0363887883722782,0.0698148012161254,-0.0388360023498535,0.2035170942544937,-0.7210239171981812,0.0,0.0,-0.9999483227729796,-0.2641738653182983
0.129083827137947,0.0349727235734462,0.0795720890164375,-0.0584065355360507,0.1675179004669189,-0.7199846506118774,0.0,0.0,-0.992974042892456,-0.1022834777832031
0.1296141594648361,0.0331359468400478,0.0890005528926849,-0.0779779031872749,0.1316027343273162,-0.718304455280304,0.0,0.0,-0.8331525325775146,-0.4972404241561889
0.1302346289157867,0.0308783873915672,0.0980757921934127,-0.0975495651364326,0.0958030447363853,-0.715994656085968,0.0,0.0,-0.6724274158477783,-0.8193233609199524
0.1308924704790115,0.0282017569988966,0.1005314737558364,-0.1170965731143951,0.0613927394151687,-0.6882069706916809,0.0,0.0,0.6692192554473877,-0.9842738509178162
0.1316073387861251,0.025979671627283,0.1040435805916786,-0.0977384820580482,0.0292243659496307,-0.6433680653572083,0.0,0.0,0.4919048547744751,-0.982929229736328
0.1322956979274749,0.0244441609829664,0.0992383956909179,-0.0679251700639724,-0.000793413084466,-0.600355863571167,0.0,0.0,-0.1185564398765564,-0.9430577754974364
0.1329932212829589,0.0224902965128421,0.0982208102941513,-0.087091140449047,-0.0288919191807508,-0.5619704723358154,0.0,0.0,0.7681643962860107,-0.8977311849594116
0.1338015496730804,0.0208383426070213,0.1070498973131179,-0.0741306468844413,-0.0547872222959995,-0.5179066061973572,0.0,0.0,-0.3042659759521484,-0.9909767508506776
0.1345830857753753,0.0187656730413436,0.1016482263803482,-0.0931419506669044,-0.0780234485864639,-0.4647249579429626,0.0,0.0,-0.8569313883781433,-0.9022215604782104
0.1353406012058258,0.0162688586860895,0.0966822430491447,-0.1121890693902969,-0.098769374191761,-0.4149187505245209,0.0,0.0,-0.3672119379043579,-0.8916261792182922
0.1360823661088943,0.0133491847664117,0.0928800106048584,-0.1311056017875671,-0.1173394843935966,-0.3714022636413574,0.0,0.0,-0.5589773654937744,-0.657310962677002
0.1368261277675628,0.0100027183070778,0.091417446732521,-0.1501601487398147,-0.134297102689743,-0.3391527235507965,1.0,0.0,0.8565378189086914,-0.5722423195838928
0.1377926766872406,0.0073139644227921,0.100602313876152,-0.1203403919935226,-0.1367114186286926,-0.046242743730545,1.0,0.0,0.4796451330184936,-0.6562111973762512
0.1390259712934494,0.0056269620545208,0.1084127277135849,-0.0736923292279243,-0.1218070313334465,0.2981627881526947,1.0,0.0,-0.8130097389221191,-0.4590344429016113
0.1403463333845138,0.0039201118052005,0.1052621006965637,-0.0739036947488784,-0.0951659381389617,0.5328881740570068,1.0,0.0,-0.8832525610923767,0.2265622615814209
0.1417113244533538,0.0020039058290421,0.1034371703863143,-0.083400085568428,-0.0623653084039688,0.6560803651809692,1.0,0.0,-0.7661208510398865,-0.3423004150390625
