x_pos,y_pos,x_vel,y_vel,angle,ang_vel,leg_1,leg_2,main_booster,lat_booster
-0.0015859603881835,1.4031121730804443,-0.1604631245136261,-0.3470313251018524,0.0016679344698786,0.0328945629298687,0.0,0.0,0.2898563161192433,-0.8531938184248895
-0.0032562254928052,1.395350694656372,-0.1702822297811508,-0.3449650704860687,0.0048854779452085,0.0643577277660369,0.0,0.0,-0.4318128215615393,-0.8155103545275828
-0.0050393105484545,1.3870697021484375,-0.1826890558004379,-0.3680582642555237,0.0092132156714797,0.0865629613399505,0.0,0.0,-0.948787609140214,0.6606275616428393
-0.006843757815659,1.378274917602539,-0.1836093813180923,-0.3909050226211548,0.0123476069420576,0.0626931935548782,0.0,0.0,0.4558649939047083,-0.6033611020181882
-0.008641910739243,1.3698328733444214,-0.1843390762805938,-0.3752456605434418,0.0168221034109592,0.0894983857870101,0.0,0.0,-0.9349100662696004,0.8691407775165418
-0.010419082827866,1.3608790636062622,-0.1799722760915756,-0.3979727923870086,0.0190412811934947,0.0443876720964908,0.0,0.0,-0.8517873617277967,-0.6759351398624951
-0.0123146055266261,1.3514113426208496,-0.1930514276027679,-0.4208382666110992,0.0225078780204057,0.0693383365869522,0.0,0.0,-0.9707038718581515,-0.8760349664125572
-0.0143251419067382,1.341431975364685,-0.205728143453598,-0.4436042010784149,0.0271369349211454,0.0925898402929306,0.0,0.0,-0.502082765442085,0.9132475891917452
-0.0163284298032522,1.3309528827667236,-0.2030762434005737,-0.465785801410675,0.0298507120460271,0.0542805679142475,0.0,0.0,0.118347049891694,0.7692051409006908
-0.0183496475219726,1.3207060098648071,-0.2031783759593963,-0.4554386436939239,0.0309001803398132,0.0209911800920963,0.0,0.0,-0.6590998626072071,-0.9901354975138944
-0.0205006599426269,1.309943914413452,-0.2177233695983886,-0.4783671498298645,0.033492874354124,0.0518589913845062,0.0,0.0,-0.2079919588966694,0.6197341257285071
-0.0226600654423236,1.298671007156372,-0.2170416116714477,-0.5010493993759155,0.0345735140144825,0.0216147936880588,0.0,0.0,-0.3704887477148497,0.6061207802827578
-0.0248245242983102,1.2868914604187012,-0.2159198224544525,-0.5235245823860168,0.0340556912124156,-0.010357447899878,0.0,0.0,-0.2331361827461704,-0.9570496506132712
-0.0271183960139751,1.2745869159698486,-0.230429857969284,-0.546891987323761,0.0350841023027896,0.0205702520906925,0.0,0.0,-0.2604666156585304,0.8740140948219423
-0.0293903350830078,1.2617833614349363,-0.2259362936019897,-0.5690215826034546,0.0338349938392639,-0.0249844398349523,0.0,0.0,-0.36218961669862,0.7377503056215051
-0.0316560752689838,1.2484619617462158,-0.223431184887886,-0.5919927954673767,0.0307237338274717,-0.0622308179736137,0.0,0.0,0.8896696068624077,-0.6700816840704903
-0.0338979735970497,1.2361083030700684,-0.2226917743682861,-0.5490259528160095,0.0292450804263353,-0.0295755323022604,0.0,0.0,0.0328154251737373,0.9480280683828756
-0.0360276214778423,1.2235928773880005,-0.2094078063964843,-0.5561760663986206,0.0257243849337101,-0.0704203844070434,0.0,0.0,0.7785231402975268,-0.6536839165920969
-0.0381809249520301,1.211869239807129,-0.2132312357425689,-0.5210122466087341,0.0236518085002899,-0.0414550267159938,0.0,0.0,-0.8380954830161522,0.6734052849961301
-0.0403505340218544,1.199634313583374,-0.2135681360960006,-0.5437257289886475,0.0202900376170873,-0.0672414451837539,0.0,0.0,-0.3932108771604401,0.9014043850141464
-0.0424963012337684,1.1868963241577148,-0.2088552713394165,-0.566063642501831,0.014630639925599,-0.1131980568170547,0.0,0.0,0.2036661287530923,-0.7440112724000258
-0.0447580330073833,1.1741243600845337,-0.2218326032161712,-0.5676074624061584,0.0103349853307008,-0.0859209522604942,0.0,0.0,-0.5855480635564492,0.7913830364094131
-0.0470058433711528,1.1608402729034424,-0.2183740139007568,-0.5903775095939636,0.0040013566613197,-0.1266836822032928,0.0,0.0,0.0068795307857945,-0.7112142277663167
-0.0493234619498252,1.1473214626312256,-0.2266950607299804,-0.6008349657058716,-0.0010070680873468,-0.1001776456832885,0.0,0.0,-0.6872698838617954,0.970599492927753
-0.0516442283987998,1.1332929134368896,-0.2253910601139068,-0.6235061883926392,-0.0076133580878376,-0.1321374326944351,0.0,0.0,-0.3015312163128565,-0.604037368750096
-0.0540861114859581,1.1187348365783691,-0.2388889342546463,-0.6470638513565063,-0.0128478007391095,-0.104688748717308,0.0,0.0,0.3153886391576224,0.768761972933071
-0.0565178878605365,1.104535698890686,-0.2362129241228103,-0.6311448812484741,-0.0197263229638338,-0.137570634484291,0.0,0.0,0.0349482027898093,-0.8592562931234835
-0.0591654777526855,1.090613842010498,-0.2593896090984344,-0.6188336610794067,-0.0250217877328395,-0.1059091687202453,0.0,0.0,0.8570183455193094,0.6685310680391899
-0.06195754930377,1.077494978904724,-0.2719864547252655,-0.5831984281539917,-0.0321538038551807,-0.1426403373479843,0.0,0.0,-0.7867073751622986,0.9794429802186568
-0.0647359862923622,1.0638571977615356,-0.2686017155647278,-0.6063472032546997,-0.0412818044424057,-0.1825601756572723,0.0,0.0,0.6407324492293602,0.7867784939006193
-0.0674574822187423,1.05097234249115,-0.26125368475914,-0.5730051398277283,-0.0520499944686889,-0.2153636217117309,0.0,0.0,-0.3889039179912619,0.7765731240985496
-0.0701861381530761,1.0375678539276123,-0.260506123304367,-0.5962285399436951,-0.0642763078212738,-0.2445261180400848,0.0,0.0,0.5023437224618046,-0.88355198138223
-0.0730820670723915,1.02476704120636,-0.278799831867218,-0.569423496723175,-0.0749574229121208,-0.2136224806308746,0.0,0.0,0.1422507322774631,0.6000496772409801
-0.07602109760046,1.0118234157562256,-0.2817216515541076,-0.5759335160255432,-0.0870195999741554,-0.2412433326244354,0.0,0.0,0.6127385673508259,-0.7694195581255886
-0.0790095329284668,0.999290943145752,-0.2881421744823456,-0.5576484203338623,-0.097620889544487,-0.2120259702205658,0.0,0.0,-0.54229547063261,-0.8695318406590398
-0.0821229964494705,0.986263871192932,-0.3022531569004059,,-0.1066409721970558,-0.1804015487432479,0.0,0.0,0.1603210111813411,0.951839820168682
-0.0852081328630447,0.9731892943382264,-0.2974208295345306,-0.581928014755249,-0.1176631674170494,-0.2204440534114837,0.0,0.0,0.6991060624384635,-0.7326883416214112
-0.0882741957902908,0.960777997970581,-0.2969858348369598,-0.5523996949195862,-0.1272282302379608,-0.1913013756275177,0.0,0.0,-0.5144540403971096,0.7075550473832609
-0.0913453102111816,0.9478537440299988,-0.2960965037345886,-0.5753965377807617,-0.1382032483816146,-0.2195003926753997,0.0,0.0,0.3697557534693383,-0.6109213071571216
-0.0944265350699424,0.9351725578308104,-0.2983004450798034,-0.5645490288734436,-0.1479950994253158,-0.1958371102809906,0.0,0.0,0.7162332447279529,0.6679254411989078
-0.0975110977888107,0.923201024532318,-0.29695925116539,-0.5332545042037964,-0.1594815105199813,-0.2297280728816986,0.0,0.0,-0.9989713430404664,0.7996947765350342
-0.1005764976143837,0.9106992483139038,-0.293053537607193,-0.5571383237838745,-0.1729791164398193,-0.2699520885944366,0.0,0.0,-0.982067346572876,0.9796812534332277
-0.103609561920166,0.897654116153717,-0.287503719329834,-0.5817047357559204,-0.1888402849435806,-0.3172239959239959,0.0,0.0,-0.996249496936798,0.7193450927734375
-0.1066318526864051,0.8840804100036621,-0.2847334444522857,-0.6056118011474609,-0.2064563035964965,-0.352319985628128,0.0,0.0,-0.9507357478141784,0.6688079833984375
-0.1096603423357009,0.8699755668640137,-0.2840856909751892,-0.6296092867851257,-0.2253989279270172,-0.3788528442382812,0.0,0.0,-0.2143808603286743,-0.0753780007362365
-0.1127407103776931,0.8553630709648132,-0.2893074154853821,-0.6524190306663513,-0.2444030940532684,-0.3800835311412811,0.0,0.0,0.4730168581008911,-0.5241513848304749
-0.1157592758536338,0.8408134579658508,-0.2843475043773651,-0.6496610641479492,-0.2622629106044769,-0.3571962118148803,0.0,0.0,0.450114369392395,-0.79487544298172
-0.1188036948442459,0.8268910050392151,-0.2883771657943725,-0.6217362880706787,-0.2787125706672668,-0.3289931416511535,0.0,0.0,-0.7418736219406128,0.1093264818191528
-0.1218968406319618,0.8124597072601318,-0.2932841181755066,-0.6445384621620178,-0.2952063083648681,-0.3298750519752502,0.0,0.0,0.849148154258728,0.541555643081665
-0.1248552352190017,0.7983276844024658,-0.2787265181541443,-0.6316655278205872,-0.312911182641983,-0.3540981709957123,0.0,0.0,0.9431207180023192,-0.4982047080993652
-0.1274922341108322,0.7845675945281982,-0.2474017888307571,-0.6151703000068665,-0.3298665881156921,-0.3391083776950836,0.0,0.0,0.8479478359222412,-0.8246049880981445
-0.1300336867570877,0.7715387940406799,-0.2393960058689117,-0.5825057625770569,-0.3452914357185364,-0.3084970116615295,0.0,0.0,0.3990480899810791,-0.662562370300293
-0.1324444711208343,0.7585025429725647,-0.2278495281934738,-0.5826177597045898,-0.3591981828212738,-0.2781350910663605,0.0,0.0,0.4471275806427002,-0.5520973801612854
-0.1346873342990875,0.7459632754325867,-0.2122019231319427,-0.5603769421577454,-0.3719677925109863,-0.2553919851779938,0.0,0.0,0.8931245803833008,-0.879485547542572
-0.1366566717624664,0.7336260676383972,-0.1869329363107681,-0.5509571433067322,-0.3825916647911072,-0.2124772816896438,0.0,0.0,0.7637495994567871,-0.7309526205062866
-0.1386329680681228,0.7215690016746521,-0.1888544559478759,-0.5382543802261353,-0.3919396698474884,-0.1869607418775558,0.0,0.0,0.6136385202407837,-0.9579274654388428
-0.140318676829338,0.7100711464881897,-0.1618138253688812,-0.512901782989502,-0.399168998003006,-0.1445863991975784,0.0,0.0,0.7072346210479736,-0.773316502571106
-0.1416775733232498,0.6989712119102478,-0.130936861038208,-0.4947333037853241,-0.4044809639453888,-0.1062390431761741,0.0,0.0,0.8421759605407715,-0.9344483017921448
-0.1426858901977539,0.6886223554611206,-0.0978525131940841,-0.4608059227466583,-0.4076720476150512,-0.0638215020298957,0.0,0.0,0.7831811904907227,-0.9149303436279296
-0.1435336172580719,0.6790327429771423,-0.0834801644086837,-0.4265732765197754,-0.4090618789196014,-0.0277973059564828,0.0,0.0,0.6420789957046509,-0.8331741690635681
-0.1442707031965255,0.6694357395172119,-0.0741369128227233,-0.4264107048511505,-0.4086027443408966,0.0091825369745492,0.0,0.0,0.0603876113891601,-0.8471078872680664
-0.1449806243181228,0.6600341200828552,-0.0731023252010345,-0.4172401130199432,-0.4063373208045959,0.0453084520995616,0.0,0.0,0.6514317989349365,-0.934124231338501
-0.14544677734375,0.650791347026825,-0.0507399067282676,-0.4096134006977081,-0.4019081592559814,0.0885838121175766,0.0,0.0,-0.4885114431381225,-0.8973792195320129
-0.1459914147853851,0.6410769820213318,-0.060333989560604,-0.4301024377346039,-0.3956281244754791,0.1256004869937896,0.0,0.0,0.6133394241333008,-0.9490422010421752
-0.1464613974094391,0.6314238905906677,-0.0547797605395317,-0.4268860518932342,-0.3873143792152405,0.1662750840187072,0.0,0.0,-0.2516878843307495,-0.8197360634803772
-0.1470131874084472,0.6213032007217407,-0.0649814307689666,-0.447175920009613,-0.3768830001354217,0.2086278647184372,0.0,0.0,0.3162270784378052,-0.7399306297302246
-0.1473546922206878,0.6116515398025513,-0.0455527380108833,-0.4260012507438659,-0.364808589220047,0.2414881289005279,0.0,0.0,-0.3081470131874084,-0.496508777141571
-0.147699549794197,0.6014888882637024,-0.0460251495242118,-0.4487892091274261,-0.3526452481746673,0.2432667911052703,0.0,0.0,-0.4329891204833984,0.0344243049621582
-0.1480444967746734,0.5908150672912598,-0.0461676828563213,-0.4715773165225982,-0.3403879404067993,0.2451463192701339,0.0,0.0,-0.387540340423584,-0.1969437599182129
-0.148386001586914,0.5796301960945129,-0.0459797009825706,-0.4943656325340271,-0.3280320167541504,0.2471189200878143,0.0,0.0,-0.4393547773361206,0.2549786567687988
-0.1487208306789398,0.5679342150688171,-0.0454625636339187,-0.5171541571617126,-0.3155732154846191,0.2491768598556518,0.0,0.0,0.1115638017654419,-0.1156588792800903
-0.1488961279392242,0.5563147664070129,-0.0297474209219217,-0.51381516456604,-0.3029118776321411,0.2532270550727844,0.0,0.0,-0.0250074863433837,0.4420011043548584
-0.1490581482648849,0.5441843867301941,-0.0285838600248098,-0.5366043448448181,-0.2901401817798614,0.2554336488246918,0.0,0.0,-0.2915668487548828,0.6089441776275635
-0.1491523683071136,0.5315198302268982,-0.0206020064651966,-0.5606886744499207,-0.2786431312561035,0.2299416363239288,0.0,0.0,0.390144944190979,0.4120557308197021
-0.1491641104221344,0.5188302397727966,-0.0123658152297139,-0.5618882775306702,-0.2671608328819275,0.2296461760997772,0.0,0.0,-0.0491901636123657,0.5860292911529541
-0.1491049826145172,0.5056028962135315,-0.0041456772014498,-0.5860817432403564,-0.2568860650062561,0.2054954320192337,0.0,0.0,0.6130998134613037,0.5265665054321289
-0.1489295065402984,0.4923363626003265,0.0085009587928652,-0.588065505027771,-0.2476463615894317,0.1847937852144241,0.0,0.0,0.6691892147064209,0.4460207223892212
-0.1485378295183181,0.4797264039516449,0.0300031099468469,-0.5589224100112915,-0.2383222579956054,0.1864821165800094,0.0,0.0,-0.1816373467445373,0.5067412853240967
-0.1480708122253418,0.4665933847427368,0.0385204292833805,-0.5823851227760315,-0.2300270348787307,0.1659044325351715,0.0,0.0,0.7117288112640381,0.0032311677932739
-0.1474911719560623,0.4542248845100403,0.0501841604709625,-0.5485162138938904,-0.2221424877643585,0.1576909720897674,0.0,0.0,-0.5555975437164307,0.0815448760986328
-0.1468763351440429,0.4413442611694336,0.0535601004958152,-0.5712981820106506,-0.2141293436288833,0.1602628380060196,0.0,0.0,0.5172638893127441,-0.0957741737365722
-0.1460335701704025,0.4290038347244262,0.0760343447327613,-0.5472885370254517,-0.2058149576187133,0.1662879288196563,0.0,0.0,-0.4748363494873047,0.3229367733001709
-0.1451514214277267,0.4161514639854431,0.0798342823982238,-0.5700712203979492,-0.1973694115877151,0.168910875916481,0.0,0.0,-0.0091859698295593,-0.476954698562622
-0.1442279815673828,0.4027871191501617,0.0838260650634765,-0.5928542017936707,-0.1887917220592498,0.1715538650751114,0.0,0.0,0.8189758062362671,-0.577684760093689
-0.1431750357151031,0.39006507396698,0.0955041721463203,-0.5642061829566956,-0.1789574027061462,0.1966857612133026,0.0,0.0,0.3763813972473144,-0.3989502787590027
-0.1419194191694259,0.3775275945663452,0.1152832508087158,-0.5560163259506226,-0.1686532348394394,0.2060836255550384,0.0,0.0,-0.5732515454292297,0.192509651184082
-0.1406173706054687,0.364478588104248,0.1197734251618385,-0.5788024663925171,-0.1582144349813461,0.2087760418653488,0.0,0.0,0.6436433792114258,-0.0490064024925231
-0.1391131430864334,0.3514899015426636,0.1394053846597671,-0.5761415362358093,-0.1472135037183761,0.220018595457077,0.0,0.0,0.6907761096954346,-0.2646826505661011
-0.1373250037431717,0.3388240933418274,0.1669396609067917,-0.5617939829826355,-0.1353803426027298,0.2366635054349899,0.0,0.0,0.0467618703842163,0.0156192779541015
-0.1353652030229568,0.3260009884834289,0.1835395693778991,-0.568834662437439,-0.1230023205280304,0.2475607842206955,0.0,0.0,0.6519862413406372,0.152577519416809
-0.1332674026489257,0.3137864172458648,0.1972191482782364,-0.5418797731399536,-0.1105137094855308,0.2497722804546356,0.0,0.0,0.1923893690109253,0.2100355625152588
-0.1310343742370605,0.3018736839294433,0.210473746061325,-0.5285522937774658,-0.0977846309542656,0.2545815110206604,0.0,0.0,-0.1894853115081787,-0.0471373200416564
-0.1287479400634765,0.2894504964351654,0.2156672775745391,-0.5513439178466797,-0.0849179923534393,0.2573328912258148,0.0,0.0,0.5226342678070068,-0.4921774864196777
-0.1262889802455902,0.2769546806812286,0.2323273867368698,-0.5546525716781616,-0.0714835375547409,0.2686890363693237,0.0,0.0,0.4365544319152832,-0.2117207646369934
-0.123788833618164,0.2646160125732422,0.236506775021553,-0.5477949380874634,-0.0581222400069236,0.2672261297702789,0.0,0.0,0.373095154762268,-0.1005548238754272
-0.1211209297180175,0.2528348267078399,0.2527995705604553,-0.5231247544288635,-0.0442971363663673,0.2765021026134491,0.0,0.0,0.6452624797821045,-0.5176678895950317
-0.1184372901916503,0.2413972467184066,0.253263920545578,-0.5079572200775146,-0.02937095426023,0.2985234558582306,0.0,0.0,0.5375463962554932,-0.2297260761260986
-0.1157904639840126,0.2305651307106018,0.249966099858284,-0.4812045097351074,-0.0148415807634592,0.290587455034256,0.0,0.0,0.4906957149505615,-0.662638247013092
-0.1130429282784462,0.2201706022024154,0.2583774328231811,-0.4618986546993255,0.001317546935752,0.3231826722621918,0.0,0.0,-0.028378427028656,-0.2080269455909729
-0.1102374047040939,0.2092669606208801,0.2640430629253387,-0.4846998155117035,0.0176159385591745,0.3259678184986114,0.0,0.0,0.7788832187652588,0.1918522119522094
-0.1074766144156456,0.1990611851215362,0.259848952293396,-0.4538602232933044,0.0336417183279991,0.3205157816410064,0.0,0.0,0.4644830226898193,0.0551605224609375
-0.1046937927603721,0.1890069097280502,0.2620203495025635,-0.447297602891922,0.0497051700949668,0.3212689757347107,0.0,0.0,0.5120668411254883,0.1435070037841797
-0.1019857376813888,0.1792601943016052,0.2549171149730682,-0.4337870180606842,0.0654145702719688,0.3141882419586181,0.0,0.0,0.2592593431472778,0.2854735851287842
-0.0993586555123329,0.1695905029773712,0.2472299039363861,-0.4305073618888855,0.080733485519886,0.306378424167633,0.0,0.0,0.4155199527740478,0.8027307987213135
-0.0965567603707313,0.1603567004203796,0.2660685777664184,-0.4112149477005005,0.0947306007146835,0.2799424827098846,0.0,0.0,-0.0956727862358093,-0.2562925815582275
-0.0936946868896484,0.1506131291389465,0.271959900856018,-0.4340117275714874,0.1088681370019912,0.28275066614151,0.0,0.0,0.6367958784103394,0.1629309654235839
-0.090711310505867,0.1415105015039444,0.2832844853401184,-0.4057255983352661,0.1238108649849891,0.2988547086715698,0.0,0.0,0.1572340726852417,0.601886510848999
-0.0877056121826171,0.1327178627252578,0.2866665124893188,-0.3919960260391235,0.1376617699861526,0.2770185768604278,0.0,0.0,0.0759005546569824,0.3245662450790405
-0.0846233367919921,0.1242615282535553,0.293770283460617,-0.3772355318069458,0.1520833075046539,0.2884308695793152,0.0,0.0,0.7938363552093506,-0.006878912448883
-0.0814933776855468,0.1162476614117622,0.2980286478996277,-0.3577655255794525,0.1670289188623428,0.2989123463630676,0.0,0.0,0.2485342025756836,-0.2037333250045776
-0.0784104317426681,0.1086358428001403,0.2932653427124023,-0.3400605320930481,0.1820904165506363,0.3012298941612243,0.0,0.0,0.4901661872863769,-0.1289226412773132
-0.0753409415483474,0.1015776246786117,0.2915551960468292,-0.315656304359436,0.1975461691617965,0.309115320444107,0.0,0.0,-0.0171341300010681,-0.2574849128723144
-0.0722102150321006,0.0940104350447654,0.29759281873703,-0.3384575843811035,0.2131432741880417,0.3119423985481262,0.0,0.0,0.3812519311904907,-0.2979787588119507
-0.0692274123430252,0.0866596102714538,0.283185064792633,-0.3289513885974884,0.228408932685852,0.3053130805492401,0.0,0.0,0.2482891082763672,-0.5230660438537598
-0.0664142593741417,0.0793169364333152,0.2653208374977112,-0.3289031684398651,0.2446477115154266,0.3247756361961365,0.0,0.0,0.0334891080856323,-0.3618860244750976
-0.0636381134390831,0.071973979473114,0.2616109549999237,-0.3291049003601074,0.2609659433364868,0.3263643980026245,0.0,0.0,0.3453626632690429,-0.419096827507019
-0.0608920082449913,0.0647601932287216,0.2584380507469177,-0.3235827386379242,0.2775238454341888,0.3311576843261719,0.0,0.0,0.4980299472808838,-0.4477381706237793
-0.0580597892403602,0.0575569979846477,0.2664565443992615,-0.3234205245971679,0.2947713732719421,0.344951331615448,0.0,0.0,0.729982852935791,-0.0526779294013977
-0.0552764907479286,0.0509179197251796,0.2610706090927124,-0.2986684739589691,0.3126331567764282,0.3572350442409515,0.0,0.0,0.6928033828735352,0.1436431407928466
-0.0526614189147949,0.0449624881148338,0.2440946549177169,-0.268545925617218,0.3307559192180633,0.3624551296234131,0.0,0.0,0.3731502294540405,-0.1642590761184692
-0.0500189773738384,0.0388930402696132,0.2465645968914032,-0.2739139795303345,0.349265843629837,0.3701983392238617,0.0,0.0,0.6782749891281128,0.3257787227630615
