x_pos,y_pos,x_vel,y_vel,angle,ang_vel,leg_1,leg_2,main_booster,lat_booster
-0.0015130043029785,1.403029441833496,-0.1532308906316757,-0.3506900072097778,0.0017213827231898,0.0339530073106288,0.0,0.0,-0.1984761953353881,0.3386032581329345
-0.0030157088767737,1.3945671319961548,-0.1519294083118438,-0.3761018812656402,0.0033565550111234,0.0327073633670806,0.0,0.0,0.270341157913208,0.915863275527954
-0.0043186186812818,1.3859697580337524,-0.1301561295986175,-0.3821051716804504,0.0032315424177795,-0.0025004907511174,0.0,0.0,0.2516987323760986,0.2978758811950683
-0.0057026864960789,1.377344846725464,-0.1378018856048584,-0.3833342492580414,0.0026349271647632,-0.011933758854866,0.0,0.0,0.0605329275131225,0.1065667867660522
-0.0069949151948094,1.3687529563903809,-0.1289835125207901,-0.3818561732769012,0.0023974280338734,-0.0047505320981144,0.0,0.0,0.1395438909530639,0.8697390556335449
-0.0080995559692382,1.360127568244934,-0.1085001453757286,-0.383349061012268,0.0004641883424483,-0.0386683344841003,0.0,0.0,0.3556931018829345,0.7086553573608398
-0.0091592790558934,1.3516181707382202,-0.1025389656424522,-0.3781981468200683,-0.0029398126062005,-0.0680863335728645,0.0,0.0,-0.17453533411026,-0.0260049104690551
-0.0102094653993844,1.3425140380859375,-0.1015474945306778,-0.4046418070793152,-0.0063732624985277,-0.0686752498149871,0.0,0.0,-0.0105084180831909,-0.120154857635498
-0.0112503049895167,1.332815170288086,-0.1005817055702209,-0.431080013513565,-0.0098341312259435,-0.0692235454916954,0.0,0.0,-0.2474881410598755,0.5139691829681396
-0.0122414585202932,1.3225241899490356,-0.0945687592029571,-0.4574112594127655,-0.0143358670175075,-0.0900429934263229,0.0,0.0,-0.3285177946090698,-0.0466839671134948
-0.0132237430661916,1.3116387128829956,-0.0936564654111862,-0.4838525652885437,-0.0188579205423593,-0.0904494374990463,0.0,0.0,-0.325235366821289,-0.6490356922149658
-0.0142425540834665,1.3001583814620972,-0.0984421819448471,-0.5102822184562683,-0.0222620125859975,-0.0680878981947898,0.0,0.0,-0.2469961643218994,-0.3443790078163147
-0.0152530670166015,1.2880834341049194,-0.0975993499159812,-0.5367228388786316,-0.0256806202232837,-0.0683780312538147,0.0,0.0,-0.0658760070800781,-0.1708060503005981
-0.0162555687129497,1.2754137516021729,-0.0967925488948822,-0.5631635189056396,-0.0291092470288276,-0.0685782581567764,0.0,0.0,0.4310097694396972,0.4674677848815918
-0.0171075817197561,1.2632144689559937,-0.0823114663362503,-0.5422462224960327,-0.0319686420261859,-0.0571927241981029,0.0,0.0,0.111968994140625,-0.6284344792366028
-0.0179129596799612,1.25071120262146,-0.0790258198976516,-0.5557333827018738,-0.0334643386304378,-0.0299168117344379,0.0,0.0,-0.4404338598251343,-0.6015669107437134
-0.0187479965388774,1.2376219034194946,-0.082925796508789,-0.5817582011222839,-0.0340369679033756,-0.011453365907073,0.0,0.0,0.0209313631057739,-0.8230833411216736
-0.0195305831730365,1.2242759466171265,-0.079366847872734,-0.5931300520896912,-0.0329439453780651,0.0218624919652938,0.0,0.0,-0.525611162185669,-0.2945708036422729
-0.0203073509037494,1.2103351354599,-0.078792318701744,-0.6195725202560425,-0.0318415015935897,0.0220507364720106,0.0,0.0,0.3365364074707031,-0.1819641590118408
-0.0211294181644916,1.1964889764785769,-0.0830233171582222,-0.6153703927993774,-0.0310288481414318,0.016254398971796,0.0,0.0,0.2190532684326172,-0.0882373452186584
-0.0218351371586322,1.182875156402588,-0.0718640983104705,-0.6050325036048889,-0.0297572296112775,0.0254349596798419,0.0,0.0,-0.7977035045623779,0.0109381675720214
-0.0225364677608013,1.1686663627624512,-0.0714509338140487,-0.6314762830734253,-0.0284617841243743,0.0259114988148212,0.0,0.0,-0.8431991934776306,-0.3985046148300171
-0.0232339855283498,1.153862714767456,-0.0710952505469322,-0.6579145193099976,-0.0271368380635976,0.0265013463795185,0.0,0.0,-0.315987229347229,0.0507593154907226
-0.0239282604306936,1.1384642124176023,-0.0708000063896179,-0.6843529939651489,-0.0257775206118822,0.027188804000616,0.0,0.0,-0.4656497240066528,0.0473685264587402
-0.0246196743100881,1.1224708557128906,-0.0705665796995163,-0.7107930779457092,-0.0243787448853254,0.0279782358556985,0.0,0.0,-0.6647564768791199,-0.422541856765747
-0.0253093726933002,1.1058611869812012,-0.0704311206936836,-0.7381864786148071,-0.0229351203888654,0.0288727097213268,0.0,0.0,0.0701819658279419,0.0457681417465209
-0.0259841922670602,1.0893621444702148,-0.0690054818987846,-0.7332652807235718,-0.0214298702776432,0.0301048904657363,0.0,0.0,-0.1077615618705749,0.4369522333145141
-0.0266580581665039,1.0722683668136597,-0.0689615681767463,-0.7597032189369202,-0.0198691301047801,0.0312147382646799,0.0,0.0,0.5050318241119385,-0.2573292851448059
-0.0274362564086914,1.0556414127349854,-0.0789079517126083,-0.738958477973938,-0.0187975317239761,0.0214321874082088,0.0,0.0,0.6328041553497314,-0.4158358573913574
-0.0282263755798339,1.0391428470611572,-0.0800671428442001,-0.7332522869110107,-0.0177558157593011,0.0208342093974351,0.0,0.0,0.2066328525543213,-0.3734145164489746
-0.0289926528930664,1.0229765176773071,-0.0778194889426231,-0.7184895873069763,-0.0165794547647237,0.0235272534191608,0.0,0.0,0.6169576644897461,-0.4136409759521484
-0.0298293121159076,1.0068604946136477,-0.0845833569765091,-0.7162575125694275,-0.0156785491853952,0.018018152564764,0.0,0.0,-0.0658358335494995,0.2922810316085815
-0.0306680686771869,0.9901495575904846,-0.0848682075738906,-0.7426953911781311,-0.0146955978125333,0.019658712670207,0.0,0.0,0.0222405195236206,-0.6669816374778748
-0.0316040031611919,0.9731746912002563,-0.0959758684039115,-0.7544179558753967,-0.0123414415866136,0.0470833480358123,0.0,0.0,0.5620031356811523,0.0442692041397094
-0.0325203910470008,0.9564942121505736,-0.0941871777176857,-0.7413374781608582,-0.009823746047914,0.0503539517521858,0.0,0.0,0.7320482730865479,0.4193761348724365
-0.0334135070443153,0.9404078125953674,-0.0920599475502967,-0.714928388595581,-0.0071204137057065,0.0540669858455657,0.0,0.0,-0.4469403028488159,0.6631451845169067
-0.0342608466744422,0.9237229228019714,-0.0862935185432434,-0.7415474653244019,-0.0055758920498192,0.030890192836523,0.0,0.0,-0.2332552671432495,0.1106601953506469
-0.0351129546761512,0.906443178653717,-0.0868795812129974,-0.767985463142395,-0.0039239539764821,0.0330388136208057,0.0,0.0,0.1732362508773803,-0.108361542224884
-0.0359958633780479,0.8894661664962769,-0.0899464040994644,-0.7545261979103088,-0.0022890558466315,0.0326979719102382,0.0,0.0,0.4107633829116821,0.4891514778137207
-0.0368591323494911,0.872672975063324,-0.0882174223661422,-0.746363639831543,-0.000425602775067,0.0372689999639987,0.0,0.0,-0.4372835159301758,0.4759107828140259
-0.0377285964787006,0.8552849292755127,-0.0889579802751541,-0.7728016376495361,0.0015593630960211,0.0396994762122631,0.0,0.0,-0.2040727138519287,0.1618180274963379
-0.0386046394705772,0.8373019695281982,-0.0897449105978012,-0.7992398738861084,0.0036703066434711,0.0422189347445964,0.0,0.0,0.5988682508468628,0.8729584217071533
-0.0393145568668842,0.8191709518432617,-0.0716552287340164,-0.8058271408081055,0.0043306271545588,0.0132061215117573,0.0,0.0,0.5189170837402344,0.2062201499938964
-0.0399426445364952,0.8011745810508728,-0.0640355497598648,-0.7998403310775757,0.0055476161651313,0.0243396144360303,0.0,0.0,0.8925247192382812,-0.1032626628875732
-0.0406268127262592,0.7830890417098999,-0.0695694833993911,-0.8038055896759033,0.0066876676864922,0.0228010024875402,0.0,0.0,0.865997314453125,-0.449828028678894
-0.041269589215517,0.7649753093719482,-0.0658212676644325,-0.8050617575645447,0.0082100592553615,0.0304478108882904,0.0,0.0,0.8741421699523926,0.6582446098327637
-0.041798211634159,0.7470252513885498,-0.0534198582172393,-0.7977896332740784,0.0087570678442716,0.0109403943642973,0.0,0.0,0.45657479763031,0.4379297494888305
-0.0424408912658691,0.7295814752578735,-0.0645164102315902,-0.7752788662910461,0.008995215408504,0.0047630490735173,0.0,0.0,-0.2975863218307495,0.5684268474578857
-0.0430575385689735,0.7115484476089478,-0.0611583180725574,-0.8014673590660095,0.0085047436878085,-0.0098095927387475,0.0,0.0,0.7877703905105591,0.6798725128173828
-0.0436587333679199,0.693744421005249,-0.0583590157330036,-0.7912763953208923,0.0067599387839436,-0.0348960720002651,0.0,0.0,0.2911164760589599,0.0085111856460571
-0.0441601760685443,0.6760162711143494,-0.0490658283233642,-0.7879160642623901,0.0056927450932562,-0.0213438086211681,0.0,0.0,0.5058128833770752,0.3904023170471191
-0.0447274222970008,0.6587000489234924,-0.055561613291502,-0.7696104049682617,0.0045446692965924,-0.0229615923017263,0.0,0.0,0.4560867547988891,0.4070789813995361
-0.0452097877860069,0.6413772702217102,-0.0476898066699504,-0.7698997259140015,0.004006793256849,-0.0107578402385115,0.0,0.0,0.436541199684143,0.1113824844360351
-0.0457019805908203,0.6244999766349792,-0.0488545075058937,-0.7500975728034973,0.0036486811004579,-0.0071623651310801,0.0,0.0,0.3125007152557373,0.1618654727935791
-0.0460871681571006,0.6076095700263977,-0.0388836488127708,-0.7506856322288513,0.0040073101408779,0.0071727535687386,0.0,0.0,0.5252814292907715,0.6755979061126709
-0.0465274825692176,0.5907735824584961,-0.0430077016353607,-0.7482636570930481,0.002998809562996,-0.0201701465994119,0.0,0.0,0.788764238357544,0.5195584297180176
-0.0468313209712505,0.5746425986289978,-0.0288004577159881,-0.7169314622879028,0.0014396727783605,-0.0311827566474676,0.0,0.0,-0.1475769281387329,0.653030514717102
-0.0470820441842079,0.5579196810722351,-0.0220465548336505,-0.7432440519332886,-0.0015410080086439,-0.0596136450767517,0.0,0.0,0.5385619401931763,-0.1110374927520752
-0.0472723022103309,0.5417518019676208,-0.0165223218500614,-0.7185737490653992,-0.0040237479843199,-0.0496546551585197,0.0,0.0,0.0800772905349731,-0.4269824028015136
-0.0475210174918174,0.5257601141929626,-0.0222997479140758,-0.7107524275779724,-0.0065595172345638,-0.0507150217890739,0.0,0.0,0.0380133390426635,-0.0433472990989685
-0.0477466583251953,0.5095223188400269,-0.0203312318772077,-0.7216935753822327,-0.0087681673467159,-0.0441731214523315,0.0,0.0,0.7237935066223145,-0.2175573706626892
-0.0480813011527061,0.4937887489795685,-0.0309189371764659,-0.699285089969635,-0.0112816952168941,-0.0502706952393054,0.0,0.0,0.6980628967285156,0.3907121419906616
-0.0482938773930072,0.4782554805278778,-0.0194872431457042,-0.690379798412323,-0.0130283553153276,-0.0349330380558967,0.0,0.0,0.827035665512085,0.5569088459014893
-0.0484366416931152,0.4631435573101043,-0.0116480123251676,-0.671667218208313,-0.0156252831220626,-0.0519385337829589,0.0,0.0,0.3938610553741455,0.8360517024993896
-0.0485115051269531,0.4479362070560455,-0.0033711115829646,-0.6759315133094788,-0.0196961667388677,-0.081417515873909,0.0,0.0,0.4039809703826904,-0.5326945185661316
-0.0487436279654502,0.432892233133316,-0.0200703833252191,-0.6686649322509766,-0.02279650606215,-0.0620068907737731,0.0,0.0,0.8409585952758789,0.0738387107849121
-0.0489412322640419,0.4186826944351196,-0.0169101394712924,-0.6315801739692688,-0.0256064906716346,-0.0561998076736927,0.0,0.0,0.7590785026550293,-0.0652500391006469
-0.0490546226501464,0.4043418765068054,-0.009085708297789,-0.637408971786499,-0.0278330836445093,-0.0445319563150405,0.0,0.0,0.8911280632019043,-0.1284225583076477
-0.0491211898624897,0.3908700346946716,-0.0047213924117386,-0.5987820029258728,-0.0297382976859807,-0.0381042659282684,0.0,0.0,0.8196613788604736,-0.2126996517181396
-0.0492870323359966,0.3775897324085235,-0.0143552320078015,-0.5902822613716125,-0.0319457687437534,-0.0441494695842266,0.0,0.0,-0.2120939493179321,0.6529197692871094
-0.049420453608036,0.3637152016162872,-0.0101720634847879,-0.6167158484458923,-0.0350777171552181,-0.062638945877552,0.0,0.0,0.8222206830978394,0.7247147560119629
-0.0494470596313476,0.3502713441848755,0.0017138021066784,-0.5976126194000244,-0.0393934473395347,-0.0863146632909774,0.0,0.0,0.5628817081451416,-0.8677203059196472
-0.0496583953499794,0.3374520242214203,-0.0184901542961597,-0.5698215365409851,-0.0420036427676677,-0.0522038042545318,0.0,0.0,0.1809179782867431,-0.2557220458984375
-0.0498113632202148,0.3246530890464782,-0.0130781363695859,-0.5689059495925903,-0.0442004092037677,-0.0439353697001934,0.0,0.0,0.8372503519058228,-0.3777335882186889
-0.0499940887093544,0.3119134604930877,-0.016052009537816,-0.5662726759910583,-0.0464025177061557,-0.0440420173108577,0.0,0.0,0.7932496070861816,0.3541473150253296
-0.0500984191894531,0.2991024255752563,-0.0087155196815729,-0.5694311857223511,-0.0480976626276969,-0.0339028164744377,0.0,0.0,0.7644155025482178,0.3583011627197265
-0.0502306930720806,0.286242127418518,-0.0115152020007371,-0.5716269612312317,-0.0497862882912159,-0.033772375434637,0.0,0.0,0.8813256025314331,-0.6637268662452698
-0.0503920540213584,0.2741506695747375,-0.0159106124192476,-0.5374058485031128,-0.0500194951891899,-0.0046641854569315,0.0,0.0,0.9551758766174316,0.7450411319732666
-0.0503554344177246,0.2629058361053467,0.0049983514472842,-0.4998133778572082,-0.0513367801904678,-0.0263458155095577,0.0,0.0,0.6927521228790283,-0.2856100797653198
-0.0504024513065815,0.2523294985294342,-0.0029812771826982,-0.4701209366321563,-0.0530336834490299,-0.0339381173253059,0.0,0.0,0.5853182077407837,-0.4404510855674743
-0.0505683906376361,0.2416442185640335,-0.0144485440105199,-0.4749812483787536,-0.0551566705107688,-0.0424598194658756,0.0,0.0,0.4380148649215698,-0.6003882884979248
-0.0507173538208007,0.2314005494117736,-0.014182224869728,-0.4552995860576629,-0.0558574981987476,-0.0140165239572525,0.0,0.0,-0.5422455072402954,-0.2518178224563598
-0.0508781448006629,0.2205619215965271,-0.0155194979161024,-0.481736809015274,-0.0564190559089183,-0.011230980977416,0.0,0.0,0.640695333480835,-0.3185863494873047
-0.0510674491524696,0.2101411372423172,-0.0182397682219743,-0.463175505399704,-0.0570980906486511,-0.0135810654610395,0.0,0.0,0.2299368381500244,0.0767586231231689
-0.0512479767203331,0.1999056935310363,-0.0174523759633302,-0.4549322426319122,-0.0576892755925655,-0.0118234995752573,0.0,0.0,0.1884173154830932,-0.1781662702560424
-0.0513538345694541,0.1896965652704239,-0.0104071255773305,-0.453745573759079,-0.0578668229281902,-0.0035507804714143,0.0,0.0,0.1727986335754394,-0.1648274064064026
-0.0514410026371479,0.1792549043893814,-0.0087373880669474,-0.464072436094284,-0.0578489229083061,0.0003581072378437,0.0,0.0,0.7353901863098145,-0.3951088190078735
-0.0514186844229698,0.1688432097434997,0.0016443055355921,-0.4627192616462707,-0.0572688728570938,0.0116011407226324,0.0,0.0,0.667068600654602,-0.2408093214035034
-0.0512274727225303,0.1586867123842239,0.0177347920835018,-0.4513456523418426,-0.0558971837162971,0.027433767914772,0.0,0.0,0.4215792417526245,-0.7457109093666077
-0.0509553924202919,0.1484317332506179,0.0240084491670131,-0.4556627869606018,-0.0527332313358783,0.0632788613438606,0.0,0.0,0.751072883605957,0.5820462703704834
-0.0506139770150184,0.1387757211923599,0.0320336073637008,-0.429084300994873,-0.0506528355181217,0.0416079014539718,0.0,0.0,0.435259461402893,-0.8344162702560425
-0.0502871498465538,0.1295211613178253,0.0287693291902542,-0.4111870527267456,-0.0467885471880435,0.0772857442498207,0.0,0.0,0.4978653192520141,-0.2388653755187988
-0.0498318672180175,0.1205702424049377,0.0410178527235984,-0.3976868987083435,-0.0423263497650623,0.0892441272735595,0.0,0.0,0.7035540342330933,-0.8654913306236267
-0.0493282303214073,0.1115171015262603,0.043841827660799,-0.402188628911972,-0.0358834974467754,0.1288570463657379,0.0,0.0,0.8720548152923584,-0.0077096223831176
-0.0488760955631732,0.1027379110455513,0.0389130264520645,-0.3900505602359772,-0.0296569801867008,0.1245301514863967,0.0,0.0,0.8993890285491943,-0.1649327874183654
-0.0483099929988384,0.0948472097516059,0.0498004369437694,-0.3505769968032837,-0.0229299776256084,0.1345400959253311,0.0,0.0,0.35521399974823,0.4292594194412231
-0.04776506498456,0.0870630145072937,0.0477243885397911,-0.3458755612373352,-0.0162500105798244,0.1335990875959396,0.0,0.0,0.5425319671630859,0.5866820812225342
-0.0473003387451171,0.0798056721687316,0.0411651507019996,-0.3225000202655792,-0.0110006835311651,0.1049863547086715,0.0,0.0,0.1484447717666626,0.8426415920257568
-0.0467062965035438,0.0726832970976829,0.0557254329323768,-0.3165261447429657,-0.007366559933871,0.072682611644268,0.0,0.0,0.2062594890594482,-0.6255067586898804
-0.0462141036987304,0.0657935962080955,0.0443267151713371,-0.3061940371990204,-0.0025457760784775,0.0964156687259674,0.0,0.0,0.5457546710968018,0.7337956428527832
-0.0457606315612793,0.0593654476106166,0.0421009287238121,-0.2856927216053009,0.0006612205179408,0.0641400068998336,0.0,0.0,0.1248531341552734,0.9280701875686646
-0.0452670082449913,0.0528481118381023,0.0479882769286632,-0.2896626889705658,0.0020134127698838,0.0270439628511667,0.0,0.0,0.4669654369354248,0.7147135734558105
-0.0448457710444927,0.046537410467863,0.042422242462635,-0.2804746031761169,0.0017229510704055,-0.0058092279359698,0.0,0.0,0.5164850950241089,0.4780570268630981
-0.0445768348872661,0.0403525941073894,0.0278705097734928,-0.2748776972293854,0.000765525153838,-0.0191485714167356,0.0,0.0,0.7269494533538818,0.9272454977035522
-0.0441247001290321,0.0347055047750473,0.0478940531611442,-0.2509838342666626,-0.0018867010949179,-0.0530446544289588,0.0,0.0,0.2555546760559082,0.4849815368652344
-0.0436389930546283,0.0288840383291244,0.0510941259562969,-0.2587341368198395,-0.0043727103620767,-0.0497201904654502,0.0,0.0,0.5663526058197021,0.07392418384552
-0.0430259704589843,0.0235519502311944,0.0632274001836776,-0.2369905561208725,-0.0062829218804836,-0.0382042154669761,0.0,0.0,0.3847115039825439,-0.1870460510253906
-0.0424417480826377,0.0186008065938949,0.06052216142416,-0.2200611382722854,-0.0083530414849519,-0.041402630507946,0.0,0.0,0.3788434267044067,-0.9312365055084229
-0.0418023094534873,0.0141345355659723,0.0641379207372665,-0.1985010355710983,-0.0085411965847015,-0.0037633881438523,0.0,0.0,0.3275229930877685,-0.1546939611434936
-0.0411112792789936,0.0097712613642215,0.0691021457314491,-0.1939247101545334,-0.0085389204323291,4.566732241073623e-05,0.0,0.0,0.3780993223190307,0.1523439884185791
-0.0404341705143451,0.0058347438462078,0.0678405314683914,-0.1749578118324279,-0.0086685121059417,-0.0025917952880263,0.0,0.0,0.3745768070220947,-0.5257326364517212
-0.0397521033883094,0.0022906875237822,0.0672641545534133,-0.1575084775686264,-0.0077393376268446,0.0185834653675556,0.0,0.0,-0.4751681089401245,-0.3851988315582275
-0.0390839576721191,-0.0018482470186427,0.0660048872232437,-0.1839464455842971,-0.0069358884356915,0.0160690546035766,0.0,0.0,0.689443826675415,0.1099761724472045
-0.0385540947318077,-0.0042883064597845,0.0532303676009178,-0.1084569543600082,-0.0070869768969714,-0.0029054381884634,1.0,1.0,0.9526281356811525,-0.9605138897895812
-0.0382644645869731,-0.0051271226257085,0.0278471056371927,-0.0373786762356758,-0.0055734845809638,0.0307966824620962,1.0,1.0,-0.7178014516830444,-0.4400422573089599
-0.0380586609244346,-0.0053956294432282,0.0195986796170473,-0.011922868900001,-0.0045763896778225,0.0199874751269817,1.0,1.0,-0.639109194278717,-0.0025537014007568
-0.0379530899226665,-0.005130126606673,0.0101777473464608,0.0117993336170911,-0.0041853254660964,0.0078299138695001,1.0,1.0,-0.6891947388648987,0.1671991348266601
-0.0378474220633506,-0.0044269943609833,0.010191642679274,0.0312500819563865,-0.0038114644121378,0.0074885240755975,1.0,1.0,-0.5181652307510376,0.2421276569366455
-0.0377444252371788,-0.0033403777051717,0.0101560959592461,0.0482927523553371,-0.0036661853082478,0.0029141453560441,1.0,1.0,-0.1258360147476196,0.0176920890808105
-0.0376437194645404,-0.0019764567259699,0.0101278312504291,0.0606213733553886,-0.0037064752541482,-0.000798740715254,1.0,1.0,-0.6623902320861816,0.1376181840896606
