x_pos,y_pos,x_vel,y_vel,angle,ang_vel,leg_1,leg_2,main_booster,lat_booster
-0.0015052795642986,1.4030486345291138,-0.1531555950641632,-0.3498409390449524,0.0023572852369397,0.046543788164854,0.0,0.0,-0.4273320436477661,0.8360917568206787
-0.002920055296272,1.3946207761764526,-0.142594963312149,-0.3745709955692291,0.0034545345697551,0.0219479836523532,0.0,0.0,-0.2416268587112426,0.4794207811355591
-0.0043149949051439,1.3856167793273926,-0.1412006467580795,-0.4001848995685577,0.0051427572034299,0.0337675549089908,0.0,0.0,0.3127658367156982,0.8104797601699829
-0.0057349205017089,1.37662935256958,-0.142536386847496,-0.3994392454624176,0.005678460933268,0.0107149956747889,0.0,0.0,0.2846429347991943,0.4915735721588135
-0.0070361136458814,1.3678277730941772,-0.1317512840032577,-0.3911957144737243,0.0072821411304175,0.0320766158401966,0.0,0.0,0.1536295413970947,0.9062579870224
-0.0081350328400731,1.3590196371078491,-0.1103378906846046,-0.391469657421112,0.0077262874692678,0.0088837370276451,0.0,0.0,-0.0464119315147399,0.3829189538955688
-0.0092114452272653,1.3496359586715698,-0.1086796969175338,-0.4170621931552887,0.008753340691328,0.0205427333712577,0.0,0.0,-0.222206175327301,0.5013132095336914
-0.0102155683562159,1.3396785259246826,-0.1007843166589737,-0.4425499737262726,0.0091209672391414,0.0073530212976038,0.0,0.0,-0.6741213202476501,0.3182656764984131
-0.0111960414797067,1.3291455507278442,-0.0989991798996925,-0.468140959739685,0.0100655574351549,0.0188935026526451,0.0,0.0,0.2034772634506225,-0.1443104147911071
-0.0121581079438328,1.3188306093215942,-0.0977406874299049,-0.4584589898586273,0.0115801747888326,0.030295455828309,0.0,0.0,-0.6529428958892822,0.6283273696899414
-0.013038826175034,1.3079410791397097,-0.0887384787201881,-0.4839821755886078,0.012241412885487,0.0132257984951138,0.0,0.0,-0.1046987771987915,-0.1681325435638427
-0.0138940811157226,1.2964760065078735,-0.0867718011140823,-0.5095701813697815,0.0134692229330539,0.0245583746582269,0.0,0.0,-0.3577167391777038,0.6178891658782959
-0.0146642681211233,1.2844396829605105,-0.0773202925920486,-0.5349541902542114,0.0137687884271144,0.0059915324673056,0.0,0.0,-0.1072776317596435,-0.8893874883651733
-0.0154699329286813,1.2718181610107422,-0.0830206647515297,-0.5609858632087708,0.0161887593567371,0.0484041199088096,0.0,0.0,-0.3746117949485779,0.5320644378662109
-0.0161970146000385,1.2586276531219482,-0.0743975490331649,-0.586263120174408,0.0178577080368995,0.0333823300898075,0.0,0.0,-0.5811719298362732,-0.2664390802383423
-0.0168967247009277,1.2448616027832031,-0.0722081810235977,-0.6118547916412354,0.0200751945376396,0.0443537347018718,0.0,0.0,0.0267896652221679,0.0815069675445556
-0.0174935348331928,1.231319785118103,-0.062877632677555,-0.6019010543823242,0.0232365746051073,0.0632333308458328,0.0,0.0,-0.2571714520454407,-0.0929062962532043
-0.0180620197206735,1.2172024250030518,-0.060588963329792,-0.6275001168251038,0.0269336737692356,0.0739486217498779,0.0,0.0,-0.2880273461341858,-0.0161586999893188
-0.0186017993837595,1.202509880065918,-0.0582522377371788,-0.6530916690826416,0.031160544604063,0.0845450386404991,0.0,0.0,-0.2967660427093506,0.3656578063964844
-0.019112491980195,1.187241792678833,-0.0558689534664154,-0.6786840558052063,0.0359100848436355,0.0949995219707489,0.0,0.0,-0.4605252742767334,0.3441269397735595
-0.0195937156677246,1.1713987588882446,-0.0534407906234264,-0.7042785286903381,0.0411748439073562,0.1053045764565467,0.0,0.0,-0.6971423029899597,0.5547107458114624
-0.0200003627687692,1.154979944229126,-0.0453567691147327,,0.0458231903612613,0.0929750055074691,0.0,0.0,-0.5628311038017273,0.8891127109527588
-0.0202914234250783,1.1379904747009275,-0.0321258977055549,-0.7551814317703247,0.0488219633698463,0.0599806532263755,0.0,0.0,-0.0163987278938293,0.4562269449234009
-0.0205518715083599,1.120425820350647,-0.0295626036822795,-0.7807758450508118,0.0523110963404178,0.0697885826230049,0.0,0.0,-0.1472220420837402,0.5978424549102783
-0.0207453723996877,1.102290153503418,-0.0224382206797599,-0.8061389327049255,0.0553701259195804,0.0611860081553459,0.0,0.0,-0.3922587633132934,0.5195620059967041
-0.0208758357912302,1.0835630893707275,-0.0158225167542696,-0.8324189782142639,0.0581144317984581,0.0548860840499401,0.0,0.0,0.4747800827026367,0.8098222017288208
-0.020944882184267,1.0652426481246948,-0.00851605925709,-0.8143022060394287,0.0597095936536788,0.031903151422739,0.0,0.0,0.2150452136993408,0.6389315128326416
-0.0210750587284564,1.0472573041915894,-0.0136244911700487,-0.7993745803833008,0.0603090561926364,0.0119890058413147,0.0,0.0,0.674125075340271,0.8931056261062622
-0.0212976448237895,1.029872179031372,-0.0212717000395059,-0.7726336717605591,0.0593357793986797,-0.0194656029343605,0.0,0.0,0.327528715133667,-0.381585955619812
-0.021528149023652,1.0124967098236084,-0.0224097166210412,-0.7722155451774597,0.0587036050856113,-0.0126433549448847,0.0,0.0,0.0243886709213256,-0.6535946130752563
-0.0217958446592092,0.9953358769416808,-0.0278689227998256,-0.7627460360527039,0.0597881078720092,0.0216903649270534,0.0,0.0,0.454014778137207,0.8237563371658325
-0.022065544500947,0.978171169757843,-0.0267063789069652,-0.7628601789474487,0.0595172829926013,-0.0054165227338671,0.0,0.0,-0.6082829236984253,0.5552780628204346
-0.0222652442753314,0.9604395627975464,-0.0190983973443508,-0.7880308032035828,0.0586627162992954,-0.0170912742614746,0.0,0.0,0.7454798221588135,0.1245865821838378
-0.0225217826664447,0.9426973462104796,-0.0248336307704448,-0.788512647151947,0.0578493922948837,-0.0162663981318473,0.0,0.0,0.5618250370025635,0.4670336246490478
-0.0227645877748727,0.9252690076828004,-0.0238655414432287,-0.7745836973190308,0.0574405305087566,-0.0081771351397037,0.0,0.0,0.5148431062698364,0.0066636800765991
-0.0229977611452341,0.9083049893379213,-0.0233027357608079,-0.7539567351341248,0.0574214570224285,-0.0003812944341916,0.0,0.0,0.418008804321289,0.605050802230835
-0.0231972690671682,0.8913495540618896,-0.0189608596265316,-0.7535374164581299,0.0564379319548606,-0.0196700971573591,0.0,0.0,0.742255687713623,0.043263554573059
-0.0233693122863769,0.875024139881134,-0.0166668202728033,-0.7255542874336243,0.0559078976511955,-0.0106008760631084,0.0,0.0,-0.3616132736206054,0.2538098096847534
-0.0235086437314748,0.8581230640411377,-0.013647343032062,-0.7511444091796875,0.0556215196847915,-0.0057277274318039,0.0,0.0,0.0948307514190673,0.555657148361206
-0.0235732086002826,0.8412559032440186,-0.0052998522296547,-0.7496092915534973,0.0544820725917816,-0.0227890126407146,0.0,0.0,0.5129623413085938,0.2734271287918091
-0.0237417221069335,0.824873149394989,-0.0154305920004844,-0.7280724048614502,0.0530819557607173,-0.0280025638639926,0.0,0.0,-0.5543903708457947,0.1746588945388794
-0.0238778106868267,0.807914674282074,-0.0123584726825356,-0.7536622285842896,0.0518460161983966,-0.0247187633067369,0.0,0.0,-0.1056101322174072,0.6894352436065674
-0.0239181518554687,0.7903780341148376,-0.0013054234441369,-0.7793155908584595,0.0491538643836975,-0.0538429506123065,0.0,0.0,0.5218942165374756,0.1923853158950805
-0.0238588340580463,0.7730020880699158,0.0081114312633872,-0.7721956968307495,0.0469909720122814,-0.0432578362524509,0.0,0.0,-0.2422619462013244,0.5007412433624268
-0.0237305648624897,0.7550471425056458,0.0158748552203178,-0.7979037761688232,0.0439760908484458,-0.0602974705398082,0.0,0.0,0.3707942962646484,0.1383924484252929
-0.023544693365693,0.7369347214698792,0.0214112699031829,-0.8049216866493225,0.0411828346550464,-0.0558654367923736,0.0,0.0,0.036449909210205,0.289864182472229
-0.0233007427304983,0.7186691164970398,0.0270371492952108,-0.8117369413375854,0.0385806113481521,-0.0520443320274353,0.0,0.0,0.2072086334228515,-0.3630724549293518
-0.023130988702178,0.7007362246513367,0.0200104769319295,-0.7969419360160828,0.0355808809399604,-0.0599946491420269,0.0,0.0,-0.2244186997413635,-0.086052656173706
-0.0229302402585744,0.6822276711463928,0.0231610089540481,-0.822531521320343,0.0325319059193134,-0.0609795674681663,0.0,0.0,0.0407251119613647,0.6066067218780518
-0.0226760860532522,0.6636237502098083,0.0298189427703619,-0.8267514109611511,0.0281762387603521,-0.0871132761240005,0.0,0.0,0.3678686618804931,-0.1670655012130737
-0.0222861282527446,0.6451581120491028,0.0429649278521537,-0.8206217885017395,0.024257430806756,-0.0783762782812118,0.0,0.0,-0.0721407532691955,-0.1066199541091919
-0.0218660347163677,0.6261168718338013,0.0461290590465068,-0.8462116718292236,0.0201949719339609,-0.0812492221593856,0.0,0.0,0.5581281185150146,-0.6435146331787109
-0.0213629715144634,0.6071272492408752,0.0530507266521453,-0.8439531326293945,0.0174827706068754,-0.0542437955737113,0.0,0.0,0.7357566356658936,-0.2805905938148498
-0.0208415985107421,0.5888188481330872,0.055074293166399,-0.8136762380599976,0.014581736177206,-0.0580208785831928,0.0,0.0,0.4588539600372314,-0.8364425301551819
-0.0202154163271188,0.5705790519714355,0.0639052838087081,-0.8106455206871033,0.0133077474310994,-0.0254797078669071,0.0,0.0,0.6644548177719116,-0.6794747114181519
-0.0197251327335834,0.5524692535400391,0.0494480580091476,-0.8048750162124634,0.0128924185410141,-0.0083067202940583,0.0,0.0,0.4707529544830322,0.2716491222381592
-0.0191316604614257,0.5348494648933411,0.0596690662205219,-0.7830995321273804,0.0125752706080675,-0.0063430769369006,0.0,0.0,0.5719387531280518,-0.3531436920166015
-0.0183866508305072,0.5176187753677368,0.0745288729667663,-0.7658063769340515,0.012550420127809,-0.0004970681620761,0.0,0.0,0.2412829399108886,-0.2511523962020874
-0.0175652503967285,0.500741183757782,0.0822468921542167,-0.7501142621040344,0.0124452384188771,-0.0021036658436059,0.0,0.0,0.2766766548156738,-0.6846827268600464
-0.0168437007814645,0.4842022657394409,0.0713535100221633,-0.7350695729255676,0.0132375564426183,0.0158464349806308,0.0,0.0,0.0774899721145629,-0.4718205332756042
-0.0160646438598632,0.4674504697322845,0.0773364156484603,-0.7445307970046997,0.0137982927262783,0.0112146232277154,0.0,0.0,0.625838041305542,-0.5248039364814758
-0.0154152866452932,0.4511577188968658,0.064006969332695,-0.7241274118423462,0.014712587930262,0.0182858947664499,0.0,0.0,0.4672410488128662,-0.2153905034065246
-0.0146365165710449,0.434980571269989,0.0768762603402137,-0.7189969420433044,0.0157072506844997,0.0198932290077209,0.0,0.0,0.5178020000457764,-0.766944408416748
-0.0138769149780273,0.4190723598003387,0.0738110691308975,-0.7070537805557251,0.0178217869251966,0.0422909036278724,0.0,0.0,0.5185031890869141,-0.5937278270721436
-0.0131372455507516,0.4031355381011963,0.0710791945457458,-0.7083407044410706,0.0206723287701606,0.0570107884705066,0.0,0.0,0.6969361305236816,0.1425467729568481
-0.0125118251889944,0.3875292837619781,0.0607379376888275,-0.6936352252960205,0.0224556159228086,0.0356656648218631,0.0,0.0,0.5965373516082764,-0.5407353043556213
-0.011900519952178,0.3725930452346802,0.0586778223514556,-0.6638714075088501,0.02487731911242,0.0484339818358421,0.0,0.0,0.4000898599624634,-0.6782884001731873
-0.0112473489716649,0.3574453592300415,0.0618637129664421,-0.6732892990112305,0.0282788146287202,0.0680299326777458,0.0,0.0,0.7340805530548096,0.2365431785583496
-0.0105670932680368,0.3430666327476501,0.0649808570742607,-0.6391158699989319,0.0312908887863159,0.0602416507899761,0.0,0.0,0.4880778789520263,-0.3311865329742431
-0.0099610332399606,0.3287472724914551,0.0584844350814819,-0.6364630460739136,0.0333784706890583,0.0417518690228462,0.0,0.0,0.6935892105102539,-0.0095763206481933
-0.0094490051269531,0.3148877620697021,0.0500782802700996,-0.616002082824707,0.0344874113798141,0.022178778424859,0.0,0.0,0.9475541114807128,-0.2372868657112121
-0.0089032175019383,0.3015539646148681,0.0538412034511566,-0.5926300883293152,0.0352109856903553,0.0144715039059519,0.0,0.0,0.7134077548980713,-0.4634629487991333
-0.0084996223449707,0.2889500856399536,0.0408279858529567,-0.5601621270179749,0.0347543843090534,-0.0091320816427469,0.0,0.0,0.7301702499389648,-0.2215010523796081
-0.0080183027312159,0.2766807377338409,0.0488058850169181,-0.5452872514724731,0.034083317965269,-0.0134211629629135,0.0,0.0,0.7787123918533325,-0.534144401550293
-0.0076109888032078,0.2644582986831665,0.0410245098173618,-0.543211817741394,0.0337888859212398,-0.0058886758051812,0.0,0.0,0.578567624092102,-0.2869789600372314
-0.0071288109757006,0.2521288096904754,0.0488105490803718,-0.5479652881622314,0.0332102477550506,-0.0115729849785566,0.0,0.0,0.8279135227203369,-0.1721539497375488
-0.0066740037873387,0.2397844940423965,0.046822190284729,-0.5486040115356445,0.0318788550794124,-0.0266277901828289,0.0,0.0,0.8858859539031982,-0.7858408093452454
-0.006301593966782,0.2282253801822662,0.0376342348754406,-0.5137328505516052,0.0314904823899269,-0.0077675082720816,0.0,0.0,0.5655136108398438,-0.3014563322067261
-0.0058591840788722,0.217252716422081,0.0448901541531086,-0.4876605272293091,0.0308512039482593,-0.0127857457846403,0.0,0.0,0.7155017852783203,-0.4102482795715332
-0.0055416105315089,0.206971064209938,0.0335663855075836,-0.4569243788719177,0.0290665328502655,-0.0356933176517486,0.0,0.0,0.7518143653869629,-0.8327496647834778
-0.0054342271760106,0.1966220289468765,0.011769575998187,-0.4599377512931824,0.028049835935235,-0.0203338842839002,0.0,0.0,0.8904013633728027,-0.351134181022644
-0.0052898405119776,0.1870551854372024,0.0158731956034898,-0.4251666665077209,0.0266324430704116,-0.0283477548509836,0.0,0.0,0.6725108623504639,-0.5736947059631348
-0.0053011896088719,0.1777796894311905,5.357601912692189e-05,-0.4122215211391449,0.0254560708999633,-0.0235273316502571,0.0,0.0,0.7386898994445801,-0.5409262180328369
-0.005420780275017,0.1689962744712829,-0.0110510941594839,-0.3903611302375793,0.0245659500360488,-0.0178025718778371,0.0,0.0,0.641979455947876,0.0757232904434204
-0.0055557251907885,0.1606785655021667,-0.0119148138910532,-0.3696499168872833,0.0229978375136852,-0.0313621647655963,0.0,0.0,0.5596044063568115,-0.3856142163276672
-0.0056087495759129,0.1526114046573639,-0.0034571581054478,-0.3585127592086792,0.0211852900683879,-0.0362511239945888,0.0,0.0,0.6143192052841187,-0.1976960301399231
-0.0056342124007642,0.1444707214832306,-0.000186502278666,-0.361776739358902,0.0188527014106512,-0.0466519258916378,0.0,0.0,0.3879597187042236,-0.9552106261253356
-0.0056418417952954,0.1362548619508743,0.0002523867296986,-0.3651367723941803,0.0178592000156641,-0.0198701433837413,0.0,0.0,0.6677838563919067,-0.3950467109680176
-0.005502033047378,0.1283316910266876,0.0149262081831693,-0.3521319925785064,0.016922378912568,-0.0187365170568227,0.0,0.0,0.5538129806518555,-0.9383040070533752
-0.0052865981124341,0.1203835606575012,0.0210712384432554,-0.3532553315162658,0.0173949319869279,0.0094511462375521,0.0,0.0,0.6247401237487793,-0.9610919952392578
-0.0051597594283521,0.1129724383354187,0.0109212026000022,-0.3294038474559784,0.0191378928720951,0.0348590388894081,0.0,0.0,0.17250657081604,-0.8318517804145813
-0.0050784111954271,0.105797991156578,0.0053170835599303,-0.3189022839069366,0.0219178758561611,0.0555996969342231,0.0,0.0,0.2452021837234497,-0.8468859791755676
-0.0049634934403002,0.0988062918186187,0.0075275474227964,-0.3108065724372864,0.0258337296545505,0.0783169940114021,0.0,0.0,0.2564570903778076,-0.432778000831604
-0.004775715060532,0.0916140377521514,0.0150952730327844,-0.3197245597839355,0.0294700283557176,0.0727258250117302,0.0,0.0,0.4890735149383545,-0.5888564586639404
-0.0046982765197753,0.0845280736684799,0.003638049121946,-0.3150161802768707,0.0335261411964893,0.0811222493648529,0.0,0.0,0.4129252433776855,0.5092766284942627
-0.0045277597382664,0.077984482049942,0.0144234653562307,-0.2908878624439239,0.0361260883510112,0.0519987419247627,0.0,0.0,0.2464351654052734,0.4242382049560547
-0.0043921470642089,0.0715076327323913,0.0116580510511994,-0.2879092395305633,0.0380098856985569,0.0376757457852363,0.0,0.0,0.3854856491088867,0.250248908996582
-0.0043894769623875,0.0654487013816833,-0.0005078025860711,-0.2693061232566833,0.0387762784957885,0.0153278829529881,0.0,0.0,0.4083398580551147,0.5692367553710938
-0.0042891502380371,0.0597154945135116,0.0108627174049615,-0.2547872066497803,0.0379549339413642,-0.0164268296211957,0.0,0.0,0.2177153825759887,-0.1210092306137085
-0.0042557716369628,0.0542329885065555,0.0050011710263788,-0.2436296790838241,0.0363170057535171,-0.0327586717903614,0.0,0.0,0.2970881462097168,-0.1619459390640258
-0.004316615872085,0.049052033573389,-0.0034834537655115,-0.2302007228136062,0.0337449610233306,-0.0514407381415367,0.0,0.0,0.1024590730667114,-0.2401646375656128
-0.0044149397872388,0.0437925420701503,-0.0065091541036963,-0.233683630824089,0.0304630864411592,-0.0656376034021377,0.0,0.0,0.5615168809890747,-0.0396468639373779
-0.0046520233154296,0.0388044230639934,-0.0192272253334522,-0.2216083705425262,0.0260386560112237,-0.088488683104515,0.0,0.0,0.0724261999130249,0.6914713382720947
-0.0049674035981297,0.033746849745512,-0.0249089263379573,-0.2246815115213394,0.0194991175085306,-0.1307908147573471,0.0,0.0,0.3642797470092773,-0.3707729578018188
-0.0052211759611964,0.0290064197033643,-0.0185276363044977,-0.2106114476919174,0.0127331605181097,-0.1353193372488021,0.0,0.0,0.4515280723571777,-0.1530284285545349
-0.0054411888122558,0.0241780132055282,-0.0147568807005882,-0.2145500779151916,0.0055863154120743,-0.1429367214441299,0.0,0.0,0.1869208812713623,-0.4022316336631775
-0.0055773733183741,0.019597515463829,-0.0062359338626265,-0.2035668641328811,-0.0017078531673178,-0.1458835303783416,0.0,0.0,0.7093939781188965,-0.7058544158935547
-0.0058128358796238,0.0156523808836936,-0.0168831143528223,-0.1753607243299484,-0.0082831559702754,-0.1315057575702667,0.0,0.0,0.3800339698791504,0.2467199563980102
-0.0059434892609715,0.012201271019876,-0.0063322400674223,-0.1534334570169448,-0.0149346692487597,-0.1330302655696869,0.0,0.0,-0.0373786091804504,-0.0181798338890075
-0.0060959816910326,0.0081752398982644,-0.0078767817467451,-0.1790268570184707,-0.0222126934677362,-0.1455603837966919,0.0,0.0,0.3217746019363403,-0.4948447346687317
-0.0062629701569676,0.0045541860163211,-0.0086554205045104,-0.161076471209526,-0.0301429480314254,-0.1586052328348159,0.0,0.0,0.2085242271423339,-0.5287100672721863
-0.0064300536178052,0.0012264585820958,-0.0092133255675435,-0.1480662673711776,-0.0375463552772998,-0.1480681151151657,1.0,0.0,0.453173279762268,0.4111883640289306
-0.0064678192138671,-0.0016599559457972,-0.0068874680437147,-0.1284308135509491,-0.0336769893765449,0.0784030109643936,1.0,0.0,0.8514580726623535,0.201135516166687
-0.0065222741104662,-0.0036068463232368,-0.0224143844097852,-0.0862419232726097,-0.016885919496417,0.3358618021011352,1.0,0.0,0.5246508121490479,0.2482697963714599
-0.0067051886580884,-0.0042853378690779,-0.0289937015622854,-0.0300789382308721,-0.0063263224437832,0.2111915349960327,1.0,1.0,0.6649222373962402,0.9986931085586548
-0.0068720816634595,-0.0037344479933381,-0.0198478456586599,0.0245007947087287,-0.0031871495302766,0.062814749777317,1.0,1.0,-0.414313793182373,0.9633803367614746
-0.0069992067292332,-0.0028629803564399,-0.0106597850099205,0.0387206636369228,-0.0052109891548752,-0.0404725074768066,1.0,1.0,-0.7377340793609619,0.3092532157897949
-0.00712671270594,-0.0017334127333015,-0.0106664225459098,0.0501960776746273,-0.007277279626578,-0.0413215532898902,1.0,1.0,-0.4025431275367737,0.1311827898025512
-0.0071422578766942,-0.0007824444910511,-0.008778691291809,0.0422814972698688,-0.0001372936822008,0.1427951753139495,1.0,1.0,-0.1884791851043701,0.9772169589996338
-0.0071053504943847,-0.0003914856933988,0.0005964864976704,0.0173717532306909,0.0029036574997007,0.0608114227652549,1.0,1.0,-0.1554469466209411,0.2928477525711059
-0.0071045877411961,-0.0003925585770048,6.404038867913187e-05,-4.683557926909998e-05,0.0029032668098807,-1.365598291158676e-05,1.0,1.0,-0.5969312787055969,0.0173879861831665
