x_pos,y_pos,x_vel,y_vel,angle,ang_vel,leg_1,leg_2,main_booster,lat_booster
-0.0015736579662188,1.4032292366027832,-0.1586333513259887,-0.3418161273002624,0.0011403121752664,0.0224471744149923,0.0,0.0,-0.5845040884148103,0.699187566982762
-0.0031378746498376,1.3951629400253296,-0.1553577631711959,-0.3584997951984405,8.344011439476162e-05,-0.0211387481540441,0.0,0.0,-0.8256924637139542,0.9856782492404184
-0.0046575544402003,1.3866939544677734,-0.1478148400783538,-0.3764063417911529,-0.0040206583216786,-0.0820897966623306,0.0,0.0,-0.6709065924004738,0.6781194936088522
-0.0061841011047363,1.3778274059295654,-0.1467428058385849,-0.3940896689891815,-0.0098696164786815,-0.1169900670647621,0.0,0.0,0.2422162331956143,0.9935661719680696
-0.0075635910034179,1.36930251121521,-0.1293996423482895,-0.3789731562137604,-0.0183102563023567,-0.1688285768032074,0.0,0.0,0.4399840836645974,0.887033702847374
-0.0087781902402639,1.361086130142212,-0.1106411591172218,-0.3653249740600586,-0.02900474332273,-0.2139101028442382,0.0,0.0,0.6110867866799821,0.7308240222510778
-0.0099917408078908,1.3533198833465576,-0.1083554252982139,-0.3454699218273163,-0.0418693386018276,-0.2573156952857971,0.0,0.0,0.0776736010636427,-0.6808860217022383
-0.0111788753420114,1.345791578292847,-0.1065229922533035,-0.3349731862545013,-0.0539265349507331,-0.2411663234233856,0.0,0.0,0.4140182176805165,0.652754527307853
-0.012334918603301,1.3389475345611572,-0.1014262810349464,-0.3047524690628052,-0.0679742097854614,-0.2809796929359436,0.0,0.0,-0.4206738500210678,-0.8934650217690864
-0.0136083606630563,1.331723928451538,-0.1142916679382324,-0.3216951489448547,-0.0809187069535255,-0.2589133381843567,0.0,0.0,-0.6046732181415602,0.5216386278701022
-0.0148819927126169,1.3241031169891355,-0.1124421507120132,-0.339574933052063,-0.0957215428352356,-0.2960839569568634,0.0,0.0,0.423107337632993,0.5976038776640653
-0.0160454753786325,1.316753387451172,-0.0997249186038971,-0.3278122544288635,-0.1122356429696083,-0.3303124904632568,0.0,0.0,-0.4360794075348677,-0.502800081754875
-0.017285156995058,1.3090202808380127,-0.1074947267770767,-0.3450069427490234,-0.128637433052063,-0.32806596159935,0.0,0.0,0.2517938109463444,0.9417559364979936
-0.018402099609375,1.3012632131576538,-0.0927318185567855,-0.346509575843811,-0.1475597023963928,-0.3784801363945007,0.0,0.0,-0.4654711986447153,0.6463842666163938
-0.0195001605898141,1.2931101322174072,-0.0886483341455459,-0.3645966947078705,-0.168739765882492,-0.4236404001712799,0.0,0.0,0.2092629007673361,-0.7398247322888979
-0.020573902875185,1.2848740816116333,-0.0871865823864936,-0.3684743642807007,-0.1890070289373397,-0.405381977558136,0.0,0.0,0.6338752987098073,0.6140980700596992
-0.0213377960026264,1.277448058128357,-0.0547691695392131,-0.3329440951347351,-0.2108104974031448,-0.4361095428466797,0.0,0.0,0.8462172250088829,0.6053336026751279
-0.0218428615480661,1.2701759338378906,-0.0275863409042358,-0.3266514837741852,-0.2340404987335205,-0.4646424353122711,0.0,0.0,-0.8267254695452866,0.575643761986516
-0.022336196154356,0.0,-0.0245689544826746,-0.3450688123703003,-0.2592768371105194,-0.5047720670700073,0.0,0.0,-0.8682816607819359,0.8397492055931125
-0.0228133201599121,1.254427194595337,-0.0210363734513521,-0.3639558851718902,-0.2866449058055877,-0.5474113821983337,0.0,0.0,-0.923734615442243,0.5422002600967833
-0.0232775695621967,1.2459489107131958,-0.0180639754980802,-0.3826669752597809,-0.3160009086132049,-0.5871737599372864,0.0,0.0,-0.9814847954152216,-0.5098583442689552
-0.0238162986934185,1.2371039390563965,-0.0261117871850729,-0.3994258344173431,-0.3449975550174713,-0.5799854397773743,0.0,0.0,-0.4492835895549316,0.8110286211563544
-0.0243174545466899,1.2278375625610352,-0.0201188586652278,-0.4193456768989563,-0.3766687512397766,-0.633481502532959,0.0,0.0,0.866741692917905,0.7006694044577939
-0.0245936401188373,1.2185992002487185,0.0037760375998914,-0.4192351698875427,-0.41024249792099,-0.671535849571228,0.0,0.0,0.9178857122505332,-0.694685073798698
-0.0248160362243652,1.2101503610610962,0.0083642955869436,-0.3847369849681854,-0.4434457123279571,-0.6641238927841187,0.0,0.0,-0.1627420013029159,-0.8335036894920012
-0.025147533044219,1.2013590335845947,-0.0043595945462584,-0.4001780748367309,-0.4751304388046264,-0.6336947679519653,0.0,0.0,0.922810264426054,0.9160080501798218
-0.0250524524599313,1.1932696104049685,0.0400922745466232,-0.3704202771186828,-0.5093661546707153,-0.6847143173217773,0.0,0.0,-0.3086332622215773,-0.7978584574532681
-0.0250493995845317,1.1848647594451904,0.0290833450853824,-0.3846360743045807,-0.5421778559684753,-0.6562351584434509,0.0,0.0,-0.0734598372164156,0.5163272927836308
-0.0250450130552053,1.1760613918304443,0.0299287531524896,-0.4035272896289825,-0.5764812231063843,-0.686067521572113,0.0,0.0,0.6272698754374024,0.988490333027842
-0.0247604362666606,1.167438507080078,0.05961874127388,-0.397234559059143,-0.6135656237602234,-0.74168860912323,0.0,0.0,-0.0025761946144791,-0.7684846439971144
-0.0245427135378122,1.1584967374801636,0.0513150468468666,-0.4117646813392639,-0.6496522426605225,-0.7217338681221008,0.0,0.0,-0.5857409238815308,-0.9964008927345276
-0.0244189258664846,1.1492522954940796,0.0396887324750423,-0.4251386523246765,-0.6839180588722229,-0.6853159070014954,0.0,0.0,-0.6306419372558594,-0.9937782883644104
-0.0243802070617675,1.1397192478179932,0.0289929751306772,-0.4377517402172088,-0.7163009643554688,-0.6476578116416931,0.0,0.0,-0.7657526135444641,-0.977676808834076
-0.0244290344417095,1.1298818588256836,0.0182279385626316,-0.4510028064250946,-0.7469174265861511,-0.6123296618461609,0.0,0.0,-0.4121495485305786,-0.9837198853492736
-0.0245510097593069,1.1197401285171509,0.0091782128438353,-0.4642753005027771,-0.7760016322135925,-0.5816836953163147,0.0,0.0,-0.0552791357040405,-0.9071142673492432
-0.0247367862612009,1.1092921495437622,0.001202825224027,-0.477617472410202,-0.8036980628967285,-0.5539282560348511,0.0,0.0,-0.0559809803962707,-0.989033043384552
-0.0249980930238962,1.0985435247421265,-0.0081042917445302,-0.4904837310314178,-0.8296640515327454,-0.5193197131156921,0.0,0.0,-0.3302013874053955,-0.9652276635169984
-0.0253199581056833,1.0874927043914795,-0.0156390704214572,-0.5034676194190979,-0.8541469573974609,-0.4896581768989563,0.0,0.0,-0.5803393721580505,-0.9892997145652772
-0.0257057193666696,1.076155424118042,-0.0236937925219535,-0.5154993534088135,-0.8767788410186768,-0.4526377618312835,0.0,0.0,-0.4810922741889953,-0.8103679418563843
-0.0261445045471191,1.0645017623901367,-0.0301595777273178,-0.5291532874107361,-0.8982048630714417,-0.4285188317298889,0.0,0.0,-0.7919392585754395,-0.9328481554985046
-0.026646327227354,1.052565336227417,-0.03805847838521,-0.5408502221107483,-0.9176428318023682,-0.3887596130371094,0.0,0.0,-0.8272370100021362,-0.9884658455848694
-0.0272002220153808,1.0403122901916504,-0.0443145558238029,-0.5543825626373291,-0.9358157515525818,-0.3634578585624695,0.0,0.0,-0.71348637342453,-0.9805698394775392
-0.0278105735778808,1.02774178981781,-0.0510298199951648,-0.5678855180740356,-0.9526368379592896,-0.3364214599132538,0.0,0.0,-0.7862404584884644,-0.9182218909263612
-0.0284684188663959,1.0148541927337646,-0.0567294768989086,-0.5813935399055481,-0.9682037234306335,-0.3113378286361694,0.0,0.0,-0.8363491892814636,-0.9364132881164552
-0.0291872974485158,1.00166654586792,-0.0640522763133049,-0.5938100814819336,-0.9819698333740234,-0.2753220200538635,0.0,0.0,-0.6077368855476379,-0.9721772074699402
-0.0299606323242187,0.988170564174652,-0.0705366432666778,-0.6066984534263611,-0.9941546320915222,-0.2436961233615875,0.0,0.0,-0.725493311882019,-0.945861518383026
-0.0307824127376079,0.974364161491394,-0.0763105303049087,-0.6196914911270142,-1.0048469305038452,-0.2138456106185913,0.0,0.0,-0.8166057467460632,-0.9554013013839722
-0.031653881072998,0.9602827429771424,-0.0825648233294487,-0.6306849718093872,-1.013335108757019,-0.1697627902030944,0.0,0.0,-0.8363993763923645,-0.9225850701332092
-0.0325746536254882,0.9459248781204224,-0.0887182801961898,-0.6417392492294312,-1.019624948501587,-0.1257958114147186,0.0,0.0,-0.9009351134300232,-0.9857564568519592
-0.0335455909371376,0.9312745928764344,-0.0947908386588096,-0.6536226272583008,-1.0239685773849487,-0.086872324347496,0.0,0.0,-0.3712753057479858,-0.9502758979797364
-0.0345523841679096,0.9163045287132264,-0.0990537256002426,-0.6671128869056702,-1.027050495147705,-0.0616393275558948,0.0,0.0,-0.8065011501312256,-0.8677340745925903
-0.0355994217097759,0.9010398387908936,-0.1040411815047264,-0.6791632771492004,-1.0283087491989136,-0.0251644197851419,0.0,0.0,-0.8476698398590088,-0.987407922744751
-0.0366868004202842,0.8854605555534363,-0.1088477149605751,-0.6922810077667236,-1.0280859470367432,0.0044562211260199,0.0,0.0,-0.9270850419998168,-0.9280297756195068
-0.0378099456429481,0.8695849180221558,-0.113371156156063,-0.7044191360473633,-1.0260732173919678,0.0402554795145988,0.0,0.0,-0.9352535605430604,-0.982508897781372
-0.0389680862426757,0.853388786315918,-0.1175878793001174,-0.7178911566734314,-1.0227130651474,0.0672027841210365,0.0,0.0,-0.8959510326385498,-0.9606416821479796
-0.040175724774599,0.8369077444076538,-0.1237334385514259,-0.729263424873352,-1.0171072483062744,0.1121170669794082,0.0,0.0,-0.900941014289856,-0.9707613587379456
-0.0414130203425884,0.8201197981834412,-0.1275793612003326,-0.7420108318328857,-1.0099191665649414,0.1437616944313049,0.0,0.0,-0.9148781299591064,-0.9176830053329468
-0.0426780693233013,0.8030110597610474,-0.1311186403036117,-0.7555299401283264,-1.0014100074768066,0.1701836884021759,0.0,0.0,-0.952688217163086,-0.9673843383789062
-0.0439726822078228,0.7855979800224304,-0.1350588500499725,-0.7681350708007812,-0.9912269711494446,0.2036612033843994,0.0,0.0,-0.8918440341949463,-0.959014654159546
-0.0453071594238281,0.7679018378257751,-0.1403876096010208,-0.7795107960700989,-0.9788127541542052,0.2482847869396209,0.0,0.0,-0.8383804559707642,-0.9685952067375184
-0.0466826446354389,0.7498945593833923,-0.1456350982189178,-0.7924225330352783,-0.9646429419517516,0.2833949625492096,0.0,0.0,-0.9155879020690918,-0.9757606387138368
-0.04810256883502,0.7316063642501831,-0.1516377627849578,-0.8036673069000244,-0.948095440864563,0.3309494853019714,0.0,0.0,-0.8643016815185547,-0.9557939171791076
-0.0495544448494911,0.712997555732727,-0.1559679508209228,-0.8172233700752258,-0.9300612211227416,0.3606831431388855,0.0,0.0,-0.7925301194190979,-0.8843086361885071
-0.0510404594242572,0.694077730178833,-0.1607144474983215,-0.8302581310272217,-0.9103164672851562,0.3948954939842224,0.0,0.0,-0.6954283714294434,-0.8535705208778381
-0.0525649078190326,0.6748415231704712,-0.1659279912710189,-0.8436092138290405,-0.8888845443725586,0.4286377429962158,0.0,0.0,-0.5900349020957947,-0.7382839322090149
-0.0541267395019531,0.6552958488464355,-0.17120923101902,-0.8566082715988159,-0.8656383156776428,0.4649249911308288,0.0,0.0,-0.6135470271110535,-0.4913521409034729
-0.0556827560067176,0.6353619694709778,-0.1709068119525909,-0.8742155432701111,-0.8426157236099243,0.4604516923427582,0.0,0.0,-0.4338515996932983,-0.3177241086959839
-0.0572330467402935,0.6150395274162292,-0.1705880463123321,-0.8918218612670898,-0.8198018074035645,0.4562786519527435,0.0,0.0,-0.3871970772743225,-0.1106058955192565
-0.0587776191532611,0.5943285822868347,-0.1702580749988556,-0.909427285194397,-0.7971816658973694,0.4524032175540924,0.0,0.0,-0.3596957921981811,-0.4825147986412048
-0.0603163726627826,0.5732288360595703,-0.1699221432209015,-0.927031636238098,-0.7747405767440796,0.4488222002983093,0.0,0.0,-0.2402759194374084,-0.2462199926376342
-0.0618494041264057,0.5517402291297913,-0.1695854365825653,-0.9446352124214172,-0.7524639964103699,0.4455319344997406,0.0,0.0,0.1717550754547119,-0.0289297699928283
-0.0630590468645095,0.5303234457969666,-0.137567400932312,-0.9417046308517456,-0.7302367091178894,0.4445456862449646,0.0,0.0,0.3188439607620239,-0.2367072105407714
-0.0638901740312576,0.5093737244606018,-0.0995762199163436,-0.9214650988578796,-0.708621084690094,0.4323128759860992,0.0,0.0,0.5327548980712891,0.2434897422790527
-0.0643156990408897,0.4885782599449157,-0.0594673864543437,-0.9147670269012452,-0.6868125200271606,0.4361715912818908,0.0,0.0,0.5905227661132812,0.1045488119125366
-0.0645224601030349,0.4678609371185303,-0.0376984067261219,-0.911650776863098,-0.6652628183364868,0.4309939742088318,0.0,0.0,0.7708296775817871,-0.0823771357536315
-0.064451977610588,0.4470977783203125,-0.0104632480069994,-0.9138347506523132,-0.6434717178344727,0.4358232617378235,0.0,0.0,0.9347481727600098,-0.1001431941986084
-0.06416817009449,0.4264554381370544,0.0107943098992109,-0.9088243246078492,-0.6219344139099121,0.4307466447353363,0.0,0.0,0.8960422277450562,-0.5876556038856506
-0.0633931159973144,0.4065865576267242,0.0586671605706214,-0.8742504715919495,-0.5992113351821899,0.4544618725776672,0.0,0.0,0.8918331861495972,-0.7921815514564514
-0.062052346765995,0.3874602019786834,0.1133675575256347,-0.8408520221710205,-0.5746284127235413,0.4916579723358154,0.0,0.0,0.8363099098205566,-0.6283133625984192
-0.0603646263480186,0.369243860244751,0.1468653827905655,-0.8003942370414734,-0.5490602850914001,0.5113620162010193,0.0,0.0,0.905869960784912,-0.6895732879638672
-0.0586593635380268,0.3512912094593048,0.147357553243637,-0.7886989712715149,-0.5224432349205017,0.5323411226272583,0.0,0.0,0.9257546663284302,-0.6537588834762573
-0.0564893707633018,0.3341552019119262,0.1921388804912567,-0.7523303627967834,-0.494331419467926,0.5622360706329346,0.0,0.0,0.8757561445236206,-0.238414466381073
-0.0541078560054302,0.3175779283046722,0.2134030312299728,-0.7281398177146912,-0.4667659103870392,0.5513101816177368,0.0,0.0,0.7829635143280029,-0.686345636844635
-0.0514992699027061,0.3016767799854278,0.2345736771821975,-0.6981717348098755,-0.4379051327705383,0.5772161483764648,0.0,0.0,0.8077282905578613,-0.6183580756187439
-0.0486204139888286,0.286472886800766,0.2600764036178589,-0.6673517823219299,-0.4077816009521484,0.6024713516235352,0.0,0.0,0.7393858432769775,-0.0682010650634765
-0.0454135909676551,0.2716738879680633,0.292097806930542,-0.649811863899231,-0.3772195279598236,0.6112412810325623,0.0,0.0,0.7265268564224243,-0.8241344690322876
-0.0421117767691612,0.2570036947727203,0.2995705306529999,-0.6442602276802063,-0.3448995351791382,0.6464006900787354,0.0,0.0,0.7266891002655029,-0.9398801326751708
-0.0386374481022357,0.2425224184989929,0.314431220293045,-0.6360938549041748,-0.3104797601699829,0.6883954405784607,0.0,0.0,0.880323052406311,-0.9179883003234864
-0.0348587036132812,0.2285380214452743,0.3423492610454559,-0.6143525242805481,-0.2738348543643951,0.7328989505767822,0.0,0.0,0.9549753665924072,-0.9255069494247437
-0.0308525077998638,0.2147995978593826,0.3625112473964691,-0.6039353013038635,-0.2349478602409362,0.7777405977249146,0.0,0.0,0.964813470840454,-0.3836795091629028
-0.0266485214233398,0.2019911557435989,0.3819216191768646,-0.5635953545570374,-0.1960415542125702,0.7781263589859009,0.0,0.0,0.9807381629943848,-0.9058189988136292
-0.0223014838993549,0.1901618391275406,0.3939599990844726,-0.5208672881126404,-0.1551763862371444,0.8173039555549622,0.0,0.0,0.9855338335037231,-0.5921052694320679
-0.0177254676818847,0.1791242957115173,0.4148920476436615,-0.4866573214530945,-0.1126163974404335,0.8512004017829895,0.0,0.0,0.9957268238067628,-0.6684897541999817
-0.0130361560732126,0.1682840883731842,0.4242423474788666,-0.479016363620758,-0.068319171667099,0.8859450221061707,0.0,0.0,0.969257354736328,0.0709302425384521
-0.0083776470273733,0.1579893380403518,0.421247661113739,-0.4561014771461487,-0.0242409873753786,0.8815647959709167,0.0,0.0,0.993602991104126,0.305649995803833
-0.003603458404541,0.1488830596208572,0.4322125017642975,-0.4045992791652679,0.0203841533511877,0.8925038576126099,0.0,0.0,0.998265266418457,0.782106876373291
0.0011744499206542,0.1404400467872619,0.4341837763786316,-0.3763962984085083,0.0634618699550628,0.8615550994873047,0.0,0.0,0.995174527168274,0.9021239280700684
0.0057822228409349,0.1330628246068954,0.4193378984928131,-0.330139696598053,0.1045002788305282,0.8207690119743347,0.0,0.0,0.9919297695159912,0.9578442573547364
0.0104752536863088,0.1266020685434341,0.4296653866767883,-0.2903937101364136,0.1439208686351776,0.7884128093719482,0.0,0.0,0.9779412746429444,0.964374303817749
0.0150251388549804,0.1211071088910102,0.4175439476966858,-0.2482682019472122,0.1813728362321853,0.749039888381958,0.0,0.0,0.9552726745605468,0.9297609329223632
0.019360065460205,0.1165392696857452,0.3982440829277038,-0.2077122628688812,0.2168494760990142,0.7095334529876709,0.0,0.0,0.8871326446533203,0.981086492538452
0.023595904931426,0.1124367788434028,0.3905070424079895,-0.187539592385292,0.2503956854343414,0.670924723148346,0.0,0.0,0.566948652267456,0.9514520168304444
0.0276182182133197,0.1087642312049865,0.3713634312152862,-0.1687991768121719,0.2819721400737762,0.6315297484397888,0.0,0.0,0.1996498107910156,0.916982650756836
0.0314575210213661,0.1052318662405014,0.3550815880298614,-0.1628458946943283,0.3117429614067077,0.5954163670539856,0.0,0.0,-0.2065818905830383,0.9145092964172364
0.0353502258658409,0.1013591885566711,0.3627026677131653,-0.1780697256326675,0.3394092321395874,0.5533262491226196,0.0,0.0,-0.0139022469520568,0.7298464775085449
0.0392765998840332,0.0971263721585273,0.3677977919578552,-0.1941909790039062,0.3655290603637695,0.5223966240882874,0.0,0.0,0.0681767463684082,0.7331333160400391
0.0431509017944335,0.0932918190956115,0.3641025722026825,-0.1765782833099365,0.3902963995933532,0.4953468739986419,0.0,0.0,-0.1405728459358215,0.3326239585876465
0.0469949729740619,0.089070089161396,0.3612372577190399,-0.1941932588815689,0.4151532649993896,0.4971371293067932,0.0,0.0,-0.0798945426940918,0.1797196865081787
0.0508073791861534,0.0844610556960105,0.3582335114479065,-0.2118081897497177,0.4400971233844757,0.4988779127597809,0.0,0.0,0.4024982452392578,0.700690507888794
0.0544914230704307,0.0802132934331893,0.3468161523342132,-0.1957608312368393,0.46377894282341,0.4736359715461731,0.0,0.0,0.1706866025924682,0.3222615718841553
0.0578775405883789,0.0763501226902008,0.3172195255756378,-0.1790196001529693,0.4875180721282959,0.4747823178768158,0.0,0.0,-0.0490418076515197,0.3574724197387695
0.0612274184823036,0.072098933160305,0.3138002157211303,-0.1966289430856704,0.5113340616226196,0.476320207118988,0.0,0.0,0.5355637073516846,0.8040456771850586
0.0644600838422775,0.0681203231215477,0.3036575317382812,-0.1843312084674835,0.5336470603942871,0.4462599158287048,0.0,0.0,0.291240930557251,0.8350346088409424
0.0673699378967285,0.0643441975116729,0.2731910943984985,-0.1749872863292694,0.5541699528694153,0.4104577600955963,0.0,0.0,0.2415733337402343,0.498112678527832
0.0699542984366417,0.0605952590703964,0.2411858290433883,-0.173879936337471,0.5743099451065063,0.4027996957302093,0.0,0.0,0.1746045351028442,0.993118405342102
0.0723297148942947,0.0570081807672977,0.2222466915845871,-0.1661413609981537,0.5923841595649719,0.3614846467971802,0.0,1.0,0.9946930408477784,0.9971703290939332
0.0745009407401084,0.0550129748880863,0.2110043466091156,-0.0927086025476455,0.5964820981025696,0.0766143053770065,0.0,1.0,0.8215144872665405,0.9791338443756104
0.0763891190290451,0.0538468919694423,0.2025276869535446,-0.0457669273018837,0.5800473093986511,-0.3289280533790588,0.0,1.0,0.932132601737976,0.7804253101348877
0.0778663605451583,0.053730521351099,0.1708411276340484,0.0046084318310022,0.5528871417045593,-0.5433789491653442,0.0,1.0,0.6716265678405762,-0.2174910902976989
0.0789551734924316,0.0542771182954311,0.1314857751131057,0.0333452336490154,0.5268269777297974,-0.5212354063987732,0.0,1.0,-0.3136172294616699,0.1537466049194336
0.0800478905439376,0.0544334761798381,0.1319711357355117,0.0155150033533573,0.5010629296302795,-0.5153016448020935,0.0,0.0,-0.9996263384819032,-0.9929311275482178
