x_pos,y_pos,x_vel,y_vel,angle,ang_vel,leg_1,leg_2,main_booster,lat_booster
-0.0015111922984942,1.4029624462127686,-0.1527661383152008,-0.3536739349365234,0.0014777019387111,0.0291278269141912,0.0,0.0,-0.6877791108257805,-0.8339563022164845
-0.0030708312988281,1.3943617343902588,-0.1586405783891677,-0.382257878780365,0.004134370945394,0.0531388893723487,0.0,0.0,0.4696414515871527,-0.6359375590010251
-0.0045413016341626,1.3856334686279297,-0.1510002315044403,-0.3879348635673523,0.0080454824492335,0.0782292336225509,0.0,0.0,-0.7042209905699335,-0.6345103250620818
-0.0060618398711085,1.376240611076355,-0.157218724489212,-0.4174993336200714,0.0131598729640245,0.1022969707846641,0.0,0.0,-0.0865906741107609,-0.9298487171251094
-0.007631110958755,1.3661879301071167,-0.1632624715566635,-0.4468561708927154,0.0194175373762846,0.1251650005578994,0.0,0.0,-0.3963251284674816,-0.9979363614092652
-0.0092535018920898,1.3554705381393433,-0.1698003113269806,-0.4764444231986999,0.026894049718976,0.149544209241867,0.0,0.0,0.0834718791579374,-0.9755277123525384
-0.0109740253537893,1.344656229019165,-0.1812541186809539,-0.4808373153209686,0.0359922796487808,0.1819812953472137,0.0,0.0,-0.5267100798111319,0.5909325500886581
-0.0126313213258981,1.333185076713562,-0.1731345206499099,-0.5100197792053223,0.0433150380849838,0.1464690864086151,0.0,0.0,0.431073096605101,0.841675626364775
-0.0142617225646972,1.3221514225006104,-0.1684118211269378,-0.490553081035614,0.0486358255147933,0.1064258217811584,0.0,0.0,0.6388269386633199,0.632459942588594
-0.015875244513154,1.311542510986328,-0.1651374250650406,-0.4716325104236603,0.0523806996643543,0.0749042928218841,0.0,0.0,0.6082612562099359,-0.6026179262104415
-0.0174740795046091,1.301142334938049,-0.1647752821445465,-0.4624148607254028,0.0572256110608577,0.0969065576791763,0.0,0.0,-0.5002836960656154,0.8483942336707048
-0.0189976692199707,1.2900844812393188,-0.1550284177064895,-0.4915623962879181,0.0598647333681583,0.0527874231338501,0.0,0.0,-0.1470034185459607,-0.8112689495353271
-0.02057228051126,1.278364181518555,-0.1610633134841919,-0.5210489630699158,0.0634395778179168,0.0715034827589988,0.0,0.0,0.8705862309927228,-0.6169834257093993
-0.0221391674131155,1.266581416130066,-0.1614248603582382,-0.5238878726959229,0.0681395232677459,0.0940072908997535,0.0,0.0,-0.4175292311359391,-0.9302156454885884
-0.0237660408020019,1.2541406154632568,-0.1685158610343933,-0.5532101392745972,0.0739210024476051,0.115640141069889,0.0,0.0,0.9262727889552772,-0.9157154839974408
-0.0253542903810739,1.2415530681610107,-0.1664305627346038,-0.5598332285881042,0.081462450325489,0.1508423537015915,0.0,0.0,-0.8970444771210027,-0.7705590005351395
-0.0269961357116699,1.2283071279525757,-0.1726434230804443,-0.5891861319541931,0.0898479521274566,0.1677251160144806,0.0,0.0,0.4459022595339188,-0.5339006652093985
-0.0285829547792673,1.214897632598877,-0.168194979429245,-0.5965718626976013,0.0992950946092605,0.1889601051807403,0.0,0.0,-0.44537101855572,-0.6721391128144325
-0.030224036425352,1.2008265256881714,-0.1743852496147155,-0.6260935664176941,0.1095251366496086,0.2046191692352295,0.0,0.0,0.504460709690679,0.9379916024271696
-0.0319413170218467,1.1868605613708496,-0.179702490568161,-0.6213124990463257,0.1174560114741325,0.1586318165063858,0.0,0.0,0.6835806878705326,-0.927747415849068
-0.0336893089115619,1.173393726348877,-0.1845068633556366,-0.5993170142173767,0.1271119564771652,0.193136066198349,0.0,0.0,0.5699151878977577,0.6373576744220601
-0.0354422554373741,1.15989887714386,-0.1833906471729278,-0.6004747152328491,0.1351848840713501,0.1614730656147003,0.0,0.0,0.3754161962724991,0.5067419644198552
-0.0371161475777626,1.146446943283081,-0.174405813217163,-0.598516047000885,0.1421933472156524,0.1401819288730621,0.0,0.0,0.1518022354673147,0.6834787056807183
-0.0387288108468055,1.132671594619751,-0.1666491329669952,-0.6127632856369019,0.1475689560174942,0.1075219362974166,0.0,0.0,0.8143377559997662,0.7077980360241274
-0.0405756011605262,1.119259238243103,-0.1879170387983322,-0.5964248180389404,0.1508011817932129,0.0646502897143364,0.0,0.0,0.4825947727545441,0.5319194706270505
-0.042632769793272,1.1060805320739746,-0.2071922570466995,-0.5858713388442993,0.1522833704948425,0.0296439174562692,0.0,0.0,-0.3230866085681771,-0.7727115072197582
-0.04477109760046,1.0922300815582275,-0.2165218293666839,-0.6158482432365417,0.1549620777368545,0.0535741373896598,0.0,0.0,0.2070558861760989,0.7060492686501574
-0.0470768921077251,1.078605890274048,-0.2313573658466339,-0.6055997610092163,0.1557521820068359,0.0158020369708538,0.0,0.0,-0.2208948306301936,-0.9730876149488557
-0.04949951171875,1.064305305480957,-0.2450885027647018,-0.6358802318572998,0.1585708558559417,0.0563739016652107,0.0,0.0,0.0214553847139877,-0.7236442476683947
-0.0520658493041992,1.0497688055038452,-0.2605597078800201,-0.6464863419532776,0.162494346499443,0.078469879925251,0.0,0.0,-0.1358046638878167,0.9737926109126832
-0.0545817390084266,1.034599781036377,-0.2531500458717346,-0.6743476390838623,0.1640660464763641,0.0314338020980358,0.0,0.0,-0.9912499189376832,0.9960190057754515
-0.0570570938289165,1.0187793970108032,-0.2470381557941436,-0.7030820250511169,0.1635700166225433,-0.0099205905571579,0.0,0.0,-0.9825528860092164,0.9760735034942628
-0.0594969764351844,1.0023213624954224,-0.2414659261703491,-0.7311890721321106,0.1610487550497055,-0.0504253804683685,0.0,0.0,-0.9439058899879456,0.9980989694595336
-0.0618966110050678,0.9852089881896972,-0.2353326082229614,-0.7600573897361755,0.1564137488603592,-0.0927000790834426,0.0,0.0,-0.7323406934738159,0.997839093208313
-0.0642482787370681,0.9674553275108336,-0.2281377762556076,-0.7883283495903015,0.1493955999612808,-0.140362873673439,0.0,0.0,-0.5595465898513794,0.9981695413589478
-0.066553309559822,0.9490655660629272,-0.2210714370012283,-0.8164079189300537,0.1399869173765182,-0.1881740540266037,0.0,0.0,-0.3865876197814941,0.9683172702789308
-0.0688196197152137,0.930025041103363,-0.2149944603443145,-0.8451958894729614,0.1284013539552688,-0.2317115068435669,0.0,0.0,-0.0029608011245727,0.7961665391921997
-0.0710553154349327,0.910343050956726,-0.2098987996578216,-0.8736375570297241,0.1147957295179367,-0.2721123993396759,0.0,0.0,-0.3181933164596557,0.8064050674438477
-0.073269173502922,0.890020489692688,-0.2058301270008087,-0.9021044373512268,0.0993575677275657,-0.3087634146213531,0.0,0.0,0.5845036506652832,0.3610010147094726
-0.0755513161420822,0.8699128031730652,-0.2124450653791427,-0.892698347568512,0.0837218910455703,-0.3127133548259735,0.0,0.0,-0.1013754606246948,0.724433183670044
-0.0778253525495529,0.8491583466529846,-0.2100876867771148,-0.92153799533844,0.0665760934352874,-0.3429155945777893,0.0,0.0,0.9899070262908936,0.8062634468078613
-0.0799556747078895,0.8287103176116943,-0.1941128671169281,-0.9080650806427002,0.0478655472397804,-0.3742109835147857,0.0,0.0,0.9717230796813964,-0.6851090788841248
-0.0820735916495323,0.8081627488136292,-0.1942352503538131,-0.9127572178840636,0.0305196437984704,-0.3469181954860687,0.0,0.0,0.907508134841919,-0.7519777417182922
-0.0841863602399826,0.7878730893135071,-0.1951911747455597,-0.9015064239501952,0.0146393124014139,-0.3176066875457763,0.0,0.0,0.9744884967803956,-0.4618189334869385
-0.0863947868347168,0.7674517035484314,-0.2042073011398315,-0.9075332283973694,-0.001777091412805,-0.3283283114433288,0.0,0.0,0.9930756092071532,-0.7335787415504456
-0.08864326775074,0.7469687461853027,-0.2095347642898559,-0.9104346036911012,-0.0168983433395624,-0.3024249374866485,0.0,0.0,0.9773037433624268,-0.5602192282676697
-0.0908929854631424,0.7266251444816589,-0.2107039988040924,-0.90438312292099,-0.030986538156867,-0.281763881444931,0.0,0.0,0.9917402267456056,-0.8502436876296997
-0.0933706313371658,0.7071483135223389,-0.2345935553312301,-0.8659642934799194,-0.0439962893724441,-0.2601949572563171,0.0,0.0,0.9816555976867676,-0.5712898969650269
-0.0960653275251388,0.6884476542472839,-0.2566598057746887,-0.8315683007240295,-0.0566535368561744,-0.2531450092792511,0.0,0.0,0.5916359424591064,0.5291541814804077
-0.0987575501203537,0.669818103313446,-0.2550062537193298,-0.828575849533081,-0.0707171633839607,-0.281272292137146,0.0,0.0,0.5087670087814331,0.6945836544036865
-0.1012601852416992,0.6512886881828308,-0.2346478700637817,-0.8243352770805359,-0.0861790627241134,-0.3092382550239563,0.0,0.0,0.9317172765731812,-0.854995608329773
-0.1038755401968956,0.6334117650985718,-0.247218370437622,-0.7954136729240417,-0.1003717556595802,-0.2838541567325592,0.0,0.0,0.4473154544830322,-0.1343315243721008
-0.1064034476876258,0.6154428124427795,-0.2386472523212433,-0.7996314167976379,-0.1144046485424041,-0.2806577086448669,0.0,0.0,0.7231205701828003,0.2708607912063598
-0.1088801398873329,0.5980541706085205,-0.2332983464002609,-0.7739952206611633,-0.1287006288766861,-0.2859195470809936,0.0,0.0,-0.5169795751571655,0.2416807413101196
-0.1114045158028602,0.5800065994262695,-0.2378143817186355,-0.8034370541572571,-0.1432700902223587,-0.2913892567157745,0.0,0.0,0.8925832509994507,-0.6290165781974792
-0.1140654534101486,0.5621347427368164,-0.2521842122077942,-0.7957048416137695,-0.1571583598852157,-0.2777653634548187,0.0,0.0,0.956578254699707,0.3516860008239746
-0.1165170669555664,0.5449760556221008,-0.231532409787178,-0.7641056180000305,-0.170794129371643,-0.2727153897285461,0.0,0.0,0.2718440294265747,-0.6373236775398254
-0.1188623458147049,0.5279109477996826,-0.2221521586179733,-0.759918212890625,-0.1832090616226196,-0.2482987940311432,0.0,0.0,0.2706936597824096,-0.8122026920318604
-0.121139146387577,0.5111281275749207,-0.2167572081089019,-0.7472885847091675,-0.1941757351160049,-0.219333529472351,0.0,0.0,0.4661717414855957,-0.8121134042739868
-0.1234668716788292,0.4947591423988342,-0.2231633365154266,-0.7288021445274353,-0.2038564234972,-0.1936137527227401,0.0,0.0,0.7860546112060547,-0.0040673017501831
-0.125709056854248,0.4783011674880981,-0.2146431654691696,-0.7328118681907654,-0.2135170698165893,-0.1932128816843032,0.0,0.0,0.6957674026489258,-0.7239373922348022
-0.1280138045549392,0.4622959792613983,-0.2218994796276092,-0.7126047015190125,-0.222179964184761,-0.173257902264595,0.0,0.0,0.6689739227294922,-0.3428313732147217
-0.1301318109035492,0.4463534951210022,-0.2035967409610748,-0.7098104953765869,-0.2304856181144714,-0.1661133170127868,0.0,0.0,0.92594575881958,-0.553899347782135
-0.1321508437395095,0.4307996928691864,-0.1946943700313568,-0.6924248337745667,-0.2378017604351043,-0.1463227570056915,0.0,0.0,0.7789778709411621,-0.9528160095214844
-0.134183794260025,0.4152307212352752,-0.1977971494197845,-0.6928536891937256,-0.2433890998363495,-0.1117468625307083,0.0,0.0,0.9685430526733398,-0.7719734907150269
-0.1363120079040527,0.400106132030487,-0.208319753408432,-0.6729556918144226,-0.2479712218046188,-0.0916428118944168,0.0,0.0,0.9130423069000244,0.0735242366790771
-0.1382237374782562,0.3857522308826446,-0.1866059452295303,-0.6387282609939575,-0.2526199519634247,-0.0929747447371482,0.0,0.0,0.7525029182434082,-0.1540238857269287
-0.1400244683027267,0.3711550831794739,-0.1757440865039825,-0.6495141386985779,-0.2570365369319916,-0.0883314609527587,0.0,0.0,0.8907232284545898,-0.807634174823761
-0.1416550576686859,0.3573344051837921,-0.1602539420127868,-0.6147494912147522,-0.2599006295204162,-0.0572816841304302,0.0,0.0,0.9783117771148682,-0.7968491911888123
-0.1433708220720291,0.3437419831752777,-0.1699348390102386,-0.6043984889984131,-0.2615717053413391,-0.0334222242236137,0.0,0.0,0.986903190612793,-0.4726204872131347
-0.1450336426496505,0.3307108879089355,-0.1640219390392303,-0.5795676112174988,-0.2638877332210541,-0.0463206842541694,0.0,0.0,0.970515251159668,-0.7125644087791443
-0.1465698182582855,0.3181009292602539,-0.1527382135391235,-0.5606030225753784,-0.2647848427295685,-0.0179421138018369,0.0,0.0,0.9469231367111206,-0.0305812358856201
-0.148043155670166,0.3063296675682068,-0.1456633806228637,-0.5234676003456116,-0.2664909362792969,-0.0341220572590827,0.0,0.0,0.9722473621368408,0.1773818731307983
-0.1493014395236969,0.2948596775531769,-0.1244624480605125,-0.5100247263908386,-0.267883688211441,-0.027854923158884,0.0,0.0,0.9487202167510986,-0.05973881483078
-0.1505269110202789,0.2834110856056213,-0.1209381967782974,-0.5091235041618347,-0.2695377469062805,-0.0330811813473701,0.0,0.0,0.9279024600982666,0.2836842536926269
-0.1516259163618087,0.2718175053596496,-0.1085878163576126,-0.5155146718025208,-0.2708866000175476,-0.0269770715385675,0.0,0.0,0.752699613571167,-0.9590800404548644
-0.1527902632951736,0.2601187229156494,-0.1169123873114585,-0.5198584198951721,-0.2704000771045685,0.0097306240350008,0.0,0.0,0.9930453300476074,-0.2703319787979126
-0.1537595689296722,0.2491452544927597,-0.0973357632756233,-0.4876370728015899,-0.2699896693229675,0.0082082459703087,0.0,0.0,0.9900391101837158,-0.2287366986274719
-0.1544246673583984,0.2388917803764343,-0.0673332065343856,-0.4555588960647583,-0.2691459655761719,0.0168740916997194,0.0,0.0,0.8945345878601074,-0.4183070659637451
-0.1550151854753494,0.2293828874826431,-0.0593028850853443,-0.422573059797287,-0.2688929736614227,0.0050597079098224,0.0,0.0,0.7667403221130371,-0.6716145873069763
-0.1557588577270507,0.2197982370853424,-0.0756178870797157,-0.4257555902004242,-0.2676117718219757,0.0256240218877792,0.0,0.0,0.9262534379959106,-0.8683325052261353
-0.1563239097595214,0.2108988910913467,-0.0596255175769329,-0.3949598670005798,-0.2644256353378296,0.0637230947613716,0.0,0.0,-0.036741554737091,-0.7367201447486877
-0.1570048332214355,0.2013641744852066,-0.0729616954922676,-0.4228942096233368,-0.2594399154186249,0.0997143536806106,0.0,0.0,0.7531027793884277,0.4962236881256103
-0.1576073616743087,0.1922326385974884,-0.0649511665105819,-0.4050239026546478,-0.2546482384204864,0.0958335325121879,0.0,0.0,0.4669657945632934,0.0567362308502197
-0.1581136733293533,0.1833443790674209,-0.055372804403305,-0.3942178189754486,-0.2498128861188888,0.0967073738574981,0.0,0.0,0.6923997402191162,-0.1729755997657776
-0.1584357321262359,0.1746272593736648,-0.0374712124466896,-0.3865440487861633,-0.2444538623094558,0.1071807518601417,0.0,0.0,0.0098954439163208,-0.5876760482788086
-0.1587867736816406,0.1655579656362533,-0.0416825599968433,-0.4019990861415863,-0.237764686346054,0.1337834149599075,0.0,0.0,0.801506757736206,0.4456157684326172
-0.1589852273464203,0.1564313024282455,-0.0270495265722274,-0.4044893980026245,-0.2304623275995254,0.1460475474596023,0.0,0.0,0.961634635925293,0.7266631126403809
-0.158838465809822,0.1475483328104019,0.0083166547119617,-0.3938181698322296,-0.2240126729011535,0.1289930045604705,0.0,0.0,0.8287317752838135,-0.5432569980621338
-0.158525750041008,0.1385974735021591,0.0231816247105598,-0.3966088891029358,-0.2158326059579849,0.1636014133691787,0.0,0.0,0.828850507736206,-0.0080199241638183
-0.1580896377563476,0.1302053779363632,0.03534721955657,-0.3717926442623138,-0.2074864655733108,0.1669229120016098,0.0,0.0,0.8371288776397705,0.0935970544815063
-0.157494455575943,0.1223791912198066,0.0508804433047771,-0.3466409146785736,-0.1987703740596771,0.1743214577436447,0.0,0.0,0.6336677074432373,-0.2593334317207336
-0.1566962301731109,0.1148249506950378,0.0703695192933082,-0.3345024287700653,-0.1892587095499038,0.1902329176664352,0.0,0.0,0.7158362865447998,-0.4859300851821899
-0.1557790786027908,0.1070792973041534,0.0815204828977584,-0.3429822623729706,-0.1790220141410827,0.2047338485717773,0.0,0.0,0.614016056060791,-0.3544813394546509
-0.1548712700605392,0.0994204133749008,0.0805456340312957,-0.3391924798488617,-0.1687682121992111,0.2050760090351104,0.0,0.0,0.9643537998199464,-0.0455516576766967
-0.1537390649318695,0.0925919413566589,0.1022296696901321,-0.3022765815258026,-0.1577810645103454,0.2197431623935699,0.0,0.0,0.5746524333953857,-0.5900481939315796
-0.1526384353637695,0.085922747850418,0.097660981118679,-0.2951408624649048,-0.1453894525766372,0.247832104563713,0.0,0.0,0.7688844203948975,-0.0455547571182251
-0.15159273147583,0.0798859894275665,0.0924681276082992,-0.2671631872653961,-0.1333213895559311,0.2413616627454757,0.0,0.0,0.90476655960083,0.3420252799987793
-0.1503867208957672,0.0743648633360862,0.107696533203125,-0.2442803978919983,-0.1204850226640701,0.2567272782325744,0.0,0.0,0.4786524772644043,-0.2521100044250488
-0.1491934806108474,0.0691919922828674,0.1063101291656494,-0.2289056479930877,-0.1075553819537162,0.2585928738117218,0.0,0.0,0.8226253986358643,-0.5373071432113647
-0.1480956077575683,0.064617283642292,0.0956260040402412,-0.2023586332798004,-0.0935024321079254,0.2810591161251068,0.0,0.0,0.5918571949005127,0.6237592697143555
-0.146975040435791,0.0600939355790615,0.0988611727952957,-0.2002665996551513,-0.0804184898734092,0.26167893409729,0.0,0.0,0.7281930446624756,0.6428653001785278
-0.1459292471408844,0.055861197412014,0.0926172360777854,-0.1875210106372833,-0.0685880035161972,0.2366099804639816,0.0,0.0,0.7159935235977173,0.7011299133300781
-0.1450051367282867,0.0517920367419719,0.0818836465477943,-0.1803994476795196,-0.0581763312220573,0.2082333266735077,0.0,0.0,0.7012667655944824,0.8501499891281128
-0.1438939124345779,0.0481586083769798,0.1017303317785263,-0.1611444652080536,-0.0488895140588283,0.1857363730669021,0.0,0.0,0.3024245500564575,0.4414446353912353
-0.142763614654541,0.0442965142428875,0.1030313149094581,-0.1713538169860839,-0.0390125289559364,0.1975399553775787,0.0,0.0,0.7274351119995117,0.8945014476776123
-0.1414056718349456,0.040961991995573,0.1269407570362091,-0.1479973196983337,-0.0302682295441627,0.1748859584331512,0.0,0.0,0.1739495992660522,0.6678121089935303
-0.1400387734174728,0.0377969108521938,0.1288186013698578,-0.1405310928821563,-0.0224973503500223,0.1554178297519683,0.0,0.0,0.1350836753845214,0.2388503551483154
-0.1386024504899978,0.0348477698862552,0.1349042356014251,-0.1309688240289688,-0.0138883851468563,0.1721794307231903,0.0,0.0,0.0978026390075683,0.3241386413574219
-0.1371514350175857,0.0318142287433147,0.1357512176036834,-0.1347678154706955,-0.0046551926061511,0.184663787484169,0.0,0.0,0.114977478981018,0.2826738357543945
-0.1357431411743164,0.0289461947977542,0.131087988615036,-0.1274612993001938,0.0049498188309371,0.1921003460884094,0.0,0.0,0.3623371124267578,0.765225887298584
-0.1342613250017166,0.0263991691172122,0.1395091414451599,-0.1132538542151451,0.0135095687583088,0.1711953580379486,0.0,0.0,0.2194902896881103,0.3779271841049194
-0.1327636688947677,0.0237000808119773,0.140405923128128,-0.120072029531002,0.0227468479424715,0.1847454160451889,0.0,0.0,-0.0718427896499633,0.4913532733917236
-0.1313042640686035,0.0203403085470199,0.136170744895935,-0.1495018154382705,0.0323899537324905,0.1928626000881195,0.0,0.0,0.8694682121276855,0.566095232963562
-0.1300109922885894,0.0171862468123435,0.1207247748970985,-0.1403905749320984,0.0408843122422695,0.1698874831199646,0.0,0.0,0.6198149919509888,0.4256529808044433
-0.1287977248430252,0.0141984792426228,0.1124020218849182,-0.1330589801073074,0.049692764878273,0.1761687397956848,0.0,0.0,0.4837015867233276,0.6155939102172852
-0.1275696754455566,0.0112720103934407,0.1146628707647323,-0.1303565353155136,0.0577456057071685,0.1610570251941681,0.0,0.0,0.536898136138916,0.8578228950500488
-0.1262684762477874,0.0089342333376407,0.142074316740036,-0.1034770235419273,0.0459402725100517,-0.236090749502182,0.0,1.0,0.1115247011184692,-0.0539101958274841
-0.1250101029872894,0.0072035645134747,0.1529963016510009,-0.0763063132762909,0.0190949328243732,-0.5369253754615784,0.0,1.0,-0.1068199276924133,-0.7194217443466187
-0.1237900704145431,0.0047997687943279,0.1468189358711242,-0.1067021042108535,-0.0054012574255466,-0.4899238049983978,0.0,1.0,0.4414116144180298,-0.0418044328689575
-0.1225129142403602,0.0021497106645256,0.1522619277238845,-0.1180487424135208,-0.0296403635293245,-0.4847822785377502,0.0,0.0,-0.1113898754119873,-0.927889883518219
