x_pos,y_pos,x_vel,y_vel,angle,ang_vel,leg_1,leg_2,main_booster,lat_booster
-0.0015439987182617,1.402923822402954,-0.1557271480560302,-0.3553964793682098,0.0011775682214647,0.0231855567544698,0.0,0.0,-0.5932903893504136,0.4292130258019173
-0.0031101226340979,1.394249677658081,-0.1571683287620544,-0.3855144679546356,0.0017184065654873,0.0108184861019253,0.0,0.0,-0.2448154574823988,0.2391185357617492
-0.0046996115706861,1.3848743438720703,-0.158886432647705,-0.4166831970214844,0.0016543939709663,-0.0012803378049284,0.0,0.0,-0.4940040637088145,0.8848953429147522
-0.0062579154036939,1.3747953176498413,-0.1537348181009292,-0.4479528367519378,-0.0004179945972282,-0.0414515510201454,0.0,0.0,-0.0940230756289652,0.4662405909337821
-0.0078421588987112,1.3640155792236328,-0.1557261198759079,-0.4790987074375152,-0.0030917068943381,-0.0534795708954334,0.0,0.0,-0.8223838606099771,0.036786377976912
-0.0094538684934377,1.3525352478027344,-0.1578602343797683,-0.5102447271347046,-0.0063664657063782,-0.0655008405447006,0.0,0.0,-0.1189287963121561,0.9357349339470012
-0.0110235214233398,1.3403539657592771,-0.151245892047882,-0.541429340839386,-0.0120235849171876,-0.113152839243412,0.0,0.0,0.7744882582362758,-0.7537689712616972
-0.0124992374330759,1.328514575958252,-0.1431518197059631,-0.526235818862915,-0.0163894183933734,-0.0873244479298591,0.0,0.0,0.5313052696822935,0.7885685687550733
-0.0139441490173339,1.3171454668045044,-0.1378749310970306,-0.5053817629814148,-0.0229360964149236,-0.130945473909378,0.0,0.0,-0.0303759577043771,-0.0552312364334182
-0.015422249212861,1.305076241493225,-0.1405913233757019,-0.5365370512008667,-0.0300753060728311,-0.1427973210811615,0.0,0.0,0.4362998947223286,-0.6866468701717022
-0.0168909076601266,1.293081283569336,-0.1405836194753646,-0.53324955701828,-0.0362847484648227,-0.1242002099752426,0.0,0.0,-0.045606797045163,0.5462727721522757
-0.0183476451784372,1.2803826332092283,-0.1375763118267059,-0.5646024942398071,-0.0442949756979942,-0.1602193266153335,0.0,0.0,0.2308237153430883,0.2145474093069423
-0.019721794873476,1.267758846282959,-0.1291987299919128,-0.5613189339637756,-0.0524327345192432,-0.1627701967954635,0.0,0.0,-0.7144856236725148,-0.6122680642979621
-0.0211779586970806,1.2544331550598145,-0.137893795967102,-0.5925447344779968,-0.0600810833275318,-0.1529808342456817,0.0,0.0,-0.0565381740341062,0.572386494924245
-0.0226187705993652,1.2404091358184814,-0.1343622654676437,-0.6237122416496277,-0.0697128623723983,-0.1926533281803131,0.0,0.0,-0.9640935319881688,-0.4534436408993139
-0.0241015441715717,1.225685954093933,-0.1379761844873428,-0.6548694968223572,-0.0799228698015213,-0.2042185813188552,0.0,0.0,-0.1447646677632161,-0.3253284965299403
-0.0256276130676269,1.2102640867233276,-0.1417378485202789,-0.6860279440879822,-0.0907090753316879,-0.2157435715198516,0.0,0.0,0.8427881744192496,-0.1903236736374004
-0.0270022395998239,1.194746494293213,-0.1267853081226349,-0.6903564929962158,-0.101323053240776,-0.2122988700866699,0.0,0.0,-0.3058789551105654,0.3613109251580639
-0.0284231193363666,1.178529977798462,-0.1308404356241226,-0.7215224504470825,-0.1125069186091423,-0.2236972749233245,0.0,0.0,0.4270958839106742,0.805248475062458
-0.0298511497676372,1.162346601486206,-0.1292756199836731,-0.7203343510627747,-0.1259714514017105,-0.2693150341510772,0.0,0.0,-0.7751176983902146,-0.5984090814286162
-0.0313645377755165,1.145477056503296,-0.1382125914096832,-0.7509247064590454,-0.139053463935852,-0.2616640925407409,0.0,0.0,0.2801510737919175,-0.69142205178467
-0.0329248420894146,1.1284244060516355,-0.1437720358371734,-0.759086549282074,-0.151299312710762,-0.2449391186237335,0.0,0.0,0.0637205988192648,0.8549679337971025
-0.0343200676143169,1.111155390739441,-0.12504543364048,-0.7690436840057373,-0.1657881587743759,-0.2898029386997223,0.0,0.0,0.8637394201658071,-0.345063706908601
-0.0356319434940815,1.0936909914016724,-0.1165663003921508,-0.7778929471969604,-0.1804581433534622,-0.2934263348579407,0.0,0.0,-0.172516732731724,-0.0265363522474334
-0.0369975082576274,1.0755298137664795,-0.1214397102594375,-0.809070885181427,-0.1956715881824493,-0.3042961061000824,0.0,0.0,-0.5192264826797899,0.7748128772141456
-0.038374900817871,1.0566420555114746,-0.1209420412778854,-0.8417606353759766,-0.2126004695892334,-0.338577538728714,0.0,0.0,0.1085893995879934,-0.8875315636744342
-0.0397707000374794,1.037799835205078,-0.1240696758031845,-0.8397341966629028,-0.2282734960317611,-0.3134607672691345,0.0,0.0,0.2628358083083577,-0.7831413793746999
-0.0412505157291889,1.019250750541687,-0.1334550678730011,-0.8267280459403992,-0.2430102229118347,-0.2947344481945038,0.0,0.0,0.9037429271469886,0.7370902652809546
-0.0426747314631938,1.001348853111267,-0.1256298571825027,-0.7985032796859741,-0.2601261734962463,-0.3423190712928772,0.0,0.0,-0.3935551462782058,-0.1921755905754516
-0.0441585555672645,0.9827520847320556,-0.1311546862125396,-0.8296822905540466,-0.2777587175369262,-0.352651298046112,0.0,0.0,0.7969713592235002,0.8292129382138093
-0.0453640930354595,0.9647621512413024,-0.1013350337743759,-0.8033336400985718,-0.2975320518016815,-0.3954665958881378,0.0,0.0,0.6798045635223389,-0.96917325258255
-0.0466593727469444,0.9467841982841492,-0.111731544137001,-0.8027639985084534,-0.3159537017345428,-0.3684331476688385,0.0,0.0,0.7972259521484375,-0.982273817062378
-0.0479127876460552,0.9294463992118835,-0.1089786291122436,-0.7742294073104858,-0.3329977989196777,-0.3408816456794739,0.0,0.0,0.3996150493621826,-0.9770168662071228
-0.049263097345829,0.9119063019752502,-0.1201409250497818,-0.7830712795257568,-0.3485785722732544,-0.3116162419319153,0.0,0.0,0.4484692811965942,-0.9946162700653076
-0.0505471229553222,0.8944790959358215,-0.1151126846671104,-0.7778263092041016,-0.3625843822956085,-0.2801161110401153,0.0,0.0,-0.5820986032485962,-0.9602630138397216
-0.0519630424678325,0.8764013051986694,-0.1297287046909332,-0.8065121173858643,-0.3751354813575744,-0.2510218918323517,0.0,0.0,0.2411533594131469,-0.8862241506576538
-0.0534066185355186,0.8581505417823792,-0.133824810385704,-0.8139493465423584,-0.3863357901573181,-0.2240058928728103,0.0,0.0,-0.1543667316436767,-0.9262874722480774
-0.0549782738089561,0.8392477631568909,-0.1479367166757583,-0.8426571488380432,-0.3961821794509887,-0.1969277262687683,0.0,0.0,0.578859806060791,-0.991218328475952
-0.0564147941768169,0.8208416700363159,-0.1359487324953079,-0.8202254176139832,-0.4044387936592102,-0.1651324182748794,0.0,0.0,0.2718360424041748,-0.9830108880996704
-0.0577826499938964,0.8024145364761353,-0.1306109726428985,-0.8207592368125916,-0.411073625087738,-0.1326968520879745,0.0,0.0,0.4028737545013428,-0.9634517431259156
-0.0591175071895122,0.7843133807182312,-0.1287588775157928,-0.8058792948722839,-0.4161718189716339,-0.1019634380936622,0.0,0.0,0.2100262641906738,-0.9815576672554016
-0.060340691357851,0.7660201787948608,-0.1191269010305404,-0.8139817714691162,-0.4196261167526245,-0.0690860748291015,0.0,0.0,0.1696854829788208,-0.976050853729248
-0.0615423209965229,0.7473198175430298,-0.1184746846556663,-0.8316308856010437,-0.4214512407779693,-0.0365026667714118,0.0,0.0,0.1289665699005127,-0.982413113117218
-0.0626640319824218,0.7284110188484192,-0.1120123267173767,-0.8404342532157898,-0.4216176271438598,-0.0033278185874223,0.0,0.0,0.3070259094238281,-0.9720242023468018
-0.063867948949337,0.7091814875602722,-0.1217760667204856,-0.8542362451553345,-0.4201307892799377,0.0297370310872793,0.0,0.0,0.121206521987915,-0.9794299602508544
-0.0650897994637489,0.6895789504051208,-0.1251266002655029,-0.870356559753418,-0.4169520735740661,0.0635740235447883,0.0,0.0,0.5290193557739258,-0.93611878156662
-0.0662257224321365,0.6698457598686218,-0.1181236058473587,-0.8757050037384033,-0.4120693504810333,0.0976545140147209,0.0,0.0,0.2477487325668335,-0.9951762557029724
-0.0673408508300781,0.6503955125808716,-0.1177193522453308,-0.8626647591590881,-0.4053902626037597,0.1335814893245697,0.0,0.0,0.6053849458694458,-0.9956172704696656
-0.0684294700622558,0.6314427852630615,-0.1166507825255394,-0.8401381373405457,-0.3970297574996948,0.1672097742557525,0.0,0.0,0.2163376808166504,-0.9682762026786804
-0.0695328712463378,0.612361490726471,-0.1198171749711036,-0.8454362154006958,-0.3868970274925232,0.2026542872190475,0.0,0.0,0.6138055324554443,-0.9017686247825624
-0.0704178810119628,0.5933079123497009,-0.0997877642512321,-0.8438089489936829,-0.3748967051506042,0.2400066554546356,0.0,0.0,0.2858916521072387,-0.6984269022941589
-0.0712614059448242,0.5744186639785767,-0.0968220978975296,-0.8363069891929626,-0.3616924285888672,0.2640857994556427,0.0,0.0,0.764286994934082,-0.5143738389015198
-0.0719312652945518,0.5554506778717041,-0.0807200744748115,-0.8396241664886475,-0.3472281694412231,0.2892850339412689,0.0,0.0,0.74278724193573,-0.0137462019920349
-0.0723834037780761,0.5369701981544495,-0.058935809880495,-0.8181121349334717,-0.3328601419925689,0.2873607277870178,0.0,0.0,0.821234941482544,-0.3056502342224121
-0.0725765228271484,0.5184734463691711,-0.033754363656044,-0.818820595741272,-0.3178136348724365,0.3009302318096161,0.0,0.0,0.8669954538345337,-0.5915886759757996
-0.0728295296430587,0.5001113414764404,-0.0406139716506004,-0.8128119707107544,-0.3019211292266845,0.3178492784500122,0.0,0.0,0.9290915727615356,0.0995230674743652
-0.0727723091840744,0.4823357164859772,-0.0101677402853965,-0.7868181467056274,-0.2855390310287475,0.3276422321796417,0.0,0.0,0.6644089221954346,-0.0840535759925842
-0.0724617019295692,0.4647819101810455,0.0144548742100596,-0.7770094275474548,-0.2684997022151947,0.3407871127128601,0.0,0.0,0.8117470741271973,-0.0043054223060607
-0.0719038024544715,0.447804182767868,0.038695253431797,-0.7515226602554321,-0.2510345876216888,0.3493025600910187,0.0,0.0,0.2623353004455566,0.3452054262161255
-0.0713239684700965,0.4310234189033508,0.0409864261746406,-0.7429999709129333,-0.233759194612503,0.3455081582069397,0.0,0.0,0.8078669309616089,0.2615118026733398
-0.0706665962934494,0.4141173362731933,0.0483125410974025,-0.7487109303474426,-0.2161126285791397,0.3529316782951355,0.0,0.0,0.8697948455810547,0.1908291578292846
-0.0700202956795692,0.3977136611938476,0.0475162714719772,-0.726640522480011,-0.1988465338945388,0.3453217148780823,0.0,0.0,0.5289201736450195,0.3983480930328369
-0.0692375153303146,0.3812826871871948,0.0603993758559227,-0.7279627919197083,-0.1808754354715347,0.3594216406345367,0.0,0.0,0.9463322162628174,0.5960445404052734
-0.0683192238211631,0.3652002215385437,0.0748104751110076,-0.7127925753593445,-0.163810059428215,0.3413076102733612,0.0,0.0,0.6374460458755493,0.6336420774459839
-0.0673482865095138,0.3489889502525329,0.0810242816805839,-0.7188052535057068,-0.1477588862180709,0.3210233747959137,0.0,0.0,0.9144937992095948,0.7765977382659912
-0.0664393454790115,0.3331170678138733,0.0764315277338028,-0.7040466070175171,-0.1333371847867965,0.2884340584278106,0.0,0.0,0.974029779434204,0.5883536338806152
-0.0653893500566482,0.3180587887763977,0.091310940682888,-0.6680910587310791,-0.1197145953774452,0.2724518775939941,0.0,0.0,0.9314852952957152,0.064143419265747
-0.0642714500427246,0.302793800830841,0.0973005145788192,-0.677345871925354,-0.1053244173526763,0.2878037393093109,0.0,0.0,0.9692831039428712,-0.097477376461029
-0.0630824118852615,0.2883432805538177,0.1039060354232788,-0.6412582993507385,-0.0904352664947509,0.2977829277515411,0.0,0.0,0.8190102577209473,0.7020436525344849
-0.0619700439274311,0.2739773690700531,0.0975009500980377,-0.637710690498352,-0.0768320709466934,0.2720639705657959,0.0,0.0,0.8914344310760498,0.6057157516479492
-0.0609290115535259,0.2600818872451782,0.091477446258068,-0.6169764995574951,-0.0643385052680969,0.2498714476823806,0.0,0.0,0.973151445388794,0.5454685688018799
-0.0598241798579692,0.2465929388999939,0.0983992591500282,-0.5990307927131653,-0.0523955412209034,0.2388592064380645,0.0,0.0,0.9244537353515624,0.5006860494613647
-0.0588518157601356,0.2338931411504745,0.0862002894282341,-0.5640811324119568,-0.0414873100817203,0.2181648463010788,0.0,0.0,0.9304893016815186,0.8801193237304688
-0.0577522292733192,0.221494972705841,0.1000324040651321,-0.5507854223251343,-0.0316856019198894,0.1960340589284896,0.0,0.0,0.8797304630279541,0.5911974906921387
-0.0566967949271202,0.2090593129396438,0.0964322313666343,-0.5525318384170532,-0.0226928740739822,0.1798547208309173,0.0,0.0,0.9371013641357422,0.0390772819519043
-0.0556161887943744,0.1964926272630691,0.0980718806385994,-0.5583943128585815,-0.012835337780416,0.1971509903669357,0.0,0.0,0.9637088775634766,0.3482155799865722
-0.0546303763985633,0.1838323175907135,0.0882554426789283,-0.5626214742660522,-0.0026398808695375,0.2039089500904083,0.0,0.0,0.9962224960327148,0.3825435638427734
-0.053713608533144,0.1719103008508682,0.0808662623167038,-0.5298799872398376,0.0080348355695605,0.2134942561388015,0.0,0.0,0.9812488555908204,0.7784121036529541
-0.0526994690299034,0.1607661843299865,0.091383658349514,-0.4953761994838714,0.0179387517273426,0.1980782300233841,0.0,0.0,0.835132360458374,0.3656049966812134
-0.0518857948482036,0.1502810269594192,0.0713661015033721,-0.4661568403244018,0.0278175398707389,0.197575956583023,0.0,0.0,0.9052095413208008,0.5648617744445801
-0.0512552261352539,0.1396586298942566,0.0540833659470081,-0.4722970426082611,0.036687109619379,0.1773911416530609,0.0,0.0,0.9946036338806152,0.8085289001464844
-0.050600241869688,0.1297810226678848,0.0574519447982311,-0.4392247796058655,0.0446373000741004,0.1590039134025573,0.0,0.0,0.9396634101867676,0.6330651044845581
-0.0501087196171283,0.1202109679579734,0.0421286262571811,-0.4255607426166534,0.0515712909400463,0.1386801302433014,0.0,0.0,0.9478654861450196,0.9720786809921264
-0.0497081764042377,0.1111426651477813,0.0345195680856704,-0.4032344818115234,0.0570372156798839,0.1093186289072036,0.0,0.0,0.78348708152771,0.8489657640457153
-0.0493515953421592,0.1025137528777122,0.0312608852982521,-0.3836818635463714,0.0613838359713554,0.0869325175881385,0.0,0.0,0.9265398979187012,0.6576907634735107
-0.0489278808236122,0.0942154228687286,0.0384095385670661,-0.3689793944358825,0.0653061494231224,0.0784463807940483,0.0,0.0,0.9133942127227784,0.9593946933746338
-0.0484740249812603,0.0858114585280418,0.0426734611392021,-0.373630166053772,0.0679826140403747,0.0535296313464641,0.0,0.0,0.9530065059661864,0.9937366247177124
-0.0479013435542583,0.0774328112602233,0.0557356253266334,-0.3724539577960968,0.0695002451539039,0.0303524024784564,0.0,0.0,0.9866186380386353,0.9463897943496704
-0.0471542365849018,0.069409430027008,0.0740933418273925,-0.3566242754459381,0.0701116546988487,0.0122281443327665,0.0,0.0,0.9783315658569336,0.3683350086212158
-0.0463193878531456,0.0614101514220237,0.0814674943685531,-0.3556222915649414,0.0721195489168167,0.0401575155556201,0.0,0.0,0.9932936429977416,0.9611358642578124
-0.0455254539847373,0.0540811382234096,0.078680619597435,-0.3257678151130676,0.0728260055184364,0.014128990471363,0.0,0.0,0.9229724407196044,0.6678581237792969
-0.0447463989257812,0.0473878495395183,0.0778037533164024,-0.2974822223186493,0.0729305371642112,0.0020904536359012,0.0,0.0,0.9452071189880372,0.6843845844268799
-0.0438528060913085,0.04119523614645,0.0895879715681076,-0.2752180099487304,0.0727016180753707,-0.0045784907415509,0.0,0.0,0.8936659097671509,-0.4830340147018432
-0.0429084785282611,0.0348747335374355,0.0934772491455078,-0.2809542715549469,0.0736433565616607,0.018835075199604,0.0,0.0,0.9350531101226808,-0.6165228486061096
-0.042157270014286,0.028732119128108,0.0724583342671394,-0.2731396853923797,0.0762736275792121,0.0526052899658679,0.0,0.0,0.9524567127227784,0.9274241924285888
-0.0413338653743267,0.0234465226531028,0.0807052105665206,-0.2350020706653595,0.0778960287570953,0.0324481055140495,0.0,0.0,0.8745582103729248,0.6593400239944458
-0.040567111223936,0.0184290036559104,0.0757877975702285,-0.223045065999031,0.0787740796804428,0.0175611805170774,0.0,0.0,0.8818097114562988,0.8122957944869995
-0.0399898514151573,0.0140630817040801,0.0581431612372398,-0.1940183639526367,0.0783519223332405,-0.0084430072456598,0.0,0.0,0.5519441366195679,0.4883534908294678
-0.0394071564078331,0.0099869826808571,0.0576700493693351,-0.1811921149492263,0.0789495632052421,0.0119527885690331,0.0,0.0,0.646245002746582,0.8227167129516602
-0.0388995185494422,0.006335387006402,0.0512724593281745,-0.1622678935527801,0.0784474536776542,-0.0100423861294984,0.0,1.0,0.9727950096130372,0.8994400501251221
-0.0385284423828125,0.0036341524682939,0.0466813370585441,-0.1198443323373794,0.0681137144565582,-0.2077875584363937,0.0,1.0,0.7713325023651123,0.4821808338165283
-0.0382911674678325,0.0013736224500462,0.0440666899085044,-0.099678136408329,0.0479543097317218,-0.4032398760318756,0.0,1.0,0.4921350479125976,-0.0337749719619751
-0.0382302291691303,-0.0005258822347968,0.0339920781552791,-0.0837697610259056,0.0203609615564346,-0.5519163608551025,0.0,1.0,0.3207924365997314,0.0689847469329834
-0.0383131988346576,-0.0024022841826081,0.0226742103695869,-0.0832681655883789,-0.0102562867105007,-0.6123932600021362,1.0,1.0,0.6747856140136719,-0.4555996060371399
-0.0382019989192485,-0.0034084343351423,0.0274808965623378,-0.0451137349009513,-0.0255433656275272,-0.3046434223651886,1.0,1.0,0.629990816116333,-0.4892077445983886
-0.0379030220210552,-0.0039738798514008,0.0276290513575077,-0.0251033697277307,-0.0232630297541618,0.0456522367894649,1.0,0.0,-0.0709382891654968,0.1032444238662719
-0.0376636497676372,-0.0042732860893011,0.0186690129339694,-0.0132448887452483,-0.0180630218237638,0.104008175432682,1.0,1.0,-0.5806092023849487,0.3468413352966308
-0.037544060498476,-0.004179551731795,0.0085259405896067,0.0041955644264817,-0.0146669996902346,0.067928172647953,1.0,1.0,-0.4828461408615112,0.0794171094894409
-0.0374344810843467,-0.003740205662325,0.0076198265887796,0.0195680242031812,-0.0113893263041973,0.0655261352658271,1.0,1.0,-0.4506784677505493,0.1295778751373291
-0.0373377799987793,-0.0029885792173445,0.0074457512237131,0.0334202423691749,-0.0091839777305722,0.0441122502088546,1.0,1.0,-0.5575429797172546,0.3064212799072265
-0.0372618660330772,-0.001968624535948,0.0071045206859707,0.0453339181840419,-0.00870640296489,0.0095565663650631,1.0,1.0,-0.212711215019226,0.1412155628204345
-0.037109375,-0.0010673665674403,0.0083985961973667,0.0400801859796047,-0.0019437754526734,0.1352545917034149,1.0,1.0,-0.4971634149551391,0.6558918952941895
-0.0369413383305072,-0.0008232856052927,0.014883117750287,0.0108494209125638,-4.896000245935284e-05,0.0378947630524635,1.0,1.0,-0.3115317821502685,0.1055086851119995
-0.0368329063057899,-0.0008260035538114,0.0108429947867989,-0.0001193851639982,-5.036551738157869e-05,-2.8487760573625565e-05,1.0,1.0,-0.6909531950950623,0.0846364498138427
-0.036790657788515,-0.0008275056025013,0.0042256163433194,-6.753870547981933e-05,-5.114777741255239e-05,-1.6203966879402287e-05,1.0,1.0,-0.5101521015167236,-0.1347575187683105
-0.0367983803153038,-0.0008275056025013,-0.0007809601956978,-1.4370575627253857e-06,-3.944797936128453e-05,0.0002266908704768,1.0,1.0,-0.7677747011184692,-0.0540570020675659
-0.0368167869746685,-0.0008275771397165,-0.0018887892365455,-2.758791652013315e-06,-1.1231610187678598e-05,0.0005481120897457,1.0,1.0,-0.578748881816864,-0.1460117697715759
-0.0368264205753803,-0.0008275771397165,-0.0009766165167093,-1.6905755728657823e-06,3.371652383066248e-06,0.0002834252954926,1.0,1.0,-0.5373697876930237,0.0543634891510009
-0.0368266105651855,-0.0008275771397165,-2.101357313222252e-05,-4.1451876597875525e-08,3.723776671904489e-06,6.100531209085602e-06,1.0,1.0,-0.6417027711868286,0.1452337503433227
-0.0368235595524311,-0.0008275771397165,0.0003045961202587,5.279719630379986e-07,-7.782706461512134e-07,-8.840788359520957e-05,1.0,1.0,-0.4410433769226074,0.0626841783523559
