x_pos,y_pos,x_vel,y_vel,angle,ang_vel,leg_1,leg_2,main_booster,lat_booster
-0.0014335631858557,1.4032045602798462,-0.1451786458492279,-0.3429161608219147,0.0016323204617947,0.0321896634995937,0.0,0.0,-0.450172483921051,0.9686981439590454
-0.0026982307899743,1.3950875997543335,-0.1258987337350845,-0.3607527911663055,0.0010648652678355,-0.0113494750112295,0.0,0.0,0.1093868017196655,0.3182361125946045
-0.0037917136214673,1.3869571685791016,-0.109138585627079,-0.361350804567337,0.0008520406554453,-0.0042570601217448,0.0,0.0,-0.228562593460083,0.7250088453292847
-0.0047626495361328,1.3784042596817017,-0.0956325754523277,-0.3801254332065582,-0.0005872924230061,-0.0287893824279308,0.0,0.0,-0.3156103491783142,0.1085761785507202
-0.0056617734953761,1.369431495666504,-0.0883811861276626,-0.3987896144390106,-0.0020981698762625,-0.0302202217280864,0.0,0.0,-0.5810648798942566,0.8732398748397827
-0.0064101219177246,1.3600374460220337,-0.0710970312356948,-0.4175262451171875,-0.0058001037687063,-0.0740455090999603,0.0,0.0,-0.4390832185745239,-0.2356973886489868
-0.0070977210998535,1.3502235412597656,-0.0649552270770073,-0.43619304895401,-0.0095679108053445,-0.075363203883171,0.0,0.0,-0.7984471321105957,0.6272599697113037
-0.0076689720153808,1.3399909734725952,-0.0516806654632091,-0.4548279941082001,-0.014949532225728,-0.1076423078775405,0.0,0.0,-0.8184782266616821,-0.6392752528190613
-0.008242798037827,1.3293466567993164,-0.0531836673617363,-0.4731232821941376,-0.0190991461277008,-0.0829998105764389,0.0,0.0,0.0060017108917236,-0.7925936579704285
-0.0088288309052586,1.3189527988433838,-0.0559325627982616,-0.4619891345500946,-0.0217366516590118,-0.0527548789978027,0.0,0.0,-0.5174139142036438,-0.8697316646575928
-0.0094378469511866,1.3081413507461548,-0.0596755370497703,-0.4805269539356231,-0.0229511577636003,-0.0242921710014343,0.0,0.0,-0.8322924971580505,-0.6445527672767639
-0.0100627895444631,1.2969101667404177,-0.0623571574687957,-0.4991635382175445,-0.0230885613709688,-0.0027484220918267,0.0,0.0,-0.7307664752006531,-0.7107031345367432
-0.0107095716521143,1.285264253616333,-0.0656055584549903,-0.5175824165344238,-0.0221676211804151,0.018420536071062,0.0,0.0,-0.7413637638092041,-0.4744662642478943
-0.0113410949707031,1.2731982469558716,-0.0640483051538467,-0.5362487435340881,-0.0212894026190042,0.0175661481916904,0.0,0.0,-0.8305400013923645,-0.6008917689323425
-0.0120007516816258,1.2607197761535645,-0.0677367970347404,-0.5545739531517029,-0.0195354539901018,0.03508210927248,0.0,0.0,-0.702336311340332,-0.1618126034736633
-0.0126591678708791,1.2478214502334597,-0.0675840079784393,-0.5732405185699463,-0.017815614119172,0.0343999490141868,0.0,0.0,-0.60453861951828,-0.408841609954834
-0.0133234020322561,1.2345030307769775,-0.0681302100419998,-0.5919069647789001,-0.0161246694624423,0.0338222533464431,0.0,0.0,-0.5413132309913635,-0.1353441476821899
-0.0140002248808741,1.2207647562026978,-0.0693696588277816,-0.610573410987854,-0.0144580183550715,0.0333361662924289,0.0,0.0,-0.7339310646057129,-0.6839430928230286
-0.0147418025881052,1.2066140174865725,-0.0769704729318618,-0.6288983225822449,-0.0116714294999837,0.0557368621230125,0.0,0.0,-0.2390560507774353,-0.1878317594528198
-0.015509414486587,1.1920433044433594,-0.0795676633715629,-0.6475651264190674,-0.008900093846023,0.0554318502545356,0.0,0.0,-0.8555335998535156,-0.4568312168121338
-0.016309643164277,1.1770528554916382,-0.0828194469213485,-0.6662320494651794,-0.0061383871361613,0.0552393309772014,0.0,0.0,-0.5297491550445557,0.0900599956512451
-0.0171487815678119,1.1616424322128296,-0.0867076516151428,-0.6848989725112915,-0.0033815768547356,0.0551412925124168,0.0,0.0,0.2451388835906982,-0.1808077096939087
-0.0179338455200195,1.1464271545410156,-0.0817480534315109,-0.6762306094169617,-0.0001697889965726,0.0642413049936294,0.0,0.0,-0.8571841716766357,0.703452467918396
-0.0187076572328805,1.130784034729004,-0.0790554359555244,-0.6952510476112366,0.0014859118964523,0.0331170670688152,0.0,0.0,0.1024336814880371,-0.5277791619300842
-0.0196849815547466,1.1153663396835327,-0.1002872437238693,-0.6852359175682068,0.0040098773315548,0.0504838228225708,0.0,0.0,0.0961675643920898,0.4437086582183838
-0.0208227150142192,1.1002073287963867,-0.1158914119005203,-0.6737406253814697,0.0061010583303868,0.0418236441910266,0.0,0.0,-0.3321203589439392,0.0763214826583862
-0.0220273975282907,1.084628343582153,-0.122607409954071,-0.6924051642417908,0.0082115633413195,0.0422102436423301,0.0,0.0,-0.8534653186798096,0.8060896396636963
-0.0232539176940917,1.068638563156128,-0.1235505193471908,-0.7106635570526123,0.0090900864452123,0.0175707973539829,0.0,0.0,-0.5759674906730652,0.4238215684890747
-0.0245569236576557,1.052228927612305,-0.1312194168567657,-0.7293278574943542,0.0099960779771208,0.0181200299412012,0.0,0.0,-0.8882006406784058,0.2716048955917358
-0.0259407050907611,1.0353991985321045,-0.139324739575386,-0.7479921579360962,0.01093340665102,0.0187467597424983,0.0,0.0,-0.9338574409484864,0.0406374931335449
-0.0274091716855764,1.018149495124817,-0.1478402614593505,-0.7666565179824829,0.0119058284908533,0.0194484274834394,0.0,0.0,0.2568228244781494,-0.304201602935791
-0.0290294643491506,1.000978946685791,-0.1627767384052276,-0.7631421685218811,0.0126431817188858,0.0147472945973277,0.0,0.0,0.5018048286437988,0.3776710033416748
-0.03082618676126,0.0,-0.1801088452339172,-0.7332918047904968,0.0130755491554737,0.0086473319679498,0.0,0.0,0.7975757122039795,-0.2180554866790771
-0.03279285505414,0.9681482911109924,-0.1968267560005188,-0.7258545160293579,0.0132327070459723,0.0031430418603122,0.0,0.0,-0.4901024103164673,-0.1759322881698608
-0.0348581299185752,0.9513965845108032,-0.2067355662584304,-0.7445186972618103,0.0134388012811541,0.0041217384859919,0.0,0.0,-0.5439510941505432,0.0145812034606933
-0.0370248779654502,0.9342251420021056,-0.2169355452060699,-0.7631829380989075,0.0136970318853855,0.0051648584194481,0.0,0.0,-0.9075053930282592,-0.0318222641944885
-0.039295770227909,0.9166335463523864,-0.2274059355258941,-0.7818472385406494,0.0140105606988072,0.0062706647440791,0.0,0.0,-0.5813053846359253,0.2911438941955566
-0.0416731834411621,0.8986221551895142,-0.2381271868944168,-0.8005115389823914,0.0143824340775609,0.0074375993572175,0.0,0.0,-0.3644841909408569,0.6851946115493774
-0.0441090576350688,0.8801994323730469,-0.2427293956279754,-0.818776547908783,0.0135416453704237,-0.0168159957975149,0.0,0.0,-0.0198819041252136,0.8705328702926636
-0.0465837493538856,0.8613595962524414,-0.2448501586914062,-0.8373099565505981,0.0109525974839925,-0.0517808273434639,0.0,0.0,-0.157618761062622,0.9239450693130492
-0.0491113662719726,0.8421086668968201,-0.2486758977174759,-0.8555735349655151,0.0069187404587864,-0.0806773006916046,0.0,0.0,-0.4971785545349121,0.9451805353164672
-0.0516636855900287,0.8224369883537292,-0.248917669057846,-0.8742820024490356,0.0006900888402014,-0.1245730966329574,0.0,0.0,-0.4005695581436157,0.7978026866912842
-0.0542590133845806,0.8023372888565063,-0.2514382004737854,-0.8933372497558594,-0.0073082456365227,-0.1599664986133575,0.0,0.0,0.8811109066009521,0.9361014366149902
-0.0567687042057514,0.7827174067497253,-0.2412724792957306,-0.8720723390579224,-0.0168766714632511,-0.1913687884807586,0.0,0.0,0.5080233812332153,0.2361966371536255
-0.0594303123652935,0.7630829215049744,-0.2563751637935638,-0.8727866411209106,-0.0265386048704385,-0.1932384967803955,0.0,0.0,0.7893515825271606,0.9376202821731568
-0.0620736107230186,0.743557870388031,-0.252826988697052,-0.8680258989334106,-0.0378976464271545,-0.227181077003479,0.0,0.0,0.953479528427124,0.8601682186126709
-0.0646717995405197,0.7243935465812683,-0.2468419820070266,-0.8521196246147156,-0.0507248528301715,-0.2565439343452453,0.0,0.0,0.699524998664856,0.7881622314453125
-0.0674140006303787,0.7061101794242859,-0.2594997882843017,-0.8131581544876099,-0.0652751699090004,-0.2910067141056061,0.0,0.0,-0.3336822986602783,-0.110255479812622
-0.0702800750732421,0.6874095797538757,-0.2719931900501251,-0.8318396210670471,-0.0797371566295623,-0.2892400622367859,0.0,0.0,0.6546229124069214,0.7713940143585205
-0.0731928795576095,0.669046938419342,-0.275180459022522,-0.8170524835586548,-0.0956897437572479,-0.3190517723560333,0.0,0.0,0.3325800895690918,0.895869255065918
-0.0759847611188888,0.6509262323379517,-0.2615135312080383,-0.8065860271453857,-0.1132254227995872,-0.3507139086723327,0.0,0.0,0.6728405952453613,0.599337100982666
-0.078833483159542,0.6335081458091736,-0.2659831941127777,-0.7756751179695129,-0.132015511393547,-0.3758017420768738,0.0,0.0,0.2089664936065673,-0.5023893117904663
-0.0817194953560829,0.61614590883255,-0.2710444927215576,-0.7733027338981628,-0.1495181620121002,-0.3500527143478393,0.0,0.0,0.3845778703689575,0.8435573577880859
-0.0845637321472168,0.5993515849113464,-0.2653239369392395,-0.7484411001205444,-0.1686013787984848,-0.3816643059253692,0.0,0.0,0.9341670274734496,-0.8624312877655029
-0.0873189941048622,0.5829511880874634,-0.2587027847766876,-0.7309017181396484,-0.1854782551527023,-0.3375375866889953,0.0,0.0,0.4253648519515991,0.8818830251693726
-0.0901518836617469,0.5667368173599243,-0.264745831489563,-0.7230629324913025,-0.2041249573230743,-0.3729340434074402,0.0,0.0,0.2755516767501831,0.0796539783477783
-0.09291772544384,0.550988495349884,-0.2585609257221222,-0.7025191783905029,-0.2223313748836517,-0.364128053188324,0.0,0.0,0.2951587438583374,-0.6446470618247986
-0.0956286415457725,0.5355769991874695,-0.2547292113304138,-0.6875055432319641,-0.2389284670352935,-0.3319416046142578,0.0,0.0,0.3889977931976318,-0.1174216270446777
-0.0982445701956749,0.5207352042198181,-0.2456777989864349,-0.662299394607544,-0.2551275491714477,-0.3239814937114715,0.0,0.0,-0.4849220514297485,0.1542798280715942
-0.1009906753897667,0.5054765939712524,-0.2588639557361603,-0.6809825897216797,-0.2712178528308868,-0.321806252002716,0.0,0.0,0.147674560546875,-0.3601071834564209
-0.1037640571594238,0.4901582598686218,-0.2619243562221527,-0.6837483644485474,-0.2870336472988128,-0.3163163363933563,0.0,0.0,0.0638288259506225,-0.779816210269928
-0.1066700965166091,0.4751339554786682,-0.276876837015152,-0.6705119013786316,-0.3011858165264129,-0.28304323554039,0.0,0.0,0.346377968788147,-0.8899573683738708
-0.1095397025346756,0.4602730870246887,-0.2752369046211242,-0.6629600524902344,-0.3133231103420257,-0.242746040225029,0.0,0.0,0.6791396141052246,-0.8119326829910278
-0.1123839393258094,0.4459007978439331,-0.2745003700256347,-0.6409497857093811,-0.3236449360847473,-0.2064365148544311,0.0,0.0,0.837477445602417,-0.9526845812797546
-0.1152815818786621,0.4317675828933716,-0.2818464338779449,-0.629933774471283,-0.3319003283977508,-0.1651080697774887,0.0,0.0,0.8129417896270752,-0.8952922821044922
-0.1183084473013877,0.4182428121566772,-0.2963996529579162,-0.6025603413581848,-0.3384619951248169,-0.1312331408262252,0.0,0.0,-0.118780493736267,-0.7244405150413513
-0.1215170845389366,0.404333233833313,-0.3160900175571441,-0.619333803653717,-0.3434685170650482,-0.1001300364732742,0.0,0.0,0.8225849866867065,-0.4149039983749389
-0.1246640235185623,0.3904133439064026,-0.3104335367679596,-0.6196830868721008,-0.3479394018650055,-0.0894178450107574,0.0,0.0,0.6755497455596924,-0.4993621110916137
-0.1276222169399261,0.3772801160812378,-0.2917954623699188,-0.5846801400184631,-0.3521659672260284,-0.0845312774181366,0.0,0.0,0.8402707576751709,-0.1488480567932129
-0.1306290626525879,0.36452317237854,-0.2963279783725738,-0.5680517554283142,-0.35675910115242,-0.0918627828359603,0.0,0.0,0.6604452133178711,-0.3701913952827453
-0.1336169242858886,0.3523508608341217,-0.2941440641880035,-0.5421549677848816,-0.3616601526737213,-0.0980213060975074,0.0,0.0,0.2493435144424438,0.1309957504272461
-0.136548712849617,0.3404062986373901,-0.288755714893341,-0.5319957137107849,-0.3663340508937835,-0.093477688729763,0.0,0.0,0.4235924482345581,-0.3937320113182068
-0.1394557058811187,0.3291202187538147,-0.2858976125717163,-0.5028374195098877,-0.3714012801647186,-0.1013447493314743,0.0,0.0,-0.0774983763694763,-0.0293022990226745
-0.1424945890903473,0.3174139261245727,-0.2992207407951355,-0.5214999914169312,-0.3763479888439178,-0.0989343151450157,0.0,0.0,0.725304126739502,0.1875698566436767
-0.1455479562282562,0.3058765530586242,-0.3006412088871002,-0.5140186548233032,-0.3813366889953613,-0.0997738987207412,0.0,0.0,0.1636180877685547,-0.0941300392150878
-0.1486034393310547,0.2942108809947967,-0.3011784255504608,-0.5196470022201538,-0.3859826624393463,-0.0929195284843444,0.0,0.0,0.4401938915252685,-0.2844215631484985
-0.1517045050859451,0.282551646232605,-0.305747926235199,-0.5193759202957153,-0.3906346261501312,-0.093039259314537,0.0,0.0,0.7532627582550049,0.0340865850448608
-0.154624655842781,0.2716447114944458,-0.2877323031425476,-0.485934853553772,-0.3952060639858246,-0.0914285629987716,0.0,0.0,0.6615250110626221,0.472338318824768
-0.1572856903076172,0.261406660079956,-0.262294739484787,-0.4560886919498443,-0.3992834091186523,-0.0815471112728118,0.0,0.0,0.3315086364746094,-0.655238687992096
-0.1599592268466949,0.2517529428005218,-0.2647790312767029,-0.42978435754776,-0.4020411670207977,-0.0551553443074226,0.0,0.0,0.5909667015075684,-0.1113597154617309
-0.1627531051635742,0.2421921044588089,-0.276398092508316,-0.4257787764072418,-0.4052532613277435,-0.0642427057027816,0.0,0.0,0.1217771768569946,0.3158327341079712
-0.1654403656721115,0.2329344898462295,-0.2659738659858703,-0.4122422635555267,-0.4082167148590088,-0.0592693015933036,0.0,0.0,0.595355749130249,0.4777250289916992
-0.1681266725063324,0.2240797579288482,-0.2655704319477081,-0.3944310545921325,-0.4115107953548431,-0.0658816024661064,0.0,0.0,0.3713642358779907,-0.1729079484939575
-0.1707590073347091,0.2156052738428115,-0.2600966095924377,-0.3775588572025299,-0.4148934781551361,-0.0676534548401832,0.0,0.0,0.1939808130264282,-0.0229275226593017
-0.1733243912458419,0.2074092924594879,-0.2534905076026916,-0.3651668727397918,-0.4181943833827972,-0.0660179704427719,0.0,0.0,0.4118798971176147,0.2478983402252197
-0.1757483482360839,0.1994289755821228,-0.2397686541080474,-0.3554612994194031,-0.4210290014743805,-0.0566921234130859,0.0,0.0,0.4780175685882568,-0.1409744024276733
-0.178155705332756,0.1914343386888504,-0.2383151352405548,-0.3560405969619751,-0.4236441254615783,-0.0523024015128612,0.0,0.0,0.4541285037994385,-0.1126903295516967
-0.180470272898674,0.1834533810615539,-0.2295001000165939,-0.3552970290184021,-0.425760418176651,-0.042325921356678,0.0,0.0,0.4843001365661621,-0.4830473661422729
-0.1825792342424392,0.1756708174943924,-0.2096206247806549,-0.3462778925895691,-0.4271444380283355,-0.0276801474392414,0.0,0.0,0.8182981014251709,-0.3005023002624511
-0.1844946891069412,0.1679649502038955,-0.1910445392131805,-0.3426399827003479,-0.4276981949806213,-0.0110752545297145,0.0,0.0,0.9561727046966552,-0.5639844536781311
-0.1862120628356933,0.1610881239175796,-0.1724080443382263,-0.3054333627223968,-0.4269735515117645,0.0144929168745875,0.0,0.0,0.9538986682891846,-0.8304715156555176
-0.1877035200595855,0.15503691136837,-0.1515989005565643,-0.2682026028633117,-0.424313485622406,0.0532014481723308,0.0,0.0,0.8462579250335693,-0.1835799813270568
-0.188884824514389,0.1494981795549392,-0.1212971806526184,-0.2452152371406555,-0.4208899736404419,0.0684698671102523,0.0,0.0,0.8981949090957642,-0.9693487882614136
-0.1899905204772949,0.1440111696720123,-0.1158781871199607,-0.2422926425933838,-0.4151492714881897,0.1148137301206588,0.0,0.0,0.9183578491210938,-0.8887426257133484
-0.1911050826311111,0.1389961540699005,-0.1184985861182212,-0.2208418548107147,-0.4075709879398346,0.1515659838914871,0.0,0.0,0.9333349466323853,-0.9209035634994508
-0.1919030249118805,0.1349398642778396,-0.0889312922954559,-0.1776782423257827,-0.39776211977005,0.1961776316165924,0.0,0.0,0.8175511360168457,-0.983371376991272
-0.1926752030849456,0.131391555070877,-0.0883791670203208,-0.1546251773834228,-0.3858421444892883,0.2383996546268463,0.0,0.0,0.817592978477478,-0.962825357913971
-0.1934449225664138,0.128777801990509,-0.0899716168642044,-0.112708568572998,-0.3720294535160064,0.27625373005867,0.0,0.0,0.626853346824646,-0.9774126410484314
-0.1940613687038421,0.1267001926898956,-0.0768422409892082,-0.0884690061211586,-0.3559758067131042,0.3210730850696563,0.0,0.0,0.0051580667495727,-0.955978274345398
-0.1947391480207443,0.1249138414859771,-0.0850871950387954,-0.0752140134572982,-0.3378108739852905,0.3632987737655639,0.0,0.0,0.289151668548584,-0.9221218824386596
-0.1954739540815353,0.123617798089981,-0.092781938612461,-0.053211111575365,-0.3176740705966949,0.4027358889579773,0.0,0.0,-0.0215446352958679,-0.977406084537506
-0.1963972151279449,0.1219414547085762,-0.1138756275177002,-0.0699362829327583,-0.2953484058380127,0.4465133547782898,0.0,0.0,0.5240263938903809,0.2431190013885498
-0.1973718702793121,0.1206941232085228,-0.118801400065422,-0.0512642338871955,-0.2734048962593078,0.4388701021671295,0.0,0.0,-0.3510071039199829,-0.6463260650634766
-0.1985164582729339,0.1190574765205383,-0.1376450061798095,-0.0685823336243629,-0.2497103661298751,0.473890870809555,0.0,0.0,-0.1011239886283874,0.8773291110992432
-0.199688047170639,0.1169820129871368,-0.1385418325662613,-0.0887544825673103,-0.2279818803071975,0.434570163488388,0.0,0.0,-0.0069826245307922,0.6639416217803955
-0.2009094208478927,0.1144668161869049,-0.1422684490680694,-0.1088011562824249,-0.2076189517974853,0.407258927822113,0.0,0.0,0.278900146484375,0.8976271152496338
-0.2019152641296386,0.1123480200767517,-0.119215652346611,-0.0916594639420509,-0.1888588219881057,0.3752027153968811,0.0,0.0,0.2437250614166259,0.1769735813140869
-0.2029296457767486,0.1106791794300079,-0.1201620548963546,-0.0718921646475792,-0.1700666695833206,0.3758430182933807,0.0,0.0,-0.2550959587097168,0.8413195610046387
-0.20396089553833,0.1085830554366111,-0.1199473962187767,-0.0913222804665565,-0.1532433629035949,0.3364661931991577,0.0,0.0,0.0313245058059692,0.9673635959625244
-0.2049016952514648,0.1065759062767028,-0.1090859547257423,-0.0877299606800079,-0.1382713466882705,0.2994407415390014,0.0,0.0,-0.1898820996284485,0.829390287399292
-0.2058722078800201,0.1041461080312728,-0.1105521544814109,-0.1067936494946479,-0.1248252168297767,0.2689228653907776,0.0,0.0,-0.0334064960479736,0.0233552455902099
-0.2069349288940429,0.1012986004352569,-0.1198996528983116,-0.1254718005657196,-0.1112727969884872,0.2710483074188232,0.0,0.0,0.0254657268524169,0.9739458560943604
-0.2079194039106369,0.0984295681118965,-0.110220655798912,-0.1266752481460571,-0.0995895564556121,0.233664870262146,0.0,0.0,0.3186911344528198,0.98220956325531
-0.2089771777391433,0.095885694026947,-0.1156306862831115,-0.1124360486865043,-0.0898150652647018,0.1954899132251739,0.0,0.0,0.0493799448013305,0.9616916179656982
-0.210111379623413,0.0934116244316101,-0.1214843168854713,-0.1094946563243866,-0.0818255692720413,0.1597901284694671,0.0,0.0,0.1948325634002685,0.9888319969177246
-0.211233764886856,0.0911197960376739,-0.1184146180748939,-0.1015355587005615,-0.075708769261837,0.122336134314537,0.0,0.0,-0.1144994497299194,0.881332278251648
-0.2123618125915527,0.0883983969688415,-0.1172284930944442,-0.1207346841692924,-0.0713265091180801,0.0876451283693313,0.0,0.0,0.4241069555282593,0.9887204170227052
-0.2133358418941497,0.0856896489858627,-0.1000314801931381,-0.1202658042311668,-0.068727008998394,0.0519899912178516,0.0,0.0,0.3346281051635742,0.9630162715911864
-0.2141765058040619,0.0833745822310447,-0.0849061757326126,-0.1028546169400215,-0.0678976848721504,0.0165864918380975,0.0,0.0,0.0286109447479248,0.9602727890014648
-0.2149564772844314,0.0813906043767929,-0.0769850462675094,-0.0882227048277854,-0.0688954070210456,-0.0199543889611959,0.0,0.0,0.1155966520309448,0.797675371170044
