x_pos,y_pos,x_vel,y_vel,angle,ang_vel,leg_1,leg_2,main_booster,lat_booster
-0.00159778597299,1.4030741453170776,-0.1615996360778808,-0.3487144410610199,0.0016254484653472,0.0320536121726036,0.0,0.0,0.2437299997457838,-0.5379377330991428
-0.0032708167564123,1.395219087600708,-0.1698546111583709,-0.3491180837154388,0.004160102456808,0.0506982095539569,0.0,0.0,0.465788100713044,-0.9513686139605956
-0.0049600601196289,1.387344241142273,-0.1733109652996063,-0.3500110805034637,0.0085043422877788,0.0868927091360092,0.0,0.0,0.6969084746759278,0.8565280810149333
-0.0067970277741551,1.3796849250793457,-0.1858898848295211,-0.3404229879379272,0.0106623796746134,0.0431648008525371,0.0,0.0,-0.1872385154747093,-0.7987833502978969
-0.0087589267641305,1.3714770078659058,-0.1993642300367355,-0.3648239076137543,0.0138126332312822,0.0630106180906295,0.0,0.0,0.8970135114021791,-0.5429464141388587
-0.0106801986694335,1.3636558055877686,-0.1966459453105926,-0.3476502001285553,0.0182788427919149,0.089332565665245,0.0,0.0,0.6690505557947255,-0.7947931469234825
-0.0127755161374807,1.3561570644378662,-0.2153025418519973,-0.333361953496933,0.0239868406206369,0.1141703724861145,0.0,0.0,-0.2616686359380271,-0.558576460494475
-0.0149797443300485,1.3481085300445557,-0.2267369478940963,-0.3578251004219055,0.0302317310124635,0.1249095946550369,0.0,0.0,-0.3035231797004742,0.7943649330281081
-0.0171988494694232,1.339521408081055,-0.2263483703136444,-0.3817492127418518,0.0346242375671863,0.0878580808639526,0.0,0.0,-0.0838328854514247,-0.9414777419679428
-0.0195681564509868,1.33038592338562,-0.2429437339305877,-0.4061680734157562,0.0405622273683548,0.118770994246006,0.0,0.0,-0.0535267292274825,-0.7068809902102111
-0.022061537951231,1.3206981420516968,-0.2562027275562286,-0.4307735562324524,0.0473635196685791,0.1360383182764053,0.0,0.0,-0.9895729967155252,-0.6691069704281974
-0.0246774666011333,1.310455560684204,-0.2693027853965759,-0.4554857015609741,0.0549861378967762,0.1524666100740432,0.0,0.0,0.791351156619537,0.7078737604047318
-0.027202796190977,1.300819754600525,-0.2588138282299042,-0.4285022020339966,0.0612041056156158,0.1243707984685897,0.0,0.0,0.043154536083251,-0.9469620488897328
-0.0298403743654489,1.2909585237503052,-0.2715402245521545,-0.4386161565780639,0.0689183324575424,0.1542985290288925,0.0,0.0,0.8412421252868814,-0.6075254719103406
-0.0324976928532123,1.2819408178329468,-0.2748026251792907,-0.40122190117836,0.0779055505990982,0.1797610968351364,0.0,0.0,0.7484348599057042,0.9050721850262348
-0.0350557342171669,1.2728562355041504,-0.2628670036792755,-0.4041396081447601,0.0849133655428886,0.1401689201593399,0.0,0.0,-0.4315327696960227,0.8794953588256922
-0.0376058593392372,1.263242483139038,-0.259493738412857,-0.4275451898574829,0.0893567353487014,0.0888754948973655,0.0,0.0,0.2666656823586149,0.78816140246751
-0.040072251111269,1.2535251379013062,-0.2492547333240509,-0.4320355057716369,0.0919513925909996,0.0518978834152221,0.0,0.0,-0.6027846343217222,-0.8928306753430711
-0.0426744446158409,1.2432574033737185,-0.2638933360576629,-0.4565820097923279,0.0955967828631401,0.0729145258665084,0.0,0.0,0.7957170232512727,0.5078256208316025
-0.0454644188284873,1.2333492040634155,-0.2809255421161651,-0.4404837489128113,0.0975081101059913,0.038230326026678,0.0,0.0,0.9470114609584276,-0.8902163082669301
-0.0483229644596576,1.2242332696914673,-0.2894251346588135,-0.4053934216499328,0.1010583788156509,0.071011759340763,0.0,0.0,-0.5859784754192345,-0.8935071622212483
-0.0513263717293739,1.2145507335662842,-0.3051953017711639,-0.4306704699993133,0.1058849692344665,0.0965402349829673,0.0,0.0,0.6482827619036433,-0.5537234609356776
-0.054368782788515,1.2051421403884888,-0.310088962316513,-0.4185853004455566,0.111699990928173,0.1163108125329017,0.0,0.0,0.7105031808506261,-0.9892523162512828
-0.0575194358825683,1.1956539154052734,-0.3225129544734955,-0.4222617447376251,0.119108997285366,0.1481932699680328,0.0,0.0,0.995692183358828,-0.6865388871294256
-0.0610758773982524,1.186732530593872,-0.3634796440601349,-0.3971452414989471,0.1269149780273437,0.1561337262392044,0.0,0.0,0.7678637291554125,-0.922149886797914
-0.0650467872619628,1.1783186197280884,-0.4059950411319732,-0.3747348487377167,0.1357769072055816,0.1772384196519851,0.0,0.0,0.133743215691952,0.5556565083641138
-0.0691149681806564,1.1701080799102783,-0.414072573184967,-0.3655925989151001,0.1430148482322693,0.1447592079639434,0.0,0.0,0.1513652695433218,-0.5509079692668719
-0.0734837502241134,1.1621756553649902,-0.4445289671421051,-0.3533069789409637,0.1506429016590118,0.152561217546463,0.0,0.0,-0.5025824267408054,-0.9814555117542988
-0.0780221968889236,1.153679609298706,-0.4633316099643707,-0.3785973191261291,0.1601205915212631,0.1895531862974167,0.0,0.0,-0.725859190717772,0.8535031179338154
-0.0825712233781814,1.1446452140808103,-0.4621891379356384,-0.4023310244083404,0.1674079298973083,0.1457474529743194,0.0,0.0,0.6662349533970664,-0.8307989708880353
-0.0873825997114181,1.136320948600769,-0.4895625710487366,-0.3709389269351959,0.175838440656662,0.1686103492975235,0.0,0.0,-0.757326066493988,0.9971880912780762
-0.0922004729509353,1.127457857131958,-0.4879041314125061,-0.394647479057312,0.1819731444120407,0.1226946711540222,0.0,0.0,-0.6424083113670349,0.991955041885376
-0.09702730178833,1.1180708408355713,-0.4865173399448395,-0.4176709949970245,0.1858190894126892,0.0769189223647117,0.0,0.0,-0.5651683211326599,0.9985127449035645
-0.1018576622009277,1.108142971992493,-0.4845124185085296,-0.4414294958114624,0.1873067915439605,0.0297537706792354,0.0,0.0,-0.2372233867645263,0.9960122108459472
-0.1066823005676269,1.097687840461731,-0.4813311100006103,-0.4645306766033172,0.186160922050476,-0.0229172296822071,0.0,0.0,-0.1527560949325561,0.9973444938659668
-0.1115013137459755,1.086710810661316,-0.478118896484375,-0.4873979687690735,0.182362824678421,-0.0759617537260055,0.0,0.0,-0.2020068764686584,0.996402144432068
-0.1163182258605957,1.07519793510437,-0.4754189550876617,-0.5109308362007141,0.1760650277137756,-0.1259562373161316,0.0,0.0,0.0740495920181274,0.990103006362915
-0.1211885437369346,1.063900589942932,-0.478166252374649,-0.5010769963264465,0.1671695262193679,-0.1779100745916366,0.0,0.0,-0.0664523243904113,0.972809076309204
-0.1260610520839691,1.0520813465118408,-0.4759226739406585,-0.5240617394447327,0.1558439433574676,-0.2265112847089767,0.0,0.0,-0.4324802160263061,0.9963487386703492
-0.1309232711791992,1.0397331714630127,-0.472170740365982,-0.5473987460136414,0.1418229788541793,-0.2804192900657654,0.0,0.0,-0.5377251505851746,0.9949910640716552
-0.135792538523674,1.0268585681915283,-0.4705906510353088,-0.5707346200942993,0.1255495697259903,-0.3254683911800384,0.0,0.0,-0.7780133485794067,0.9924602508544922
-0.1406373083591461,1.0134522914886477,-0.4650924205780029,-0.5943196415901184,0.1062731593847274,-0.3855282962322235,0.0,0.0,-0.8776013255119324,0.9802379608154296
-0.145460695028305,0.9995037913322448,-0.4599838256835937,-0.6184865832328796,0.0841103643178939,-0.4432559609413147,0.0,0.0,-0.8818897604942322,0.9015352725982666
-0.150268942117691,0.9850204586982728,-0.4556879997253418,-0.6424827575683594,0.0592321790754795,-0.4975639283657074,0.0,0.0,-0.8872353434562683,0.9141497611999512
-0.155076116323471,0.969990372657776,-0.4531908631324768,-0.6671402454376221,0.0320325195789337,-0.5439940094947815,0.0,0.0,-0.7891263365745544,0.9941763877868652
-0.1598638594150543,0.9544146656990052,-0.4484257102012634,-0.6918858885765076,0.0020753662101924,-0.5991436243057251,0.0,0.0,-0.8538574576377869,0.98368501663208
-0.1646295487880706,0.938296377658844,-0.443415105342865,-0.7166472673416138,-0.0306691918522119,-0.6548913717269897,0.0,0.0,-0.5807061791419983,0.8567883968353271
-0.1694022119045257,0.9216496348381042,-0.4420887529850006,-0.7409334182739258,-0.0654345974326133,-0.6953087449073792,0.0,0.0,0.2504353523254394,0.7834142446517944
-0.1742476522922516,0.9053751826286316,-0.447115033864975,-0.7253580689430237,-0.1025171503424644,-0.7416514754295349,0.0,0.0,0.4012068510055542,0.4300448894500732
-0.1791249215602874,0.8892163634300232,-0.4497027993202209,-0.7212159037590027,-0.140323132276535,-0.7561205625534058,0.0,0.0,0.8913462162017822,-0.0791242122650146
-0.1838039457798004,0.8734635710716248,-0.430189698934555,-0.704110324382782,-0.1780124902725219,-0.7537881135940552,0.0,0.0,0.6618388891220093,-0.7574708461761475
-0.1885260641574859,0.8583117723464966,-0.4354957640171051,-0.6782331466674805,-0.2149481028318405,-0.7387125492095947,0.0,0.0,0.4979481697082519,-0.7617120146751404
-0.1931651085615158,0.8431994318962097,-0.4285197854042053,-0.6772125363349915,-0.2508218884468078,-0.7174760699272156,0.0,0.0,0.6387277841567993,-0.6944454908370972
-0.197704792022705,0.8287298083305359,-0.4196542203426361,-0.6493350863456726,-0.2859300673007965,-0.7021638751029968,0.0,0.0,0.3714337348937988,-0.8863343596458435
-0.2021085321903228,0.8142766356468201,-0.4076414108276367,-0.6491391658782959,-0.3197679221630096,-0.6767572164535522,0.0,0.0,0.693415641784668,-0.9177457690238952
-0.2065770179033279,0.8000593185424805,-0.4154807031154632,-0.6391467452049255,-0.3525481522083282,-0.6556051969528198,0.0,0.0,0.8636860847473145,-0.9932801723480223
-0.2107356488704681,0.7865608930587769,-0.3863382339477539,-0.6074920892715454,-0.3837645947933197,-0.6243292093276978,0.0,0.0,-0.2036671638488769,-0.9832378625869752
-0.2149859964847564,0.7725638747215271,-0.396725594997406,-0.6300061941146851,-0.4140713512897491,-0.6061351895332336,0.0,0.0,0.938507914543152,-0.9927505254745485
-0.2188615351915359,0.7593550086021423,-0.3610535264015198,-0.5951083898544312,-0.4428155720233917,-0.5748842358589172,0.0,0.0,0.8709371089935303,-0.992260992527008
-0.2225418537855148,0.7469341158866882,-0.3430432677268982,-0.5601854920387268,-0.4702766835689544,-0.5492224097251892,0.0,0.0,0.8420580625534058,-0.9917893409729004
-0.226078599691391,0.7345293164253235,-0.3303631246089935,-0.5594518184661865,-0.496245414018631,-0.5193743705749512,0.0,0.0,0.7753684520721436,-0.9944609999656676
-0.2294544279575348,0.7227264642715454,-0.3157291710376739,-0.5326787829399109,-0.5209214091300964,-0.4935216903686523,0.0,0.0,0.8820021152496338,-0.986442506313324
-0.2324908226728439,0.7110889554023743,-0.2835215330123901,-0.5251060128211975,-0.5439513921737671,-0.4606001377105713,0.0,0.0,0.7253298759460449,-0.9830557107925416
-0.2352558672428131,0.6997718811035156,-0.2579197883605957,-0.5106334090232849,-0.5655156373977661,-0.4312853813171386,0.0,0.0,0.708681583404541,-0.998540997505188
-0.2378745079040527,0.6884883046150208,-0.2447769194841385,-0.5088742971420288,-0.5856069922447205,-0.4018266797065735,0.0,0.0,0.5365316867828369,-0.9985210299491882
-0.2403746098279953,0.6775238513946533,-0.2343171834945678,-0.4943796992301941,-0.6043025255203247,-0.3739112019538879,0.0,0.0,0.78940749168396,-0.9957000613212584
-0.2423938810825348,0.667214572429657,-0.1876959800720214,-0.4648428559303283,-0.6214569211006165,-0.3430880904197693,0.0,0.0,0.8007948398590088,-0.9873740077018738
-0.2442177832126617,0.6567219495773315,-0.1696336716413498,-0.4725231826305389,-0.6370262503623962,-0.3113865256309509,0.0,0.0,0.8458956480026245,-0.9985395073890686
-0.2455058544874191,0.6468846201896667,-0.1174627095460891,-0.4428838193416595,-0.6510158181190491,-0.2797908186912536,0.0,0.0,0.549355149269104,-0.9984557032585144
-0.2466654777526855,0.6371915936470032,-0.1059050410985946,-0.4359650611877441,-0.66355299949646,-0.2507436871528625,0.0,0.0,-0.0146611332893371,-0.9953519701957704
-0.247887372970581,0.6270402669906616,-0.11370500177145,-0.4556361734867096,-0.6742198467254639,-0.2133367508649826,0.0,0.0,0.3151977062225342,-0.9992127418518066
-0.2488278895616531,0.6169724464416504,-0.0868642851710319,-0.4513157904148102,-0.6833330988883972,-0.1822655797004699,0.0,0.0,0.1666997671127319,-0.9979107975959778
-0.2495174407958984,0.6072374582290649,-0.0630855411291122,-0.4358735680580139,-0.6908223628997803,-0.1497856676578521,0.0,0.0,0.2164003849029541,-0.995447039604187
-0.2499303817749023,0.5974622964859009,-0.0366581454873085,-0.4370218217372894,-0.6967694163322449,-0.1189412698149681,0.0,0.0,0.1037706136703491,-0.9977703094482422
-0.2502394318580627,0.5875370502471924,-0.0275198426097631,-0.4430208802223205,-0.7011374235153198,-0.0873607248067855,0.0,0.0,0.482490062713623,-0.980875849723816
-0.2503472864627838,0.5773993730545044,-0.0086151417344808,-0.4517879486083984,-0.7039405703544617,-0.0560646839439868,0.0,0.0,0.042901873588562,-0.9964584708213806
-0.2503723204135895,0.5670521259307861,-0.00157547427807,-0.4604067206382751,-0.705149233341217,-0.024173367768526,0.0,0.0,0.4191527366638183,-0.9733732342720032
-0.2499870359897613,0.5570256114006042,0.0382555946707725,-0.4454719424247741,-0.7047986388206482,0.007011423818767,0.0,0.0,-0.0942007303237915,-0.9630528092384338
-0.2496155202388763,0.5465235710144043,0.035902414470911,-0.4660485088825226,-0.7031806707382202,0.0323597379028797,0.0,0.0,-0.3404638171195984,-0.9357252717018129
-0.2492714375257492,0.5355663895606995,0.0316987857222557,-0.485457569360733,-0.6996790170669556,0.0700331553816795,0.0,0.0,-0.3038991689682007,-0.9764480590820312
-0.2489655464887619,0.5241450071334839,0.0262976679950952,-0.5052240490913391,-0.6941516995429993,0.1105466857552528,0.0,0.0,-0.1508259773254394,-0.9615239500999452
-0.2486703395843505,0.5122511982917786,0.0240905936807394,-0.5256147980690002,-0.6871945261955261,0.1391437798738479,0.0,0.0,-0.437394380569458,-0.9695780873298644
-0.2484016418457031,0.4998956024646759,0.0198759604245424,-0.5453425049781799,-0.6782951951026917,0.1779865324497223,0.0,0.0,-0.6339758634567261,-0.9401499032974244
-0.2481496334075927,0.4870727062225342,0.0167944319546222,-0.5654290318489075,-0.6676732897758484,0.2124379873275756,0.0,0.0,-0.435943603515625,-0.9055705070495604
-0.2479061633348465,0.4737751185894012,0.0146548077464103,-0.5859687924385071,-0.6555426716804504,0.2426124364137649,0.0,0.0,-0.4977425336837768,-0.867093563079834
-0.2476606369018554,0.4599855542182922,0.013871980831027,-0.607461154460907,-0.6422990560531616,0.2648725211620331,0.0,0.0,-0.3028675317764282,-0.6403172612190247
-0.247406393289566,0.44568932056427,0.0139410849660635,-0.6297396421432495,-0.6282173991203308,0.2816326022148132,0.0,0.0,-0.4924718737602234,-0.6556218862533569
-0.2471378743648529,0.4308827221393585,0.0146590797230601,-0.652248740196228,-0.6134132146835327,0.2960849106311798,0.0,0.0,-0.3917499780654907,-0.6741067171096802
-0.2468490600585937,0.4155657291412353,0.0160163436084985,-0.6748087406158447,-0.5979616045951843,0.3090322017669678,0.0,0.0,0.0861475467681884,-0.6808531284332275
-0.2463200092315673,0.3999785184860229,0.0389715768396854,-0.6865385174751282,-0.5814015865325928,0.3312001824378967,0.0,0.0,0.1760715246200561,-0.8164681792259216
-0.2454962283372879,0.3845785856246948,0.067139483988285,-0.6778804659843445,-0.563494086265564,0.3581494390964508,0.0,0.0,0.8570821285247803,-0.8564438819885254
-0.2441814839839935,0.3697444498538971,0.1147456169128418,-0.6523864269256592,-0.5440689921379089,0.3885017931461334,0.0,0.0,0.5533319711685181,-0.9707653522491456
-0.2424333989620208,0.3551308512687683,0.1562897115945816,-0.6421868205070496,-0.5228250026702881,0.4248800873756408,0.0,0.0,0.9336696863174438,-0.9769710302352904
-0.2403908669948578,0.3404216170310974,0.1838130056858062,-0.6460766196250916,-0.499670922756195,0.4630817770957947,0.0,0.0,0.7257816791534424,-0.9355992674827576
-0.2381509840488433,0.3259652853012085,0.2018720358610153,-0.6346664428710938,-0.4749473631381988,0.4944712221622467,0.0,0.0,0.8561711311340332,-0.9699838757514954
-0.2353750765323639,0.3122509121894836,0.2534434199333191,-0.6014930605888367,-0.448309451341629,0.532758355140686,0.0,0.0,0.8320984840393066,-0.9574883580207824
-0.2323555946350097,0.2989169657230377,0.2759286165237427,-0.5845451951026917,-0.4199798107147217,0.5665929913520813,0.0,0.0,0.7714769840240479,-0.9939160346984864
-0.2291287928819656,0.2863598763942718,0.2947889864444732,-0.5500876307487488,-0.3900008201599121,0.5995795726776123,0.0,0.0,0.517275333404541,-0.9964855909347534
-0.2255792170763015,0.2741515338420868,0.3248820602893829,-0.5346855521202087,-0.3580920398235321,0.6381755471229553,0.0,0.0,0.2395821809768676,-0.9974654912948608
-0.2218816727399826,0.2622705698013305,0.3375264704227447,-0.5203676819801331,-0.3243062198162079,0.675716757774353,0.0,0.0,0.234668493270874,-0.9966797828674316
-0.2180798947811126,0.2507297694683075,0.3457359671592712,-0.5056169033050537,-0.2886283993721008,0.7135571241378784,0.0,0.0,0.3446545600891113,-0.9976060390472412
-0.214193195104599,0.2392792254686355,0.3519991040229797,-0.5020988583564758,-0.2510503530502319,0.75156170129776,0.0,0.0,0.0784039497375488,-0.9874964952468872
-0.2103038728237152,0.2279321253299713,0.3499681353569031,-0.4981430768966675,-0.2115216702222824,0.7905741333961487,0.0,0.0,0.2298922538757324,-0.8072980642318726
-0.2064513266086578,0.2166862338781356,0.3445035815238952,-0.4945019483566284,-0.1705301254987716,0.8198317289352417,0.0,0.0,-0.1081950664520263,0.257830262184143
-0.2025294303894043,0.2049120515584945,0.3511532545089721,-0.5191026926040649,-0.1295530498027801,0.8195422887802124,0.0,0.0,0.9554202556610109,0.9516522884368896
-0.1983284056186676,0.1932197660207748,0.3806028366088867,-0.5166935324668884,-0.0903191566467285,0.7846788167953491,0.0,0.0,0.7764424085617065,0.4137041568756103
-0.1938288658857345,0.1822022497653961,0.4095341563224792,-0.4877123534679413,-0.0503098517656326,0.8001869916915894,0.0,0.0,0.8638851642608643,-0.6365002393722534
-0.189293771982193,0.1719790250062942,0.4117031693458557,-0.4534790813922882,-0.009015878662467,0.8258797526359558,0.0,0.0,0.9161415100097656,-0.0327969193458557
-0.1845149993896484,0.1627128273248672,0.4351564347743988,-0.4121117293834686,0.0331649854779243,0.8436180353164673,0.0,0.0,0.920516848564148,0.4603662490844726
-0.179600715637207,0.1539348512887954,0.4481845796108246,-0.3916437029838562,0.075911171734333,0.8549245595932007,0.0,0.0,0.8898818492889404,0.7991232872009277
-0.1746345460414886,0.146041139960289,0.4549373686313629,-0.3534636497497558,0.1172328740358352,0.8264347314834595,0.0,0.0,0.7496234178543091,0.7802798748016357
-0.169566348195076,0.138891726732254,0.466545432806015,-0.3214035332202911,0.1573561429977417,0.8024662137031555,0.0,0.0,0.663184642791748,0.8195343017578125
-0.1643484085798263,0.1319291442632675,0.4829877912998199,-0.3140207231044769,0.1962510645389557,0.7778989672660828,0.0,0.0,0.5611636638641357,0.8826944828033447
-0.1592345237731933,0.1252791285514831,0.47452312707901,-0.300867348909378,0.2334837168455124,0.7446537017822266,0.0,0.0,0.6466002464294434,0.8307435512542725
-0.1542440354824066,0.118817001581192,0.4640532433986664,-0.2931484878063202,0.269125372171402,0.7128340005874634,0.0,0.0,0.3845906257629394,0.904643177986145
-0.1492609083652496,0.1125241816043853,0.4651197493076324,-0.286150574684143,0.3032638132572174,0.6827688217163086,0.0,0.0,0.3459399938583374,0.9385323524475098
-0.144243910908699,0.1063611805438995,0.4703147411346435,-0.2808011472225189,0.335884541273117,0.65241539478302,0.0,0.0,0.3796859979629516,0.7815172672271729
-0.1390807181596756,0.1001719310879707,0.486245334148407,-0.2823969721794128,0.3674750924110412,0.6318116188049316,0.0,0.0,0.325790524482727,0.8660941123962402
-0.1338990181684494,0.0943026170134544,0.4896735250949859,-0.2684708535671234,0.3977826535701751,0.6061509847640991,0.0,0.0,0.4964895248413086,0.8828400373458862
-0.1288449317216873,0.0889691710472107,0.4785198271274566,-0.2448451220989227,0.4267376065254211,0.5790994763374329,0.0,0.0,0.1343936920166015,0.903109073638916
-0.1236950904130935,0.0834569782018661,0.4897042214870453,-0.2529062926769256,0.4543112814426422,0.5514736175537109,0.0,0.0,-0.0128100514411926,0.9312735795974731
