x_pos,y_pos,x_vel,y_vel,angle,ang_vel,leg_1,leg_2,main_booster,lat_booster
-0.0016306877369061,1.4032968282699585,-0.16525599360466,-0.3388160169124603,0.0019606468267738,0.0386903546750545,0.0,0.0,-0.9465230226454636,-0.5232248938945283
-0.0034070014953613,1.3953664302825928,-0.1806460320949554,-0.3524731695652008,0.0049390592612326,0.0595743954181671,0.0,0.0,-0.4323056052867511,-0.8489618983746094
-0.0053435326553881,1.3871012926101685,-0.1981093436479568,-0.3673581480979919,0.0093496218323707,0.0882196351885795,0.0,0.0,0.5174391392293132,0.890401147994616
-0.0074459076859056,1.3791933059692385,-0.2128732651472091,-0.3514861464500427,0.0119506204500794,0.05202491953969,0.0,0.0,0.7977738513990293,0.9513910842692728
-0.0094341281801462,1.3720290660858154,-0.1999662965536117,-0.3184252083301544,0.0130740366876125,0.022470461204648,0.0,0.0,0.3385051908471963,-0.6927447507739137
-0.0114678386598825,1.3651971817016602,-0.2062495499849319,-0.3036635220050812,0.0159263107925653,0.0570506043732166,0.0,0.0,-0.2831917125245491,-0.9684964217411932
-0.0136895179748535,1.3580360412597656,-0.2272005826234817,-0.3183358609676361,0.0209077838808298,0.0996385216712951,0.0,0.0,-0.3456662311689449,-0.8932518082114174
-0.0160732269287109,1.3505486249923706,-0.2448969185352325,-0.332877516746521,0.0273640323430299,0.1291370689868927,0.0,0.0,-0.7318385097273412,-0.8703133277151098
-0.0186362266540527,1.3427408933639526,-0.2647551000118255,-0.3471861481666565,0.0357251316308975,0.1672373712062835,0.0,0.0,0.4122490139779597,0.6014216963811673
-0.0212842933833599,1.3355433940887451,-0.272207111120224,-0.3200825750827789,0.0430419072508811,0.1463488042354583,0.0,0.0,0.627029710259861,-0.9778546955905972
-0.0240482334047555,1.3288984298706057,-0.2860300838947296,-0.295642226934433,0.052576832473278,0.1907164454460144,0.0,0.0,0.7342372264205317,-0.5305844127529682
-0.0269137378782033,1.3227593898773191,-0.2976253926753998,-0.2732662260532379,0.06354670971632,0.2194176465272903,0.0,0.0,-0.3687773883168959,-0.6634542921226112
-0.0299301147460937,1.3162939548492432,-0.3139064311981201,-0.2879125773906708,0.0757058560848236,0.2432049959897995,0.0,0.0,-0.9277170237684572,0.8757328018018097
-0.0329792015254497,1.3095033168792725,-0.3153799474239349,-0.3023625314235687,0.0860889256000518,0.2076804935932159,0.0,0.0,-0.4026568717785868,-0.7814738094108759
-0.0361857414245605,1.3023890256881714,-0.3324733376502991,-0.3169202804565429,0.0978229790925979,0.2347023785114288,0.0,0.0,0.4000860580343564,-0.9153284803462124
-0.0394925102591514,1.295319437980652,-0.3445898592472076,-0.3151678144931793,0.11165102571249,0.2765862047672272,0.0,0.0,0.91120390020498,-0.8593728280329894
-0.0429141037166118,1.2894282341003418,-0.3582834899425506,-0.2631102800369262,0.1277088373899459,0.3211854994297027,0.0,0.0,-0.5626187170177512,0.6390749604065364
-0.0463835708796978,1.2832190990447998,-0.3616431355476379,-0.2772858738899231,0.1423611044883728,0.293071985244751,0.0,0.0,-0.788053045900307,-0.6996890577518122
-0.0500099174678325,1.2766823768615725,-0.3786310255527496,-0.292127400636673,0.1583524346351623,0.3198557496070862,0.0,0.0,0.756598755195679,-0.7688600925077178
-0.0539940819144248,1.2706763744354248,-0.4158892631530761,-0.2688873410224914,0.1758559793233871,0.3501028716564178,0.0,0.0,-0.723884217454474,-0.7786414366475161
-0.0581374168395996,1.2643401622772217,-0.4331191182136535,-0.2839526236057281,0.1947571337223053,0.3780569434165954,0.0,0.0,-0.5534658890990043,0.9165235120932748
-0.0623182281851768,0.0,-0.4351336061954498,-0.297582745552063,0.2119599729776382,0.3440874218940735,0.0,0.0,0.3028944863638079,0.8379813441382242
-0.0665210708975792,1.2514162063598633,-0.4358955025672912,-0.2814609408378601,0.2277676612138748,0.3161821663379669,0.0,0.0,-0.6483594566725148,0.563900045360665
-0.0707849487662315,1.2448217868804932,-0.4408727586269378,-0.2953924238681793,0.2424889951944351,0.2944530844688415,0.0,0.0,0.8399717022678468,0.5989748125800154
-0.0754498466849327,1.2389037609100342,-0.4794827997684479,-0.2652110159397125,0.2557297050952911,0.2648379504680633,0.0,0.0,0.6368171293143317,0.8852778453747645
-0.0804868713021278,1.2336220741271973,-0.5148473978042603,-0.2367305904626846,0.2671219408512115,0.2278439700603485,0.0,0.0,-0.7291501623778136,0.9751777945868876
-0.0855598449707031,1.2280510663986206,-0.516647458076477,-0.2493319660425186,0.2767023742198944,0.1916085183620453,0.0,0.0,0.3961626149536694,-0.7044408680680296
-0.0911053642630577,1.2230949401855469,-0.565237283706665,-0.2223355323076248,0.2876849174499511,0.2196507751941681,0.0,0.0,-0.4740299089705548,-0.6800063802542676
-0.0968237891793251,1.2177913188934326,-0.5843012928962708,-0.2382284700870514,0.3005238175392151,0.2567782998085022,0.0,0.0,0.1683494484986989,0.9787002233296408
-0.1026961356401443,1.212679386138916,-0.5978854298591614,-0.2294367402791977,0.3115575313568115,0.2206741124391555,0.0,0.0,0.9891191852448544,-0.883809493010772
-0.1090348213911056,1.208686590194702,-0.6464356780052185,-0.1802089363336563,0.3246116638183594,0.2610820531845093,0.0,0.0,-0.4135393500328064,0.9980976581573486
-0.1154165267944336,1.2043960094451904,-0.6491591334342957,-0.1932000815868377,0.33607879281044,0.229341983795166,0.0,0.0,-0.897702693939209,0.9906522035598756
-0.1218457221984863,1.199821949005127,-0.6523587107658386,-0.2055207788944244,0.3459680080413818,0.1977842003107071,0.0,0.0,-0.8587704300880432,0.9976928234100342
-0.1283153593540191,1.1949492692947388,-0.6548126935958862,-0.218472346663475,0.3542211055755615,0.1650621742010116,0.0,0.0,-0.9395682215690612,0.9996979236602784
-0.1348179876804351,1.189794421195984,-0.6562677621841431,-0.2306002229452133,0.3605463206768036,0.1265043914318084,0.0,0.0,-0.5439919233322144,0.998932123184204
-0.1413547545671463,1.184362769126892,-0.6578271389007568,-0.2424552738666534,0.3649298548698425,0.0876708999276161,0.0,0.0,-0.6915547251701355,0.9988625049591064
-0.1479276716709137,1.1786398887634275,-0.6597656011581421,-0.2549793124198913,0.3675368428230285,0.052139539271593,0.0,0.0,-0.7335638403892517,0.9907987117767334
-0.154532715678215,1.1726419925689695,-0.6610771417617798,-0.2667242884635925,0.3681490421295166,0.0122441118583083,0.0,0.0,-0.8140829801559448,0.9993847608566284
-0.1611789762973785,1.1663670539855957,-0.6635490655899048,-0.278605192899704,0.3670073449611664,-0.0228338800370693,0.0,0.0,-0.6538614630699158,0.994873046875
-0.167855829000473,1.1598106622695925,-0.6647506356239319,-0.2906454801559448,0.3639030158519745,-0.0620864406228065,0.0,0.0,-0.9165613055229188,0.9644054174423218
-0.1745826750993728,1.1529685258865356,-0.6683682799339294,-0.3030062317848205,0.3593388199806213,-0.0912837609648704,0.0,0.0,-0.9098899364471436,0.9911510944366456
-0.181327149271965,1.1458473205566406,-0.6679574847221375,-0.3148875832557678,0.3525051772594452,-0.1366727799177169,0.0,0.0,-0.8005768060684204,0.9909228086471558
-0.1880895644426345,1.1384366750717163,-0.667678713798523,-0.3272851705551147,0.343504250049591,-0.1800187081098556,0.0,0.0,-0.690981388092041,0.978717565536499
-0.1948722898960113,1.1307437419891355,-0.6676193475723267,-0.3394003212451935,0.3323507905006408,-0.2230690419673919,0.0,0.0,-0.8187709450721741,0.9471170902252196
-0.2016915827989578,1.1227492094039917,-0.6696764230728149,-0.3525419235229492,0.3195844292640686,-0.2553268074989319,0.0,0.0,-0.7131723165512085,0.9616856575012208
-0.2085355818271637,1.1144593954086304,-0.670242190361023,-0.3653830885887146,0.3048969209194183,-0.2937507629394531,0.0,0.0,-0.536093533039093,0.7068767547607422
-0.2154238671064376,1.1058696508407593,-0.6732527017593384,-0.37858447432518,0.288808524608612,-0.3217675387859344,0.0,0.0,-0.7860150933265686,0.8406448364257812
-0.2223653793334961,1.0969882011413574,-0.6773025393486023,-0.3914983570575714,0.271502286195755,-0.3461249470710754,0.0,0.0,-0.5898313522338867,0.8958396911621094
-0.2293575257062912,1.087813377380371,-0.681069016456604,-0.4045106172561645,0.2529529631137848,-0.3709867298603058,0.0,0.0,-0.4637452960014343,0.9837610721588136
-0.2363781034946441,1.0783418416976929,-0.6821158528327942,-0.4176547229290008,0.2326667755842209,-0.4057238101959228,0.0,0.0,-0.2092140913009643,0.990807294845581
-0.2434050142765045,1.0685821771621704,-0.6803802847862244,-0.4303935468196869,0.2100860327482223,-0.4516147673130035,0.0,0.0,-0.5569572448730469,0.9791208505630492
-0.2504641115665436,1.0585308074951172,-0.6818890571594238,-0.443494975566864,0.1858981698751449,-0.4837575852870941,0.0,0.0,-0.4653987288475036,0.9965752363204956
-0.2575294971466064,1.0481809377670288,-0.6802342534065247,-0.4569108188152313,0.1595297008752823,-0.5273697376251221,0.0,0.0,-0.502919614315033,0.9583667516708374
-0.2646179795265198,1.0375405550003052,-0.6806616187095642,-0.4701326489448547,0.1314054280519485,-0.5624855756759644,0.0,0.0,-0.5541585683822632,0.9937338829040528
-0.271704763174057,1.026599407196045,-0.6780713200569153,-0.4838533401489258,0.1009840220212936,-0.6084286570549011,0.0,0.0,-0.9286586046218872,0.966951847076416
-0.2788213789463043,1.015349268913269,-0.6795045733451843,-0.4981428682804107,0.0691187754273414,-0.6373052000999451,0.0,0.0,-0.8821020126342773,0.9874202013015748
-0.2859407067298889,1.0038044452667236,-0.6775779724121094,-0.5118675827980042,0.0351540520787239,-0.6792951226234436,0.0,0.0,-0.9116074442863464,0.9740278720855712
-0.2930558323860168,0.991957426071167,-0.6748749017715454,-0.5260737538337708,-0.0010179396485909,-0.723440408706665,0.0,0.0,-0.703106164932251,0.9079189300537108
-0.3001782298088074,0.9798102378845216,-0.6737232208251953,-0.5403381586074829,-0.0390456095337867,-0.7605541944503784,0.0,0.0,-0.9016252756118774,0.97576904296875
-0.3073185384273529,0.9673599600791932,-0.6740265488624573,-0.5548643469810486,-0.078595295548439,-0.7909947037696838,0.0,0.0,-0.5566269159317017,0.3508529663085937
-0.3145414888858795,0.9546023607254028,-0.6825937032699585,-0.569557785987854,-0.1179740652441978,-0.7875760793685913,0.0,0.0,-0.6231573820114136,0.4153783321380615
-0.3218443393707275,0.9415372014045716,-0.6909264326095581,-0.5842491388320923,-0.1571842581033706,-0.7842048406600952,0.0,0.0,-0.6721049547195435,-0.2439228296279907
-0.3292239606380462,0.9281641840934752,-0.6990054845809937,-0.5989384055137634,-0.1962285190820694,-0.7808858752250671,0.0,0.0,-0.3117809295654297,0.4991157054901123
-0.3366769850254059,0.9144829511642456,-0.7068105936050415,,-0.2351096719503402,-0.7776237726211548,0.0,0.0,-0.2094467878341674,0.4544404745101928
-0.3441999852657318,0.9004929661750793,-0.714320957660675,-0.6283098459243774,-0.2738308012485504,-0.7744230628013611,0.0,0.0,-0.0587500929832458,-0.0963501930236816
-0.3517893850803375,0.8861936926841736,-0.7215149402618408,-0.6429917216300964,-0.3123951852321625,-0.7712880373001099,0.0,0.0,-0.6438727378845215,0.2235817909240722
-0.3594412207603454,0.8715850710868835,-0.7283706068992615,-0.6576709151268005,-0.350806325674057,-0.7682231068611145,0.0,0.0,-0.3997520804405212,-0.3416716456413269
-0.3671515583992004,0.8566665053367615,-0.734865665435791,-0.672347366809845,-0.3890679180622101,-0.7652321457862854,0.0,0.0,-0.3382593393325805,-0.054138958454132
-0.3749160766601562,0.8414372801780701,-0.7409778833389282,-0.6870210766792297,-0.4271838068962097,-0.7623188495635986,0.0,0.0,-0.146557331085205,0.5097520351409912
-0.3827001452445984,0.8258746266365051,-0.7428545355796814,-0.7029629349708557,-0.466055303812027,-0.7774306535720825,0.0,0.0,0.2599105834960937,0.0003659725189208
-0.3903594017028808,0.8107406497001648,-0.7308962345123291,-0.6848837733268738,-0.5051130652427673,-0.7811558842658997,0.0,0.0,0.2900997400283813,-0.8092858195304871
-0.3978545069694519,0.7959603667259216,-0.716848611831665,-0.6694192290306091,-0.5423024296760559,-0.7437875866889954,0.0,0.0,0.3612804412841797,-0.9732074737548828
-0.4051919877529144,0.7819229960441589,-0.703655481338501,-0.636404812335968,-0.5773219466209412,-0.7003918290138245,0.0,0.0,0.8598113059997559,-0.9989247918128968
-0.4121938645839691,0.7683750987052917,-0.672749400138855,-0.6144309639930725,-0.609954297542572,-0.6526469588279724,0.0,0.0,0.8344829082489014,-0.9965245127677916
-0.4190743863582611,0.7551394104957581,-0.6630333065986633,-0.6002561450004578,-0.640380322933197,-0.6085213422775269,0.0,0.0,0.8615957498550415,-0.994334876537323
-0.425755888223648,0.7420090436935425,-0.6455766558647156,-0.5950850248336792,-0.6684373021125793,-0.5611390471458435,0.0,0.0,0.816852331161499,-0.9979377388954164
-0.4323187470436096,0.7290972471237183,-0.6359451413154602,-0.5848262906074524,-0.6942631006240845,-0.5165163278579712,0.0,0.0,0.5392403602600098,-0.9870035648345948
-0.4384828507900238,0.716803252696991,-0.5982500314712524,-0.5566942095756531,-0.7178000211715698,-0.47073894739151,0.0,0.0,0.9144902229309082,-0.9792617559432985
-0.4440079629421234,0.7052342891693115,-0.5365384817123413,-0.5236586928367615,-0.7389101982116699,-0.4222036898136139,0.0,0.0,0.8120431900024414,-0.9474862217903136
-0.4490827023983001,0.6945533752441406,-0.4933082163333893,-0.4834619462490082,-0.7579748630523682,-0.3812927007675171,0.0,0.0,0.9764094352722168,-0.9675752520561218
-0.4540654718875885,0.684224545955658,-0.4858075082302093,-0.4670552015304565,-0.775053858757019,-0.3415809273719787,0.0,0.0,0.982582688331604,-0.9874099493026732
-0.4583889544010162,0.6746159195899963,-0.4217875003814697,-0.4340453147888183,-0.7897391319274902,-0.2937051653861999,0.0,0.0,0.9726489782333374,-0.987246572971344
-0.4623596668243408,0.6656291484832764,-0.3881588876247406,-0.405468612909317,-0.8023040890693665,-0.2512994706630707,0.0,0.0,0.9914754629135132,-0.9911547303199768
-0.4658271372318268,0.6573306322097778,-0.3395017981529236,-0.3738668859004974,-0.8126469254493713,-0.2068572491407394,0.0,0.0,0.9751954078674316,-0.9740829467773438
-0.4687251150608063,0.6496686339378357,-0.284189224243164,-0.3445081710815429,-0.8207247853279114,-0.1615573912858963,0.0,0.0,0.9863126277923584,-0.9353018403053284
-0.4710543751716614,0.6423463225364685,-0.2289964705705642,-0.3282645642757416,-0.8264352679252625,-0.1142091527581214,0.0,0.0,0.961095929145813,-0.9796603322029114
-0.4730875492095947,0.6351509690284729,-0.2009905874729156,-0.3214825987815857,-0.8298316597938538,-0.0679274573922157,0.0,0.0,0.9256281852722168,-0.9717898368835448
-0.4747110307216644,0.6280478835105896,-0.1616750508546829,-0.3161791265010834,-0.8308132290840149,-0.0196316577494144,0.0,0.0,0.8293471336364746,-0.976931929588318
-0.475754827260971,0.6211382746696472,-0.1054079309105873,-0.3063477873802185,-0.8293094038963318,0.0300762765109539,0.0,0.0,0.6102995872497559,-0.9975335597991944
-0.4764212965965271,0.6141995787620544,-0.0693278759717941,-0.3064424395561218,-0.8253991603851318,0.0782045572996139,0.0,0.0,0.2183868885040283,-0.9977493286132812
-0.4766823351383209,0.6075911521911621,-0.0303971525281667,-0.2906214296817779,-0.819162905216217,0.1247252449393272,0.0,0.0,-0.1618902683258056,-0.9670034646987916
-0.4769336581230163,0.6007371544837952,-0.0309410542249679,-0.3005092442035675,-0.8107929825782776,0.1673983931541443,0.0,0.0,0.4289277791976928,-0.9889658093452454
-0.4766739904880523,0.5941029191017151,0.0184664539992809,-0.2896474003791809,-0.8001080751419067,0.2136976271867752,0.0,0.0,0.0884428024291992,-0.9950266480445862
-0.4762012064456939,0.5873565673828125,0.0381357073783874,-0.2936348021030426,-0.7872347235679626,0.2574666440486908,0.0,0.0,0.4671896696090698,-0.9880267381668092
-0.4754349291324615,0.5808982253074646,0.0657587200403213,-0.2798620462417602,-0.7721390724182129,0.3019126355648041,0.0,0.0,-0.1969160437583923,-0.9885146617889404
-0.4746406674385071,0.574191153049469,0.0669687539339065,-0.290124237537384,-0.7550969123840332,0.3408430814743042,0.0,0.0,0.3355326652526855,-0.96083003282547
-0.4735282957553863,0.567760169506073,0.0969577878713607,-0.2770181596279144,-0.7358986735343933,0.3839664161205292,0.0,0.0,-0.0621565580368042,-0.974465548992157
-0.4724031984806061,0.5611032843589783,0.0959670022130012,-0.286069244146347,-0.7140601277351379,0.4367710649967193,0.0,0.0,0.0550528764724731,-0.7730244994163513
-0.470902144908905,0.5546273589134216,0.131895825266838,-0.2775181531906128,-0.6904919743537903,0.471362829208374,0.0,0.0,-0.2856239676475525,-0.6404931545257568
-0.4693590700626373,0.5478848814964294,0.1345215141773224,-0.289009690284729,-0.66538405418396,0.5021587610244751,0.0,0.0,-0.3767098784446716,-0.3871373534202575
-0.4677320420742035,0.5408214926719666,0.1425261944532394,-0.3036150336265564,-0.6402860879898071,0.501959502696991,0.0,0.0,-0.324843168258667,-0.6156390309333801
-0.4660596251487732,0.5334805250167847,0.1455437839031219,-0.3157532811164856,-0.6138119697570801,0.5294833779335022,0.0,0.0,-0.233468472957611,0.0516777038574218
-0.4642992615699768,0.525819718837738,0.1539509892463684,-0.3303655385971069,-0.5873590111732483,0.5290597081184387,0.0,0.0,0.1879395246505737,0.1225252151489257
-0.4623306691646576,0.5183991193771362,0.1748267561197281,-0.32027068734169,-0.561432957649231,0.5185206532478333,0.0,0.0,0.0824599266052246,0.4246796369552612
-0.4599617123603821,0.5112010836601257,0.2142545729875564,-0.3106613159179687,-0.5352182388305664,0.5242961645126343,0.0,0.0,-0.1769009232521057,0.4727933406829834
-0.4575003683567047,0.5036834478378296,0.2231699526309967,-0.3252758085727691,-0.5090407729148865,0.5235508680343628,0.0,0.0,-0.1830478310585022,0.4805071353912353
-0.4549453854560852,0.4958464801311493,0.232229858636856,-0.3398910164833069,-0.4829057157039642,0.5227016806602478,0.0,0.0,-0.121204674243927,0.3467800617218017
-0.4522956311702728,0.4876902103424072,0.241423413157463,-0.3545069694519043,-0.456818163394928,0.521750807762146,0.0,0.0,-0.3697024583816528,0.6066205501556396
-0.4494954943656921,0.4791814386844635,0.2576427161693573,-0.3710363507270813,-0.4323421716690063,0.489520400762558,0.0,0.0,-0.1606625914573669,0.219839334487915
-0.446599006652832,0.4703526198863983,0.2670778632164001,-0.3856474161148071,-0.4079232513904571,0.4883782267570495,0.0,0.0,-0.1771865487098693,-0.5217345356941223
-0.4436417520046234,0.461233377456665,0.2719372808933258,-0.3986574411392212,-0.3824655711650848,0.5091539025306702,0.0,0.0,-0.1296987533569336,0.0838943719863891
-0.4405862689018249,0.4517948031425476,0.281571090221405,-0.4132733941078186,-0.3570743799209595,0.5078243017196655,0.0,0.0,-0.0808384418487548,0.3614418506622314
-0.4374319911003113,0.4420369267463684,0.291294127702713,-0.4278896152973175,-0.331754058599472,0.5064064860343933,0.0,0.0,0.2960348129272461,0.4553477764129638
-0.4341110289096832,0.4326943159103393,0.3082519173622131,-0.4099478423595428,-0.3069525957107544,0.4960300028324127,0.0,0.0,0.1634881496429443,-0.0100646615028381
-0.4306667447090149,0.4235913455486297,0.3208746612071991,-0.3997893035411834,-0.2826482951641083,0.4860868453979492,0.0,0.0,0.2106629610061645,0.3293025493621826
-0.4270219802856445,0.414770096540451,0.340904176235199,-0.387676328420639,-0.2585000991821289,0.4829646050930023,0.0,0.0,-0.1342406272888183,-0.4816988706588745
-0.4232764840126037,0.4056289792060852,0.3509194254875183,-0.4022890627384186,-0.2344386875629425,0.4812283515930176,0.0,0.0,0.2635843753814697,-0.1209059953689575
-0.4192686676979065,0.3965344429016113,0.3766421973705292,-0.4005426466464996,-0.2100060582160949,0.4886528551578522,0.0,0.0,0.0156390666961669,-0.1554278135299682
-0.4150130152702331,0.3877182602882385,0.4011179804801941,-0.3885433077812195,-0.1853904575109481,0.4923121035099029,0.0,0.0,0.1294394731521606,-0.5263884663581848
-0.4105754792690277,0.3794071972370147,0.4182007312774658,-0.3663902282714844,-0.15977743268013,0.5122605562210083,0.0,0.0,-0.1406816244125366,-0.3649677038192749
-0.4060356616973877,0.3707772195339203,0.4284188151359558,-0.381009578704834,-0.1342648714780807,0.5102511644363403,0.0,0.0,0.1455659866333007,-0.6598911285400391
