x_pos,y_pos,x_vel,y_vel,angle,ang_vel,leg_1,leg_2,main_booster,lat_booster
-0.0015542029868811,1.4032373428344729,-0.158256322145462,-0.3414651751518249,0.002529882825911,0.0499616675078868,0.0,0.0,0.0497800111770629,0.7582615613937378
-0.0030434608925133,1.3956267833709717,-0.150679811835289,-0.3382576406002044,0.0042607933282852,0.034622024744749,0.0,0.0,-0.7727686166763306,0.7521498203277588
-0.0044931410811841,1.3876231908798218,-0.1456212252378463,-0.3557166457176208,0.0049046473577618,0.0128784198313951,0.0,0.0,0.0293697118759155,0.8283621072769165
-0.0059997560456395,1.3796963691711426,-0.150354191660881,-0.3523018062114715,0.0046046236529946,-0.006001160480082,0.0,0.0,0.1319193840026855,0.8246331214904785
-0.0073754312470555,1.372056007385254,-0.1364232003688812,-0.339565098285675,0.0034722578711807,-0.0226493868976831,0.0,0.0,-0.1104465723037719,0.1138640642166137
-0.0087860105559229,1.3640284538269043,-0.140634685754776,-0.356783777475357,0.0030612770933657,-0.0082204062491655,0.0,0.0,-0.2005810141563415,0.6411159038543701
-0.0101834293454885,1.3556137084960938,-0.1388155370950698,-0.3739835321903229,0.002145973034203,-0.0183078330010175,0.0,0.0,-0.1314021348953247,0.6146225929260254
-0.0115565303713083,1.3468137979507446,-0.1355688571929931,-0.391107976436615,0.0004267174226697,-0.0343883149325847,0.0,0.0,-0.3957764506340027,0.7484767436981201
-0.0129083637148141,1.337634801864624,-0.1326929181814193,-0.4079591333866119,-0.0020354096777737,-0.0492471233010292,0.0,0.0,0.6112005710601807,0.8268735408782959
-0.0142313959077,1.3291360139846802,-0.1288689225912094,-0.3777302503585815,-0.0054321591742336,-0.0679415613412857,0.0,0.0,-0.2232738137245178,0.5968058109283447
-0.0155380247160792,1.3202497959136963,-0.126567929983139,-0.394959956407547,-0.0094805471599102,-0.0809751078486442,0.0,0.0,0.5139751434326172,0.4736337661743164
-0.0168128963559865,1.311701774597168,-0.124405637383461,-0.3799400925636291,-0.0125283505767583,-0.0609615854918956,0.0,0.0,-0.5371118187904358,0.9254238605499268
-0.0180370323359966,1.3027691841125488,-0.1177664995193481,-0.3970436453819275,-0.0171206351369619,-0.0918540209531784,0.0,0.0,-0.3009397387504577,0.0223340988159179
-0.0192992202937603,1.293449640274048,-0.1222731322050094,-0.4142563641071319,-0.0210319925099611,-0.0782340764999389,0.0,0.0,-0.4853541851043701,0.3287181854248047
-0.0205998420715332,1.2837426662445068,-0.1267939656972885,-0.4314707517623901,-0.0242720581591129,-0.0648068189620971,0.0,0.0,-0.2159343957901001,0.954725980758667
-0.021850299090147,1.2736339569091797,-0.1201733946800232,-0.4493643343448639,-0.0290890615433454,-0.0963488519191742,0.0,0.0,-0.6299360990524292,0.3585222959518432
-0.0231392867863178,1.2631378173828125,-0.1246968880295753,-0.4665798246860504,-0.0332516469061374,-0.0832589119672775,0.0,0.0,-0.1983664035797119,0.3081604242324829
-0.0244668964296579,1.2522544860839844,-0.1292178183794021,-0.4837947189807892,-0.0367718152701854,-0.0704095736145973,0.0,0.0,-0.6421094536781311,0.3534485101699829
-0.0258334167301654,1.240983247756958,-0.1337298601865768,-0.5010092258453369,-0.0396607331931591,-0.0577834956347942,0.0,0.0,0.0044223070144653,0.0658206939697265
-0.0272740367799997,1.2298433780670166,-0.1415308862924575,-0.49517822265625,-0.0421602725982666,-0.0499952137470245,0.0,0.0,0.6395893096923828,0.82859206199646
-0.0285157207399606,1.2194268703460691,-0.1208447441458702,-0.4630447924137115,-0.0454585961997509,-0.0659720227122306,0.0,0.0,0.1571220159530639,0.6903610229492188
-0.0297182090580463,1.2090791463851929,-0.1161424964666366,-0.4600361883640289,-0.0495281219482421,-0.0813977420330047,0.0,0.0,-0.9016590118408204,0.3441102504730224
-0.0309590343385934,1.1983437538146973,-0.1205573230981826,-0.477250188589096,-0.0530230961740016,-0.0699056088924408,0.0,0.0,-0.4913062453269958,0.7985235452651978
-0.0321680083870887,1.187206506729126,-0.1161377057433128,-0.4951692521572113,-0.0577361173927784,-0.0942686423659324,0.0,0.0,0.0147918462753295,-0.8819875717163086
-0.0335651412606239,1.1762909889221191,-0.1372843533754348,-0.4852296710014343,-0.0601451992988586,-0.0481857620179653,0.0,0.0,0.0107213258743286,-0.1794220209121704
-0.035064123570919,1.1656192541122437,-0.1475585550069809,-0.4743930399417877,-0.0624499134719371,-0.0460943765938282,0.0,0.0,-0.588665783405304,0.5866799354553223
-0.0365536697208881,1.1545592546463013,-0.1459417641162872,-0.4916854202747345,-0.0654336065053939,-0.0596739053726196,0.0,0.0,-0.1001020073890686,0.2766021490097046
-0.0380804054439067,1.1431115865707395,-0.150134652853012,-0.5088966488838196,-0.0679451376199722,-0.0502306744456291,0.0,0.0,0.4358724355697632,0.0520156621932983
-0.0397113785147666,1.1322953701019287,-0.1604784876108169,-0.4808419048786163,-0.0705340579152107,-0.051778357475996,0.0,0.0,-0.3208782076835632,0.4650070667266845
-0.0413786880671978,1.121091365814209,-0.1645439863204956,-0.4980530142784118,-0.0727019384503364,-0.0433575883507728,0.0,0.0,0.4558013677597046,0.6467455625534058
-0.0429584495723247,1.1106157302856443,-0.1549110412597656,-0.4657340347766876,-0.0757263973355293,-0.060489285737276,0.0,0.0,-0.91892272233963,0.7056281566619873
-0.0445253364741802,1.0997430086135864,-0.1527678817510604,-0.483435720205307,-0.0796116963028907,-0.0777061358094215,0.0,0.0,0.0772515535354614,0.8915553092956543
-0.0460782051086425,1.089272141456604,-0.1499067991971969,-0.4656744003295898,-0.0849426984786987,-0.1066200137138366,0.0,0.0,-0.5953460931777954,0.2056008577346801
-0.0476656928658485,1.078413724899292,-0.1536656767129898,-0.4828876852989197,-0.089972123503685,-0.1005883440375328,0.0,0.0,-0.8074619770050049,0.4615880250930786
-0.0492870323359966,1.067168116569519,-0.1573376208543777,-0.5001007914543152,-0.0947330519556999,-0.0952186435461044,0.0,0.0,-0.6020603775978088,0.9233261346817015
-0.0508665069937706,1.055531620979309,-0.1514719277620315,-0.5176032185554504,-0.1011533737182617,-0.1284063011407852,0.0,0.0,-0.9001426696777344,0.7506511211395264
-0.0524226203560829,1.043495774269104,-0.1478917300701141,-0.5354679226875305,-0.1088074147701263,-0.1530808061361313,0.0,0.0,-0.66269850730896,0.5162016153335571
-0.0539674758911132,1.0310702323913574,-0.1458346992731094,-0.5529032945632935,-0.1173913776874542,-0.1716795563697815,0.0,0.0,0.3490090370178222,0.8640122413635254
-0.0554307922720909,1.019287109375,-0.136065661907196,-0.5245334506034851,-0.1276049613952636,-0.2042723596096038,0.0,0.0,-0.9606956839561462,0.1915377378463745
-0.0569249168038368,1.0071179866790771,-0.139250710606575,-0.5417541265487671,-0.137728676199913,-0.2024737298488617,0.0,0.0,0.627936840057373,0.1603121757507324
-0.0584481246769428,0.9957243800163268,-0.1417259722948074,-0.5073938369750977,-0.148286372423172,-0.2111538350582122,0.0,0.0,-0.9919684529304504,-0.1793715357780456
-0.0600005164742469,0.98394513130188,-0.144694447517395,-0.5246159434318542,-0.1588284522294998,-0.2108417302370071,0.0,0.0,-0.1341630220413208,-0.719846785068512
-0.061629582196474,0.9717833399772644,-0.1535540670156479,-0.5415557026863098,-0.1681880354881286,-0.1871915906667709,0.0,0.0,-0.6481362581253052,0.289696455001831
-0.0632865875959396,0.9592354893684388,-0.1562954485416412,-0.55877685546875,-0.1776056736707687,-0.1883527040481567,0.0,0.0,-0.9389731884002686,0.7944257259368896
-0.0649140328168869,0.9462772011756896,-0.1517888456583023,-0.5772773623466492,-0.1886087208986282,-0.2200612127780914,0.0,0.0,0.2150412797927856,-0.1874170899391174
-0.0664883628487587,0.9332860112190248,-0.1465246379375457,-0.5788123607635498,-0.1995850652456283,-0.219527006149292,0.0,0.0,-0.662009060382843,-0.6262605786323547
-0.0681320205330848,0.9199194312095642,-0.1544362157583236,-0.5954485535621643,-0.2095970958471298,-0.2002407610416412,0.0,0.0,-0.5915002822875977,-0.596341609954834
-0.0698539763689041,0.906190812587738,-0.1634886264801025,-0.6114199161529541,-0.2183787673711776,-0.1756338626146316,0.0,0.0,-0.9410054683685304,-0.4466528296470642
-0.0715994834899902,0.8920765519142151,-0.1656320989131927,-0.6286434531211853,-0.2273904681205749,-0.1802344024181366,0.0,0.0,0.7828686237335205,-0.3473955988883972
-0.0732658356428146,0.8783866763114929,-0.1573979556560516,-0.6098910570144653,-0.2367691248655319,-0.1875734180212021,0.0,0.0,-0.697460949420929,-0.9325947165489196
-0.0750084891915321,0.864331066608429,-0.1661592870950698,-0.6260244846343994,-0.2450058311223983,-0.1647341251373291,0.0,0.0,-0.5194117426872253,-0.9644191861152648
-0.0768516510725021,0.8499264121055603,-0.1780113875865936,-0.6412748694419861,-0.2514229416847229,-0.128341943025589,0.0,0.0,-0.7380859851837158,0.0634295940399169
-0.0787145644426345,0.8351360559463501,-0.1796603053808212,-0.6584985852241516,-0.2581868469715118,-0.1352782845497131,0.0,0.0,-0.4060997366905212,-0.8022627234458923
-0.0806557685136795,0.8199913501739502,-0.1887249499559402,-0.6740558743476868,-0.2637025713920593,-0.1103142499923706,0.0,0.0,-0.575520396232605,-0.8303985595703125
-0.0826629623770713,0.8044774532318115,-0.1961746513843536,-0.6903355717658997,-0.2683530747890472,-0.0930102095007896,0.0,0.0,-0.0984826683998107,-0.7006368041038513
-0.0847493186593055,0.7886003851890564,-0.2052853554487228,-0.7062681317329407,-0.2717820405960083,-0.0685801729559898,0.0,0.0,-0.9428762197494508,-0.8119542598724365
-0.0869021415710449,0.772366464138031,-0.2128680497407913,-0.7219541072845459,-0.2742571234703064,-0.0495016276836395,0.0,0.0,-0.5897499322891235,0.5214390754699707
-0.0890208259224891,0.7557287812232971,-0.2077394723892212,-0.7402371168136597,-0.2784913182258606,-0.0846830308437347,0.0,0.0,-0.7394940853118896,-0.3548133373260498
-0.0911533385515213,0.738705575466156,-0.2086608111858368,-0.7574626207351685,-0.2832062244415283,-0.0942979007959365,0.0,0.0,0.453120470046997,-0.9798179268836976
-0.0932517051696777,0.7223653793334961,-0.2066515237092971,-0.7268521785736084,-0.2864811718463897,-0.0654989406466484,0.0,0.0,0.1206965446472168,-0.8739696741104126
-0.0953195542097091,0.7060062289237976,-0.2048311233520507,-0.7274653315544128,-0.2884942591190338,-0.0402620024979114,0.0,0.0,-0.377657949924469,-0.9319389462471008
-0.0974795371294021,0.6893028616905212,-0.215672567486763,-0.7424365878105164,-0.2888250350952148,-0.0066154352389276,0.0,0.0,0.7986500263214111,-0.876594603061676
-0.099413201212883,0.672987699508667,-0.1944955885410308,-0.7248955368995667,-0.2876655757427215,0.0231889560818672,0.0,0.0,0.2636425495147705,-0.8491767048835754
-0.1012669578194618,0.6569826006889343,-0.1876581758260727,-0.7108901739120483,-0.2853226661682129,0.0468582063913345,0.0,0.0,-0.0048293471336364,-0.0632016658782959
-0.1031289100646972,0.6405925154685974,-0.1879181563854217,-0.728117048740387,-0.2835502028465271,0.0354489907622337,0.0,0.0,0.5098505020141602,-0.0187469124794006
-0.1049555763602256,0.6246424317359924,-0.1833178848028183,-0.7087628841400146,-0.2828830778598785,0.0133426282554864,0.0,0.0,0.3581831455230713,-0.8613781929016113
-0.1066362410783767,0.6093502640724182,-0.1698641628026962,-0.6793003678321838,-0.281031459569931,0.0370327979326248,0.0,0.0,0.6536718606948853,-0.7845173478126526
-0.10821533203125,0.5940741300582886,-0.1608304679393768,-0.6783826947212219,-0.2780364155769348,0.0599007010459899,0.0,0.0,0.6892282962799072,-0.5798139572143555
-0.1095737442374229,0.5796850323677063,-0.1393868923187255,-0.6388444900512695,-0.2743955850601196,0.0728169009089469,0.0,0.0,-0.6737227439880371,-0.603285551071167
-0.1109895706176757,0.5649308562278748,-0.1459007412195205,-0.6549336314201355,-0.2699630260467529,0.088651105761528,0.0,0.0,0.6092298030853271,-0.5099717974662781
-0.1123630553483963,0.5508018136024475,-0.1418302804231643,-0.6271410584449768,-0.265379250049591,0.091675654053688,0.0,0.0,0.408198595046997,-0.4376956820487976
-0.1135746985673904,0.5370453596115112,-0.1251429915428161,-0.610680878162384,-0.2613089978694916,0.0814051255583763,0.0,0.0,-0.2998578548431396,-0.0001425743103027
-0.1147882491350174,0.5229040384292603,-0.124709703028202,-0.6279091238975525,-0.2578800320625305,0.0685787051916122,0.0,0.0,0.3880690336227417,-0.437525987625122
-0.115819551050663,0.5090578198432922,-0.1061444133520126,-0.614862322807312,-0.254813015460968,0.0613409280776977,0.0,0.0,0.8231147527694702,-0.8197664618492126
-0.1168460845947265,0.4954867660999298,-0.1065617203712463,-0.602482795715332,-0.2508264183998108,0.0797318518161773,0.0,0.0,0.5206296443939209,-0.1361888647079467
-0.1177379637956619,0.4819421768188476,-0.0927351936697959,-0.6013762354850769,-0.2472083866596222,0.0723605006933212,0.0,0.0,0.5898628234863281,-0.7775281071662903
-0.1186430007219314,0.4685151278972626,-0.0948860347270965,-0.5960258841514587,-0.2427474558353424,0.0892185866832733,0.0,0.0,0.6615414619445801,-0.5719767808914185
-0.1194071769714355,0.4558892846107483,-0.0812766626477241,-0.5603582859039307,-0.2378174364566803,0.0986007153987884,0.0,0.0,0.8344722986221313,0.4790663719177246
-0.1198705658316612,0.4441676139831543,-0.0509403869509696,-0.5202300548553467,-0.2331473231315612,0.0934021696448326,0.0,0.0,-0.2232594490051269,0.5441672801971436
-0.1202977150678634,0.4320540428161621,-0.0457792468369007,-0.5378987193107605,-0.2300401628017425,0.0621433071792125,0.0,0.0,0.1486825942993164,-0.7498975992202759
-0.1208294853568077,0.4199395179748535,-0.056974072009325,-0.5378332734107971,-0.2261965721845626,0.0768717676401138,0.0,0.0,0.8589217662811279,0.0196359157562255
-0.1211156845092773,0.4087249040603637,-0.0319528505206108,-0.4979221522808075,-0.2228237390518188,0.0674567148089408,0.0,0.0,-0.1271754503250122,-0.4694095849990845
-0.1213998794555664,0.3971250057220459,-0.0310787558555603,-0.5151487588882446,-0.2201340645551681,0.0537933707237243,0.0,0.0,-0.3112549185752868,-0.9224066138267516
-0.1217589378356933,0.3851698637008667,-0.0398891679942607,-0.5307515859603882,-0.2161005139350891,0.0806711688637733,0.0,0.0,0.4262809753417969,0.044040560722351
-0.1219963058829307,0.373717337846756,-0.0270087905228137,-0.5085288882255554,-0.2128023505210876,0.0659631937742233,0.0,0.0,0.3756437301635742,-0.3242965340614319
-0.1220583915710449,0.3625667989253998,-0.009113990701735,-0.4951623976230621,-0.2098577469587326,0.058892048895359,0.0,0.0,0.3855955600738525,-0.7000014185905457
-0.1220918670296669,0.3514558672904968,-0.0070132850669324,-0.4933051466941833,-0.2061647325754165,0.0738606303930282,0.0,0.0,0.7635338306427002,-0.8175317645072937
-0.1219927817583084,0.340571254491806,0.0051034875214099,-0.4830965101718902,-0.2013197988271713,0.0968982428312301,0.0,0.0,0.3611961603164673,-0.3080681562423706
-0.121678926050663,0.3299566507339477,0.0267007052898406,-0.4711312353610992,-0.1966075599193573,0.0942449495196342,0.0,0.0,0.1803719997406005,-0.5210213661193848
-0.1212424263358116,0.319347620010376,0.0384090803563594,-0.4708272218704223,-0.1913273632526397,0.1056036353111267,0.0,0.0,-0.0633049011230468,-0.2574072480201721
-0.1208045035600662,0.3083533346652984,0.0392255783081054,-0.4880536198616028,-0.1867420375347137,0.0917063504457473,0.0,0.0,0.102332592010498,-0.6499499678611755
-0.1202985793352127,0.2977324426174164,0.0453832559287548,-0.4713950753211975,-0.1815162152051925,0.104516826570034,0.0,0.0,0.2357964515686035,-0.2022607326507568
-0.1196105033159256,0.2874371111392975,0.0638667345046997,-0.456971675157547,-0.1765551269054412,0.0992217510938644,0.0,0.0,0.0840581655502319,-0.0624449253082275
-0.1188196167349815,0.2770553231239319,0.0745333060622215,-0.4608780443668365,-0.1719835996627807,0.0914302170276641,0.0,0.0,-0.5532223582267761,-0.1558677554130554
-0.1180291175842285,0.266288012266159,0.0751745030283927,-0.4781027734279632,-0.1681076139211654,0.0775196924805641,0.0,0.0,0.4980627298355102,-0.432935357093811
-0.1170331016182899,0.2562728524208069,0.0960602760314941,-0.4447233378887176,-0.1645719856023788,0.0707127153873443,0.0,0.0,-0.3421635627746582,-0.7390526533126831
-0.1160987839102745,0.2458867579698562,0.0890530794858932,-0.4611257016658783,-0.1601938754320144,0.0875623077154159,0.0,0.0,0.2497371435165405,-0.3374050259590149
-0.1151639968156814,0.2360286116600036,0.0902409180998802,-0.4377925097942352,-0.1569452285766601,0.0649726539850235,0.0,0.0,0.2743005752563476,-0.6979600787162781
-0.1141280159354209,0.2265810072422027,0.0995225012302398,-0.4194674789905548,-0.1528823673725128,0.0812574699521064,0.0,0.0,-0.5615689158439636,-0.3809553384780884
-0.1130962371826171,0.2167478203773498,0.0998049676418304,-0.4366906881332397,-0.1495115309953689,0.0674166530370712,0.0,0.0,-0.2062333822250366,-0.8717904090881348
-0.1121462807059288,0.2065524905920028,0.0903222486376762,-0.4526604115962982,-0.1448448896408081,0.0933328047394752,0.0,0.0,0.4208451509475708,-0.7122641801834106
-0.1112197861075401,0.1966222375631332,0.0872728675603866,-0.4408315122127533,-0.1394848674535751,0.1072004288434982,0.0,0.0,0.2412886619567871,-0.8698763847351074
-0.1104054450988769,0.1870139241218567,0.0750737860798835,-0.426455944776535,-0.1331422328948974,0.1268528699874878,0.0,0.0,-0.2646816968917846,-0.0051177144050598
-0.1095990166068077,0.1770199388265609,0.0749601945281028,-0.443679928779602,-0.1274854391813278,0.1131360083818435,0.0,0.0,0.2518614530563354,-0.5983209013938904
-0.1086912155151367,0.1674460917711258,0.0844194516539573,-0.424974262714386,-0.1211549937725067,0.1266089677810669,0.0,0.0,0.1242281198501586,-0.5559206604957581
-0.1077613830566406,0.1578552275896072,0.0860981792211532,-0.425717294216156,-0.1143184751272201,0.1367303431034088,0.0,0.0,-0.0513828992843627,-0.7001323103904724
-0.106884479522705,0.1478914320468902,0.0804260522127151,-0.4422991573810577,-0.1070983409881591,0.1444025635719299,0.0,0.0,0.6344704627990723,0.1536910533905029
-0.1059607490897178,0.1386904567480087,0.0858905762434005,-0.4084804356098175,-0.1006594523787498,0.1287777721881866,0.0,0.0,0.5322520732879639,-0.5899782180786133
-0.1048746109008789,0.1302786916494369,0.1012706384062767,-0.3733796775341034,-0.0933820381760597,0.1455480754375457,0.0,0.0,0.2200781106948852,-0.4946202039718628
-0.1037079840898513,0.1221125423908233,0.109736755490303,-0.362524926662445,-0.0865144729614257,0.137351244688034,0.0,0.0,-0.085908830165863,-0.7345871925354004
-0.1026163101196289,0.1135754659771919,0.1014077812433242,-0.3789957761764526,-0.0788305550813674,0.1536783725023269,0.0,0.0,0.3071815967559814,0.2382769584655761
-0.1014460548758506,0.1055786907672882,0.1097121089696884,-0.3550453186035156,-0.0715881288051605,0.1448484361171722,0.0,0.0,0.517453670501709,-0.4034992456436157
-0.100191593170166,0.0978179574012756,0.1184434443712234,-0.3446012437343597,-0.0646630376577377,0.1385019719600677,0.0,0.0,-0.0527992844581604,-0.7051997780799866
-0.0990254431962966,0.0896790623664856,0.1085674911737442,-0.3614054322242737,-0.0567041710019111,0.1591773927211761,0.0,0.0,0.7827093601226807,0.470109224319458
-0.097988985478878,0.0819975733757019,0.0969023331999778,-0.3411579132080078,-0.0500371642410755,0.1333400905132293,0.0,0.0,0.6155505180358887,0.2964832782745361
-0.0969704613089561,0.0747571811079979,0.0958594605326652,-0.3216070234775543,-0.0441140867769718,0.1184618324041366,0.0,0.0,0.4098944664001465,0.6756994724273682
-0.0958801284432411,0.0678059682250022,0.1050040945410728,-0.3088292479515075,-0.0401325598359108,0.0796302929520607,0.0,0.0,0.2316125631332397,0.0664767026901245
-0.0947094932198524,0.0608639828860759,0.1132207661867141,-0.308437168598175,-0.0363369435071945,0.0759124085307121,0.0,0.0,0.7761459350585938,0.3150868415832519
-0.093436911702156,0.0546313151717186,0.1235719695687294,-0.276920884847641,-0.0326873399317264,0.0729917287826538,0.0,0.0,0.1036443710327148,-0.2105506658554077
-0.0921608954668045,0.048818789422512,0.1244540810585022,-0.2582679390907287,-0.0295851342380046,0.0620441362261772,0.0,0.0,0.0561834573745727,-0.6461873650550842
