x_pos,y_pos,x_vel,y_vel,angle,ang_vel,leg_1,leg_2,main_booster,lat_booster
-0.0014988898765295,1.4031670093536377,-0.1519939452409744,-0.3445897400379181,0.0018862100550904,0.0372163280844688,0.0,0.0,0.1315711522405056,0.859007346842807
-0.0028646469581872,1.395449161529541,-0.1368719488382339,-0.3430093228816986,0.0021765055134892,0.0058071129024028,0.0,0.0,-0.7688056680656046,0.659435741200044
-0.0041420934721827,1.3872686624526978,-0.1265507191419601,-0.3635771572589874,0.0009935535490512,-0.0236610975116491,0.0,0.0,-0.693771755797681,0.9244144344683494
-0.0053362846374511,1.3786275386810305,-0.1168436780571937,-0.3840479254722595,-0.0015434371307492,-0.0507448315620422,0.0,0.0,0.7227373521001319,0.640651548974578
-0.0063086510635912,1.3705503940582275,-0.0938765108585357,-0.3589877188205719,-0.0048672435805201,-0.0664825364947319,0.0,0.0,-0.174928458732815,0.7819097850090879
-0.0071805953048169,1.3620141744613647,-0.0820150822401046,-0.3794171214103699,-0.0099896844476461,-0.1024582237005233,0.0,0.0,0.5137172244416197,-0.6821753185834105
-0.0080987932160496,1.3538153171539309,-0.0880507603287696,-0.3644228875637054,-0.013715379871428,-0.0745207816362381,0.0,0.0,0.7716948519244977,0.6846659834399371
-0.0087553020566701,1.3461966514587402,-0.0610306784510612,-0.3386493325233459,-0.0182836409658193,-0.0913734808564186,0.0,0.0,0.0110599579063721,0.7435766740105414
-0.0093277934938669,1.3388956785202026,-0.0512167327105999,-0.3245803415775299,-0.0242512486875057,-0.1193628311157226,0.0,0.0,0.8344771412351029,-0.9437497161895978
-0.0099315643310546,1.332355260848999,-0.0563044846057891,-0.2907561063766479,-0.0282794833183288,-0.0805719941854476,0.0,0.0,0.0473053186006711,-0.9082663474023625
-0.0105072977021336,1.3259230852127075,-0.0553837493062019,-0.2859152555465698,-0.0304455943405628,-0.0433259084820747,0.0,0.0,0.6273531813855124,0.9702845032430596
-0.0108882905915379,1.319804310798645,-0.0341349616646766,-0.272023469209671,-0.0343799702823162,-0.0786946341395378,0.0,0.0,0.685356832826499,-0.721531255444886
-0.0111330989748239,1.3142969608306885,-0.0223027057945728,-0.2448244094848632,-0.0365201458334922,-0.0428075306117534,0.0,0.0,-0.8478131045033663,-0.752387073891198
-0.0114072803407907,1.3083277940750122,-0.0266227722167968,-0.265320748090744,-0.0373082272708416,-0.0157631821930408,0.0,0.0,-0.6946747161132012,-0.6140166154602997
-0.0116955759003758,1.301909327507019,-0.028999825939536,-0.2852581441402435,-0.0371396355330944,0.0033719867933541,0.0,0.0,-0.7934437713755409,-0.9321860312789964
-0.0120219234377145,1.2950257062911987,-0.0343403443694114,-0.3058970868587494,-0.0354465954005718,0.0338641442358493,0.0,0.0,-0.2833658920309394,0.9236986310453348
-0.0122364042326807,1.2876906394958496,-0.0208826195448637,-0.3260244131088257,-0.0360035076737403,-0.0111392177641391,0.0,0.0,0.9748438941955468,0.7296153356374546
-0.0121717453002929,1.2805500030517578,0.0080357110127806,-0.3174046277999878,-0.0375609323382377,-0.0311511904001235,0.0,0.0,0.751433205402483,-0.744917615072459
-0.0119999889284372,1.27423095703125,0.0170187167823314,-0.280835896730423,-0.0374131463468074,0.0029563300777226,0.0,0.0,-0.806483469498988,0.6400318458688409
-0.0117637636139988,1.267451524734497,0.0246233157813549,-0.3013342618942261,-0.0383964478969574,-0.0196678284555673,0.0,0.0,0.3728246112776565,0.5015786842882475
-0.0113289831206202,1.261145830154419,0.0452336147427558,-0.280298501253128,-0.0401303134858608,-0.0346807651221752,0.0,0.0,-0.7180233129252702,0.9536671607780473
-0.0107974056154489,1.254372477531433,0.056904025375843,-0.3011437654495239,-0.0438462272286415,-0.0743249803781509,0.0,0.0,-0.2501486408402691,0.5881702627830518
-0.0101898191496729,1.247137188911438,0.0660066306591034,-0.3217251002788543,-0.0490411072969436,-0.1039069145917892,0.0,0.0,-0.2480799961299133,-0.6905586343890281
-0.0096116065979003,1.239440679550171,0.0619144961237907,-0.3422107398509979,-0.0530902743339538,-0.0809904485940933,0.0,0.0,-0.5325974131645317,0.8116521188311101
-0.0089656831696629,1.2312850952148438,0.0700090378522872,-0.3626708984375,-0.0584505759179592,-0.1072155386209487,0.0,0.0,0.6972369350776835,0.8040456967573565
-0.0083613395690917,1.223747491836548,0.067863717675209,-0.335318922996521,-0.0658009424805641,-0.147007018327713,0.0,0.0,-0.4658675846888236,-0.7935273388608395
-0.0078015327453613,1.215763807296753,0.0619127750396728,-0.3550988137722015,-0.0716746971011161,-0.1174752488732338,0.0,0.0,0.7162722319645409,-0.8812751103917084
-0.0073829651810228,1.2086385488510132,0.0463641062378883,-0.3168997466564178,-0.0761406868696212,-0.0893196016550064,0.0,0.0,0.6558278673646869,-0.5307586095819647
-0.0070701600052416,1.2022424936294556,0.0352167822420597,-0.2844831347465515,-0.0800340101122856,-0.0778663903474807,0.0,0.0,0.2614625783066753,0.756868205658205
-0.0066701890900731,1.1959377527236938,0.0455834046006202,-0.2805148959159851,-0.0855739936232566,-0.1107998117804527,0.0,0.0,-0.1411163384787488,0.6275338241649779
-0.0062036514282226,1.1891767978668213,0.0536720529198646,-0.3009086847305298,-0.0925241112709045,-0.1390021741390228,0.0,0.0,-0.7258491516113281,-0.9344764351844788
-0.0058057783171534,1.181964874267578,0.0448005832731723,-0.3208474218845367,-0.0975022912025451,-0.0995634794235229,0.0,0.0,-0.4763051867485046,-0.915457546710968
-0.005475235171616,1.1743162870407104,0.0361110158264637,-0.3401371240615845,-0.100537285208702,-0.0606995895504951,0.0,0.0,-0.6049588918685913,-0.9218366146087646
-0.0052120210602879,1.1662142276763916,0.027472585439682,-0.3601698875427246,-0.1016830205917358,-0.0229145660996437,0.0,0.0,-0.7121655941009521,-0.6854588389396667
-0.0049883844330906,1.1576642990112305,0.0223280228674411,-0.3799976408481598,-0.1016435101628303,0.000789881509263,0.0,0.0,-0.7457560896873474,-0.6492965817451477
-0.0048016547225415,1.1486693620681765,0.0175190269947052,-0.3996984660625458,-0.1004963368177414,0.0229438543319702,0.0,0.0,-0.9163472056388856,-0.5964803695678711
-0.0046524046920239,1.139221429824829,0.0126711996272206,-0.4197592139244079,-0.0982629060745239,0.0446688756346702,0.0,0.0,-0.8888795375823975,-0.708324134349823
-0.0045438767410814,1.1293293237686155,0.0074149882420897,-0.4394264817237854,-0.0948622524738311,0.0680134147405624,0.0,0.0,-0.9276991486549376,-0.477297842502594
-0.0044249533675611,1.1189799308776855,0.0086229238659143,-0.4597663879394531,-0.0916225165128707,0.0647947341203689,0.0,0.0,-0.9237209558486938,-0.3330971002578735
-0.0042962073348462,1.1081734895706177,0.0097731035202741,-0.4801062345504761,-0.0885468572378158,0.0615133829414844,0.0,0.0,-0.9495728015899658,-0.3058382272720337
-0.004158210940659,1.0969096422195437,0.0108652766793966,-0.5004459023475647,-0.085638090968132,0.0581751354038715,0.0,0.0,-0.9072041511535645,0.1543153524398803
-0.0040115355513989,1.085188627243042,0.0118993259966373,-0.5207855105400085,-0.0828988403081893,0.0547853112220764,0.0,0.0,-0.9543102979660034,-0.2965880632400512
-0.003856849623844,1.073009967803955,0.0128752589225769,-0.5411250591278076,-0.0803314447402954,0.0513479001820087,0.0,0.0,-0.957934558391571,-0.5269270539283752
-0.0037295341026037,1.0603773593902588,0.0094320587813854,-0.5612784624099731,-0.0770617723464965,0.0653934031724929,0.0,0.0,-0.7112139463424683,0.0103542804718017
-0.0035953521728515,1.0472873449325562,0.0102922543883323,-0.5816181302070618,-0.0739679113030433,0.061877004802227,0.0,0.0,-0.9655223488807678,0.0785260200500488
-0.0034549713600426,1.0337400436401367,0.0110951429232954,-0.6019576787948608,-0.0710515826940536,0.0583266392350196,0.0,0.0,-0.9333910346031188,-0.216278076171875
-0.0033088685013353,1.019735336303711,0.0118412524461746,-0.6222972273826599,-0.068314291536808,0.0547457560896873,0.0,0.0,-0.9376906752586364,-0.1815760135650634
-0.0031577111221849,1.005273461341858,0.0125312386080622,-0.6426365375518799,-0.0657574087381362,0.0511375963687896,0.0,0.0,-0.9405730962753296,-0.5997663140296936
-0.0030595778953284,0.9903652667999268,0.0059372736141085,-0.6624225974082947,-0.0619238913059234,0.0766705200076103,0.0,0.0,-0.8099774718284607,-0.2947252988815307
-0.0029575347434729,0.9749998450279236,0.0065174126066267,-0.6827625036239624,-0.0582730658352375,0.0730162262916565,0.0,0.0,-0.9566773176193236,0.0682806968688964
-0.0028519630432128,0.9591771364212036,0.0070441598072648,-0.7031022906303406,-0.0548059344291687,0.0693425983190536,0.0,0.0,-0.712363600730896,-0.5071249604225159
-0.0027873038779944,0.9429041743278505,0.0020223748870193,-0.7230902910232544,-0.0504169911146163,0.0877789407968521,0.0,0.0,-0.8305918574333191,-0.0153775811195373
-0.0027203559875488,0.9261739253997804,0.0024458491243422,-0.7434303760528564,-0.0462133511900901,0.0840729027986526,0.0,0.0,-0.503996729850769,0.1491708755493164
-0.0026515007484704,0.9089863300323486,0.0028197339270263,-0.7637702822685242,-0.042195688933134,0.0803534761071205,0.0,0.0,-0.6219667196273804,0.3020219802856445
-0.0025812149979174,0.8913415670394897,0.00314551894553,-0.7841100096702576,-0.0383645817637443,0.0766221433877945,0.0,0.0,-0.5431954860687256,0.4659563302993774
-0.0025101662613451,0.8732394576072693,0.0034247958101332,-0.8044494986534119,-0.034720554947853,0.0728803947567939,0.0,0.0,-0.5134978294372559,0.5631794929504395
-0.0023869513534009,0.8546823859214783,0.0101326992735266,-0.8247083425521851,-0.032558623701334,0.0432384945452213,0.0,0.0,-0.0931334495544433,0.1580914258956909
-0.0022636414505541,0.8356679081916809,0.0103241689503192,-0.8450469374656677,-0.0305846482515335,0.0394796133041381,0.0,0.0,-0.3958146572113037,-0.1727983951568603
-0.0021409033797681,0.816196084022522,0.0104744946584105,-0.8653854727745056,-0.0287989638745784,0.0357137247920036,0.0,0.0,-0.1013784408569336,0.6369869709014893
-0.0019747733604162,0.7962701916694641,0.016119297593832,-0.8855829238891602,-0.0283080637454986,0.0098179038614034,0.0,0.0,0.4693684577941894,0.1603033542633056
-0.001754856086336,0.7763788104057312,0.0214645564556121,-0.8840553760528564,-0.0277954507619142,0.0102523537352681,0.0,0.0,0.5396900177001953,0.2577908039093017
-0.0016118049388751,0.7570137977600098,0.0144187659025192,-0.860666036605835,-0.0279042478650808,-0.0021760282106697,0.0,0.0,0.0011408329010009,0.3297454118728637
-0.0013870239490643,0.7376581430435181,0.0224313884973526,-0.860252320766449,-0.0278561580926179,0.0009618854965083,0.0,0.0,-0.3641799688339233,0.1763534545898437
-0.0011643409961834,0.7178448438644409,0.0224071871489286,-0.8805904388427734,-0.0279975496232509,-0.0028276140801608,0.0,0.0,0.2631483078002929,-0.5019729137420654
-0.0009687423589639,0.6980312466621399,0.0188590846955776,-0.880588948726654,-0.0273159127682447,0.0136331645771861,0.0,0.0,0.5989220142364502,-0.1538988947868347
-0.0008801460498943,0.6786229014396667,0.0089301820844411,-0.862601101398468,-0.0273782219737768,-0.0012462382437661,0.0,0.0,0.2515655755996704,0.3138891458511352
-0.0007603645208291,0.6597282886505127,0.0121551984921097,-0.8397631049156189,-0.0275552328675985,-0.0035399496555328,0.0,0.0,0.1555948257446289,-0.1365906596183776
-0.0005806923145428,0.6406804919242859,0.0180677138268947,-0.8465702533721924,-0.027656627818942,-0.0020276592113077,0.0,0.0,0.4149638414382934,-0.586161732673645
-0.0004051208379678,0.6222792267799377,0.0166130885481834,-0.817821741104126,-0.026726895943284,0.0185946971178054,0.0,0.0,-0.0870229601860046,0.2547955513000488
-0.0002329826384084,0.6034203171730042,0.0164571609348058,-0.8381599187850952,-0.0259872917085886,0.0147923100739717,0.0,0.0,-0.3281611204147339,-0.3843676447868347
-6.456374831032008e-05,0.5841038823127747,0.0162882953882217,-0.8584980368614197,-0.0254378523677587,0.0109886927530169,0.0,0.0,0.7896685600280762,-0.3393510580062866
0.0001506805419921,0.5653395652770996,0.0210013687610626,-0.8339605331420898,-0.0249245408922433,0.0102662723511457,0.0,0.0,0.5951046943664551,-0.7571375370025635
0.000185489654541,0.5473562479019165,0.0018894817912951,-0.7992318868637085,-0.0233482159674167,0.0315264053642749,0.0,0.0,-0.1342294216156005,0.2288622856140136
0.0002164840698242,0.528915524482727,0.0016980556538328,-0.8195701837539673,-0.0219622161239385,0.0277200043201446,0.0,0.0,0.3916125297546386,-0.4055847525596618
0.0002224922209279,0.5105121731758118,-0.0004771364328917,-0.8179126977920532,-0.0208979602903127,0.0212851632386446,0.0,0.0,0.6031050682067871,0.0818934440612793
0.0002971649228129,0.4921222031116485,0.0062782601453363,-0.8173151612281799,-0.0197188649326562,0.0235817488282918,0.0,0.0,0.5979220867156982,-0.278699517250061
0.0003439903375692,0.4737679660320282,0.0038251646328717,-0.8157331347465515,-0.0188715867698192,0.0169455520808696,0.0,0.0,0.9423699378967284,-0.0698751211166381
0.0003949165402445,0.4563550651073456,0.0044679827988147,-0.7739013433456421,-0.0182603318244218,0.0122251939028501,0.0,0.0,0.7393167018890381,-0.438827633857727
0.0005420685047283,0.4397702813148498,0.013896020129323,-0.7370920181274414,-0.0174497961997985,0.0162108298391103,0.0,0.0,0.3882968425750732,-0.4411458969116211
0.0006034850957803,0.4237604141235351,0.0059492038562893,-0.7115451693534851,-0.01726596057415,0.003676735330373,0.0,0.0,0.139206051826477,-0.3423737287521362
0.0005761146312579,0.4076379239559173,-0.0023040317464619,-0.7165614366531372,-0.0176853034645319,-0.0083869127556681,0.0,0.0,0.7557692527770996,-0.6108251214027405
0.0005583763122558,0.3923232853412628,-0.0025092372670769,-0.6806418895721436,-0.0169631987810134,0.0144421700388193,0.0,0.0,0.4902985095977783,-0.2178409099578857
0.0004550933954305,0.3773320317268371,-0.0104447780176997,-0.6662773489952087,-0.0168544091284275,0.0021759804803878,0.0,0.0,0.6205863952636719,-0.4077962636947632
0.0003064155462197,0.3628817200660705,-0.0145300198346376,-0.6422391533851624,-0.0171848125755786,-0.0066083185374736,0.0,0.0,0.8331847190856934,-0.393010139465332
0.0001553535403218,0.3491378724575043,-0.0145159214735031,-0.6108436584472656,-0.0177670698612928,-0.0116452164947986,0.0,0.0,0.4888975620269775,-0.8603273034095764
3.1757354008732364e-05,0.3357224464416504,-0.0134253352880477,-0.5962279438972473,-0.0167130939662456,0.0210795402526855,0.0,0.0,0.4505637884140014,-0.0726217627525329
-6.790160841774195e-05,0.3222997486591339,-0.0109341591596603,-0.5965548753738403,-0.0157532077282667,0.0191974230110645,0.0,0.0,0.6338427066802979,-0.3197925090789795
-7.114410254871473e-05,0.3090145289897918,-0.0015229431446641,-0.5904422998428345,-0.0145592661574482,0.0238785240799188,0.0,0.0,0.7136425971984863,-0.4407984018325805
8.58306884765625e-05,0.2961567938327789,0.0139626460149884,-0.5714386105537415,-0.0128496829420328,0.0341915264725685,0.0,0.0,0.5104649066925049,-0.5457239747047424
0.0003409385681152,0.283376395702362,0.0225242488086223,-0.567995011806488,-0.0099069299176335,0.0588549561798572,0.0,0.0,0.6499786376953125,-0.4923876523971557
0.0005973816150799,0.2712639570236206,0.0228915251791477,-0.5383135676383972,-0.0071804453618824,0.0545296184718608,0.0,0.0,0.0881785154342651,0.0178062915802001
0.0008781432989053,0.2594432830810547,0.0254012551158666,-0.5253542065620422,-0.0045496430248022,0.0526160486042499,0.0,0.0,0.1819088459014892,-0.6146201491355896
0.0012121200561523,0.2478828281164169,0.0295273177325725,-0.5137874484062195,-0.0007270850474014,0.0764512345194816,0.0,0.0,0.0841416120529174,-0.2792534828186035
0.0016135215992107,0.2361864000558853,0.0361578501760959,-0.5198487639427185,0.0032120267860591,0.0787821784615516,0.0,0.0,-0.1794340014457702,-0.1936678290367126
0.0020167350303381,0.2240324765443802,0.0365174524486064,-0.5401877164840698,0.0069617736153304,0.0749948248267173,0.0,0.0,0.609866738319397,-0.4307564496994018
0.0024987221695482,0.2126830220222473,0.0442108958959579,-0.5044440031051636,0.0109038688242435,0.0788420066237449,0.0,0.0,0.2608349323272705,-0.0506889820098876
0.0029610632918775,0.2015273123979568,0.0425162315368652,-0.4958409667015075,0.0145748108625411,0.0734189078211784,0.0,0.0,0.3493309020996094,-0.0153926610946655
0.0033157349098473,0.1908863186836242,0.032419241964817,-0.4729644954204559,0.0175871290266513,0.0602462887763977,0.0,0.0,0.2041548490524292,-0.0726006031036377
0.0037289620377123,0.1805523782968521,0.0381682142615318,-0.4593286514282226,0.0207047946751117,0.0623533800244331,0.0,0.0,0.731881856918335,-0.3516830205917358
0.0040745735168457,0.1709385514259338,0.031854972243309,-0.4273194372653961,0.0233751870691776,0.0534078665077686,0.0,0.0,0.6581621170043945,-0.7796376943588257
0.0042547225020825,0.1619944870471954,0.0141046177595853,-0.3975811302661896,0.027237381786108,0.0772439390420913,0.0,0.0,0.6333472728729248,-0.6889818906784058
0.0043462752364575,0.1533255875110626,0.0041001448407769,-0.3853850364685058,0.0322264172136783,0.0997805148363113,0.0,0.0,0.7123675346374512,0.1721158027648925
0.0043035508133471,0.1451279670000076,-0.0085612069815397,-0.3644381761550903,0.0364702567458152,0.0848767831921577,0.0,0.0,0.4489219188690185,0.188035249710083
0.0041197775863111,0.1371541619300842,-0.0218695662915706,-0.3544808626174927,0.0399185344576835,0.0689655542373657,0.0,0.0,0.4967203140258789,0.298377513885498
0.0040142061188817,0.1297043412923813,-0.0143186599016189,-0.3312090933322906,0.0436264649033546,0.0741585716605186,0.0,0.0,0.0084775686264038,-0.2584238052368164
0.0039450647309422,0.1221368610858917,-0.0106531083583831,-0.3364426791667938,0.047324351966381,0.0739579945802688,0.0,0.0,0.3027095794677734,0.3769674301147461
0.0039714812301099,0.1150214299559593,-0.0014516811352223,-0.3163775205612182,0.0513691082596778,0.0808952674269676,0.0,0.0,0.3959953784942627,-0.4286821484565735
0.0039554596878588,0.1084292009472847,-0.0054250336252152,-0.293122261762619,0.0551434271037578,0.0754865258932113,0.0,0.0,-0.2341302633285522,-0.2893806099891662
0.0039505958557128,0.1013794988393783,-0.0041172886267304,-0.3134602904319763,0.0587381534278392,0.0718942731618881,0.0,0.0,0.6029596328735352,0.1434551477432251
0.0039987564086914,0.0947207510471344,0.0010111090959981,-0.2960959672927856,0.0624971091747283,0.0751793757081031,0.0,0.0,-0.0037311911582946,0.6746690273284912
0.0041120527312159,0.0876161158084869,0.0090514961630105,-0.3158585429191589,0.0647511184215545,0.0450800396502018,0.0,0.0,0.7871677875518799,-0.1410000324249267
0.0042492868378758,0.0813353881239891,0.0113228457048535,-0.2792487442493438,0.0671339929103851,0.0476572774350643,0.0,0.0,0.5578688383102417,0.1179200410842895
0.0044479370117187,0.0752516388893127,0.0172664038836956,-0.2705054581165313,0.0696956291794776,0.0512327924370765,0.0,0.0,0.5087757110595703,-0.0678853988647461
0.0045108795166015,0.0695434659719467,0.0044094426557421,-0.2537845373153686,0.0715700760483741,0.0374890528619289,0.0,0.0,0.2309406995773315,0.1987305879592895
0.0044671059586107,0.0639412254095077,-0.0056528472341597,-0.2490529119968414,0.0728340372443199,0.0252791605889797,0.0,0.0,0.3952596187591553,0.4010071754455566
0.0043874741531908,0.058591328561306,-0.0089962966740131,-0.2378194481134414,0.0738484039902687,0.0202874634414911,0.0,0.0,0.4240199327468872,0.8959848880767822
0.0043875696137547,0.0534806102514267,0.0009285329724662,-0.2270986586809158,0.0729429125785827,-0.0181100256741046,0.0,0.0,0.4892499446868896,0.4816539287567138
0.0044999122619628,0.0484099499881267,0.0117580676451325,-0.2253381162881851,0.0724224671721458,-0.0104086911305785,0.0,0.0,0.3249341249465942,-0.2339337468147277
0.0046696662902832,0.0437104329466819,0.0172974821180105,-0.2088541984558105,0.0721074566245079,-0.0063001988455653,0.0,0.0,0.0053873062133789,0.5793421268463135
0.0048866271972656,0.0392998084425926,0.02331118658185,-0.19594706594944,0.0705073028802871,-0.0320031195878982,0.0,0.0,-0.0390632152557373,-0.0411665439605712
0.0051241875626146,0.0344315618276596,0.0255322344601154,-0.2162840962409973,0.0687585026025772,-0.0349759310483932,0.0,0.0,0.3459775447845459,-0.7804703116416931
