x_pos,y_pos,x_vel,y_vel,angle,ang_vel,leg_1,leg_2,main_booster,lat_booster
-0.0016713142395019,1.4029536247253418,-0.1693172007799148,-0.3540678322315216,0.0019602740649133,0.0386830829083919,0.0,0.0,0.5902656388248848,0.6010369153850891
-0.0033906935714185,1.3950027227401731,-0.1729139387607574,-0.3533724844455719,0.0029154107905924,0.0191051568835973,0.0,0.0,0.0140740191013322,-0.7982180245255778
-0.0052261352539062,1.3867466449737549,-0.1862513124942779,-0.3669415116310119,0.0055918004363775,0.0535327792167663,0.0,0.0,-0.8482969372798814,0.9728625717332064
-0.0071484567597508,1.377817153930664,-0.193481758236885,-0.3968753814697265,0.0068246494047343,0.0246593169867992,0.0,0.0,-0.980397151144294,0.7592797507401079
-0.0091464994475245,1.3682198524475098,-0.1993145644664764,-0.4265441298484802,0.006342027336359,-0.009653391316533,0.0,0.0,-0.7711689056960265,0.5939099585222855
-0.011235237121582,1.3579514026641846,-0.2070294618606567,-0.4563689231872558,0.0045283394865691,-0.0362770222127437,0.0,0.0,0.7480716186950203,0.7749987928014248
-0.0134395603090524,1.3479288816452026,-0.2171095311641693,-0.4454371035099029,0.0012391927884891,-0.0657892674207687,0.0,0.0,0.7525557288661995,-0.7347936990531523
-0.0156774520874023,1.338267207145691,-0.2224441766738891,-0.4294065535068512,-8.03133225417696e-05,-0.0263923909515142,0.0,0.0,-0.9995677568735948,-0.6335216667314961
-0.0181136131286621,1.3279415369033811,-0.2436983287334442,-0.4589223563671112,1.1668387287500082e-06,0.001629639416933,0.0,0.0,0.5952736915995553,0.8984769738571693
-0.0206271167844533,1.3180025815963743,-0.249759629368782,-0.4417271018028259,-0.0015727676218375,-0.0314816460013389,0.0,0.0,0.2635742089138857,0.9649144433144092
-0.0231340415775775,1.308075189590454,-0.2473405301570892,-0.4412301480770111,-0.0048885964788496,-0.0663229376077652,0.0,0.0,0.817206182731768,-0.9829320632624172
-0.0257755275815725,1.2983462810516355,-0.2630341947078705,-0.432401031255722,-0.0059830830432474,-0.0218915157020092,0.0,0.0,0.997998887536226,0.7263128860403696
-0.0283310897648334,1.2892168760299685,-0.2535719275474548,-0.4057587087154388,-0.0079492647200822,-0.0393272675573825,0.0,0.0,-0.0251048645590457,-0.5230285070727181
-0.0310694687068462,1.279412031173706,-0.2729145586490631,-0.4357752501964569,-0.0088575202971696,-0.0181666873395442,0.0,0.0,-0.1284088716355678,0.6537879554886099
-0.0338899604976177,1.2689422369003296,-0.2796582281589508,-0.4653340280056,-0.0112245231866836,-0.0473444536328315,0.0,0.0,-0.5727842215653893,0.8238380000952201
-0.0367792136967182,1.2577908039093018,-0.2847208380699157,-0.4956538081169128,-0.0153781389817595,-0.0830798149108886,0.0,0.0,0.4026527989592809,0.7821136135899549
-0.0396092422306537,1.2470628023147583,-0.2775866687297821,-0.4768669009208679,-0.0207410044968128,-0.1072671264410018,0.0,0.0,0.3137400717779492,-0.5404954411198032
-0.0424970611929893,1.236103653907776,-0.2848824262619018,-0.4871335327625274,-0.0246038362383842,-0.0772632509469986,0.0,0.0,-0.132613714421514,0.8564851776851905
-0.0454504005610942,1.224479079246521,-0.2895862460136413,-0.516753613948822,-0.0302896760404109,-0.1137269735336303,0.0,0.0,0.639424521883003,-0.5317360919701968
-0.0486578941345214,1.213031530380249,-0.3159939646720886,-0.5088840126991272,-0.0349963456392288,-0.0941415056586265,0.0,0.0,-0.6916255946292007,0.8798633090314766
-0.0519241318106651,1.2009152173995972,-0.3198800981044769,-0.5386708378791809,-0.0416648164391517,-0.1333815306425094,0.0,0.0,-0.977262809848498,-0.817865165694342
-0.0553961768746376,1.188127875328064,-0.3422405421733856,-0.5684738159179688,-0.0465804003179073,-0.0983204320073127,0.0,0.0,-0.2281869291763727,-0.5311261508951242
-0.0590430274605751,1.1746714115142822,-0.3607170581817627,-0.5981975197792053,-0.0505085699260234,-0.0785705000162124,0.0,0.0,-0.7139181601847657,0.7933603075599849
-0.062761403620243,1.1605300903320312,-0.3662503063678741,-0.6287028193473816,-0.0560379438102245,-0.1105975657701492,0.0,0.0,0.5728623708298402,-0.850577659322394
-0.0668036490678787,1.1466562747955322,-0.4002938866615295,-0.6167646050453186,-0.059937797486782,-0.0780039727687835,0.0,0.0,-0.6779004598758094,0.7424078771550435
-0.0709418281912803,1.1320902109146118,-0.4089097380638122,-0.6475871205329895,-0.0647931993007659,-0.0971077308058738,0.0,0.0,-0.5123461260690603,-0.8103883895198922
-0.0752821937203407,1.1168644428253174,-0.4309133887290954,-0.676834225654602,-0.0678803101181984,-0.0617424063384532,0.0,0.0,-0.5502164215767598,-0.73635370905839
-0.0798308402299881,1.100982666015625,-0.4537073075771332,-0.7059081196784973,-0.0690172463655471,-0.0227388739585876,0.0,0.0,0.7514052915482305,0.5330445334511379
-0.0845644026994705,1.0856740474700928,-0.4708863198757171,-0.680499792098999,-0.0714602991938591,-0.0488611236214637,0.0,0.0,-0.6722695375630876,-0.8603694393408414
-0.0895039588212966,1.0696988105773926,-0.4934544563293457,-0.710037887096405,-0.0719672888517379,-0.0101399105042219,0.0,0.0,-0.3243309151447711,-0.5417704332072683
-0.0946192741394043,1.0530630350112915,-0.5122365355491638,-0.7393317818641663,-0.0712637156248092,0.0140715595334768,0.0,0.0,-0.0690997838973999,0.9134938716888428
-0.0998051613569259,1.0357444286346436,-0.5178630352020264,-0.7697575688362122,-0.0719821080565452,-0.0143680553883314,0.0,0.0,-0.0472058653831481,0.952728033065796
-0.1050574332475662,1.0177565813064575,-0.5230156183242798,-0.7995668649673462,-0.0741723775863647,-0.0438053160905838,0.0,0.0,0.5042963027954102,0.9420533180236816
-0.1104073524475097,0.9995796084403992,-0.5309820175170898,-0.808068037033081,-0.078148677945137,-0.0795258432626724,0.0,0.0,0.4845435619354248,0.9702796936035156
-0.1157485991716384,0.9815658926963806,-0.5283328294754028,-0.800923228263855,-0.0838801339268684,-0.1146294102072715,0.0,0.0,0.7241370677947998,0.8616980314254761
-0.1210610419511795,0.9640567302703856,-0.5239322781562805,-0.7786124348640442,-0.0911299511790275,-0.1449959874153137,0.0,0.0,0.6612555980682373,0.9810564517974854
-0.1264093369245529,0.9465500116348268,-0.5256643891334534,-0.7786716818809509,-0.1002139300107956,-0.1816798746585846,0.0,0.0,0.7275581359863281,0.9158931970596312
-0.1316838264465332,0.9295506477355956,-0.5166911482810974,-0.7562819123268127,-0.1108945906162262,-0.2136131972074508,0.0,0.0,0.4767539501190185,0.9633712768554688
-0.1369586884975433,0.913009524345398,-0.5149322748184204,-0.7361432909965515,-0.1233731433749198,-0.2495713979005813,0.0,0.0,0.2807939052581787,0.9149861335754396
-0.1421964615583419,0.8964840769767761,-0.5095811486244202,-0.7356931567192078,-0.1375069618225097,-0.2826763093471527,0.0,0.0,-0.1773358583450317,0.9670307636260986
-0.1474864929914474,0.8792857527732849,-0.513395369052887,-0.7658866047859192,-0.1530729532241821,-0.3113196492195129,0.0,0.0,-0.4760341644287109,0.9869613647460938
-0.1527962684631347,0.8613963723182678,-0.513184666633606,-0.7970188856124878,-0.1708676666021347,-0.3558945059776306,0.0,0.0,0.4510948657989502,0.9801101684570312
-0.1579971313476562,0.8431919813156128,-0.5006130933761597,-0.8114405870437622,-0.1904051154851913,-0.3907487988471985,0.0,0.0,0.703040361404419,0.9583848714828492
-0.1630141288042068,0.8250682353973389,-0.4806896150112152,-0.8083298802375793,-0.2115638107061386,-0.4231743812561035,0.0,0.0,0.7425628900527954,0.9372031688690186
-0.1680444777011871,0.8067162036895752,-0.4803290367126465,-0.819060206413269,-0.234541967511177,-0.4595631957054138,0.0,0.0,0.9198501110076904,0.8009246587753296
-0.1729666739702224,0.7882162928581238,-0.4683000147342682,-0.8262065649032593,-0.2588757872581482,-0.4866768717765808,0.0,0.0,0.941004753112793,0.0252277851104736
-0.1777799576520919,0.7697864174842834,-0.4580286145210266,-0.8233979344367981,-0.2827381491661072,-0.4772476255893707,0.0,0.0,0.9219844341278076,-0.0723037719726562
-0.1825389862060547,0.7521446347236633,-0.4523091912269592,-0.7888422608375549,-0.3070685863494873,-0.4866085946559906,0.0,0.0,0.7330455780029297,-0.5364729166030884
-0.1873154640197754,0.7351115345954895,-0.4550256729125976,-0.7619800567626953,-0.3305709958076477,-0.4700489640235901,0.0,0.0,0.9295921325683594,0.2209415435791015
-0.1920045912265777,0.7182689905166626,-0.4464879035949707,-0.7538673281669617,-0.3540577590465545,-0.4697353839874267,0.0,0.0,0.722541332244873,-0.8325226306915283
-0.1964714080095291,0.7015467286109924,-0.4264464378356933,-0.7483404278755188,-0.3754254281520843,-0.4273525774478912,0.0,0.0,0.9840797185897828,-0.3914142847061157
-0.2007508724927902,0.6854315996170044,-0.407707154750824,-0.7217046022415161,-0.3969904482364654,-0.4313002526760101,0.0,0.0,0.86617112159729,-0.8783635497093201
-0.2048436105251312,0.6693012714385986,-0.3912206590175628,-0.7220714092254639,-0.4163857996463775,-0.3879070580005646,0.0,0.0,0.9766359329223632,-0.9469951391220092
-0.2086749076843261,0.6538631916046143,-0.3671590387821197,-0.6909428834915161,-0.4336830377578735,-0.3459444642066955,0.0,0.0,0.8808972835540771,-0.8835099339485168
-0.2122251093387603,0.6384353041648865,-0.3412544727325439,-0.6900104880332947,-0.448705792427063,-0.3004551529884338,0.0,0.0,0.955585241317749,-0.9696329832077026
-0.2157682925462722,0.6232190728187561,-0.3424046337604522,-0.6801630258560181,-0.4618061482906341,-0.262006938457489,0.0,0.0,0.9559473991394044,-0.8852803111076355
-0.2188884317874908,0.6085719466209412,-0.3021454215049743,-0.6542949676513672,-0.4727141261100769,-0.2181597203016281,0.0,0.0,0.970751166343689,-0.9422420263290404
-0.2215865552425384,0.5942586660385132,-0.2621467113494873,-0.6387831568717957,-0.481233537197113,-0.1703882664442062,0.0,0.0,0.9788644313812256,-0.9076687693595886
-0.2238368541002273,0.5805751085281372,-0.2193508446216583,-0.6101484298706055,-0.4875606894493103,-0.1265430599451065,0.0,0.0,0.8912413120269775,-0.976164698600769
-0.2258458137512207,0.5675415396690369,-0.1970379501581192,-0.5806390047073364,-0.4918750822544098,-0.0862884074449539,0.0,0.0,0.9034075736999512,-0.9798779487609864
-0.2276897877454757,0.5544013381004333,-0.1825423240661621,-0.5846792459487915,-0.4939559400081634,-0.041617814451456,0.0,0.0,0.900564432144165,-0.7283458709716797
-0.2293279618024826,0.5417878031730652,-0.163157969713211,-0.5608356595039368,-0.4946934878826141,-0.0147511316463351,0.0,0.0,0.9642629623413086,-0.9169764518737792
-0.2306077480316162,0.5292487144470215,-0.1293602436780929,-0.5567978024482727,-0.4931424856185913,0.0310199949890375,0.0,0.0,0.9672083854675292,-0.9773923754692078
-0.2315872609615326,0.5170360803604126,-0.1012850776314735,-0.541592538356781,-0.4894085824489593,0.0746778398752212,0.0,0.0,0.6969990730285645,-0.9330277442932128
-0.2324316054582595,0.5047366619110107,-0.0895969122648239,-0.5448213219642639,-0.4836411774158478,0.1153481379151344,0.0,0.0,0.828904390335083,-0.8911535739898682
-0.2331608235836029,0.4927898347377777,-0.0796250849962234,-0.5286420583724976,-0.476184219121933,0.1491386145353317,0.0,0.0,0.8870980739593506,-0.8964613676071167
-0.233464628458023,0.4815146028995514,-0.0389152020215988,-0.498216450214386,-0.4667241275310516,0.1892015784978866,0.0,0.0,0.7586491107940674,-0.921740710735321
-0.2335911244153976,0.469959944486618,-0.0231435392051935,-0.5100646615028381,-0.455152690410614,0.2314285337924957,0.0,0.0,0.2733192443847656,-0.6701807379722595
-0.2334281504154205,0.4586484432220459,0.004365992732346,-0.4988985359668731,-0.4420849978923797,0.2613537907600403,0.0,0.0,0.4969789981842041,-0.5554091334342957
-0.2331752777099609,0.4473344087600708,0.0123765422031283,-0.4988395273685455,-0.428029716014862,0.2811056971549988,0.0,0.0,0.211885929107666,0.0164544582366943
-0.232742503285408,0.4360713958740234,0.0305387191474437,-0.4967672228813171,-0.4142438769340515,0.2757168710231781,0.0,0.0,0.5962789058685303,0.2642204761505127
-0.2320002615451812,0.4249473810195923,0.0612470917403698,-0.4906598329544067,-0.4002827703952789,0.2792218625545501,0.0,0.0,0.0911381244659423,0.0950628519058227
-0.2310737073421478,0.4139748811721802,0.0799331441521644,-0.4841381907463074,-0.3866817355155945,0.2720206379890442,0.0,0.0,-0.2445853948593139,-0.087807297706604
-0.2300971448421478,0.4023336470127105,0.0848402231931686,-0.5139670968055725,-0.3730514645576477,0.272605687379837,0.0,0.0,-0.1858192682266235,0.2602415084838867
-0.2290658503770828,0.3900237381458282,0.0902172178030014,-0.5437963008880615,-0.3593961298465729,0.2731064856052398,0.0,0.0,0.0245759487152099,-0.3605092763900757
-0.2278650254011154,0.3773061335086822,0.1068981438875198,-0.5619877576828003,-0.3455248475074768,0.2774248719215393,0.0,0.0,0.4900234937667846,-0.5919603109359741
-0.2265713214874267,0.364386111497879,0.1150116473436355,-0.5708519816398621,-0.330498993396759,0.3005172610282898,0.0,0.0,0.669243574142456,-0.485866904258728
-0.22495798766613,0.3519392311573028,0.1469262987375259,-0.549975574016571,-0.3154996037483215,0.2999876141548157,0.0,0.0,-0.0470382571220397,-0.6982994675636292
-0.2233170568943023,0.3388532698154449,0.1484094262123108,-0.5782694220542908,-0.2992493808269501,0.3250042498111725,0.0,0.0,0.6842532157897949,-0.3672220110893249
-0.2214646786451339,0.3263446688652038,0.1699852794408798,-0.5528839826583862,-0.2835236191749573,0.3145149648189544,0.0,0.0,0.1937593221664428,-0.6413034796714783
-0.2196166962385177,0.3135718405246734,0.1683540940284729,-0.5645784139633179,-0.2666544616222381,0.3373830914497375,0.0,0.0,0.2568219900131225,-0.6895489692687988
-0.2175465077161789,0.301016092300415,0.1890799254179,-0.5548712015151978,-0.2483378201723098,0.3663327097892761,0.0,0.0,-0.0431944727897644,-0.6977758407592773
-0.2154535353183746,0.2878179252147674,0.1896571367979049,-0.5833896398544312,-0.2283809930086136,0.399136483669281,0.0,0.0,0.3210577964782715,0.3957338333129883
-0.2131924629211425,0.2747608423233032,0.2065827846527099,-0.5774131417274475,-0.20863738656044,0.39487224817276,0.0,0.0,0.522063136100769,0.6974937915802002
-0.2106647938489914,0.2619730830192566,0.2345959693193435,-0.5658825039863586,-0.1903311014175415,0.3661256730556488,0.0,0.0,0.0743404626846313,-0.3040076494216919
-0.2079167366027832,0.2490600645542144,0.256329208612442,-0.5716409683227539,-0.1717799007892608,0.3710241615772247,0.0,0.0,0.7231112718582153,0.1964390277862548
-0.2049877196550369,0.2360021471977234,0.2742688059806824,-0.5783035159111023,-0.153135061264038,0.372896671295166,0.0,0.0,0.6311893463134766,0.1702181100845337
-0.2018096446990966,0.2228464484214782,0.2987075448036194,-0.5828434228897095,-0.1340906023979187,0.3808893263339996,0.0,0.0,0.6428630352020264,-0.4880155324935913
-0.1983109414577484,0.2098395973443985,0.330082356929779,-0.5764158368110657,-0.1143966913223266,0.3938786089420318,0.0,0.0,0.8155202865600586,-0.8940572142601013
-0.1945631951093673,0.1967898905277252,0.3528703451156616,-0.5784546732902527,-0.0926563888788223,0.4348058700561523,0.0,0.0,0.9728076457977296,-0.9165217876434326
-0.1907078772783279,0.184433713555336,0.3617770075798034,-0.547859251499176,-0.0691349059343338,0.4704296588897705,0.0,0.0,0.9491207599639891,-0.8165141940116882
-0.1867098808288574,0.1727625280618667,0.3743165135383606,-0.5177347660064697,-0.0439375452697277,0.503947377204895,0.0,0.0,0.9870924949645996,-0.884722113609314
-0.1824754774570465,0.1616291403770446,0.3958467841148376,-0.4942344427108764,-0.0166904050856828,0.5449430346488953,0.0,0.0,0.9596095085144044,-0.402542233467102
-0.1780068427324295,0.1504126340150833,0.418739378452301,-0.498430073261261,0.0110673774033784,0.5551560521125793,0.0,0.0,0.9820678234100342,-0.8550447821617126
-0.1735722571611404,0.1394478380680084,0.4138157963752746,-0.4878049194812774,0.0403371751308441,0.5853963494300842,0.0,0.0,0.9833881855010986,-0.3829419612884521
-0.16896753013134,0.1293821930885315,0.4304389357566833,-0.4484363496303558,0.0700289458036422,0.593835711479187,0.0,0.0,0.9351139068603516,-0.5625463128089905
-0.1643714904785156,0.1196473464369773,0.4286354482173919,-0.4343939423561096,0.1007076203823089,0.6135739088058472,0.0,0.0,0.9656360149383544,0.3846523761749267
-0.1599058210849762,0.1106439232826232,0.4164394438266754,-0.4024558067321777,0.1306489557027816,0.5988270044326782,0.0,0.0,0.802248477935791,0.0779696702957153
-0.1553322821855545,0.1021322309970855,0.4269569516181946,-0.3812414109706878,0.1609748750925064,0.6065186262130737,0.0,0.0,0.9201993942260742,0.0973423719406127
-0.1508462876081466,0.094237595796585,0.4186843931674957,-0.3543838262557983,0.1909566074609756,0.5996347665786743,0.0,0.0,0.7816001176834106,0.644946813583374
-0.1464443206787109,0.086864024400711,0.4120215475559234,-0.3315939903259277,0.2193476110696792,0.5678203105926514,0.0,0.0,0.8251240253448486,0.6052815914154053
-0.1420290917158126,0.0796388685703277,0.4148696959018707,-0.325310081243515,0.2463852912187576,0.5407537817955017,0.0,0.0,0.771336555480957,0.6213924884796143
-0.1377385109663009,0.0726586878299713,0.4041861593723297,-0.3145979642868042,0.2717713415622711,0.5077213048934937,0.0,0.0,0.67928147315979,0.4770914316177368
-0.1336220800876617,0.065723143517971,0.3876998722553253,-0.3128850758075714,0.2963883280754089,0.4923405647277832,0.0,0.0,0.7394005060195923,0.5771899223327637
-0.1294527947902679,0.0592848397791385,0.3940544128417969,-0.2909804582595825,0.3200744688510895,0.4737231135368347,0.0,0.0,0.5142943859100342,0.6615898609161377
-0.1251635551452636,0.0527118556201458,0.407444417476654,-0.2970382869243622,0.3424752652645111,0.4480159282684326,0.0,0.0,0.6669754981994629,0.7227323055267334
-0.1208123192191124,0.0466758124530315,0.4149909019470215,-0.2731994688510895,0.3636448085308075,0.4233916401863098,0.0,0.0,0.6490647792816162,0.4528576135635376
-0.116639994084835,0.0410478226840496,0.3974260985851288,-0.2553018927574157,0.3846430778503418,0.4199656546115875,0.0,0.0,0.6290416717529297,0.5030859708786011
-0.1125874519348144,0.0370045527815818,0.4032224714756012,-0.1802480816841125,0.3868783712387085,0.0447933077812194,0.0,1.0,0.8168106079101562,0.9423973560333252
-0.108871079981327,0.0338815301656723,0.3892912566661834,-0.1341049373149871,0.3681641221046448,-0.3742206990718841,0.0,1.0,-0.4554572701454162,-0.8130882978439331
-0.1054498702287674,0.0306570157408714,0.3759186863899231,-0.1350344121456146,0.3326082825660705,-0.7111250162124634,0.0,1.0,0.1658864021301269,-0.9934444427490234
-0.1024062186479568,0.0279643628746271,0.3492001891136169,-0.1100619584321975,0.2860676944255829,-0.9308854341506958,0.0,1.0,0.4847477674484253,-0.9835827946662904
-0.099537469446659,0.02537277713418,0.3350910544395447,-0.1065169125795364,0.2366952300071716,-0.9875418543815612,0.0,1.0,0.4231631755828857,-0.986159324645996
-0.0969678908586502,0.0228253938257694,0.3027320802211761,-0.1065310016274452,0.1904126852750778,-0.9256909489631652,0.0,0.0,-0.3742842674255371,-0.9969553351402284
-0.0943742766976356,0.0196040961891412,0.3031509816646576,-0.1381438076496124,0.146516814827919,-0.8779540061950684,0.0,0.0,-0.2511566281318664,-0.9930155277252196
-0.0917430892586708,0.0157182551920413,0.3052060008049011,-0.1691096127033233,0.1046080812811851,-0.8382101058959961,0.0,0.0,0.7837607860565186,-0.956023633480072
-0.0890899673104286,0.0120245311409235,0.3052954077720642,-0.161845713853836,0.0649857595562934,-0.7924467325210571,0.0,0.0,0.1638619899749755,-0.976627767086029
-0.0863022804260253,0.0080530736595392,0.3169556856155395,-0.175284206867218,0.0272409096360206,-0.7548974752426147,0.0,0.0,0.673717737197876,-0.9680184125900269
-0.083379365503788,0.004473075736314,0.3285027146339416,-0.1588393300771713,-0.0085085295140743,-0.7149890661239624,0.0,0.0,0.7400786876678467,-0.9376227259635924
-0.0803737640380859,0.001522252568975,0.3348978161811828,-0.1316894441843032,-0.0424247309565544,-0.6783239841461182,1.0,0.0,0.6935553550720215,-0.9967670440673828
-0.0773023590445518,-0.0009454870014451,0.3230777382850647,-0.1105481684207916,-0.0570439212024211,-0.2909218966960907,1.0,0.0,0.7673859596252441,-0.9862654805183412
