x_pos,y_pos,x_vel,y_vel,angle,ang_vel,leg_1,leg_2,main_booster,lat_booster
-0.0015203475486487,1.4031052589416504,-0.1539923250675201,-0.3473282158374786,0.0017528642201796,0.0345760770142078,0.0,0.0,-0.0925482511520385,0.9412317276000975
-0.0029561996925622,1.3947900533676147,-0.1432567536830902,-0.3695703446865082,0.0014269680250436,-0.0065181427635252,0.0,0.0,0.0961607694625854,0.4421758651733398
-0.0042984960600733,1.3863571882247925,-0.1343119591474533,-0.3747939169406891,0.0015176156302914,0.0018128972733393,0.0,0.0,0.4258855581283569,0.5409090518951416
-0.0057035447098314,1.3780498504638672,-0.1392260938882827,-0.3692144155502319,0.0002504200092516,-0.0253462735563516,0.0,0.0,0.2312641143798828,0.4977740049362182
-0.0070050237700343,1.3699522018432615,-0.1293266117572784,-0.3598955273628235,-0.0005556811811402,-0.0161237772554159,0.0,0.0,-0.4531176090240478,0.6221184730529785
-0.0082376478239893,1.361334204673767,-0.120920643210411,-0.3830195069313049,-0.0028687270823866,-0.0462651588022708,0.0,0.0,-0.0788180232048034,0.7800159454345703
-0.009401130490005,1.3521969318389893,-0.1125213503837585,-0.4061096906661987,-0.0066568795591592,-0.0757704824209213,0.0,0.0,-0.353175938129425,-0.8291130661964417
-0.0106026651337742,1.342543601989746,-0.1175780743360519,-0.4290539026260376,-0.0091931689530611,-0.0507303774356842,0.0,0.0,0.3911025524139404,0.0475398302078247
-0.011795425787568,1.333428144454956,-0.1166819706559181,-0.4051545560359955,-0.0117568746209144,-0.0512790754437446,0.0,0.0,-0.395190954208374,0.7981441020965576
-0.0129117015749216,1.3237969875335691,-0.1074686050415039,-0.4280824065208435,-0.0158712677657604,-0.0822954699397087,0.0,0.0,-0.2307325601577758,0.1840409040451049
-0.014013004489243,1.3136471509933472,-0.1060121059417724,-0.4511572420597076,-0.0199505146592855,-0.0815924704074859,0.0,0.0,-0.2257915735244751,-0.0525758862495422
-0.0150981899350881,1.3029780387878418,-0.1044359803199768,-0.4742355048656463,-0.0239890664815902,-0.0807782858610153,0.0,0.0,0.3357161283493042,-0.6101484298706055
-0.0160846710205078,1.2926387786865234,-0.0960767269134521,-0.4595707952976227,-0.0265332385897636,-0.0508880838751792,0.0,0.0,-0.8387110829353333,0.5112522840499878
-0.0170076377689838,1.281773567199707,-0.0886349231004715,-0.4829678237438202,-0.0301542561501264,-0.0724269896745681,0.0,0.0,0.44232177734375,7.2479248046875e-05
-0.0177656169980764,1.2714627981185913,-0.0727972239255905,-0.4583208858966827,-0.0331324487924575,-0.0595691129565238,0.0,0.0,-0.9135951399803162,-0.913305401802063
-0.0185616500675678,1.2606247663497925,-0.0781533569097518,-0.4817211031913757,-0.0345607213675975,-0.0285677667707204,0.0,0.0,-0.2404429912567138,-0.6425989270210266
-0.0193739887326955,1.2492772340774536,-0.0808620005846023,-0.5043495893478394,-0.0349282696843147,-0.0073516955599188,0.0,0.0,-0.8019533753395081,-0.5385832190513611
-0.0201950073242187,1.2374074459075928,-0.0826450064778328,-0.527536153793335,-0.0343962498009204,0.0106413792818784,0.0,0.0,-0.7465409636497498,-0.1065623760223388
-0.0209909435361623,1.2250182628631592,-0.0802261158823967,-0.5506141185760498,-0.0337732657790184,0.0124610941857099,0.0,0.0,-0.0623409152030944,-0.6024043560028076
-0.0218144413083791,1.212112307548523,-0.0844528377056121,-0.5735527276992798,-0.0316944792866706,0.0415792688727378,0.0,0.0,-0.1759822368621826,-0.4713248014450073
-0.0226102825254201,1.1986870765686035,-0.0817973539233207,-0.5966310501098633,-0.0295097976922988,0.0436976328492164,0.0,0.0,-0.7094480991363525,-0.308734655380249
-0.0233772285282611,1.1847425699234009,-0.0790228173136711,-0.6197092533111572,-0.0272105261683464,0.0459898300468921,0.0,0.0,-0.6849915981292725,-0.1642996072769165
-0.0241140369325876,1.170278787612915,-0.0761315673589706,,-0.0247890073806047,0.0484347119927406,0.0,0.0,-0.6867262721061707,-0.0392041206359863
-0.0248194690793752,1.155295968055725,-0.0731252208352088,-0.6658663153648376,-0.0222373306751251,0.0510383062064647,0.0,0.0,-0.2645081877708435,0.1853716373443603
-0.0254922863095998,1.1397937536239624,-0.0700058043003082,-0.6889449954032898,-0.0195475406944751,0.0538006536662578,0.0,0.0,-0.2405000925064087,0.0150266885757446
-0.0261316299438476,1.1237510442733765,-0.0668031126260757,-0.7129771709442139,-0.0167114119976758,0.0567224696278572,0.0,0.0,-0.3315186500549316,0.0710586309432983
-0.0267358776181936,1.1071891784667969,-0.0634563118219375,-0.7360537648200989,-0.0137206381186842,0.0598155483603477,0.0,0.0,-0.4625085592269897,0.1683204174041748
-0.0273039825260639,1.0901081562042236,-0.0600031428039073,-0.7591304779052734,-0.0105670290067791,0.0630719736218452,0.0,0.0,-0.087896704673767,0.3457083702087402
-0.0278347972780466,1.0725078582763672,-0.0564464032649993,-0.7822073698043823,-0.0072424882091581,0.0664908662438392,0.0,0.0,-0.0899624824523925,0.3220342397689819
-0.02832717821002,1.0543886423110962,-0.0527890436351299,-0.8052843809127808,-0.0037389460485428,0.0700710266828537,0.0,0.0,-0.0685737133026123,0.1300039291381836
-0.028780173510313,1.0357505083084106,-0.0490341857075691,-0.8283615112304688,-4.842389535042457e-05,0.0738104581832885,0.0,0.0,-0.1923194527626037,0.6025891304016113
-0.029151152819395,1.016589641571045,-0.0399745441973209,-0.8515951633453369,0.0027934750542044,0.0568378455936908,0.0,0.0,0.4424700736999511,0.7126033306121826
-0.0295060165226459,0.997966170310974,-0.0369944125413894,-0.8277167081832886,0.0042816316708922,0.029763076454401,0.0,0.0,0.4500710964202881,0.6536133289337158
-0.0298295021057128,0.9792922735214232,-0.0326297469437122,-0.8299518823623657,0.0045591439120471,0.0055504841729998,0.0,0.0,0.2269036769866943,0.106146216392517
-0.0300996787846088,0.960797905921936,-0.0275785475969314,-0.8219724297523499,0.0051103183068335,0.0110232923179864,0.0,0.0,0.79815673828125,0.3621904850006103
-0.030310058966279,0.9430193305015564,-0.0219196788966655,-0.7901635766029358,0.0059781270101666,0.0173564851284027,0.0,0.0,0.4924124479293823,0.4922661781311035
-0.030501652508974,0.9253382086753844,-0.0201572477817535,-0.7858303189277649,0.0069686220958828,0.0198096763342618,0.0,0.0,0.4450750350952148,0.707038164138794
-0.0305592529475688,0.9081430435180664,-0.0056454902514815,-0.7642298340797424,0.0068573751486837,-0.0022248630411922,0.0,0.0,0.1662337779998779,0.5006896257400513
-0.030565071851015,0.8913265466690063,0.0003513508418109,-0.7473982572555542,0.0059329704381525,-0.0184878055006265,0.0,0.0,-0.2633626461029053,-0.4421632289886474
-0.0305235870182514,0.8739907145500183,0.0048209340311586,-0.7704746127128601,0.0052613471634685,-0.0134324114769697,0.0,0.0,-0.2174662947654724,-0.4665371179580688
-0.0304343216121196,0.8561357855796814,0.0093497987836599,-0.7935510277748108,0.0048489007167518,-0.0082490509375929,0.0,0.0,0.4257950782775879,0.1763803958892822
-0.0301920883357524,0.8384401202201843,0.0238681174814701,-0.786476194858551,0.0051944940350949,0.0069121047854423,0.0,0.0,-0.6522608399391174,0.8103283643722534
-0.029826259240508,0.820216953754425,0.0378497280180454,-0.8099184036254883,0.0039402181282639,-0.0250858012586832,0.0,0.0,-0.4171326756477356,-0.2021299600601196
-0.0294108390808105,0.801474392414093,0.0425299517810344,-0.8329947590827942,0.002962936181575,-0.0195455066859722,0.0,0.0,0.6821130514144897,-0.4666127562522888
-0.0289875976741313,0.7826623320579529,0.0432193726301193,-0.8360899686813354,0.0020766945090144,-0.0177246518433094,0.0,0.0,-0.0577121376991272,0.0739285945892334
-0.0285139083862304,0.7633311152458191,0.0479776971042156,-0.8591662049293518,0.0014781566569581,-0.0119707509875297,0.0,0.0,-0.0953717827796936,0.6511257886886597
-0.0279325488954782,0.7434771656990051,0.0598887875676155,-0.8823938369750977,-0.0002536879037506,-0.034636877477169,0.0,0.0,0.1618030071258545,0.1367603540420532
-0.0273788459599018,0.7239835858345032,0.0571896843612194,-0.8663807511329651,-0.002053846605122,-0.0360030196607112,0.0,0.0,-0.1385095119476318,0.2425011396408081
-0.026773739606142,0.7039708495140076,0.0620295219123363,-0.889457106590271,-0.003552226582542,-0.029967913404107,0.0,0.0,0.6055541038513184,0.5162608623504639
-0.0260963439941406,0.68417888879776,0.0700495392084121,-0.8796539306640625,-0.0058304336853325,-0.0455641858279705,0.0,0.0,0.2882205247879028,-0.2031975984573364
-0.025252629071474,0.6645345091819763,0.0858407169580459,-0.8730881214141846,-0.0072815082967281,-0.0290215425193309,0.0,0.0,0.2987433671951294,-0.4980571866035461
-0.024398136883974,0.645240068435669,0.0868270620703697,-0.8575366139411926,-0.0086286328732967,-0.0269426200538873,0.0,0.0,-0.3855738043785095,-0.756531298160553
-0.0235404968261718,0.6254227757453918,0.0855557098984718,-0.8807647228240967,-0.0084280092269182,0.0040122857317328,0.0,0.0,0.487930417060852,-0.5799869298934937
-0.0226675979793071,0.6061698198318481,0.0855886861681938,-0.8556802272796631,-0.0067471801303327,0.033616654574871,0.0,0.0,0.2631950378417969,-0.2010725736618042
-0.0216262824833393,0.5869556665420532,0.1015671491622924,-0.8539533019065857,-0.0042170910164713,0.0506019107997417,0.0,0.0,0.4777593612670898,-0.2265790104866027
-0.0206168182194232,0.5678551197052002,0.0984532535076141,-0.8489096164703369,-0.0017577179241925,0.0491875484585762,0.0,0.0,0.7054430246353149,-0.4677883386611938
-0.0194571502506732,0.5494692921638489,0.1126845255494117,-0.8171501159667969,0.0014772788854315,0.0647000670433044,0.0,0.0,0.5299749374389648,-0.5172382593154907
-0.0181508064270019,0.5315036177635193,0.1256251037120819,-0.7984875440597534,0.006424733903259,0.0989489555358886,0.0,0.0,0.0432163476943969,-0.3411368131637573
-0.0167494770139455,0.5137993693351746,0.1345671117305755,-0.7868886590003967,0.0119203189387917,0.109911635518074,0.0,0.0,0.3398873805999756,-0.3576077222824096
-0.0153666492551565,0.4965311288833618,0.132663145661354,-0.7675322890281677,0.0174611788243055,0.1108171567320823,0.0,0.0,0.5713551044464111,-0.2814606428146362
-0.0138910291716456,0.479273647069931,0.1413870900869369,-0.7670806646347046,0.0235590878874063,0.1219583377242088,0.0,0.0,0.2212724685668945,-0.1444419622421264
-0.012451839633286,0.462272584438324,0.1377527862787246,-0.7557144165039062,0.029646398499608,0.121746078133583,0.0,0.0,0.686450719833374,-0.4719966650009155
-0.0108530046418309,0.4455500543117523,0.1527945548295974,-0.7433781027793884,0.0366493053734302,0.1400584876537323,0.0,0.0,0.1988264322280883,0.1488083600997924
-0.0092046735808253,0.4289768636226654,0.157326653599739,-0.7367884516716003,0.0440635196864604,0.14828422665596,0.0,0.0,0.7849247455596924,0.2975857257843017
-0.0075190542265772,0.4125349223613739,0.1606883257627487,-0.73100346326828,0.0518484488129615,0.1556982845067978,0.0,0.0,0.3094713687896728,0.6432709693908691
-0.0058680535294115,0.3962723016738891,0.1583775579929351,-0.7230302095413208,0.0584931410849094,0.1328938603401184,0.0,0.0,0.6164872646331787,-0.0016367435455322
-0.0041986466385424,0.3807470202445984,0.1597901731729507,-0.6903064250946045,0.0655644387006759,0.1414259374141693,0.0,0.0,0.3901739120483398,0.6480875015258789
-0.0023724555503576,0.3650765419006347,0.1762958765029907,-0.6967551112174988,0.0718187987804412,0.1250873506069183,0.0,0.0,0.6140058040618896,-0.1700895428657531
-0.0005352973821572,0.3501383662223816,0.1769458949565887,-0.6642606258392334,0.0785211026668548,0.1340461671352386,0.0,0.0,0.6218465566635132,-0.2060626745223999
0.0012166977394372,0.335365891456604,0.1685419529676437,-0.6569198966026306,0.0851194709539413,0.1319673806428909,0.0,0.0,0.5852557420730591,-0.0087225437164306
0.0028679848182946,0.3210349082946777,0.158559575676918,-0.6373206973075867,0.0916308388113975,0.1302273720502853,0.0,0.0,0.8022713661193848,0.6988592147827148
0.0045894621871411,0.3072135150432586,0.1665789484977722,-0.6146337985992432,0.0971504300832748,0.1103918924927711,0.0,0.0,0.5355554819107056,0.0263875722885131
0.0061553954146802,0.2940281927585602,0.1512713134288787,-0.5863703489303589,0.1024299636483192,0.1055905073881149,0.0,0.0,0.417039155960083,-0.1582249999046325
0.0077717779204249,0.2810732126235962,0.1557113975286483,-0.5761950016021729,0.1083107739686966,0.1176164597272872,0.0,0.0,0.4530105590820312,-0.1199375987052917
0.0093584060668945,0.2681080400943756,0.1525698602199554,-0.5766845941543579,0.1143597364425659,0.1209790557622909,0.0,0.0,0.7088291645050049,-0.0856016278266906
0.0110117914155125,0.2551377415657043,0.1586293876171112,-0.5769882798194885,0.1210344582796096,0.1334941238164901,0.0,0.0,0.7677174806594849,-0.0176961421966552
0.0126214977353811,0.2421838790178299,0.1541228890419006,-0.5762959718704224,0.1278477907180786,0.1362666487693786,0.0,0.0,0.8769149780273438,0.3028405904769897
0.0141387935727834,0.2300508618354797,0.1446474641561508,-0.5398721098899841,0.1349063366651535,0.1411709040403366,0.0,0.0,0.7019369602203369,0.4469413757324219
0.0156550407409667,0.2186655551195144,0.1438693553209304,-0.5067355036735535,0.1426291465759277,0.154456079006195,0.0,0.0,0.3746987581253052,0.6598038673400879
0.0170516967773437,0.2077676355838775,0.1331609785556793,-0.4849875867366791,0.1491193771362304,0.1298047602176666,0.0,0.0,0.8505396842956543,0.4760246276855469
0.0182761196047067,0.1968696415424347,0.1163487583398819,-0.4849795699119568,0.155208021402359,0.1217728033661842,0.0,0.0,0.9428367614746094,0.0486736297607421
0.0194278713315725,0.1868421882390976,0.1086073517799377,-0.4463681876659393,0.1617770493030548,0.1313805878162384,0.0,0.0,0.8532924652099609,0.343268871307373
0.020385455340147,0.1772247850894928,0.0894685611128807,-0.428137719631195,0.1680728942155838,0.1259169578552246,0.0,0.0,0.7803640365600586,-0.2550861835479736
0.0211823470890522,0.168154627084732,0.0734345242381095,-0.4038393199443817,0.1743392199277877,0.1253264248371124,0.0,0.0,0.749171257019043,0.6118991374969482
0.0219020843505859,0.1596719771623611,0.0667461231350898,-0.3776280283927917,0.1795772165060043,0.1047600284218788,0.0,0.0,0.9449961185455322,-0.5451883673667908
0.0225791931152343,0.151699811220169,0.0608616843819618,-0.35516357421875,0.1864493191242218,0.1374422013759613,0.0,0.0,0.920557737350464,0.2050231695175171
0.0232219696044921,0.1438037455081939,0.0571056082844734,-0.3518541753292084,0.1936627328395843,0.144268199801445,0.0,0.0,0.93821382522583,0.6264231204986572
0.0239471439272165,0.1361283361911773,0.0660917535424232,-0.3419833183288574,0.2001337707042694,0.1294206231832504,0.0,0.0,0.7149425745010376,0.1884857416152954
0.0247114188969135,0.12885183095932,0.0691143125295639,-0.3244083523750305,0.2075023055076599,0.1473705172538757,0.0,0.0,0.8628277778625488,0.0218957662582397
0.0255422592163085,0.1217586398124694,0.074894443154335,-0.3164243400096893,0.215776726603508,0.1654880493879318,0.0,0.0,0.2782032489776611,0.7289307117462158
0.0263010021299123,0.115021213889122,0.0689895525574684,-0.3004641234874725,0.222739428281784,0.1392540633678436,0.0,0.0,0.3836545944213867,-0.3271042108535766
0.0269435886293649,0.1087036430835723,0.0571117624640464,-0.2818771302700043,0.2299745380878448,0.1447024643421173,0.0,0.0,0.466307520866394,0.6449549198150635
0.0276142116636037,0.102793700993061,0.06083744764328,-0.2636490166187286,0.2362885028123855,0.1262791007757187,0.0,0.0,0.5118939876556396,0.288941740989685
0.0282976143062114,0.096833549439907,0.0615890994668006,-0.2659960389137268,0.2431534230709076,0.137298434972763,0.0,0.0,0.1224795579910278,0.3488308191299438
0.0288531295955181,0.0908459275960922,0.0488672479987144,-0.2672372460365295,0.2499621361494064,0.136174276471138,0.0,0.0,0.0489933490753173,0.4962966442108154
0.0293124206364154,0.0851562097668647,0.0389063283801078,-0.2540885508060455,0.2571126818656921,0.1430112272500991,0.0,0.0,-0.291796326637268,0.9193191528320312
0.0298230163753032,0.0789743289351463,0.0457416400313377,-0.2756960093975067,0.2625532448291778,0.1088110581040382,0.0,0.0,0.0891175270080566,0.1949498653411865
0.0300993919372558,0.0730015113949775,0.0226331446319818,-0.2663657665252685,0.267674833536148,0.1024317890405654,0.0,0.0,0.1425608396530151,0.904680609703064
0.0303622242063283,0.0672686696052551,0.0230078641325235,-0.2553954720497131,0.2710168361663818,0.0668400451540947,0.0,0.0,0.4469771385192871,0.9760916233062744
0.0304450988769531,0.0619825683534145,0.0069769332185387,-0.2351827621459961,0.2723591327667236,0.0268459878861904,0.0,0.0,0.6851596832275391,0.9711971282958984
0.030275534838438,0.0572799071669578,-0.0162291675806045,-0.2088693976402282,0.271614521741867,-0.0148923872038722,0.0,0.0,0.8812986612319946,0.9738044738769532
0.0299670211970806,0.0528925992548465,-0.028140565380454,-0.1944908648729324,0.2688396871089935,-0.0554968938231468,0.0,0.0,0.8450080156326294,0.9929780960083008
0.0293810851871967,0.0489316545426845,-0.0536702945828437,-0.1751486361026764,0.2638104856014251,-0.1005843877792358,0.0,0.0,0.8350229263305664,0.9978172779083252
0.0285025592893362,0.0452497340738773,-0.0806474313139915,-0.1623583287000656,0.2564471364021301,-0.1472667902708053,0.0,0.0,0.713578462600708,0.9968467950820924
0.0275896079838275,0.0422134734690189,-0.0821750909090042,-0.1333792060613632,0.2471491992473602,-0.1859588921070099,0.0,0.0,0.3794810771942138,0.9854587316513062
0.0266924854367971,0.0391491018235683,-0.0785638839006424,-0.1343613564968109,0.2358161062002182,-0.2266618460416793,0.0,0.0,0.3574750423431396,0.9943671226501464
0.0258123390376567,0.0365648828446865,-0.0748093277215957,-0.1127993911504745,0.2224335223436355,-0.2676517069339752,0.0,0.0,-0.0044730901718139,0.9816083908081056
0.0249550826847553,0.033496294170618,-0.0704788193106651,-0.1341542154550552,0.2070179432630539,-0.3083116412162781,0.0,0.0,0.0704644918441772,0.989870548248291
0.0241159442812204,0.0307939872145652,-0.0664338767528534,-0.1177507936954498,0.1894156783819198,-0.3520451188087463,0.0,0.0,-0.373774766921997,0.9221110343933104
0.0233033187687397,0.0275999400764703,-0.0614869222044944,-0.1395509243011474,0.1695649921894073,-0.3970133364200592,0.0,0.0,-0.1180260181427002,0.9265100955963136
0.0225040428340435,0.0239193774759769,-0.0580480806529521,-0.1612275540828704,0.1476926505565643,-0.4374470114707947,0.0,0.0,-0.0084621906280517,0.7202305793762207
0.0217069629579782,0.0197462178766727,-0.0559662580490112,-0.18328957259655,0.1240306198596954,-0.4732407033443451,0.0,0.0,0.7191163301467896,0.6034102439880371
0.0209263805299997,0.01579400151968,-0.0530321076512336,-0.1737627387046814,0.0991723984479904,-0.4971649050712585,0.0,0.0,0.5466549396514893,-0.0608508586883544
0.0199108123779296,0.0121777392923831,-0.0756940394639968,-0.1592094004154205,0.0735467597842216,-0.5125128030776978,0.0,0.0,0.7242832183837891,-0.076287567615509
0.0186563488095998,0.0088399620726704,-0.0986498594284057,-0.1472449749708175,0.047045599669218,-0.5300236940383911,0.0,0.0,0.783622145652771,-0.5196065902709961
0.0172396656125783,0.0058988309465348,-0.115530289709568,-0.1301013231277465,0.0212340671569108,-0.5162306427955627,0.0,0.0,0.584181547164917,-0.4959777593612671
0.0157674793154001,0.0032150840852409,-0.120898388326168,-0.1191064044833183,-0.0047535742633044,-0.5197529196739197,0.0,0.0,0.7383091449737549,-0.7424048185348511
0.0143169406801462,0.0005807614070363,-0.1202300041913986,-0.1173405647277832,-0.0292580109089612,-0.4900887608528137,1.0,0.0,0.7585105895996094,0.6517987251281738
0.0132143972441554,-0.0010355019476264,-0.0991817340254783,-0.0722387358546257,-0.0395693406462669,-0.2054122239351272,1.0,0.0,-0.1618496775627136,0.5141806602478027
0.0123900417238473,-0.0026280547026544,-0.090418092906475,-0.0705935135483741,-0.0316735729575157,0.1579299718141555,1.0,0.0,0.1326675415039062,0.6928904056549072
0.0118143083527684,-0.0039440896362066,-0.0796628966927528,-0.0581849254667758,-0.0098145455121994,0.4372363686561584,1.0,0.0,0.5120296478271484,0.7847234010696411
