x_pos,y_pos,x_vel,y_vel,angle,ang_vel,leg_1,leg_2,main_booster,lat_booster
-0.0014622688759118,1.403404951095581,-0.1481435000896453,-0.3340023458003998,0.0017103637801483,0.0337349623441696,0.0,0.0,-0.1329962015151977,0.9506187438964844
-0.0027833939529955,1.3956892490386963,-0.1317125856876373,-0.3429204821586609,0.0013150909217074,-0.0079055977985262,0.0,0.0,-0.1729748249053955,0.7253817319869995
-0.0039762496016919,1.3877484798431396,-0.1170815601944923,-0.3529224097728729,-0.000852704339195,-0.0433600768446922,0.0,0.0,0.1764336824417114,-0.4088014364242553
-0.0051962854340672,1.3801219463348389,-0.1193925589323043,-0.3389549255371094,-0.0034481191541999,-0.051913421601057,0.0,0.0,-0.3089131116867065,-0.3464274406433105
-0.0063611986115574,1.3722761869430542,-0.1138423457741737,-0.3487115204334259,-0.0060647572390735,-0.0523373708128929,0.0,0.0,0.2803690433502197,-0.4060268998146057
-0.0073638916946947,1.3648414611816406,-0.0981102213263511,-0.3304433822631836,-0.0081943972036242,-0.0425972305238246,0.0,0.0,-0.5680795311927795,-0.4424114227294922
-0.0083154682070016,1.3571871519088743,-0.0929694175720214,-0.3402007520198822,-0.0103459255769848,-0.0430347584187984,0.0,0.0,-0.5941996574401855,0.1850874423980713
-0.009218025021255,1.3493136167526243,-0.0880542546510696,-0.3499511778354645,-0.0125188557431101,-0.0434626452624797,0.0,0.0,-0.5357480645179749,0.380497932434082
-0.0100740436464548,1.3412208557128906,-0.0833803191781044,-0.3597026765346527,-0.0147134410217404,-0.0438956618309021,0.0,0.0,-0.8785539865493774,-0.5994699001312256
-0.0109333042055368,1.3329133987426758,-0.0848902314901351,-0.369230717420578,-0.0157403368502855,-0.0205398742109537,0.0,0.0,-0.8231773376464844,-0.1528494358062744
-0.0117513658478856,1.3243865966796875,-0.0807481706142425,-0.3789829015731811,-0.0167896170169115,-0.0209873002022504,0.0,0.0,-0.6711120009422302,-0.1755988001823425
-0.0125311855226755,1.315640211105347,-0.0768928676843643,-0.3887351155281067,-0.0178604144603014,-0.0214181616902351,0.0,0.0,-0.8692662715911865,0.0689060688018798
-0.0132756233215332,1.3066744804382324,-0.0733394175767898,-0.3984872996807098,-0.0189529079943895,-0.0218516923487186,0.0,0.0,-0.8975487947463989,-0.307558536529541
-0.0139880180358886,1.2974894046783447,-0.0701018720865249,-0.4082396328449249,-0.0200669076293706,-0.0222820285707712,0.0,0.0,-0.8735811710357666,0.3871327638626098
-0.0146714206784963,1.2880849838256836,-0.0671936571598053,-0.41799196600914,-0.0212022084742784,-0.0227080080658197,0.0,0.0,-0.9124513864517212,-0.2036935091018676
-0.0153294559568166,1.2784610986709597,-0.0646271035075187,-0.4277443289756775,-0.0223585106432437,-0.023128505796194,0.0,0.0,-0.629760205745697,0.3841326236724853
-0.0159655567258596,1.268617868423462,-0.0624132975935936,-0.4374967515468597,-0.0235355198383331,-0.0235424675047397,0.0,0.0,-0.6925687789916992,-0.5231767892837524
-0.0166149139404296,1.258551836013794,-0.0645253360271453,-0.4473848044872284,-0.02394007332623,-0.0080916434526443,0.0,0.0,-0.7831517457962036,-0.0551698803901672
-0.0172496791929006,1.2482664585113523,-0.0630466118454933,-0.4571369588375091,-0.0243649631738662,-0.0084987431764602,0.0,0.0,-0.926215410232544,-0.3622093200683594
-0.0178735740482807,1.237761616706848,-0.0619441382586956,-0.4668893814086914,-0.0248092506080865,-0.0088865552097558,0.0,0.0,-0.7526772618293762,0.036068320274353
-0.0184905044734478,1.22703754901886,-0.0612223818898201,-0.476641833782196,-0.0252725854516029,-0.0092675909399986,0.0,0.0,-0.8758489489555359,-0.2722861766815185
-0.0191042907536029,1.2160937786102295,-0.0608834326267242,-0.4863943755626678,-0.0257544517517089,-0.0096381958574056,0.0,0.0,-0.7907557487487793,-0.6715016961097717
-0.0197602268308401,1.2049312591552734,-0.0661531165242195,-0.4960984587669372,-0.0252073183655738,0.0109434714540839,0.0,0.0,-0.6893853545188904,-0.0283496975898742
-0.020420741289854,1.1935495138168335,-0.066581130027771,-0.5058509111404419,-0.0246782340109348,0.010582591407001,0.0,0.0,-0.7647029161453247,-0.2549014091491699
-0.0210894588381052,1.18194842338562,-0.0673858895897865,-0.5156034827232361,-0.0241660084575414,0.0102454889565706,0.0,0.0,-0.9279572367668152,-0.2828449606895447
-0.0217703823000192,1.1701061725616455,-0.0685958117246627,-0.5263093709945679,-0.0236702356487512,0.0099152345210313,0.0,0.0,-0.9605802297592164,-0.393528938293457
-0.0224668495357036,1.158044695854187,-0.0701337233185768,-0.5360597372055054,-0.0231905728578567,0.0095931272953748,0.0,0.0,-0.8756381273269653,-0.1964073181152343
-0.0231823921203613,1.145763874053955,-0.0720259547233581,-0.5458099842071533,-0.0227267388254404,0.0092768929898738,0.0,0.0,-0.8886470794677734,-0.6904827356338501
-0.02398681640625,1.1332716941833496,-0.0825926959514617,-0.555180549621582,-0.0206073019653558,0.042388878762722,0.0,0.0,-0.5366324186325073,0.3808380365371704
-0.0248170848935842,1.1205601692199707,-0.085160456597805,-0.5649311542510986,-0.0185033529996871,0.0420787595212459,0.0,0.0,-0.9456408023834229,0.5398268699645996
-0.0256322864443063,1.1076340675354004,-0.0825137123465538,-0.5744794011116028,-0.0175214689224958,0.0196378957480192,0.0,0.0,-0.8248087763786316,0.331918716430664
-0.0264796260744333,1.0944886207580566,-0.0857058688998222,-0.5842297077178955,-0.0165551379323005,0.0193263925611972,0.0,0.0,-0.9702049493789672,0.5961627960205078
-0.0273210518062114,1.0811283588409424,-0.0840756222605705,-0.5937876105308533,-0.0166273061186075,-0.0014434339245781,0.0,0.0,-0.9492723345756532,0.2317298650741577
-0.028200339525938,1.0675489902496338,-0.0878357589244842,-0.6035378575325012,-0.0167155172675848,-0.0017640285659581,0.0,0.0,-0.6638144850730896,0.1948945522308349
-0.0291199684143066,1.053749918937683,-0.0918579548597335,-0.613288164138794,-0.016820115968585,-0.0020920201204717,0.0,0.0,-0.921711564064026,-0.3621349930763244
-0.0300825126469135,1.0397316217422483,-0.0961275175213813,-0.6230384707450867,-0.0169415660202503,-0.0024289763532578,0.0,0.0,-0.9437978267669678,0.0702720880508422
-0.0310901645570993,1.025493860244751,-0.1006299033761024,-0.6327887773513794,-0.0170803852379322,-0.0027765063568949,0.0,0.0,-0.4416303634643554,-0.8249108791351318
-0.0322064384818077,1.01104474067688,-0.1130153760313987,-0.6421695947647095,-0.01570007763803,0.0276060812175273,0.0,0.0,-0.910178244113922,0.4786384105682373
-0.0333720222115516,0.9963762760162354,-0.1179410219192504,-0.6519200205802917,-0.0143384179100394,0.0272330585867166,0.0,0.0,-0.903029441833496,-0.164404809474945
-0.0345891006290912,0.9814884066581726,-0.1230578869581222,-0.6616703867912292,-0.0129961399361491,0.026845509186387,0.0,0.0,-0.951448142528534,-0.0985035300254821
-0.0358592048287391,0.9663811922073364,-0.128353089094162,-0.6714207530021667,-0.0116740185767412,0.0264421887695789,0.0,0.0,-0.94285249710083,0.5419304370880127
-0.0371325500309467,0.9510525465011596,-0.1273315846920013,-0.6812760829925537,-0.0116715505719184,4.967759741703048e-05,0.0,0.0,-0.810379147529602,-0.8229439854621887
-0.0385169014334678,0.9354962706565856,-0.1398065090179443,-0.6913774609565735,-0.0103188576176762,0.027053777128458,0.0,0.0,-0.3823457360267639,-0.1448752880096435
-0.0399591438472271,0.9197207689285278,-0.1455650776624679,-0.7011278867721558,-0.0089889094233512,0.0265987012535333,0.0,0.0,-0.2553596496582031,0.5739157199859619
-0.0414181724190712,0.9037184715270996,-0.1461464166641235,-0.7112125754356384,-0.0087471147999167,0.0048356829211115,0.0,0.0,-0.9472965598106384,0.239500880241394
-0.0429375655949115,0.8874967694282532,-0.1521603912115097,-0.7209628820419312,-0.008529944345355,0.0043436726555228,0.0,0.0,-0.9129109382629396,-0.2851706743240356
-0.0445185676217079,0.8710556030273438,-0.158287912607193,-0.7307130694389343,-0.0083382939919829,0.003832837101072,0.0,0.0,-0.9283989071846008,0.1442453861236572
-0.0461620315909385,0.8543951511383057,-0.1645202934741974,-0.740463376045227,-0.0081731304526329,0.0033031671773642,0.0,0.0,-0.5324890613555908,0.1955331563949585
-0.0478692054748535,0.8375154137611389,-0.170849472284317,-0.750213623046875,-0.0080353915691375,0.0027547546196728,0.0,0.0,-0.161811351776123,0.484278917312622
-0.0496407523751258,0.8204162120819092,-0.1772679388523101,-0.7599639892578125,-0.0079260030761361,0.0021878413390368,0.0,0.0,-0.8987756967544556,0.401296854019165
-0.0514776222407817,0.8030976057052612,-0.1837686598300933,-0.7697142958641052,-0.0078458515927195,0.0016027486417442,0.0,0.0,0.8618185520172119,0.2048590183258056
-0.053438950330019,0.7868056297302246,-0.1958754807710647,-0.7240874171257019,-0.0080960113555192,-0.0050034285522997,0.0,0.0,-0.9064486026763916,0.690085768699646
-0.0554024688899517,0.7702898383140564,-0.1944277435541153,-0.7340521216392517,-0.0099987210705876,-0.0380540899932384,0.0,0.0,-0.8490906357765198,0.583848237991333
-0.0573869720101356,0.7535592913627625,-0.1953064352273941,-0.7436021566390991,-0.0131002906709909,-0.0620314069092273,0.0,0.0,-0.5068365335464478,0.9339478015899658
-0.0593473426997661,0.7366042733192444,-0.1905112564563751,-0.7536106109619141,-0.0185514744371175,-0.1090239658951759,0.0,0.0,-0.9694843292236328,0.2532804012298584
-0.0613761916756629,0.7194302678108215,-0.1973346024751663,-0.7633634805679321,-0.0240360312163829,-0.1096909865736961,0.0,0.0,-0.9073338508605956,0.8928017616271973
-0.0633923560380935,0.7020429968833923,-0.1939479410648346,-0.7729156017303467,-0.0316068492829799,-0.1514163464307785,0.0,0.0,-0.9687142372131348,-0.5545963048934937
-0.0655118003487587,0.6844406723976135,-0.205104261636734,-0.78248131275177,-0.0383618213236331,-0.1350997388362884,0.0,0.0,-0.7633962035179138,0.5404946804046631
-0.0676529854536056,0.6666226387023926,-0.2060216665267944,-0.7921425104141235,-0.0463600307703018,-0.1599640548229217,0.0,0.0,-0.7323581576347351,0.2517231702804565
-0.0698644667863845,0.6485860347747803,-0.2130198925733566,-0.801898181438446,-0.0543940998613834,-0.1606815755367279,0.0,0.0,0.5300722122192383,-0.4431787729263305
-0.0720806121826171,0.6308407187461853,-0.2136749327182769,-0.7889881134033203,-0.062245275825262,-0.1570231318473816,0.0,0.0,-0.3158537745475769,0.6973273754119873
-0.0743217468261718,0.6128764748573303,-0.2149642258882522,-0.7988224029541016,-0.0712894350290298,-0.180883452296257,0.0,0.0,0.1047598123550415,0.4571708440780639
-0.0765271186828613,0.5952024459838867,-0.2117411643266677,-0.7859570384025574,-0.079988807439804,-0.1739873886108398,0.0,0.0,0.8266159296035767,0.477797269821167
-0.0787238106131553,0.5783200860023499,-0.2109679728746414,-0.7508121132850647,-0.0886052176356315,-0.1723285764455795,0.0,0.0,0.2601965665817261,0.8298060894012451
-0.0808933228254318,0.5616608262062073,-0.206559345126152,-0.7410628795623779,-0.098908856511116,-0.2060731202363968,0.0,0.0,-0.5396173000335693,-0.5790228843688965
-0.0831896811723709,0.5447918772697449,-0.2206191718578338,-0.7503514885902405,-0.1078587621450424,-0.1789981722831726,0.0,0.0,0.865710973739624,0.4701052904129028
-0.0854301452636718,0.529141902923584,-0.2150978296995163,-0.6962200403213501,-0.1167346909642219,-0.1775188148021698,0.0,0.0,-0.9918760061264038,0.3549764156341553
-0.087742805480957,0.5132737755775452,-0.222297266125679,-0.7059772610664368,-0.1256488263607025,-0.1782833933830261,0.0,0.0,-0.807369589805603,0.6924581527709961
-0.090070441365242,0.4971847236156463,-0.2223160564899444,-0.7159813642501831,-0.1360424160957336,-0.2078720033168792,0.0,0.0,-0.7680098414421082,0.4213056564331054
-0.0924704521894455,0.4808778166770935,-0.2295433580875396,-0.7257409691810608,-0.1464741379022598,-0.2086343020200729,0.0,0.0,-0.2906789779663086,0.7836897373199463
-0.0948908776044845,0.4643450379371643,-0.2302242815494537,-0.7359985709190369,-0.1582703739404678,-0.2359246462583542,0.0,0.0,-0.5438942909240723,0.9039840698242188
-0.0973094925284385,0.4475789368152618,-0.2281358689069748,-0.7466777563095093,-0.1720052510499954,-0.2746978402137756,0.0,0.0,-0.297421932220459,0.3906716108322143
-0.0998007804155349,0.4305959939956665,-0.2353924065828323,-0.7564442157745361,-0.1857775002717971,-0.2754451632499695,0.0,0.0,0.7711758613586426,0.8273680210113525
-0.1021007522940635,0.4142670631408691,-0.2147773802280426,-0.7277089357376099,-0.2010851204395294,-0.3061526119709015,0.0,0.0,-0.0195060968399047,-0.4418578147888183
-0.1044733971357345,0.3977218866348266,-0.2220453768968582,-0.7374791502952576,-0.2164292633533477,-0.3068827986717224,0.0,0.0,0.9764484167099,-0.0086780786514282
-0.1067556366324424,0.3815039098262787,-0.2133911848068237,-0.7230393886566162,-0.2314331084489822,-0.3000771403312683,0.0,0.0,0.980376958847046,-0.9237642288208008
-0.1091300025582313,0.3656938076019287,-0.2243831902742386,-0.7047776579856873,-0.2446948736906051,-0.265235424041748,0.0,0.0,0.9494245052337646,-0.4779147505760193
-0.111359879374504,0.3510323762893677,-0.2098898589611053,-0.6538552641868591,-0.2580371499061584,-0.2668454349040985,0.0,0.0,0.8476183414459229,-0.6326358914375305
-0.1133836731314659,0.3374652564525604,-0.1907877773046493,-0.6050679683685303,-0.2698842287063598,-0.2369416505098343,0.0,0.0,-0.1280828118324279,-0.9862504601478576
-0.115567110478878,0.3237266838550567,-0.2090788632631302,-0.6123396754264832,-0.2793849110603332,-0.1900135278701782,0.0,0.0,0.7477138042449951,-0.9525582194328308
-0.1179476752877235,0.310359925031662,-0.2304426431655883,-0.5955530405044556,-0.2872129082679748,-0.1565597355365753,0.0,0.0,0.7793498039245605,0.121566891670227
-0.1201180443167686,0.2979809045791626,-0.2096004039049148,-0.5516587495803833,-0.2948709726333618,-0.1531605273485183,0.0,0.0,0.8186105489730835,-0.7384682297706604
-0.1223485916852951,0.2863708138465881,-0.216803640127182,-0.5172866582870483,-0.3013209104537964,-0.1289993375539779,0.0,0.0,0.7035387754440308,-0.8006371855735779
-0.1245630234479904,0.275601863861084,-0.2166559249162674,-0.4796209633350372,-0.3062798678874969,-0.0991788953542709,0.0,0.0,0.5780460834503174,-0.8152344822883606
-0.1267209947109222,0.2656078040599823,-0.2125650197267532,-0.4448634684085846,-0.309621125459671,-0.0668255239725112,0.0,0.0,-0.2623394131660461,0.7450594902038574
-0.1288871765136718,0.255364179611206,-0.2116952687501907,-0.4563310444355011,-0.3147252202033996,-0.1020820960402488,0.0,0.0,-0.0229762196540832,-0.6381582617759705
-0.1311726570129394,0.244917944073677,-0.224806472659111,-0.4650929570198059,-0.3186094760894775,-0.0776849389076232,0.0,0.0,0.731670618057251,-0.6475341320037842
-0.1333474218845367,0.2348237633705139,-0.2152244746685028,-0.4491251707077026,-0.3209530115127563,-0.0468707382678985,0.0,0.0,0.8757023811340332,0.4890964031219482
-0.1352308243513107,0.2253542095422744,-0.1868160516023636,-0.4212108850479126,-0.3225433230400085,-0.031805969774723,0.0,0.0,0.969081163406372,0.1022975444793701
-0.1368792504072189,0.2162550836801529,-0.1640290468931198,-0.4045877456665039,-0.3233822882175445,-0.0167791061103343,0.0,0.0,0.9793195724487304,0.4430370330810547
-0.1383192092180252,0.208219900727272,-0.1431497484445572,-0.3573092818260193,-0.3242675364017486,-0.0177049618214368,0.0,0.0,0.7436039447784424,-0.8179088830947876
-0.1396006643772125,0.2011230587959289,-0.1289528906345367,-0.3152341842651367,-0.3234231173992157,0.0168886147439479,0.0,0.0,-0.2886382341384887,-0.6132877469062805
-0.1409884393215179,0.1938272267580032,-0.1405464708805084,-0.3238635957241058,-0.3215927481651306,0.0366068817675113,0.0,0.0,0.1949139833450317,-0.5810359120368958
-0.1423403769731521,0.1866258978843689,-0.1382052153348922,-0.3193918168544769,-0.3184512853622436,0.0628291368484497,0.0,0.0,0.433256983757019,-0.2126107215881347
-0.1436671316623687,0.1798561364412307,-0.135497361421585,-0.3002656102180481,-0.3155247271060943,0.0585309937596321,0.0,0.0,0.5669575929641724,-0.6963989734649658
-0.1447762548923492,0.1740263849496841,-0.1152744889259338,-0.2581574916839599,-0.3109985291957855,0.0905240476131439,0.0,0.0,-0.0704866051673889,-0.5739402174949646
-0.1459993422031402,0.1679989248514175,-0.1278456598520279,-0.2667094767093658,-0.3052555024623871,0.1148608177900314,0.0,0.0,-0.0963426828384399,-0.6744371652603149
-0.1473508775234222,0.1617873460054397,-0.1423232555389404,-0.2745809555053711,-0.2978436052799225,0.1482379734516143,0.0,0.0,0.1229369640350341,0.8820774555206299
-0.1484979689121246,0.1559802591800689,-0.1201831474900245,-0.256983071565628,-0.2921978831291199,0.1129145175218582,0.0,0.0,-0.0385907888412475,0.5120687484741211
-0.149676889181137,0.1499417871236801,-0.1224736124277114,-0.2674678266048431,-0.2874839305877685,0.0942787677049636,0.0,0.0,0.3540499210357666,0.6808875799179077
-0.1507688462734222,0.1445805877447128,-0.1123311072587966,-0.2376589775085449,-0.2842553257942199,0.0645719319581985,0.0,0.0,0.1551665067672729,0.0944651365280151
-0.1518466025590896,0.1395087093114853,-0.1108541116118431,-0.2248193174600601,-0.2810870409011841,0.0633659213781356,0.0,0.0,-0.1091694235801696,-0.5056382417678833
-0.1530360281467437,0.1342378407716751,-0.123246893286705,-0.2334392517805099,-0.2766695618629455,0.0883503854274749,0.0,0.0,0.2166333198547363,0.681938648223877
-0.154253676533699,0.1293316185474395,-0.1245909556746482,-0.2175235003232956,-0.2737753689289093,0.0578836910426616,0.0,0.0,0.6764886379241943,0.7426140308380127
-0.1551684439182281,0.12519171833992,-0.0930953472852706,-0.1836930066347122,-0.2721178233623504,0.0331503376364707,0.0,0.0,0.6152875423431396,0.6263353824615479
-0.1559412032365799,0.1213022321462631,-0.0778333097696304,-0.1727652847766876,-0.2715503275394439,0.0113498140126466,0.0,0.0,0.7449978590011597,-0.7096162438392639
-0.1564534157514572,0.1183183267712593,-0.0535816065967083,-0.1321815550327301,-0.2691369652748108,0.0482673048973083,0.0,0.0,0.5870869159698486,-0.1368093490600586
-0.1568512022495269,0.1162016689777374,-0.0420743748545646,-0.0936514884233474,-0.2667804956436157,0.0471294932067394,0.0,0.0,0.5130090713500977,-0.5807658433914185
-0.1570105552673339,0.1149665713310241,-0.0197716429829597,-0.0542035475373268,-0.2628668844699859,0.0782723277807235,0.0,0.0,-0.2287499904632568,-0.9447519183158876
-0.1572936028242111,0.1135376319289207,-0.0338130816817283,-0.0625304952263832,-0.2572297155857086,0.1127431169152259,0.0,0.0,-0.2190203666687011,-0.7821961045265198
-0.1576952040195465,0.1119209378957748,-0.0473218858242034,-0.0706117004156112,-0.2499266564846038,0.1460610330104828,0.0,0.0,-0.10537850856781,-0.7569102644920349
-0.1582062691450119,0.1101119145750999,-0.0597032010555267,-0.0789631232619285,-0.2411800473928451,0.174932450056076,0.0,0.0,-0.1334248781204223,0.4236979484558105
-0.1587749421596527,0.1080842316150665,-0.0655400156974792,-0.0887182503938674,-0.232366532087326,0.1762699782848358,0.0,0.0,-0.0284836292266845,0.4696388244628906
-0.159400075674057,0.1058380454778671,-0.0712677538394928,-0.0984734445810318,-0.2234816998243332,0.1776963919401168,0.0,0.0,-0.0913836956024169,0.8208755254745483
-0.1600309312343597,0.1033541038632392,-0.0706559866666793,-0.1092701777815818,-0.2158239632844925,0.1531544029712677,0.0,0.0,-0.0722537040710449,-0.606648862361908
-0.1607643067836761,0.1006670296192169,-0.0822484344244003,-0.118147999048233,-0.2068218141794204,0.1800429373979568,0.0,0.0,0.2051029205322265,0.865328311920166
-0.1613822877407074,0.0983031839132309,-0.0691022053360939,-0.1040598824620246,-0.1994639039039611,0.147158145904541,0.0,0.0,-0.1166139245033264,0.5011541843414307
-0.162005141377449,0.0957014411687851,-0.068456545472145,-0.1148125678300857,-0.1932459622621536,0.1243587881326675,0.0,0.0,0.0964133739471435,0.2569015026092529
-0.1625271737575531,0.093529999256134,-0.05878172442317,-0.0956653505563736,-0.1866361945867538,0.1321953237056732,0.0,0.0,0.0223103761672973,0.2059289216995239
-0.1629898101091385,0.0918709635734558,-0.0530125424265861,-0.0729031488299369,-0.1798581033945083,0.1355618238449096,0.0,0.0,-0.2194312810897827,0.6952149868011475
