x_pos,y_pos,x_vel,y_vel,angle,ang_vel,leg_1,leg_2,main_booster,lat_booster
-0.001540184020996,1.403400421142578,-0.1556406319141388,-0.3342050313949585,0.0014475893694907,0.0285314656794071,0.0,0.0,-0.95361105860269,-0.9843303247525262
-0.0031677247025072,1.3956750631332395,-0.1656260639429092,-0.3433537781238556,0.0042946534231305,0.0569475293159484,0.0,0.0,0.2332291606433321,-0.918648906439108
-0.0047690393403172,1.3881713151931765,-0.1645781695842743,-0.3335179686546325,0.0086853913962841,0.0878228694200515,0.0,0.0,-0.2711270267151804,0.973514922574612
-0.0063246726058423,1.380441188812256,-0.1580792963504791,-0.3435770869255066,0.0111739030107855,0.0497746169567108,0.0,0.0,0.3553367017687108,0.9871893687005546
-0.0077014924027025,1.3732960224151611,-0.1379461735486984,-0.3175681233406067,0.0114375976845622,0.0052743917331099,0.0,0.0,0.9048309576142372,0.8100565431232226
-0.00886373501271,1.3668686151504517,-0.1148889064788818,-0.2856486737728119,0.0101228114217519,-0.0262983087450265,0.0,0.0,0.8971333934199242,0.8012122857693669
-0.0100119588896632,1.3612123727798462,-0.1114537864923477,-0.2513673901557922,0.0067842896096408,-0.0667765960097312,0.0,0.0,-0.6271796280504849,0.859542987662494
-0.0110895158722996,1.3553358316421509,-0.1018429175019264,-0.2611675560474396,0.0009449541685171,-0.116797350347042,0.0,0.0,0.7641810536159259,0.5069623238392961
-0.0121545791625976,1.3505817651748655,-0.0991567224264144,-0.2113012820482254,-0.0063220085576176,-0.1453528106212616,0.0,0.0,-0.949041940070745,0.5197933422973864
-0.0131911281496286,1.3456072807312012,-0.0948707684874534,-0.2211481183767318,-0.0150043740868568,-0.1736632287502288,0.0,0.0,0.2545962897335005,0.5152520824918759
-0.0141205787658691,1.3410850763320925,-0.0829155892133712,-0.2011158168315887,-0.0249342545866966,-0.1986159682273864,0.0,0.0,0.0577432957819628,0.8823278693563359
-0.0149297714233398,1.336841106414795,-0.0687254816293716,-0.188858687877655,-0.0369989089667797,-0.2413148880004882,0.0,0.0,0.5880672581962549,-0.5669998574605054
-0.015634249895811,1.333381175994873,-0.0593332834541797,-0.1540905833244323,-0.047987088561058,-0.2197839766740799,0.0,0.0,0.0545198095510572,0.7531500950348231
-0.0162274353206157,1.3300238847732544,-0.0463392361998558,-0.1496789902448654,-0.0608365610241889,-0.2570126950740814,0.0,0.0,-0.3000878642076836,-0.7164991260154479
-0.0168723110109567,1.3264565467834473,-0.0522093996405601,-0.1590985208749771,-0.0729974880814552,-0.2432408630847931,0.0,0.0,0.0514339028958277,-0.5123378449634839
-0.0174750331789255,1.3229403495788574,-0.0487720146775245,-0.1568761318922042,-0.0844060406088829,-0.2281922549009323,0.0,0.0,0.8433929570002245,-0.6623895170743869
-0.0178910251706838,1.3206219673156738,-0.0314517840743064,-0.1036389768123626,-0.0944831818342208,-0.2015611678361892,0.0,0.0,0.8696240808504911,0.7731575610322293
-0.0180383678525686,0.0,-0.0030227724928408,-0.0873273089528083,-0.1061195284128189,-0.2327480018138885,0.0,0.0,0.2643155782704078,-0.7940942944738862
-0.0181038863956928,1.3174258470535278,0.0038617954123765,-0.0562768541276454,-0.1164891272783279,-0.2074106037616729,0.0,0.0,-0.7428349880028149,-0.9909126769094276
-0.018262481316924,1.3159695863723757,-0.0072755380533635,-0.0654090195894241,-0.1250326633453369,-0.1708860248327255,0.0,0.0,0.1007707147176397,0.501053164335177
-0.0182301513850688,1.3150155544281006,0.0130271222442388,-0.0432480536401271,-0.1348020732402801,-0.1954060643911361,0.0,0.0,0.8786929638354359,0.958012014975876
-0.0180439949035644,1.3145641088485718,0.0307066775858402,-0.0212050955742597,-0.1468734592199325,-0.2414490878582,0.0,0.0,-0.1942621666011692,-0.9504592431097594
-0.0179180148988962,1.313902735710144,0.0235812701284885,-0.0305188968777656,-0.1578658819198608,-0.2198681533336639,0.0,0.0,0.8348859913344895,-0.7706315862300112
-0.0177161209285259,1.31351900100708,0.0298663713037967,-0.0181062873452901,-0.1675513088703155,-0.1937254071235656,0.0,0.0,-0.0869972587396807,0.849658388864744
-0.017463207244873,1.3129031658172607,0.0366360247135162,-0.0286950804293155,-0.1789454668760299,-0.2279036492109298,0.0,0.0,-0.4501824676003572,0.9537301096740668
-0.0171551704406738,1.3120348453521729,0.0439960584044456,-0.0402378216385841,-0.1921931952238083,-0.2649546563625335,0.0,0.0,0.159453821539528,0.9462669637610764
-0.0166707038879394,1.3116804361343384,0.0638972967863082,-0.0178289338946342,-0.2077424675226211,-0.3109858632087707,0.0,0.0,-0.048685525972173,-0.8157041825683804
-0.0162587165832519,1.311138391494751,0.0550118200480937,-0.0260844714939594,-0.221692219376564,-0.278995931148529,0.0,0.0,0.6884936443958178,-0.9734919689572196
-0.0158887859433889,1.311617136001587,0.0494044832885265,0.0193601306527853,-0.2342668026685714,-0.2514912486076355,0.0,0.0,-0.9855514076750312,-0.6616200102993945
-0.0155669208616018,1.3118913173675537,0.0435915365815162,0.010331330820918,-0.2458578944206237,-0.2318218648433685,0.0,0.0,-0.4409990972328115,0.5690728658746304
-0.0151931764557957,1.3119341135025024,0.0502852499485015,-0.0003093856503255,-0.2590194046497345,-0.2632303833961487,0.0,0.0,-0.7256641387939453,-0.9973636865615844
-0.0148992538452148,1.311784744262695,0.0404025912284851,-0.0086244493722915,-0.2702933847904205,-0.2254790067672729,0.0,0.0,-0.7345091104507446,-0.9927288889884948
-0.0146816251799464,1.311458706855774,0.0308863371610641,-0.0162004325538873,-0.2796514630317688,-0.1871615946292877,0.0,0.0,-0.5298957228660583,-0.9994991421699524
-0.0145407672971487,1.310938596725464,0.0213856492191553,-0.0245365779846906,-0.2871495485305786,-0.1499615609645843,0.0,0.0,-0.9102864861488342,-0.9575355648994446
-0.0144601818174123,1.3102295398712158,0.0138578163459897,-0.0326699838042259,-0.2931202352046966,-0.1194134801626205,0.0,0.0,-0.4494388103485107,-0.9809085726737976
-0.0144392009824514,1.3093376159667969,0.0063524702563881,-0.0405009798705577,-0.2975090444087982,-0.08777566999197,0.0,0.0,-0.6230891346931458,-0.9907485246658324
-0.0144855501130223,1.308254361152649,-0.0020772288553416,-0.0486722737550735,-0.3001508712768554,-0.052836824208498,0.0,0.0,-0.8416867852210999,-0.9867446422576904
-0.01458740234375,1.306988000869751,-0.009126054123044,-0.0565013214945793,-0.3012460172176361,-0.0219031199812889,0.0,0.0,-0.2327820062637329,-0.9806698560714722
-0.0147521970793604,1.3055460453033447,-0.0171654913574457,-0.06394674628973,-0.3005362451076507,0.0141954738646745,0.0,0.0,0.1158499717712402,-0.9634579420089722
-0.0148317338898777,1.3044943809509275,-0.0102234687656164,-0.0462708808481693,-0.2981905043125152,0.0469151400029659,0.0,0.0,-0.4765479564666748,-0.9857526421546936
-0.0149816516786813,1.303268313407898,-0.0192659366875886,-0.0536204688251018,-0.2937867641448974,0.0880747810006141,0.0,0.0,-0.5400715470314026,-0.7812100052833557
-0.0151628497987985,1.3018395900726318,-0.0233144797384738,-0.0624661557376384,-0.2884215712547302,0.1073038801550865,0.0,0.0,0.1794685125350952,-0.8354530334472656
-0.0152514455839991,1.3004952669143677,-0.015491371974349,-0.0584462657570838,-0.2816084325313568,0.1362629830837249,0.0,0.0,-0.6602802276611328,-0.6706202030181885
-0.0153649328276515,1.2989460229873655,-0.018828872591257,-0.0674371272325515,-0.273934006690979,0.1534887254238128,0.0,0.0,-0.1854737997055053,-0.6308145523071289
-0.015512466430664,1.2971887588500977,-0.0233046021312475,-0.0765144154429435,-0.2651616632938385,0.1754470318555832,0.0,0.0,-0.9394292235374452,-0.6399489641189575
-0.0156865119934082,1.2952218055725098,-0.0269233025610446,-0.0857329741120338,-0.2554439306259155,0.1943539530038833,0.0,0.0,-0.8936242461204529,-0.5144013166427612
-0.0158761981874704,1.2930442094802856,-0.0291919149458408,-0.0950459241867065,-0.2450241893529892,0.2083947658538818,0.0,0.0,-0.8489663600921631,-0.1635294556617736
-0.0160449035465717,1.2906445264816284,-0.0269129276275634,-0.105011947453022,-0.2348187416791916,0.2041089534759521,0.0,0.0,-0.914916694164276,-0.7432918548583984
-0.0162604339420795,1.2880544662475586,-0.0332401096820831,-0.1132959872484207,-0.2229760289192199,0.2368541955947876,0.0,0.0,-0.7900980710983276,-0.7242867350578308
-0.0165115352720022,1.2852604389190674,-0.0381483025848865,-0.1222564205527305,-0.2098050266504287,0.2634199857711792,0.0,0.0,-0.9698367714881896,0.4227852821350097
-0.0167396552860736,1.282245397567749,-0.0357151702046394,-0.1322263032197952,-0.196796178817749,0.2601771354675293,0.0,0.0,-0.9729666113853456,0.2858554124832153
-0.0169440265744924,1.2790089845657349,-0.0332354940474033,-0.142195388674736,-0.1839306503534317,0.257310539484024,0.0,0.0,-0.9680960178375244,-0.4167754650115967
-0.0171239860355854,1.2755508422851562,-0.0307120140641927,-0.1521637290716171,-0.1711889952421188,0.2548335492610931,0.0,0.0,-0.949819564819336,0.5629581212997437
-0.0172346122562885,1.271864891052246,-0.0225500036031007,-0.1625422835350036,-0.1596819758415222,0.230140283703804,0.0,0.0,-0.915088951587677,-0.5107997059822083
-0.0173499099910259,1.2679622173309326,-0.0237354878336191,-0.1721869856119156,-0.1474894881248474,0.2438494712114334,0.0,0.0,-0.938907504081726,0.6267974376678467
-0.0173982623964548,1.2638256549835205,-0.0159428380429744,-0.1827887445688247,-0.1364148110151291,0.2214937508106231,0.0,0.0,-0.7704166769981384,-0.1648111939430236
-0.0174201019108295,1.2594668865203855,-0.0132692279294133,-0.1927522122859954,-0.1253798902034759,0.2206988334655761,0.0,0.0,-0.9542765021324158,0.593153715133667
-0.0173575393855571,1.254876971244812,-0.0033606062643229,-0.2032126933336258,-0.1158171072602272,0.1912557780742645,0.0,0.0,-0.793198823928833,0.5646927356719971
-0.0172170642763376,1.2500615119934082,0.0056800753809511,-0.2134018540382385,-0.1075131669640541,0.166078895330429,0.0,0.0,-0.1600626707077026,0.1802840232849121
-0.0170487407594919,1.2450227737426758,0.0084422016516327,-0.2233601957559585,-0.099180482327938,0.166653886437416,0.0,0.0,-0.669108510017395,0.3379949331283569
-0.0168519020080566,1.2397608757019043,0.0112294778227806,-0.2333184033632278,-0.0907954424619674,0.1677006185054779,0.0,0.0,-0.8415209054946899,0.1918344497680664
-0.0166260711848735,1.2342761754989624,0.0140400454401969,-0.2432765513658523,-0.0823341831564903,0.1692248880863189,0.0,0.0,-0.4701399803161621,0.3543249368667602
-0.0163710601627826,1.2285683155059814,0.0168721638619899,-0.2532346844673157,-0.0737726166844368,0.171231135725975,0.0,0.0,-0.5932742953300476,0.0449551343917846
-0.0160860065370798,1.2226372957229614,0.019724179059267,-0.2631928622722626,-0.0650864765048027,0.1737226396799087,0.0,0.0,-0.896429181098938,0.7386870384216309
-0.0157118793576955,1.216471791267395,0.0299857594072818,-0.2737158834934234,-0.0577423796057701,0.1468818485736847,0.0,0.0,-0.8087326288223267,0.5932449102401733
-0.0152699472382664,1.2100799083709717,0.0375467278063297,-0.2838375270366668,-0.0511629097163677,0.1315891444683075,0.0,0.0,-0.8651461601257324,0.841628909111023
-0.0147275924682617,1.2034690380096436,0.0491271317005157,-0.2936525642871856,-0.0461184792220592,0.1008885353803634,0.0,0.0,-0.761856198310852,0.5717570781707764
-0.0141027448698878,1.1966238021850586,0.058468073606491,-0.3041081428527832,-0.0421458967030048,0.0794515162706375,0.0,0.0,-0.7623645067214966,0.6636412143707275
-0.0133909229189157,1.1895591020584106,0.0682995468378067,-0.3139137923717499,-0.0393057242035865,0.0568036027252674,0.0,0.0,-0.6857692003250122,0.2351458072662353
-0.0126470569521188,1.1822702884674072,0.0712416917085647,-0.3238664269447326,-0.0361956395208835,0.0622017160058021,0.0,0.0,-0.6937884092330933,0.5799951553344727
-0.0118317604064941,1.174757719039917,0.0790783613920211,-0.3338294327259063,-0.0337696596980094,0.0485197231173515,0.0,0.0,-0.8648104667663574,0.0778088569641113
-0.0109834671020507,1.16702139377594,0.0820409879088401,-0.3437819182872772,-0.0310270674526691,0.0548521168529987,0.0,0.0,-0.6686503887176514,-0.4197721481323242
-0.0101021770387887,1.1590609550476074,0.0850123912096023,-0.35373455286026,-0.0279450807720422,0.0616396740078926,0.0,0.0,-0.3418694734573364,-0.237655758857727
-0.0091873165220022,1.1508766412734983,0.0879916995763778,-0.3636873662471771,-0.0245014261454343,0.0688729509711265,0.0,0.0,-0.8564895391464233,0.1249277591705322
-0.0082387924194335,1.1424682140350342,0.0909780859947204,-0.3736404478549957,-0.0206743516027927,0.0765415877103805,0.0,0.0,-0.8374906182289124,-0.6878290176391602
-0.0073046684265136,1.1338305473327637,0.0879035890102386,-0.3838337063789367,-0.0152297373861074,0.1088922470808029,0.0,0.0,-0.873450517654419,0.2715240716934204
-0.0063361166976392,1.1249691247940063,0.0909018069505691,-0.3937884867191314,-0.0093598896637558,0.1173970326781272,0.0,0.0,-0.7792168855667114,0.0361456871032714
-0.0053330422379076,1.1158843040466309,0.09390489757061,-0.4037439227104187,-0.0030448241159319,0.1263013184070587,0.0,0.0,-0.8307310938835144,0.645769476890564
-0.0042373659089207,1.1065821647644043,0.1041782721877098,-0.4134281873703003,0.0022799654398113,0.1064957603812217,0.0,0.0,-0.918924868106842,-0.0575617551803588
-0.0031065940856933,1.09705650806427,0.1071892157196998,-0.4233835339546203,0.0080879218876361,0.1161593422293663,0.0,0.0,-0.6190140247344971,0.3286623954772949
-0.0019406318897381,1.0873075723648071,0.1102031469345092,-0.4333395361900329,0.0143970008939504,0.1261818259954452,0.0,0.0,-0.8683632016181946,0.0303611755371093
-0.0007392883417196,1.0773353576660156,0.1132195368409156,-0.4432963728904724,0.0212244652211666,0.136549025774002,0.0,0.0,-0.4109902381896972,-0.1383150815963745
0.0004976272466592,1.0671398639678955,0.1162378638982772,-0.4532541036605835,0.028586808592081,0.1472467482089996,0.0,0.0,-0.8535854816436768,0.0624375343322753
0.001770305680111,1.0567214488983154,0.1192575916647911,-0.4632128775119781,0.0364998392760753,0.1582605987787246,0.0,0.0,-0.8712863922119141,-0.411529541015625
0.0030789375305175,1.046080231666565,0.1222782135009765,-0.4731727242469787,0.0449786707758903,0.1695763617753982,0.0,0.0,-0.6593822240829468,0.5704184770584106
0.0044753076508641,1.03521990776062,0.131776824593544,-0.4829348027706146,0.0527383498847484,0.1551939845085144,0.0,0.0,-0.9106292128562928,-0.366287887096405
0.0059078214690089,1.024137020111084,0.1347976326942443,-0.4928953349590301,0.0610919296741485,0.1670717895030975,0.0,0.0,-0.823013424873352,0.3280414342880249
0.0073764799162745,1.0128315687179563,0.1378178894519806,-0.5028571486473083,0.0700524300336837,0.1792097836732864,0.0,0.0,-0.8441798686981201,0.2315324544906616
0.008881663903594,1.0013039112091064,0.1408371180295944,-0.5128203630447388,0.0796321555972099,0.1915946155786514,0.0,0.0,-0.8743755221366882,0.1916300058364868
0.0104232784360647,0.9895544648170472,0.1438548266887664,-0.5227851271629333,0.0898428261280059,0.2042132318019867,0.0,0.0,-0.6468132734298706,0.895582914352417
0.0120709417387843,0.9775989651679992,0.1556062251329422,-0.5319358706474304,0.09892538189888,0.1816511005163192,0.0,0.0,-0.8471887111663818,-0.2773323059082031
0.0137551305815577,0.9654214382171632,0.1586190909147262,-0.5419009327888489,0.1086603999137878,0.1947002112865448,0.0,0.0,-0.3129535913467407,0.0542037487030029
0.0154760358855128,0.9530224800109864,0.1616289466619491,-0.5518677234649658,0.119057722389698,0.2079466581344604,0.0,0.0,-0.3961192369461059,0.7522139549255371
0.0173033718019723,0.9404062628746032,0.1733568608760833,-0.5614950060844421,0.12837715446949,0.1863890588283538,0.0,0.0,-0.8572391867637634,0.611586332321167
0.0192113872617483,0.9275751113891602,0.1818714737892151,-0.5710663199424744,0.1372628957033157,0.1777149587869644,0.0,0.0,-0.9513943791389464,0.2439577579498291
0.021156121045351,0.9145224094390868,0.1848681271076202,-0.5810337066650391,0.1468372642993927,0.1914876997470855,0.0,0.0,-0.7699273824691772,0.2207882404327392
0.0231375694274902,0.9012483954429626,0.1878594011068344,-0.5910027027130127,0.1571080088615417,0.2054150104522705,0.0,0.0,0.0458594560623168,0.1243677139282226
0.0249991416931152,0.8884809613227844,0.1755513846874237,-0.5685977935791016,0.1677180528640747,0.212200790643692,0.0,0.0,-0.086124837398529,0.4286994934082031
0.0268974304199218,0.8754929304122925,0.1785299330949783,-0.5785700082778931,0.1790385246276855,0.2264093905687332,0.0,0.0,0.0006345510482788,0.9184494018554688
0.0287837032228708,0.862970232963562,0.1784692108631134,-0.5578233599662781,0.1892435699701309,0.2041008472442627,0.0,0.0,-0.2998702526092529,0.863499641418457
0.0307636260986328,0.8502494096755981,0.1886205375194549,-0.5665977597236633,0.1986721605062484,0.1885717213153839,0.0,0.0,-0.2662667036056518,0.897243857383728
0.0328472144901752,0.837324857711792,0.1999877840280532,-0.5755760669708252,0.2071031332015991,0.168619230389595,0.0,0.0,-0.8743125796318054,0.7255728244781494
0.0350124351680278,0.8241941928863525,0.2086061686277389,-0.5847191214561462,0.2150908261537552,0.1597544550895691,0.0,0.0,0.1007171869277954,0.8799703121185303
0.0370928756892681,0.8113362193107605,0.2011876404285431,-0.5724760890007019,0.2220264226198196,0.1387117803096771,0.0,0.0,-0.1866173148155212,0.7959105968475342
0.03928117826581,0.7982860803604126,0.2131043672561645,-0.5808776617050171,0.2278164327144622,0.1158001869916915,0.0,0.0,0.4044357538223266,0.7096102237701416
0.0415467247366905,0.7855055928230286,0.2214253693819046,-0.5688279271125793,0.2330241203308105,0.1041536927223205,0.0,0.0,0.054229736328125,0.9302186965942384
0.0439137443900108,0.7732847332954407,0.2327021360397339,-0.5437837243080139,0.2370775192975998,0.0810683891177177,0.0,0.0,-0.7917731404304504,-0.2376902103424072
0.0463168136775493,0.7608425617218018,0.2355729788541793,-0.5537527799606323,0.2418859153985977,0.0961680337786674,0.0,0.0,-0.7439507842063904,-0.3483012914657593
0.0487558357417583,0.7481792569160461,0.2384260594844818,-0.5637227296829224,0.2474527060985565,0.1113358587026596,0.0,0.0,-0.6308673620223999,0.7950727939605713
0.0512989982962608,0.7353209853172302,0.2498864382505417,-0.5722376108169556,0.2519713044166565,0.0903720632195472,0.0,0.0,-0.1889582276344299,0.1137555837631225
0.0538777336478233,0.7222415208816528,0.2526986598968506,-0.5822080969810486,0.2572543919086456,0.1056616157293319,0.0,0.0,-0.4668192863464355,-0.0698071718215942
0.0564918518066406,0.7089411616325378,0.2554879486560821,-0.5921795964241028,0.2633046507835388,0.1210052818059921,0.0,0.0,-0.485103964805603,0.7112431526184082
0.0592030510306358,0.6954413056373596,0.2660484910011291,-0.6009145379066467,0.2684954404830932,0.1038162484765052,0.0,0.0,-0.9109066724777222,0.1988621950149536
0.0619491562247276,0.6817206740379333,0.2687852084636688,-0.6108866333961487,0.2744582295417785,0.1192560791969299,0.0,0.0,-0.8475630879402161,0.4670040607452392
0.0647296905517578,0.6677793860435486,0.2714924216270447,-0.6208600401878357,0.2811951339244842,0.1347382813692093,0.0,0.0,-0.3200589418411255,0.4741706848144531
0.0675444602966308,0.6536175608634949,0.2741675972938537,-0.6308346390724182,0.2887080609798431,0.150259330868721,0.0,0.0,-0.7360906004905701,0.4327789545059204
0.0703928917646408,0.6392356753349304,0.2768080830574035,-0.6408106684684753,0.2969988584518432,0.1658158302307129,0.0,0.0,-0.4564061164855957,0.6025409698486328
0.0733310729265213,0.6246538758277893,0.2864834368228912,-0.6496008634567261,0.3045835793018341,0.1516944468021392,0.0,0.0,-0.8277612924575806,0.009371280670166
0.0763023346662521,0.6098519563674927,0.2890445590019226,-0.6595780253410339,0.3129492104053497,0.1673128306865692,0.0,0.0,0.1201257705688476,0.7770966291427612
0.0792128592729568,0.5956550240516663,0.2837669551372528,-0.6325690150260925,0.3205177187919616,0.1513702571392059,0.0,0.0,-0.505040168762207,0.7055796384811401
0.0822155028581619,0.5812596678733826,0.2937558591365814,-0.6412502527236938,0.3272859454154968,0.135364830493927,0.0,0.0,0.4647738933563232,0.42918860912323
