x_pos,y_pos,x_vel,y_vel,angle,ang_vel,leg_1,leg_2,main_booster,lat_booster
-0.0015784263378009,1.403072714805603,-0.1590870767831802,-0.3487698435783386,0.0011115630622953,0.0218784306198358,0.0,0.0,-0.3938800096511841,0.5222246646881104
-0.0031668662559241,1.3946943283081057,-0.1580993831157684,-0.3723703324794769,0.0003764014691114,-0.0147039713338017,0.0,0.0,-0.3763834834098816,0.3845329284667969
-0.0048088072799146,1.3857637643814087,-0.1627455055713653,-0.3969128727912903,-0.001054816879332,-0.0286269839853048,0.0,0.0,-0.0955018997192382,0.8162703514099121
-0.006451797671616,1.3762788772583008,-0.1608328968286514,-0.4215587675571441,-0.0044792499393224,-0.068495012819767,0.0,0.0,0.4521679878234863,0.8614296913146973
-0.0079480167478322,1.3671038150787354,-0.143913522362709,-0.4078107476234436,-0.0101261511445045,-0.1129483357071876,0.0,0.0,0.287001371383667,-0.405088722705841
-0.0093832965940237,1.3580102920532229,-0.1376363486051559,-0.4042044281959533,-0.0159596893936395,-0.1166816726326942,0.0,0.0,0.1731985807418823,-0.3023817539215088
-0.0108773233368992,1.3489813804626465,-0.1427157372236251,-0.4013773798942566,-0.0225691366940736,-0.1322012245655059,0.0,0.0,0.0590168237686157,0.2706519365310669
-0.0123141286894679,1.3400200605392456,-0.1367427408695221,-0.3984001874923706,-0.0294212903827428,-0.1370556056499481,0.0,0.0,0.4633543491363525,0.3604800701141357
-0.0137862209230661,1.3316197395324707,-0.139521911740303,-0.3735149502754211,-0.0370247885584831,-0.152083933353424,0.0,0.0,0.0485481023788452,0.4158831834793091
-0.0152868274599313,1.3233599662780762,-0.1416590511798858,-0.3673326075077057,-0.0453311130404472,-0.1661417484283447,0.0,0.0,-0.3841453194618225,-0.2147384285926818
-0.016830826178193,1.3145498037338257,-0.1453005969524383,-0.3918608129024505,-0.0543387457728385,-0.1801694184541702,0.0,0.0,-0.2142564058303833,0.2283691167831421
-0.0184165947139263,1.305189847946167,-0.1487777382135391,-0.4163872301578522,-0.0640482977032661,-0.1942089647054672,0.0,0.0,-0.4389678835868835,0.2636427879333496
-0.0200424194335937,1.2952799797058103,-0.1520817726850509,-0.4409169554710388,-0.074460357427597,-0.2082598209381103,0.0,0.0,-0.0471548438072204,0.2398469448089599
-0.02170648612082,1.284820556640625,-0.1552032530307769,-0.4654492735862732,-0.0855754390358924,-0.2223216742277145,0.0,0.0,-0.2565517425537109,0.1912487745285034
-0.0234068874269723,1.2738122940063477,-0.158133178949356,-0.4899837374687195,-0.0973941311240196,-0.2363953292369842,0.0,0.0,-0.061764121055603,0.2064350843429565
-0.0251415260136127,1.2622551918029783,-0.1608623266220092,-0.5145205855369568,-0.1099170222878456,-0.2504806816577911,0.0,0.0,-0.5359811186790466,0.3339862823486328
-0.0269082076847553,1.250149488449097,-0.1633814871311187,-0.539059579372406,-0.1231447085738182,-0.2645776867866516,0.0,0.0,0.0410776138305664,0.01945161819458
-0.0285867694765329,1.237830638885498,-0.1542947590351104,-0.5486815571784973,-0.1366569399833679,-0.2702694237232208,0.0,0.0,-0.1856473684310913,-0.6455398797988892
-0.0303345676511526,1.2249783277511597,-0.1616297662258148,-0.5724731683731079,-0.1497922539710998,-0.2627299726009369,0.0,0.0,0.0371192693710327,-0.5068062543869019
-0.0321495048701763,1.2121261358261108,-0.1685704290866851,-0.5725602507591248,-0.1627235412597656,-0.2586490511894226,0.0,0.0,0.3521041870117187,-0.6389145255088806
-0.0338231101632118,1.1996254920959473,-0.155255913734436,-0.5569597482681274,-0.1748652905225753,-0.2428565919399261,0.0,0.0,-0.2616735100746155,-0.8839777708053589
-0.0355850234627723,1.186589241027832,-0.1651258468627929,-0.5807317495346069,-0.1859833002090454,-0.2223800420761108,0.0,0.0,-0.3376600742340088,-0.7923930287361145
-0.0374129302799701,1.1730170249938965,-0.1722853928804397,-0.6045597195625305,-0.1965650767087936,-0.2116542309522628,0.0,0.0,0.2218868732452392,-0.763494610786438
-0.0392134673893451,1.1592280864715576,-0.1704428941011428,-0.6141477823257446,-0.2062678635120391,-0.1940726637840271,0.0,0.0,0.5250084400177002,-0.8715174794197083
-0.0411159507930278,1.1458312273025513,-0.1814831793308258,-0.596657395362854,-0.2151226252317428,-0.1771109998226165,0.0,0.0,0.8069503307342529,-0.7482364773750305
-0.043093491345644,1.1330716609954834,-0.1894133388996124,-0.5683314204216003,-0.2235535979270935,-0.168619230389595,0.0,0.0,0.604686975479126,-0.5037212371826172
-0.0449558272957801,1.1208105087280271,-0.1782179623842239,-0.546180784702301,-0.231670081615448,-0.1623299419879913,0.0,0.0,0.4451022148132324,-0.5667179822921753
-0.0468194968998432,1.1091182231903076,-0.1785190552473068,-0.5209077596664429,-0.2396339327096939,-0.1592768728733062,0.0,0.0,-0.2972005605697632,-0.7469609379768372
-0.0487525947391986,1.0969089269638062,-0.1865851581096649,-0.5437498688697815,-0.2464729100465774,-0.1367795318365097,0.0,0.0,0.6509428024291992,-0.9262728095054626
-0.050658892840147,1.084891438484192,-0.1850128024816513,-0.5350622534751892,-0.2521904706954956,-0.1143514066934585,0.0,0.0,0.8958191871643066,-0.9095761179924012
-0.0523621551692485,1.073764085769653,-0.1658690720796585,-0.4953218698501587,-0.2567331790924072,-0.0908543318510055,0.0,0.0,0.0674397945404052,-0.5136013627052307
-0.0540783889591693,1.0625323057174685,-0.1673948317766189,-0.4999416470527649,-0.2610528767108917,-0.0863947346806526,0.0,0.0,-0.0283069610595703,-0.5762997269630432
-0.0558320060372352,1.0507766008377075,-0.1717338263988495,-0.5231236219406128,-0.2647562325000763,-0.0740669071674346,0.0,0.0,0.7230963706970215,-0.8205687403678894
-0.0576068870723247,1.039063572883606,-0.1746582388877868,-0.5210962891578674,-0.2676509022712707,-0.0578932985663414,0.0,0.0,0.3533761501312256,-0.7976365089416504
-0.0592737197875976,1.0275652408599854,-0.1647525131702423,-0.5113902688026428,-0.2696239948272705,-0.0394622199237346,0.0,0.0,0.2655177116394043,-0.6545443534851074
-0.0607988350093364,1.016374588012695,-0.1512130945920944,-0.4976021647453308,-0.2709546983242035,-0.0266138762235641,0.0,0.0,0.4720141887664795,-0.7439563870429993
-0.0622732155025005,1.005251407623291,-0.1468633860349655,-0.4944677948951721,-0.2715353369712829,-0.011612988077104,0.0,0.0,-0.0236918330192565,-0.3652238845825195
-0.0637199431657791,0.9935792088508606,-0.1434088200330734,-0.5190013647079468,-0.2728258669376373,-0.0258103106170892,0.0,0.0,0.0472151041030883,-0.7102258205413818
-0.0650717765092849,0.9821709990501404,-0.1346331536769867,-0.5071313977241516,-0.2733989059925079,-0.0114610446617007,0.0,0.0,-0.3434453010559082,-0.8158741593360901
-0.0664485916495323,0.9702396988868712,-0.1379703134298324,-0.5302301049232483,-0.2731008231639862,0.005961705930531,0.0,0.0,0.1094257831573486,-0.6250035762786865
-0.0677711516618728,0.9585718512535096,-0.1330019235610962,-0.5184300541877747,-0.2723414003849029,0.0151881780475378,0.0,0.0,0.1271663904190063,-0.7659763097763062
-0.0689229965209961,0.9468547105789183,-0.1168283075094223,-0.5204594731330872,-0.270660251379013,0.0336227267980575,0.0,0.0,-0.6454281806945801,-0.8789598345756531
-0.0700895339250564,0.9346023797988892,-0.119066335260868,-0.5441039800643921,-0.2681915163993835,0.0493750013411045,0.0,0.0,-0.7964673638343811,-0.9255953431129456
-0.0712691321969032,0.9218234419822692,-0.1212221607565879,-0.5673622488975525,-0.2648517787456512,0.0667939111590385,0.0,0.0,-0.6803724765777588,-0.6299000382423401
-0.0724522620439529,0.9085089564323424,-0.1222324222326278,-0.5910507440567017,-0.2608460187911987,0.0801149755716323,0.0,0.0,-0.7569658756256104,-0.4438105821609497
-0.0735836029052734,0.8946454524993896,-0.1163893714547157,-0.6155843138694763,-0.2575237154960632,0.0664469078183174,0.0,0.0,-0.9450856447219848,-0.7466416358947754
-0.0747122764587402,0.8802489638328552,-0.1167914494872093,-0.6391611695289612,-0.2535255551338196,0.07996316999197,0.0,0.0,-0.7445260286331177,-0.3898288011550903
-0.0757838264107704,0.8653032183647156,-0.1104180440306663,-0.6636941432952881,-0.2501987516880035,0.0665354281663894,0.0,0.0,-0.8656256794929504,-0.7164288759231567
-0.0768612846732139,0.8498401045799255,-0.1121022552251815,-0.686520516872406,-0.2457641661167144,0.0886917561292648,0.0,0.0,-0.7128214240074158,-0.6206160187721252
-0.0779259651899337,0.8338444232940674,-0.111451506614685,-0.7100953459739685,-0.2406901717185974,0.1014797687530517,0.0,0.0,-0.6796836256980896,-0.2519180178642273
-0.0789258927106857,0.8172994256019592,-0.1043480634689331,-0.7346279621124268,-0.23626409471035,0.0885212048888206,0.0,0.0,-0.0768550634384155,0.0251544713973999
-0.0798587799072265,0.8002049326896667,-0.0970192849636077,-0.7591596841812134,-0.2324765026569366,0.0757519155740737,0.0,0.0,-0.5125713348388672,0.1970559358596801
-0.0807223320007324,0.7825610041618347,-0.089474581182003,-0.7836904525756836,-0.2293170094490051,0.0631899982690811,0.0,0.0,0.1750125885009765,-0.3769816160202026
-0.0813833251595497,0.7651951909065247,-0.0686146095395088,-0.771422266960144,-0.2267637550830841,0.0510652884840965,0.0,0.0,-0.2596997022628784,-0.6250020861625671
-0.0820072144269943,0.7472900748252869,-0.0652536377310752,-0.7953535318374634,-0.223869040608406,0.0578944906592369,0.0,0.0,-0.518229603767395,-0.2560926079750061
-0.0825555771589279,0.728834867477417,-0.057117760181427,-0.8198826909065247,-0.2215654402971267,0.0460717603564262,0.0,0.0,0.0267256498336792,-0.7671343684196472
-0.0829094871878624,0.7105592489242554,-0.0386543832719326,-0.8117671608924866,-0.218259111046791,0.0661267787218093,0.0,0.0,0.14326012134552,-0.6817235946655273
-0.0830297470092773,0.692402184009552,-0.0162328202277421,-0.8063606023788452,-0.2140122503042221,0.084937185049057,0.0,0.0,-0.0355843305587768,-0.6366770267486572
-0.0831110030412674,0.6737158298492432,-0.0129089532420039,-0.8298200964927673,-0.2091829627752304,0.0965857580304145,0.0,0.0,0.4326100349426269,-0.6111157536506653
-0.0830850601196289,0.6555221676826477,-0.0027336180210113,-0.8078640699386597,-0.2037976086139679,0.107707068324089,0.0,0.0,-0.0572057962417602,-0.6870657205581665
-0.0830240249633789,0.6367878913879395,1.110192260966869e-05,-0.8318098783493042,-0.1976609230041504,0.1227334290742874,0.0,0.0,0.6482316255569458,-0.414474606513977
-0.0828375816345214,0.6185623407363892,0.0134802479296922,-0.8093475699424744,-0.1924749612808227,0.1037195697426796,0.0,0.0,0.2160331010818481,-0.5383785367012024
-0.082435131072998,0.6003295183181763,0.0342811122536659,-0.809588611125946,-0.1864769458770752,0.1199607029557228,0.0,0.0,0.1419252157211303,-0.643810510635376
-0.0818970650434494,0.5821810364723206,0.0469589680433273,-0.8057527542114258,-0.1796060800552368,0.1374169886112213,0.0,0.0,0.3355556726455688,-0.4687397480010986
-0.0812046080827713,0.5639590620994568,0.0627758875489234,-0.809097170829773,-0.1731270253658294,0.1295815259218216,0.0,0.0,0.4204475879669189,-0.8708539605140686
-0.0805196762084961,0.5459873080253601,0.0608128421008586,-0.7978704571723938,-0.1654324382543563,0.1538916081190109,0.0,0.0,0.456210732460022,-0.5258852243423462
-0.079637810587883,0.5285928249359131,0.0797538608312606,-0.7721731662750244,-0.1570021361112594,0.1686063706874847,0.0,0.0,-0.1276680827140808,-0.7951847314834595
-0.0787166580557823,0.5106517672538757,0.0826493725180625,-0.7964072823524475,-0.1475472450256347,0.1890975385904312,0.0,0.0,0.4969537258148193,-0.7328312993049622
-0.0776162147521972,0.4933239221572876,0.0993561893701553,-0.7691048383712769,-0.1368921846151352,0.2131009399890899,0.0,0.0,0.4634747505187988,-0.5112048983573914
-0.0764914527535438,0.4760940372943878,0.1012698039412498,-0.764784574508667,-0.1257319748401641,0.2232042551040649,0.0,0.0,0.6850736141204834,-0.1746774911880493
-0.0752757042646408,0.4593597650527954,0.1110475063323974,-0.7428913116455078,-0.1152655854821205,0.2093275487422943,0.0,0.0,0.4434933662414551,-0.2017021775245666
-0.0738725662231445,0.4428812265396118,0.1298893988132476,-0.7316068410873413,-0.104906179010868,0.2071883380413055,0.0,0.0,0.3135116100311279,-0.3822832107543945
-0.0724017173051834,0.4268703460693359,0.1373205482959747,-0.7109375596046448,-0.0952221155166626,0.1936814188957214,0.0,0.0,0.6564841270446777,-0.5242448449134827
-0.0707386955618858,0.4111686944961548,0.1554343104362487,-0.6971952319145203,-0.0844513401389122,0.2154154032468795,0.0,0.0,0.293447732925415,-0.1753326654434204
-0.0689753517508506,0.3953779935836792,0.1657327711582183,-0.7012425661087036,-0.0739439874887466,0.2101470232009887,0.0,0.0,0.6776468753814697,-0.6532674431800842
-0.0670630484819412,0.3795217871665954,0.1792369335889816,-0.7041715383529663,-0.062076099216938,0.2373577058315277,0.0,0.0,0.8243187665939331,-0.0485517978668212
-0.0650598555803299,0.3636801540851593,0.188564196228981,-0.703624963760376,-0.0504504516720771,0.2325129061937332,0.0,0.0,0.8736053705215454,-0.1094204187393188
-0.0629175156354904,0.3486368954181671,0.2025639563798904,-0.6682319045066833,-0.0389194749295711,0.2306194305419922,0.0,0.0,0.576208233833313,-0.3943067789077759
-0.0605647079646587,0.3342059850692749,0.2232716083526611,-0.6411033272743225,-0.0270563680678606,0.2372625172138214,0.0,0.0,0.4457759857177734,-0.1806612014770507
-0.0581860542297363,0.3203016221523285,0.2262929379940033,-0.617798388004303,-0.0156393311917781,0.228340744972229,0.0,0.0,0.1334960460662841,-0.2806845307350158
-0.0557875633239746,0.3061902523040771,0.2286631166934967,-0.627090573310852,-0.004596053622663,0.2208655327558517,0.0,0.0,0.5879571437835693,-0.565950870513916
-0.0532829277217388,0.2926738560199737,0.2379736453294754,-0.6007368564605713,0.0077416296117007,0.2467533349990844,0.0,0.0,0.5597151517868042,-0.4201585054397583
-0.0507717132568359,0.2794215977191925,0.2389692813158035,-0.589094340801239,0.0197290834039449,0.2397492229938507,0.0,0.0,0.6278197765350342,-0.0986104607582092
-0.0482210144400596,0.2666195333003998,0.2430635690689087,-0.5691778063774109,0.0315855778753757,0.2371298372745514,0.0,0.0,0.3601768016815185,-0.3598533868789673
-0.0455910675227642,0.2541305124759674,0.2508880496025085,-0.555366575717926,0.0435410812497139,0.2391101121902465,0.0,0.0,0.7247669696807861,-0.2760486602783203
-0.0427889823913574,0.2420080751180648,0.2675131559371948,-0.5391913652420044,0.0560870170593261,0.250918835401535,0.0,0.0,0.6963354349136353,-0.4488292336463928
-0.0398743636906147,0.2298646122217178,0.2784757018089294,-0.5402423739433289,0.0689387172460556,0.2570338845252991,0.0,0.0,0.8108155727386475,-0.022366464138031
-0.036780260503292,0.217843011021614,0.2957359552383423,-0.5349786877632141,0.0824767649173736,0.2707609534263611,0.0,0.0,0.8755418062210083,-0.6666160225868225
-0.0335041061043739,0.2062573730945587,0.3119222521781921,-0.5158506631851196,0.0980288311839103,0.3110411465167999,0.0,0.0,0.9417722225189208,0.1158573627471923
-0.0300013534724712,0.1948400288820266,0.3335830271244049,-0.5086176991462708,0.1145974844694137,0.331373006105423,0.0,0.0,0.8578131198883057,-0.5065241456031799
-0.0265329368412494,0.1841298639774322,0.328913927078247,-0.4774811565876007,0.1324339807033538,0.3567299842834472,0.0,0.0,0.8827264308929443,-0.2940680980682373
-0.0230343826115131,0.1741651445627212,0.3315042555332184,-0.4446088373661041,0.150731086730957,0.3659420013427734,0.0,0.0,0.7095654010772705,-0.4288867712020874
-0.0194025039672851,0.1647067368030548,0.3439606726169586,-0.4224329888820648,0.1699396967887878,0.3841723501682281,0.0,0.0,0.6863205432891846,-0.6900020241737366
-0.0156601909548044,0.1552027761936187,0.3531341850757599,-0.4249478876590729,0.1911121904850006,0.4234504699707031,0.0,0.0,0.8193161487579346,-0.5355103015899658
-0.0120165823027491,0.1459491550922393,0.3420921564102173,-0.4143014252185821,0.2135354280471801,0.4484643936157226,0.0,0.0,0.9588840007781982,0.3326671123504638
-0.0083825113251805,0.137683168053627,0.3404456973075866,-0.3708656430244446,0.2367865145206451,0.4650221467018127,0.0,0.0,0.7916978597640991,0.396540880203247
-0.0048085213638842,0.1297647804021835,0.3343053162097931,-0.3558121025562286,0.2602986991405487,0.4702440798282623,0.0,0.0,0.8208110332489014,-0.0337315201759338
-0.0014834403991699,0.1225210279226303,0.309786856174469,-0.3261460661888122,0.283568263053894,0.4653918743133545,0.0,0.0,0.638651967048645,0.2831096649169922
0.0018398284446448,0.1157673671841621,0.3089902997016907,-0.3048810064792633,0.3076417744159698,0.4814704358577728,0.0,0.0,0.7697263956069946,0.7041093111038208
0.0050210952758789,0.1096213907003402,0.2960785329341888,-0.2779930830001831,0.3305547535419464,0.4582593441009521,0.0,0.0,0.4399342536926269,0.1150604486465454
0.0080312732607126,0.1038230955600738,0.2790426611900329,-0.2628982365131378,0.3535624742507934,0.4601548314094543,0.0,0.0,0.113877534866333,0.2019784450531005
0.011017894372344,0.0979456305503845,0.2765498459339142,-0.2668412327766418,0.3769316673278808,0.4673841595649719,0.0,0.0,0.2960209846496582,0.5933270454406738
0.0138891218230128,0.0921539142727851,0.2660967707633972,-0.2631207704544067,0.3993405401706695,0.4481776356697082,0.0,0.0,0.2749706506729126,0.3805855512619018
0.0166045185178518,0.0863099172711372,0.2507776618003845,-0.2657354772090912,0.4216710925102234,0.4466108679771423,0.0,0.0,0.2480577230453491,0.5294489860534668
0.0193223003298044,0.0807476639747619,0.2516514658927917,-0.2533896565437317,0.4435422420501709,0.4374235570430755,0.0,0.0,0.2857118844985962,0.6217151880264282
0.0221178047358989,0.0750914216041565,0.2602894306182861,-0.2576380670070648,0.4646893739700317,0.4229418337345123,0.0,0.0,0.5244536399841309,0.8193107843399048
0.0248941425234079,0.0699846372008323,0.2595086693763733,-0.233167752623558,0.484801173210144,0.4022359848022461,0.0,0.0,0.5387353897094727,0.791283369064331
0.0274727828800678,0.0653253868222236,0.241003006696701,-0.2131222784519195,0.5036953687667847,0.3778839707374573,0.0,0.0,0.5007314682006836,0.7788784503936768
0.0299603454768657,0.0612974278628826,0.2329018861055374,-0.1849550157785415,0.5216397047042847,0.3588867783546448,0.0,0.0,0.1134026050567627,0.9048556089401244
0.0324736610054969,0.0573306195437908,0.2368734180927276,-0.1819396913051605,0.5381660461425781,0.3305273950099945,0.0,0.0,0.2713112831115722,0.9219725131988524
0.0348244681954383,0.0536858178675174,0.2220343649387359,-0.1672651022672653,0.553225576877594,0.3011903464794159,0.0,1.0,0.983193039894104,0.9997104406356812
0.0368444435298442,0.051690898835659,0.198220819234848,-0.0911870971322059,0.5547816753387451,0.0266248080879449,0.0,1.0,0.788050651550293,0.963031530380249
0.0385118499398231,0.0503961406648159,0.1819362491369247,-0.0514350682497024,0.5370767712593079,-0.3543474674224853,0.0,1.0,0.8244524002075195,0.7643299102783203
0.0396294593811035,0.0496794544160366,0.1371498703956604,-0.0223350562155246,0.5073789358139038,-0.5951458811759949,0.0,1.0,0.7879211902618408,-0.0293390750885009
0.0403338447213172,0.0490654818713665,0.0982403457164764,-0.0173505190759897,0.4761482775211334,-0.6247216463088989,0.0,1.0,0.8243076801300049,0.021018624305725
0.0407546050846576,0.0487089976668357,0.0693913176655769,-0.0067702434025704,0.4460082352161407,-0.6028261184692383,0.0,1.0,0.2167634963989257,0.6873378753662109
0.0410799011588096,0.0483860597014427,0.0611662454903125,-0.0055483053438365,0.4148720204830169,-0.6227248907089233,0.0,0.0,-0.999721884727478,-0.7011812925338745
0.0414717681705951,0.0474934913218021,0.0666717439889907,-0.0318843685090541,0.3853974938392639,-0.5894908905029297,0.0,0.0,-0.9992845058441162,-0.31534343957901
0.0419679656624794,0.0460624806582927,0.0769380182027816,-0.0564852729439735,0.3564406335353851,-0.5791369676589966,0.0,0.0,-0.9972473382949828,-0.5220755934715271
0.0425302498042583,0.0440762154757976,0.0823641791939735,-0.0820311531424522,0.3290258944034576,-0.5482946038246155,0.0,0.0,-0.9900291562080384,-0.5889803171157837
0.0431586280465126,0.0415232516825199,0.0876811444759368,-0.1080253645777702,0.3032188415527344,-0.5161416530609131,0.0,0.0,-0.9019651412963868,-0.4707289338111877
