x_pos,y_pos,x_vel,y_vel,angle,ang_vel,leg_1,leg_2,main_booster,lat_booster
-0.0015872955555096,1.4032623767852783,-0.1610046029090881,-0.3403394520282745,0.0020402215886861,0.0402657091617584,0.0,0.0,0.1229074592847017,0.8964634062622605
-0.0031274794600903,1.3957321643829346,-0.1545058786869049,-0.3346762657165527,0.0025213381741195,0.0096240667626261,0.0,0.0,0.6698248560077451,0.8303811194591751
-0.0045178411528468,1.3884466886520386,-0.1384195238351822,-0.3238006830215454,0.0019141607917845,-0.0121446195989847,0.0,0.0,-0.9017610416344212,0.8142048378919138
-0.0059205056168138,1.3807966709136963,-0.1386368870735168,-0.3400062918663025,0.0003045260673388,-0.0321957059204578,0.0,0.0,0.800140935997254,-0.6888974297643697
-0.0072889328002929,1.3738524913787842,-0.1373045593500137,-0.3086271584033966,0.0007518441998399,0.0089475307613611,0.0,0.0,-0.2569374098719652,0.7246584377261227
-0.0086510656401515,1.36654531955719,-0.135220006108284,-0.3247668147087097,-0.0002295445447089,-0.0196298006922006,0.0,0.0,-0.8879854396870164,-0.9779995613021027
-0.0101565364748239,1.3588762283325195,-0.1519361436367035,-0.3408500254154205,0.001152254641056,0.0276385303586721,0.0,0.0,-0.4339537761420606,0.8519916889538759
-0.0116415973752737,1.3508477210998535,-0.1481548845767974,-0.3568207621574402,0.0008016438805498,-0.0070126927457749,0.0,0.0,0.6435166537816164,0.7222770683154662
-0.0131467822939157,1.343713879585266,-0.149088367819786,-0.3170607388019562,-0.0006133022834546,-0.0283015463501214,0.0,0.0,-0.748745211012597,-0.9234056056532244
-0.0147878648713231,1.336223602294922,-0.1649458706378936,-0.3329005539417267,0.0002166146732633,0.0165996551513671,0.0,0.0,-0.5092161470576599,-0.6878648127084852
-0.0165383331477642,1.3283720016479492,-0.1775068640708923,-0.3489639461040497,0.0026449635624885,0.0485713481903076,0.0,0.0,-0.0334341863017351,-0.8127681679379235
-0.0184082984924316,1.3201565742492676,-0.1913410872220993,-0.3651405572891235,0.0069445008412003,0.0859985128045082,0.0,0.0,0.9203521043576726,-0.7134457395248048
-0.020239258185029,1.3128039836883545,-0.1897631585597992,-0.3268265724182129,0.013534671626985,0.1318158209323883,0.0,0.0,0.8332392895261815,0.7239861532965315
-0.0219979286193847,1.305677056312561,-0.1817648708820343,-0.3168218433856964,0.0193689465522766,0.1166964322328567,0.0,0.0,-0.2056248578295658,0.9972137721964434
-0.0237220767885446,1.2982014417648315,-0.17635278403759,-0.3322987556457519,0.0232619848102331,0.077867716550827,0.0,0.0,-0.6144272997821507,-0.8320418071550504
-0.0255619995296001,1.2903529405593872,-0.1898183524608612,-0.3489267230033874,0.0290229115635156,0.1152290701866149,0.0,0.0,-0.7765315436173188,-0.8075935562005295
-0.0275134090334177,1.2821505069732666,-0.2027482688426971,-0.3647207617759704,0.0365484580397605,0.1505246460437774,0.0,0.0,0.294598495148596,0.8995961556527876
-0.0293380729854106,1.2740304470062256,-0.1889099031686782,-0.3610683679580688,0.0429339185357093,0.1277207136154174,0.0,0.0,-0.5699417130370006,0.806895110335793
-0.0311505310237407,1.2655612230300903,-0.1863887161016464,-0.3765626847743988,0.0480159260332584,0.1016491651535034,0.0,0.0,0.552434141079287,-0.923107208329188
-0.0332082733511924,1.2575160264968872,-0.2132338732481002,-0.3578239679336548,0.0553954467177391,0.147603839635849,0.0,0.0,0.3337563647221451,0.7054951677803403
-0.0351908691227436,1.2500380277633667,-0.2050659358501434,-0.3326194882392883,0.0621374286711216,0.134851798415184,0.0,0.0,-0.9699031724360369,-0.6532672212969983
-0.0372849479317665,1.2421905994415283,-0.2180920839309692,-0.3491470515727997,0.0707501247525215,0.1722693741321563,0.0,0.0,-0.3323023540276728,-0.8344871675540094
-0.0394913665950298,1.2339766025543213,-0.2312572300434112,-0.365600973367691,0.0812714174389839,0.2104446142911911,0.0,0.0,0.6615751957279907,-0.95798981557353
-0.0417800918221473,1.2258623838424685,-0.2421298325061798,-0.3614085912704468,0.0944245457649231,0.2630859315395355,0.0,0.0,0.4634288162084223,-0.9549407172088462
-0.0444015488028526,1.2182122468948364,-0.2777885794639587,-0.3410597741603851,0.1099707186222076,0.3109511733055115,0.0,0.0,0.2614371223314182,-0.6263294955977872
-0.0473125465214252,1.2109596729278564,-0.3084258139133453,-0.3236996531486511,0.1271892189979553,0.3443697988986969,0.0,0.0,-0.7403540934317467,-0.6373836515536278
-0.050333309918642,1.2033450603485107,-0.3212789893150329,-0.3401748836040497,0.1463161706924438,0.382538765668869,0.0,0.0,-0.8794313890612395,-0.981287299209158
-0.0535081848502159,1.1953648328781128,-0.3396617770195007,-0.3570052087306976,0.1684790700674057,0.4432582855224609,0.0,0.0,0.8261278145958404,0.7098012806584149
-0.056985568255186,1.188276767730713,-0.3687079548835754,-0.3175348341464996,0.1895176172256469,0.4207707941532135,0.0,0.0,0.0593325460104183,-0.8408699723791596
-0.0606611259281635,1.1812691688537598,-0.3907889127731323,-0.3145851492881775,0.2129098176956176,0.4678436815738678,0.0,0.0,0.3764260189045603,-0.9414949852896568
-0.0646015182137489,1.1749361753463743,-0.4196857810020447,-0.2853733003139496,0.2388747483491897,0.5192990303039551,0.0,0.0,-0.3708445284398232,0.7027509380254988
-0.0685532540082931,1.1682649850845337,-0.42011159658432,-0.3007473647594452,0.2642869055271148,0.508243203163147,0.0,0.0,0.4562692175697389,-0.6222311811850771
-0.0728733092546463,1.1622213125228882,-0.4584991335868835,-0.2736125886440277,0.2914735674858093,0.5437332391738892,0.0,0.0,-0.652479952335075,-0.6170267042421074
-0.077302262187004,1.155800223350525,-0.4711816310882568,-0.2913135886192322,0.3207411766052246,0.5853521227836609,0.0,0.0,-0.0571463540338545,-0.810816977889089
-0.0818491950631141,1.1490038633346558,-0.4848913550376892,-0.3090639114379883,0.3523099422454834,0.6313754320144653,0.0,0.0,-0.3191387255176374,-0.9850891034776026
-0.0865271538496017,1.141830563545227,-0.5001387000083923,-0.3271259367465973,0.3865261077880859,0.6843241453170776,0.0,0.0,0.5370919153730676,-0.6487473589894397
-0.0914948433637619,1.1348555088043213,-0.5305035710334778,-0.3195827901363373,0.422730028629303,0.7240784764289856,0.0,0.0,-0.7562973645734168,-0.95724349165701
-0.0965879410505294,1.1275029182434082,-0.5448446869850159,-0.3379343450069427,0.4614887833595276,0.7751749753952026,0.0,0.0,0.6949888837741154,0.667411957777646
-0.1021203994750976,1.120983362197876,-0.5873653292655945,-0.301564872264862,0.4994487464427948,0.7591997385025024,0.0,0.0,0.7864002670981738,0.6389237815165185
-0.1079539284110069,1.1150485277175903,-0.6163070797920227,-0.2762357592582702,0.5368448495864868,0.7479219436645508,0.0,0.0,-0.6422421354802799,0.927823839732375
-0.1137975677847862,1.1088244915008545,-0.6157897114753723,-0.2895674109458923,0.5733146667480469,0.7293974161148071,0.0,0.0,-0.963976502418518,0.9972876310348512
-0.1196190863847732,1.1023318767547607,-0.611308753490448,-0.3015428483486175,0.6079238057136536,0.6921841502189636,0.0,0.0,-0.9712123870849608,0.9990496635437012
-0.1254183799028396,1.0955634117126465,-0.6069570779800415,-0.3137552440166473,0.640758752822876,0.6566990613937378,0.0,0.0,-0.9883795380592346,0.9843562841415404
-0.1312004029750824,1.0885275602340698,-0.6031638383865356,-0.3254751861095428,0.6718164086341858,0.6211535930633545,0.0,0.0,-0.9987985491752625,0.9942623376846312
-0.1369746178388595,1.0812032222747805,-0.6007714867591858,-0.3382452428340912,0.7015787363052368,0.5952461957931519,0.0,0.0,-0.991998553276062,0.9851810932159424
-0.1427338570356369,1.0736033916473389,-0.5974673628807068,-0.350227802991867,0.7297356128692627,0.5631381273269653,0.0,0.0,-0.9965089559555054,0.9951480627059937
-0.1484776437282562,1.0657358169555664,-0.5941454172134399,-0.3617352545261383,0.7561851143836975,0.5289914608001709,0.0,0.0,-0.9990115761756896,0.985702633857727
-0.1542301177978515,1.0575904846191406,-0.593726396560669,-0.3739105463027954,0.7815418839454651,0.507135272026062,0.0,0.0,-0.9997210502624512,0.9756910800933838
-0.1599920243024826,1.0491634607315063,-0.5934975743293762,-0.3862473368644714,0.8058913350105286,0.4869897365570068,0.0,0.0,-0.99072527885437,0.9879498481750488
-0.1657465994358062,1.0404638051986694,-0.5913592576980591,-0.39793261885643,0.8288093209266663,0.4583596289157867,0.0,0.0,-0.98921400308609,0.858525276184082
-0.1714886724948883,1.0315033197402954,-0.588581919670105,-0.4088953733444214,0.8500299453735352,0.4244130253791809,0.0,0.0,-0.9650415182113647,0.9271990060806274
-0.1772319823503494,1.0222680568695068,-0.5875735282897949,-0.4206846952438354,0.8700429201126099,0.4002601206302643,0.0,0.0,-0.9990027546882628,0.9753544330596924
-0.1829537451267242,1.0127789974212646,-0.5838795304298401,-0.4311423003673553,0.8881394863128662,0.3619317412376404,0.0,0.0,-0.9987109899520874,0.7377485036849976
-0.1886788308620453,1.0030080080032349,-0.5833351612091064,-0.443277359008789,0.9052336812019348,0.3418836593627929,0.0,0.0,-0.999305248260498,0.9344487190246582
-0.1943800896406173,0.99298757314682,-0.5795062184333801,-0.4534296095371246,0.920355498790741,0.3024362325668335,0.0,0.0,-0.985345184803009,0.5733180046081543
-0.2000880241394043,0.982656955718994,-0.5797432661056519,-0.467093676328659,0.9350800514221193,0.2944927513599396,0.0,0.0,-0.99787575006485,0.8091254234313965
-0.205785185098648,0.9720638990402222,-0.5776211023330688,-0.4780384302139282,0.9483302235603333,0.2650039792060852,0.0,0.0,-0.9762073159217834,0.5213125944137573
-0.2114796191453933,0.961178421974182,-0.5767523050308228,-0.4906664490699768,0.9607964158058168,0.2493236362934112,0.0,0.0,-0.987931489944458,0.5571154356002808
-0.2171715795993805,0.9500018358230592,-0.5759390592575073,-0.5032503008842468,0.9725013971328736,0.2340991795063018,0.0,0.0,-0.9824856519699096,0.7649438381195068
-0.222857192158699,0.938538134098053,-0.5747014284133911,-0.5155537128448486,0.9833402037620544,0.2167760878801345,0.0,0.0,-0.9358224868774414,0.397708535194397
-0.228558212518692,0.926721692085266,-0.5765376687049866,-0.5316963791847229,0.9948915839195251,0.2310280352830886,0.0,0.0,-0.9927000999450684,0.4157435894012451
-0.2342715263366699,0.9145521521568298,-0.5780466794967651,-0.5478398203849792,1.0071539878845217,0.2452475577592849,0.0,0.0,-0.9681034088134766,0.3479347229003906
-0.2399941384792328,0.9020297527313232,-0.579219400882721,-0.563984215259552,1.0201256275177002,0.2594318687915802,0.0,0.0,-0.9809243679046632,0.6229504346847534
-0.2456975430250167,0.8892176747322083,-0.5767210721969604,-0.576438307762146,1.0322684049606323,0.2428546845912933,0.0,0.0,-0.972932994365692,0.7988584041595459
-0.2513684332370758,0.876128613948822,-0.5727255940437317,-0.5880967378616333,1.0432028770446775,0.2186886966228485,0.0,0.0,-0.9782445430755616,0.8540942668914795
-0.2570125162601471,0.8627529144287109,-0.5694800019264221,-0.6003286838531494,1.053223967552185,0.2004206478595733,0.0,0.0,-0.964476466178894,0.4793291091918945
-0.2626518607139587,0.8490242958068848,-0.5692645311355591,-0.6164713501930237,1.063946008682251,0.2144415080547332,0.0,0.0,-0.9497458934783936,0.7569663524627686
-0.2682460844516754,0.8350234627723694,-0.5640005469322205,-0.6278069615364075,1.073324203491211,0.187563419342041,0.0,0.0,-0.974377691745758,0.7240651845932007
-0.2738061547279358,0.8207486867904663,-0.5599678158760071,-0.639346182346344,1.081573724746704,0.1649915724992752,0.0,0.0,-0.9459595084190368,0.2489740848541259
-0.2793509066104889,0.8061203956604004,-0.5587027072906494,-0.655487596988678,1.0905168056488037,0.1788621842861175,0.0,0.0,-0.9203562140464784,0.7104382514953613
-0.2848577499389648,0.7912004590034485,-0.5544916391372681,-0.6680144667625427,1.0986995697021484,0.1636564582586288,0.0,0.0,-0.8941885232925415,0.4877759218215942
-0.2903426587581634,0.7759271860122681,-0.5525484681129456,-0.6841557621955872,1.1075701713562012,0.1774115264415741,0.0,0.0,-0.9599893093109132,0.5533875226974487
-0.2957915365695953,0.760347306728363,-0.5487052202224731,-0.6975834965705872,1.1160681247711182,0.1699585020542144,0.0,0.0,-0.8620539307594299,0.6183326244354248
-0.3011890947818756,0.7444843649864197,-0.5430752038955688,-0.7095764875411987,1.1235730648040771,0.1500988602638244,0.0,0.0,-0.924559473991394,0.53272545337677
-0.3065363466739654,0.7283176183700562,-0.537762463092804,-0.7227794528007507,1.1305465698242188,0.1394690573215484,0.0,0.0,-0.8485667705535889,0.6978397369384766
-0.311819851398468,0.711873471736908,-0.5308290719985962,-0.7343837022781372,1.1363255977630615,0.1155799180269241,0.0,0.0,-0.8123396635055542,0.4344117641448974
-0.3170661926269531,0.6950758099555969,-0.5273665189743042,-0.7505232095718384,1.1427747011184692,0.1289827525615692,0.0,0.0,-0.7211712002754211,0.7828109264373779
-0.3222529292106628,0.6780063509941101,-0.5208653211593628,-0.7618564367294312,1.1480087041854858,0.1046801805496215,0.0,0.0,-0.4938157200813293,0.7278416156768799
-0.3273763060569763,0.6606709957122803,-0.5139466524124146,-0.7728561162948608,1.1518934965133667,0.0776965022087097,0.0,0.0,-0.619950532913208,0.6932375431060791
-0.3324419558048248,0.6430425047874451,-0.5078606605529785,-0.7854372262954712,1.1550559997558594,0.0632495060563087,0.0,0.0,-0.6909475326538086,0.5509885549545288
-0.3374439179897308,0.6251024603843689,-0.5013270974159241,-0.7990428805351257,1.157826542854309,0.0554105825722217,0.0,0.0,-0.4683979749679565,0.635256290435791
-0.3423798084259033,0.6068807244300842,-0.4943037033081054,-0.8109452724456787,1.159587860107422,0.0352274514734745,0.0,0.0,-0.6439107060432434,0.7762060165405273
-0.3472452163696289,0.5883715748786926,-0.4868740439414978,-0.8231432437896729,1.160419464111328,0.0166319496929645,0.0,0.0,-0.616733968257904,0.699500322341919
-0.3520404398441314,0.5695751905441284,-0.4794887006282806,-0.8353453278541565,1.160334229469299,-0.0017041044775396,0.0,0.0,-0.6872548460960388,0.7463808059692383
-0.3567615151405334,0.5505015254020691,-0.4716041088104248,-0.8469470739364624,1.159091234207153,-0.0248595774173736,0.0,0.0,-0.6590070128440857,0.8004361391067505
-0.3613990247249603,0.5311682820320129,-0.4625910222530365,-0.857488751411438,1.1562389135360718,-0.0570473000407218,0.0,0.0,-0.7656956911087036,0.7708301544189453
-0.3659501671791076,0.5115604996681213,-0.4533987641334533,-0.868878185749054,1.1520599126815796,-0.0835792869329452,0.0,0.0,-0.7846283316612244,0.9182178974151612
-0.3704060614109039,0.4917047023773193,-0.4430442452430725,-0.8786895871162415,1.145917892456055,-0.1228400319814682,0.0,0.0,-0.7978963851928711,0.8868582248687744
-0.3747678697109222,0.47160804271698,-0.4327181279659271,-0.8881348371505737,1.1376904249191284,-0.1645491570234298,0.0,0.0,-0.7718648314476013,0.8879227638244629
-0.3790304660797119,0.4512661695480346,-0.4218370914459228,-0.8977898359298706,1.1274040937423706,-0.2057296484708786,0.0,0.0,-0.8003199100494385,0.9200341701507568
-0.3832062780857086,0.4306657314300537,-0.4123396277427673,-0.9083157181739808,1.1154730319976809,-0.2386218309402465,0.0,0.0,-0.8278151750564575,0.9373548030853271
-0.3872917592525482,0.4098139405250549,-0.4023408889770508,-0.9184191226959229,1.1017096042633057,-0.2752679586410522,0.0,0.0,-0.8670840263366699,0.9435733556747437
-0.3912780880928039,0.3887245655059814,-0.3912213742733001,-0.9277226328849792,1.0857423543930054,-0.3193452358245849,0.0,0.0,-0.8956276178359985,0.9746837615966796
-0.3951556086540222,0.3673906326293945,-0.3790424764156341,-0.9373734593391418,1.067586898803711,-0.3631084859371185,0.0,0.0,-0.9300638437271118,0.9647165536880492
-0.3989364504814148,0.3457891047000885,-0.3682820200920105,-0.9484379887580872,1.0478413105010986,-0.3949111104011535,0.0,0.0,-0.9331000447273254,0.9392766952514648
-0.402620255947113,0.3239450454711914,-0.3571540713310241,-0.958151638507843,1.026020050048828,-0.4364256858825683,0.0,0.0,-0.9454766511917114,0.9189223051071168
-0.4062060415744781,0.3018337190151214,-0.3460611402988434,-0.9692751169204712,1.002579927444458,-0.4688015878200531,0.0,0.0,-0.933434784412384,0.9453363418579102
-0.4097029268741607,0.2794460654258728,-0.3359477519989013,-0.9810066223144532,0.9778116941452026,-0.4953650534152984,0.0,0.0,-0.8690402507781982,0.900734543800354
-0.4130952954292297,0.2568061351776123,-0.323822021484375,-0.9913533329963684,0.9510497450828552,-0.5352396368980408,0.0,0.0,-0.817642092704773,0.8458868265151978
-0.416393905878067,0.233889639377594,-0.3130021691322326,-1.003172516822815,0.9228909015655518,-0.5631767511367798,0.0,0.0,-0.5779336094856262,0.7480626106262207
-0.419602632522583,0.2106838822364807,-0.3026662170886993,-1.015759825706482,0.8936149477958679,-0.5855187773704529,0.0,0.0,-0.1300473809242248,0.4006266593933105
-0.4227479100227356,0.1871271431446075,-0.2958841919898987,-1.0319151878356934,0.8647054433822632,-0.5781909823417664,0.0,1.0,0.999781847000122,0.999122142791748
-0.4237284064292907,0.1797527819871902,-0.1670942455530166,-0.4106967747211456,0.961541712284088,1.7762136459350586,0.0,1.0,-0.976414442062378,-0.7147985100746155
-0.4244411587715149,0.1742519736289978,-0.143248051404953,-0.339449793100357,1.0919755697250366,2.4900717735290527,0.0,1.0,-0.9990658164024352,-0.7752506136894226
-0.4253586828708648,0.1680998355150222,-0.1447128802537918,-0.3600853681564331,1.2199640274047852,2.513612985610962,0.0,1.0,-0.9976678490638732,-0.7165589928627014
-0.4264229238033294,0.1614082008600235,-0.1446043998003006,-0.3799881041049957,1.3476427793502808,2.544938564300537,0.0,1.0,-0.99917334318161,-0.6321573853492737
-0.4276371598243713,0.1543401777744293,-0.1438206136226654,-0.3998379409313202,1.47641122341156,2.5649538040161133,0.0,0.0,-0.9794595241546632,0.5581756830215454
-0.4289354681968689,0.1469948589801788,-0.1348193287849426,-0.4122607409954071,1.603590726852417,2.5433695316314697,0.0,0.0,-0.9805061221122742,0.7718567848205566
-0.4303135871887207,0.139388620853424,-0.126788318157196,-0.4220495820045471,1.728482723236084,2.499401569366455,0.0,0.0,-0.9710334539413452,0.7577500343322754
-0.4317669868469238,0.1314853280782699,-0.1192355528473854,-0.4323926568031311,1.851417660713196,2.460381031036377,0.0,0.0,-0.9665908813476562,0.831902027130127
-0.4309562742710113,0.1340766251087188,0.0617107525467872,0.0239625945687294,1.89815366268158,1.0557366609573364,0.0,0.0,-0.9665908813476562,0.831902027130127
