x_pos,y_pos,x_vel,y_vel,angle,ang_vel,leg_1,leg_2,main_booster,lat_booster
-0.0015015602111816,1.4031180143356323,-0.151302695274353,-0.3467586934566498,0.0010212694760411,0.0200905259698629,0.0,0.0,-0.9029145390583556,-0.8594285891621835
-0.003042793367058,1.3948283195495603,-0.1559685468673706,-0.3684304356575012,0.002833233680576,0.0362435355782508,0.0,0.0,-0.9413901334479102,0.7795037002005032
-0.0044873235747218,1.386026382446289,-0.1436295062303543,-0.3911958634853363,0.0020264708437025,-0.0161367170512676,0.0,0.0,0.8333667405165168,-0.9948687673576724
-0.0061366083100438,1.3775455951690674,-0.165111556649208,-0.3769216239452362,0.0022072400897741,0.0036155763082206,0.0,0.0,0.6949036265907953,0.6829826642731885
-0.0075677870772778,1.369564652442932,-0.1415314525365829,-0.3547115325927734,0.0006440119468607,-0.0312673449516296,0.0,0.0,-0.5690637449037934,0.7309219355079764
-0.0089060785248875,1.3610761165618896,-0.1297158002853393,-0.3772673904895782,-0.003431056626141,-0.0815092921257019,0.0,0.0,0.2089639114280053,0.7150206141643273
-0.0101832393556833,1.3527154922485352,-0.1213796511292457,-0.3716130256652832,-0.0096840765327215,-0.1250720918178558,0.0,0.0,-0.2606770383614483,0.994419833054942
-0.0113402362912893,1.34385085105896,-0.1061536222696304,-0.3940797746181488,-0.0191305708140134,-0.1889472901821136,0.0,0.0,-0.308775443147953,-0.8807389782158724
-0.0125455856323242,1.334492564201355,-0.1120345592498779,-0.4160542786121368,-0.0275336168706417,-0.1680760979652404,0.0,0.0,-0.7335515000991619,-0.7593932363055409
-0.0137885091826319,1.3246362209320068,-0.1165636181831359,-0.4382208585739136,-0.0351686477661132,-0.1527148485183715,0.0,0.0,-0.6843724774547193,-0.61823467091322
-0.0150507930666208,1.3142772912979126,-0.1188284382224083,-0.4605931043624878,-0.0424917563796043,-0.1464757174253463,0.0,0.0,-0.9479463488010104,0.7199400667136612
-0.0162275321781635,1.3034075498580933,-0.1079211235046386,-0.4833990931510925,-0.0521486289799213,-0.1931552588939666,0.0,0.0,0.2305762179931034,0.9925060947255522
-0.017162799835205,1.2928040027618408,-0.0810671895742416,-0.4717420637607574,-0.0644774511456489,-0.2465991228818893,0.0,0.0,-0.9957830788563508,0.8067885826926796
-0.018005084246397,1.2816829681396484,-0.0692506656050682,-0.4949879050254822,-0.0793304070830345,-0.2970862984657287,0.0,0.0,-0.3341796632651777,0.9237298957809612
-0.0187347419559955,1.2700586318969729,-0.0549818202853202,-0.5176880955696106,-0.0971819907426834,-0.3570643663406372,0.0,0.0,0.034432777834239,-0.9306127018570316
-0.01941604539752,1.258198380470276,-0.0512673147022724,-0.5282977223396301,-0.1139359921216964,-0.3351108133792877,0.0,0.0,0.6620262482254216,0.8947255103396445
-0.0197521205991506,1.24709153175354,-0.0145039875060319,-0.4952057600021362,-0.1329614073038101,-0.3805433213710785,0.0,0.0,0.9858021790617404,0.6027523978944088
-0.0197782516479492,1.2361034154891968,0.0178667418658733,-0.4903237223625183,-0.1534073501825332,-0.4089564681053161,0.0,0.0,0.5526893866190847,-0.9321581003605296
-0.019636059179902,1.2257356643676758,0.0333777368068695,-0.4628846347332001,-0.172594279050827,-0.3837735056877136,0.0,0.0,-0.1641765208913792,-0.915639649727964
-0.0195518489927053,1.2148878574371338,0.0261742863804101,-0.4842844307422638,-0.1904392689466476,-0.3569318056106567,0.0,0.0,0.6046677562956482,0.8004014602108682
-0.0191091541200876,1.2045645713806152,0.0640413835644722,-0.4614739716053009,-0.210381731390953,-0.3988854885101318,0.0,0.0,-0.4335015797655384,-0.932216077067678
-0.0187149047851562,1.1937589645385742,0.0580191686749458,-0.4830086529254913,-0.2292233556509018,-0.3768658339977264,0.0,0.0,-0.5845912403779123,0.9378378107136716
-0.0182106979191303,1.182422757148743,0.0719224959611892,-0.5073322653770447,-0.2510959208011627,-0.4374898076057434,0.0,0.0,-0.3149745271946436,-0.9601753294355416
-0.0177501682192087,1.1706026792526243,0.0664807856082916,-0.5289679169654846,-0.271992415189743,-0.4179676473140716,0.0,0.0,0.9877096357279608,0.6796316371046998
-0.017183493822813,1.1594579219818115,0.0794740244746208,-0.499740719795227,-0.2954626083374023,-0.4694468080997467,0.0,0.0,0.7712449945642064,-0.954847420140426
-0.016616154462099,1.1489925384521484,0.07847760617733,-0.4697045683860779,-0.3179686367511749,-0.450120747089386,0.0,0.0,0.7065982987589121,0.8764066930215436
-0.0157207492738962,1.139070749282837,0.1135148555040359,-0.4464259743690491,-0.3429799079895019,-0.500225305557251,0.0,0.0,-0.349972401481089,-0.9776815707721608
-0.0148884775117039,1.12870991230011,0.1053594723343849,-0.4659267067909241,-0.3662709593772888,-0.4658213257789612,0.0,0.0,0.2779194337149995,0.978106212254787
-0.0138551713898777,1.1187222003936768,0.1278692781925201,-0.450389951467514,-0.3923209309577942,-0.520999550819397,0.0,0.0,0.6291685911779814,-0.9950486788733583
-0.0127099035307765,1.1089611053466797,0.1375761330127716,-0.4403969943523407,-0.4170687794685364,-0.4949575364589691,0.0,0.0,-0.514355255712327,0.719952017707003
-0.0114863393828272,1.098677396774292,0.1472140103578567,-0.4646377861499786,-0.4440681934356689,-0.5399879813194275,0.0,0.0,0.0767829947974594,0.7129569041735349
-0.0101202009245753,1.0882856845855713,0.1632121503353119,-0.4705822765827179,-0.4733222126960754,-0.5850802063941956,0.0,0.0,-0.7635792416672618,-0.8621085868637961
-0.0087964059785008,1.077461004257202,0.1573742926120758,-0.4898976683616638,-0.5012241005897522,-0.5580375790596008,0.0,0.0,0.3635496612564017,-0.7465106931113525
-0.007411575410515,1.0666134357452393,0.1624237149953842,-0.4911157488822937,-0.528351366519928,-0.5425453186035156,0.0,0.0,0.1286756747696973,-0.7869105829512705
-0.0058294297195971,1.0558655261993408,0.1809390932321548,-0.4867690801620483,-0.554510235786438,-0.5231781005859375,0.0,0.0,0.8457876819127426,0.8509624617488268
-0.003702163696289,1.0456374883651731,0.2371959388256073,-0.4649645090103149,-0.5831431746482849,-0.5726600885391235,0.0,0.0,0.2084301161649659,-0.6700475047164394
-0.0014312744606286,1.0353920459747314,0.2504973709583282,-0.4659312665462494,-0.6110716462135315,-0.5585693120956421,0.0,0.0,0.1614622112082491,0.7261664351151289
0.0012425422901287,1.0252423286437988,0.2921693325042724,-0.4630175828933716,-0.6412348747253418,-0.6032649874687195,0.0,0.0,-0.5740497563567657,0.7111838663852612
0.0039842603728175,1.014561891555786,0.3000916838645935,-0.487977385520935,-0.6735255122184753,-0.6458129286766052,0.0,0.0,0.9625086185566702,-0.6096039861960836
0.0071909902617335,1.0042492151260376,0.3453785479068756,-0.4718627333641052,-0.7050739526748657,-0.6309694051742554,0.0,0.0,0.5993797110622698,0.7298454522794263
0.0108691211789846,0.9943681359291076,0.3937170505523681,-0.4543207585811615,-0.7390996813774109,-0.680516242980957,0.0,0.0,-0.7962509989738464,-0.9931732416152954
0.0145247457548975,0.984057605266571,0.3898894786834717,-0.4734809100627899,-0.7720479369163513,-0.6589656472206116,0.0,0.0,-0.6878753304481506,-0.999595820903778
0.0181514732539653,0.9733166098594666,0.3854072093963623,-0.4925623536109924,-0.8038055300712585,-0.6351521611213684,0.0,0.0,-0.7570412755012512,-0.9998895525932312
0.0217545516788959,0.9621521830558776,0.3814727365970611,-0.5112384557723999,-0.8343430161476135,-0.6107492446899414,0.0,0.0,-0.8283613920211792,-0.9974071383476256
0.0253177639096975,0.9505786299705504,0.3756194412708282,-0.528952956199646,-0.8631342649459839,-0.575824499130249,0.0,0.0,-0.8492490649223328,-0.9486363530158995
0.0288518909364938,0.938582479953766,0.3712253272533417,-0.5474026799201965,-0.8905835151672363,-0.548984944820404,0.0,0.0,-0.8319355249404907,-0.9979199767112732
0.032358456403017,0.9261687994003296,0.3670002818107605,-0.5655108094215393,-0.9166147708892822,-0.5206250548362732,0.0,0.0,-0.8894278407096863,-0.983716368675232
0.0358335487544536,0.9133725762367249,0.3620586693286896,-0.5816500782966614,-0.940551221370697,-0.4787285923957824,0.0,0.0,-0.906201183795929,-0.999991238117218
0.0392742156982421,0.9001985788345337,0.356844961643219,-0.5974408388137817,-0.96224844455719,-0.4339443743228912,0.0,0.0,-0.9359517693519592,-0.9988803267478944
0.0426822677254676,0.8866230249404907,0.3521710336208343,-0.6144447326660156,-0.9821390509605408,-0.3978119492530823,0.0,0.0,-0.9353012442588806,-0.9994924664497375
0.0460704788565635,0.8726226091384888,0.3492050766944885,-0.6328071355819702,-1.0008379220962524,-0.3739776015281677,0.0,0.0,-0.9509477615356444,-0.9994746446609496
0.0494285598397254,0.8582327961921692,0.3448288142681122,-0.6490786671638489,-1.0175260305404663,-0.3337630331516266,0.0,0.0,-0.9559990167617798,-0.9987757802009584
0.0527604110538959,0.8434211611747742,0.3412499725818634,-0.6671428084373474,-1.0328586101531982,-0.3066512942314148,0.0,0.0,-0.9789989590644836,-0.9998940229415894
0.0560667999088764,0.8282124996185303,0.3375838696956634,-0.6838067770004272,-1.0463701486587524,-0.2702296674251556,0.0,0.0,-0.9814754128456116,-0.9950873255729676
0.0593489632010459,0.8125764727592468,0.3343842327594757,-0.7021318078041077,-1.0586442947387695,-0.2454824447631836,0.0,0.0,-0.9836297631263732,-0.999668538570404
0.0625903159379959,0.7965534329414368,0.3290804028511047,-0.7180626392364502,-1.0686826705932615,-0.2007665187120437,0.0,0.0,-0.983516275882721,-0.998718798160553
0.0658096298575401,0.7801181674003601,0.326048195362091,-0.7354974746704102,-1.077195405960083,-0.1702540218830108,0.0,0.0,-0.9832903742790222,-0.9944165349006652
0.0690054893493652,0.7632611393928528,0.3229965567588806,-0.7534657120704651,-1.0843499898910522,-0.1430917084217071,0.0,0.0,-0.987208902835846,-0.9770202040672302
0.0721772164106369,0.7459935545921326,0.3197864890098572,-0.7707643508911133,-1.0898995399475098,-0.110989823937416,0.0,0.0,-0.9899874925613404,-0.944244921207428
0.0753152817487716,0.7283353209495544,0.3154065310955047,-0.7868592739105225,-1.093322515487671,-0.0684597939252853,0.0,0.0,-0.9828659296035768,-0.7952032685279846
0.0784211158752441,0.7102457880973816,0.3115599751472473,-0.8052386045455933,-1.0954233407974243,-0.0420169681310653,0.0,0.0,-0.9789469242095948,-0.9637117981910706
0.0814868956804275,0.6917700171470642,0.3064738512039184,-0.8210204839706421,-1.0952045917510986,0.0043750270269811,0.0,0.0,-0.9701400399208068,-0.9747402667999268
0.0845188125967979,0.6728688478469849,0.3023962378501892,-0.8390206694602966,-1.0934902429580688,0.0342868268489837,0.0,0.0,-0.9623798131942748,-0.9638537764549256
0.0875126868486404,0.6535590887069702,0.2977012693881988,-0.8560486435890198,-1.0898829698562622,0.0721459537744522,0.0,0.0,-0.9670206904411316,-0.95427668094635
0.0904614478349685,0.6338381767272949,0.292262852191925,-0.8731674551963806,-1.0843291282653809,0.1110773682594299,0.0,0.0,-0.9624838829040528,-0.8987551331520081
0.093363381922245,0.6137229204177856,0.286427766084671,-0.8893112540245056,-1.0764487981796265,0.157607227563858,0.0,0.0,-0.9602839350700378,-0.8895788192749023
0.0962306037545204,0.5931950211524963,0.2820306420326233,-0.9065934419631958,-1.066739201545715,0.1941908448934555,0.0,0.0,-0.9585278630256652,-0.9340164065361024
0.0990511924028396,0.5722387433052063,0.2764202356338501,-0.924659788608551,-1.055325984954834,0.2282643318176269,0.0,0.0,-0.9308751225471495,-0.9642289280891418
0.1018324866890907,0.5508752465248108,0.2713403403759002,-0.9416075944900512,-1.0418719053268433,0.2690805494785309,0.0,0.0,-0.9253787994384766,-0.9570624828338624
0.1045571342110633,0.5291149020195007,0.2642120122909546,-0.957869827747345,-1.025929570198059,0.3188467621803283,0.0,0.0,-0.9313242435455322,-0.9523345232009888
0.1072285622358322,0.5069600343704224,0.257328987121582,-0.9740589261054992,-1.0074801445007324,0.3689886927604675,0.0,0.0,-0.8913244009017944,-0.9748106002807616
0.1098510771989822,0.4843921661376953,0.2509580552577972,-0.99133962392807,-0.9869086146354676,0.4114305973052978,0.0,0.0,-0.9018558263778688,-0.9656103253364564
0.1124179810285568,0.4614388048648834,0.2434592694044113,-1.007097601890564,-0.9635909795761108,0.4663533270359039,0.0,0.0,-0.8878768682479858,-0.9150194525718688
0.1149374023079872,0.4380588233470917,0.237130120396614,-1.0252423286437988,-0.9383866786956788,0.5040864944458008,0.0,0.0,-0.8586727380752563,-0.9669209718704224
0.1173939704895019,0.4142671823501587,0.2288531363010406,-1.042500615119934,-0.9107754230499268,0.5522264242172241,0.0,0.0,-0.8850672245025635,-0.6743411421775818
0.1198062896728515,0.3900247514247894,0.2228749245405197,-1.0620944499969482,-0.8817149996757507,0.5812085866928101,0.0,0.0,-0.8293764591217041,-0.543213963508606
0.1221752166748046,0.3653295338153839,0.2169431895017624,-1.0818589925765991,-0.8512372374534607,0.6095547676086426,0.0,0.0,-0.6676581501960754,0.1268527507781982
0.1245311722159385,0.3401346504688263,0.214835450053215,-1.104406476020813,-0.8206141591072083,0.6124612092971802,0.0,0.0,-0.2379294037818908,0.5152285099029541
0.1269063949584961,0.3143941760063171,0.21687813103199,-1.129635214805603,-0.7911278009414673,0.5897268652915955,0.0,0.0,0.1855614185333252,0.8698184490203857
0.1296698600053787,0.2888053357601166,0.256336361169815,-1.124121069908142,-0.7633814811706543,0.554925799369812,0.0,0.0,0.2999756336212158,0.7498571872711182
0.1325531899929046,0.2630503177642822,0.2689518630504608,-1.1325863599777222,-0.7371944785118103,0.5237406492233276,0.0,0.0,0.5109789371490479,0.6631491184234619
0.1359763145446777,0.2375080436468124,0.323317140340805,-1.1239761114120483,-0.7121263742446899,0.501362144947052,0.0,0.0,0.7372907400131226,0.2290438413619995
0.1396970748901367,0.2122545093297958,0.352811336517334,-1.1115421056747437,-0.6872462630271912,0.4976020455360412,0.0,0.0,0.7691507339477539,0.1105592250823974
0.1438153237104416,0.1873955875635147,0.3921264410018921,-1.0943012237548828,-0.6623049378395081,0.4988264441490173,0.0,0.0,0.6303987503051758,0.2147700786590576
0.1483310759067535,0.16286101937294,0.4312246739864349,-1.0800915956497192,-0.6370589733123779,0.5049189925193787,0.0,0.0,0.6221423149108887,0.5619394779205322
0.1532774865627288,0.138391688466072,0.4744256436824798,-1.0777814388275146,-0.6124317049980164,0.4925451278686523,0.0,0.0,0.6222622394561768,-0.6476534605026245
0.1583760231733322,0.1138489097356796,0.4877292513847351,-1.0806845426559448,-0.585953950881958,0.5295537114143372,0.0,0.0,0.7404818534851074,-0.4248803853988647
0.163772776722908,0.089253693819046,0.5163840651512146,-1.0830930471420288,-0.5585939288139343,0.5472004413604736,0.0,0.0,0.8812637329101562,-0.3342997431755066
0.1696381568908691,0.0648516714572906,0.561792254447937,-1.074514627456665,-0.5300078392028809,0.5717216730117798,0.0,0.0,0.8557425737380981,-0.9601659178733826
0.175792783498764,0.0404423587024211,0.5878567695617676,-1.074418306350708,-0.4986717700958252,0.6267215013504028,1.0,0.0,0.7836425304412842,0.997716188430786
0.182233527302742,0.017952499911189,0.6055178642272949,-0.9867209792137146,-0.453703910112381,0.902403712272644,1.0,0.0,0.8768465518951416,0.9887866973876952
0.1893896162509918,-0.0032365226652473,0.6567234992980957,-0.9241466522216796,-0.3919632732868194,1.232330560684204,1.0,0.0,0.9923217296600342,0.968252182006836
0.1974474936723709,-0.0228772312402725,0.7010505795478821,-0.5629682540893555,-0.3070398569107055,3.689718246459961,1.0,0.0,0.9923217296600342,0.968252182006836
