x_pos,y_pos,x_vel,y_vel,angle,ang_vel,leg_1,leg_2,main_booster,lat_booster
-0.0015440940624102,1.4029290676116943,-0.1564286053180694,-0.3551534712314605,0.0018143033375963,0.0357923433184623,0.0,0.0,0.4115959474525961,-0.9514066903063112
-0.0031323432922363,1.3948525190353394,-0.1625846624374389,-0.3589653968811035,0.0055384221486747,0.0744903311133384,0.0,0.0,0.8410891469272348,0.9317861899185198
-0.004502868745476,1.3867506980895996,-0.1392907500267028,-0.3600916266441345,0.007742844056338,0.0440924130380153,0.0,0.0,0.5669435435031009,0.8591435327481716
-0.0059528350830078,1.3786606788635254,-0.1453142613172531,-0.3595560789108276,0.0080542033538222,0.0062278872355818,0.0,0.0,0.3461959273343735,-0.6405112998937996
-0.0073573114350438,1.3706752061843872,-0.1422870308160781,-0.3549237549304962,0.0098737981170415,0.0363951697945594,0.0,0.0,-0.5452283573184526,-0.9058900973420893
-0.00883150100708,1.3619922399520874,-0.1506476700305938,-0.3859342634677887,0.0130802663043141,0.0641350448131561,0.0,0.0,-0.9431790406125108,0.8720044960976592
-0.0102527616545557,1.3526153564453125,-0.143688216805458,-0.4167624413967132,0.0146230170503258,0.0308577958494424,0.0,0.0,-0.3809468967456835,0.9122267170712242
-0.0115964887663722,1.34254789352417,-0.1336448341608047,-0.44743812084198,0.013907472603023,-0.0143121536821126,0.0,0.0,-0.5772866917652497,0.835356123109843
-0.0128864292055368,1.331795573234558,-0.1266216933727264,-0.4778628647327423,0.0115613983944058,-0.0469260290265083,0.0,0.0,0.4390998980366065,-0.6189664342076515
-0.0142425540834665,1.3212999105453491,-0.1344658434391021,-0.4664637446403503,0.0104272048920392,-0.0226860605180263,0.0,0.0,0.5800141534474141,-0.7563855122280295
-0.0155814168974757,1.3109626770019531,-0.1344121098518371,-0.4594427049160003,0.0109514659270644,0.0104861240833997,0.0,0.0,-0.5909505292088291,0.8637142673550504
-0.0168510433286428,1.29992938041687,-0.1255409270524978,-0.4903585612773895,0.0095428703352808,-0.0281747095286846,0.0,0.0,-0.9971827971589204,-0.6311273842905566
-0.018165398389101,1.288203477859497,-0.1309737861156463,-0.5211460590362549,0.0090939989313483,-0.0089782439172267,0.0,0.0,0.0271226290344319,-0.7797783414209849
-0.0194974895566701,1.2761061191558838,-0.1343268752098083,-0.5376700758934021,0.0101912161335349,0.0219462383538484,0.0,0.0,0.8558261454451968,-0.9984677197262092
-0.0207443237304687,1.264714241027832,-0.128046378493309,-0.5063335299491882,0.0135233104228973,0.0666476786136627,0.0,0.0,-0.1646196841068374,0.6632545703070016
-0.0219312664121389,1.2526203393936155,-0.1204573884606361,-0.5375233292579651,0.0152693828567862,0.0349245928227901,0.0,0.0,0.4988199772942239,0.6629107381341094
-0.0229415893554687,1.2410073280334473,-0.1017276495695114,-0.5161430239677429,0.0159549247473478,0.0137120587751269,0.0,0.0,-0.9039632829542728,-0.9296114724755464
-0.0240075103938579,1.228689670562744,-0.1086811572313308,-0.5474814772605896,0.0180165003985166,0.0412354692816734,0.0,0.0,-0.9780484293188384,0.6644321607791834
-0.0250111576169729,1.2156845331192017,-0.1008641943335533,-0.5780099034309387,0.0185099076479673,0.0098691144958138,0.0,0.0,0.501044497284004,0.936665640923061
-0.0260309223085641,1.2027546167373655,-0.1004559844732284,-0.5746445059776306,0.0170143712311983,-0.0299137085676193,0.0,0.0,-0.650314112793076,0.725629599613536
-0.0269773490726947,1.1891363859176636,-0.0913310497999191,-0.6052188873291016,0.0137357721105217,-0.0655779466032981,0.0,0.0,0.5184546157520036,-0.7148407487729509
-0.0279691703617572,1.1754279136657717,-0.0972843766212463,-0.6092458367347717,0.0118633331730961,-0.0374520719051361,0.0,0.0,-0.6246963404529351,-0.9858066455989632
-0.0290163047611713,1.161021709442139,-0.1043310984969139,-0.640275239944458,0.0114892786368727,-0.0074817677959799,0.0,0.0,-0.5507391498580034,-0.9995871879038007
-0.0301263816654682,1.1459077596664429,-0.1123714298009872,-0.6717379689216614,0.0128338495269417,0.0268937852233648,0.0,0.0,-0.2535408469714186,0.7319214233079996
-0.0311844833195209,1.1301016807556152,-0.1060114502906799,-0.7025039196014404,0.0130276102572679,0.0038755792193114,0.0,0.0,-0.5782797608777295,0.996456425631772
-0.0321740135550498,1.1135849952697754,-0.0975914150476455,-0.734061062335968,0.0116820679977536,-0.0269108414649963,0.0,0.0,0.2632053532231726,-0.7108332483528905
-0.0332134254276752,1.0972095727920532,-0.1039815992116928,-0.7277910113334656,0.0117174023762345,0.0007066741818562,0.0,0.0,-0.4608195572199562,0.7058564151976335
-0.0341987609863281,1.08014714717865,-0.0974199920892715,-0.7583237290382385,0.0106172747910022,-0.0220024399459362,0.0,0.0,0.6110763162552775,-0.8443642658595412
-0.0353894233703613,1.063525915145874,-0.119392417371273,-0.7387198209762573,0.0109362192451953,0.0063789500854909,0.0,0.0,0.1763651969786543,-0.6024091576597057
-0.0366361625492572,1.046726942062378,-0.1261468976736068,-0.746634304523468,0.0123923467472195,0.029122520238161,0.0,0.0,-0.9122521064685788,0.7532695521860804
-0.037808608263731,1.0292423963546753,-0.1171313971281051,-0.7770945429801941,0.0122717851772904,-0.0024110623635351,0.0,0.0,0.597901953795202,-0.9263921138568844
-0.0391307845711708,1.0116899013519287,-0.1338226497173309,-0.7801253199577332,0.0138537576422095,0.0316395945847034,0.0,0.0,-0.0125160411747171,-0.6634011725706523
-0.04049863666296,0.9934471845626832,-0.1398717910051345,-0.8108190894126892,0.0169078633189201,0.0610818937420845,0.0,0.0,0.3804023993724892,0.7564972541008648
-0.0418562889099121,0.97495436668396,-0.1372248530387878,-0.8219208121299744,0.0183454994112253,0.0287526398897171,0.0,0.0,-0.3539556246080608,-0.7705275376547382
-0.0432579033076763,0.9557663798332214,-0.1431033015251159,-0.8528420329093933,0.0212512463331222,0.058115005493164,0.0,0.0,-0.9872320793400458,-0.9707072746943364
-0.0447179786860942,0.9358881115913392,-0.1508376896381378,-0.8835533261299133,0.0260086767375469,0.0951489433646202,0.0,0.0,0.9868392865721738,-0.8004736297894705
-0.0462734214961528,0.9161280393600464,-0.1618794947862625,-0.8783439993858337,0.0322650447487831,0.1251273602247238,0.0,0.0,-0.0351991894028318,-0.8375884233063026
-0.0478740707039833,0.895676851272583,-0.167960450053215,-0.9091298580169678,0.0400676615536212,0.1560520678758621,0.0,0.0,-0.0143975225791006,0.6793866460468326
-0.0494071021676063,0.8745416402816772,-0.159916341304779,-0.9395325779914856,0.0465955957770347,0.1305589973926544,0.0,0.0,-0.7233841886456469,-0.974507609676046
-0.0509957298636436,0.8527080416679382,-0.1673280000686645,-0.9706687927246094,0.0549645759165287,0.1673795580863952,0.0,0.0,-0.4241574268609751,-0.7380107445052613
-0.0526349060237407,0.8301807641983032,-0.1741231828927993,-1.0016160011291504,0.0650584846735,0.2018782347440719,0.0,0.0,0.9999654293060304,0.9673857688903807
-0.0540553107857704,0.8079294562339783,-0.1505949199199676,-0.9893457293510436,0.0735244303941726,0.1693188846111297,0.0,0.0,0.9984712600708008,0.9819151163101196
-0.0552766807377338,0.7855631113052368,-0.1289568692445755,-0.9944088459014891,0.0802711471915245,0.1349343806505203,0.0,0.0,0.9998974800109864,0.983039379119873
-0.0563197135925293,0.7634820342063904,-0.1093882918357849,-0.981660544872284,0.0853027030825614,0.1006312817335128,0.0,0.0,0.9959485530853271,0.9961895942687988
-0.0573484413325786,0.7412289977073669,-0.1058659702539444,-0.9891967177391052,0.0882736817002296,0.0594192966818809,0.0,0.0,0.9997997283935548,0.9990065097808838
-0.0582520477473735,0.7188937067985535,-0.0914767459034919,-0.9927510619163512,0.0893808081746101,0.0221427530050277,0.0,0.0,0.9990662336349488,0.5840086936950684
-0.0590593330562114,0.6966844201087952,-0.0809167847037315,-0.9870904088020324,0.0895715802907943,0.0038152285851538,0.0,0.0,0.9999829530715942,0.9744458198547364
-0.0600101463496685,0.6752883791923523,-0.0930687189102172,-0.950813889503479,0.0875775441527366,-0.0398805476725101,0.0,0.0,0.9999768733978271,0.9934122562408448
-0.0611232742667198,0.6546186804771423,-0.1070234552025795,-0.9184098839759828,0.0833266526460647,-0.0850176960229873,0.0,0.0,0.999870777130127,0.9957411289215088
-0.0622165687382221,0.6341779232025146,-0.1030210107564926,-0.9081424474716188,0.0770812630653381,-0.124907910823822,0.0,0.0,0.9996110200881958,0.984937310218811
-0.0630728751420974,0.6141071319580078,-0.0777246952056884,-0.8916476964950562,0.0692522004246711,-0.1565813571214676,0.0,0.0,0.999146580696106,0.9558415412902832
-0.0639716163277626,0.5946823954582214,-0.0799345001578331,-0.8628956079483032,0.0594251118600368,-0.1965418308973312,0.0,0.0,0.9996390342712402,0.4875612258911133
-0.0647492408752441,0.5753810405731201,-0.0684913173317909,-0.8574970960617065,0.0502622760832309,-0.1832565516233444,0.0,0.0,0.996824026107788,0.5708048343658447
-0.0655052214860916,0.5568389892578125,-0.0652443021535873,-0.8237755298614502,0.040031686425209,-0.2046118080615997,0.0,0.0,0.9916363954544068,0.1988743543624878
-0.0660841912031173,0.5384945869445801,-0.0484451130032539,-0.8150761127471924,0.0306943710893392,-0.1867465227842331,0.0,0.0,0.99701189994812,0.6539046764373779
-0.0667314529418945,0.5203041434288025,-0.0536923930048942,-0.808275043964386,0.0197962597012519,-0.2179622650146484,0.0,0.0,0.9973005056381226,-0.4015400409698486
-0.067263126373291,0.5028682351112366,-0.0427380390465259,-0.7748227715492249,0.0094964914023876,-0.2059953510761261,0.0,0.0,0.9642336368560792,0.2149274349212646
-0.0676174163818359,0.485943466424942,-0.0258431024849414,-0.7521798610687256,3.338572423672304e-05,-0.189262107014656,0.0,0.0,0.8369712829589844,-0.2080003023147583
-0.0678678527474403,0.4696978032588959,-0.0159227643162012,-0.7220587134361267,-0.0089626675471663,-0.1799212396144867,0.0,0.0,0.9197443723678588,-0.3214399814605713
-0.0681777969002723,0.4541286826133728,-0.0215507317334413,-0.6920474767684937,-0.0182803571224212,-0.1863538324832916,0.0,0.0,0.7714157104492188,-0.1612032651901245
-0.0684049576520919,0.4384592771530151,-0.0136258630082011,-0.6965543031692505,-0.0272513758391141,-0.1794204413890838,0.0,0.0,0.7076563835144043,-0.8497849106788635
-0.0687737464904785,0.4231944382190704,-0.029408186674118,-0.6785925626754761,-0.0346321947872638,-0.1476165950298309,0.0,0.0,0.8979439735412598,-0.6881319880485535
-0.0690032020211219,0.4081185758113861,-0.0173421911895275,-0.6701779961585999,-0.0401663184165954,-0.1106822863221168,0.0,0.0,0.8759322166442871,-0.6560544371604919
-0.0692075714468956,0.3933931589126587,-0.016350457444787,-0.6545781493186951,-0.0442151837050914,-0.080977126955986,0.0,0.0,0.905010223388672,-0.010476529598236
-0.0693628340959549,0.3786646127700805,-0.0115766292437911,-0.6547221541404724,-0.0481102429330349,-0.0779011398553848,0.0,0.0,0.9728747606277466,0.0153603553771972
-0.0696120262145996,0.3643090724945068,-0.0204127393662929,-0.6381763219833374,-0.0525724254548549,-0.0892435163259506,0.0,0.0,0.8837555646896362,-0.5190091133117676
-0.06980562210083,0.35072723031044,-0.0160844083875417,-0.6037555932998657,-0.0558030717074871,-0.0646129325032234,0.0,0.0,0.7444021701812744,-0.7951112985610962
-0.0699309334158897,0.3369003534317016,-0.0111807556822896,-0.6145792007446289,-0.0571423657238483,-0.0267858300358057,0.0,0.0,0.994605302810669,0.3073766231536865
-0.0699460953474044,0.323918730020523,-0.0004455090966075,-0.5770015120506287,-0.0582007765769958,-0.0211682617664337,0.0,0.0,0.9882326126098632,0.2601497173309326
-0.070022776722908,0.3111046552658081,-0.0062036053277552,-0.5695711970329285,-0.0596489161252975,-0.028962567448616,0.0,0.0,0.8990434408187866,-0.1162666678428649
-0.0701402649283409,0.2987700700759887,-0.0099403066560626,-0.5482769012451172,-0.0614471137523651,-0.0359638594090938,0.0,0.0,0.9837303161621094,0.455939769744873
-0.0701574310660362,0.286855548620224,-0.0002126159670297,-0.5295984745025635,-0.0629322975873947,-0.029703726992011,0.0,0.0,0.9054419994354248,-0.4254165887832641
-0.0702443122863769,0.2757177948951721,-0.0066371797583997,-0.4950996339321136,-0.0649588704109191,-0.0405311919748783,0.0,0.0,0.1842811107635498,-0.3549662232398987
-0.0702348724007606,0.2644990682601928,0.0025959773920476,-0.4986797869205475,-0.0665922537446022,-0.0326675213873386,0.0,0.0,0.7190859317779541,-0.3325443267822265
-0.0702168494462966,0.2531976103782654,0.003457732964307,-0.5023630261421204,-0.0682348981499672,-0.0328527726233005,0.0,0.0,0.7188591957092285,0.0058623552322387
-0.0700892433524131,0.2416995912790298,0.0139338644221425,-0.5110764503479004,-0.0693939179182052,-0.0231805276125669,0.0,0.0,0.8893139362335205,-0.5486931204795837
-0.0700010284781456,0.2300900518894195,0.0088375648483634,-0.5159805417060852,-0.0694122165441513,-0.0003656623885035,0.0,0.0,0.8755950927734375,-0.6908393502235413
-0.0698997527360916,0.2191454917192459,0.0086154900491237,-0.4863535165786743,-0.0679158940911293,0.0299264825880527,0.0,0.0,0.8050239086151123,0.0267345905303955
-0.0696361511945724,0.2088305056095123,0.0242734421044588,-0.4583506882190704,-0.0658498033881187,0.0413218662142753,0.0,0.0,-0.2458395957946777,0.138006329536438
-0.0693584457039833,0.1978201419115066,0.0255116280168294,-0.4892514646053314,-0.0636157765984535,0.0446803271770477,0.0,0.0,0.9408183097839355,-0.3620404005050659
-0.0691941231489181,0.1867114454507827,0.0147130507975816,-0.4936506152153015,-0.061914499849081,0.0340255871415138,0.0,0.0,0.9157500267028807,0.1937108039855957
-0.0689132660627365,0.1762752085924148,0.0259678363800048,-0.4637437760829925,-0.0598242729902267,0.0418044812977314,0.0,0.0,0.8446788787841797,-0.0729501843452453
-0.068694494664669,0.1661160141229629,0.0201222244650125,-0.4514528214931488,-0.0580827072262764,0.0348310880362987,0.0,0.0,0.8275651931762695,-0.0433665513992309
-0.0684806853532791,0.1563894599676132,0.0197257436811923,-0.4322281777858734,-0.0564451590180397,0.0327509231865406,0.0,0.0,0.3391494750976562,0.378332257270813
-0.0682331100106239,0.1468171924352646,0.0229645352810621,-0.4253678917884826,-0.0546742863953113,0.0354175940155983,0.0,0.0,0.0599581003189086,0.5918796062469482
-0.0678448677062988,0.1370997279882431,0.0379534363746643,-0.431856095790863,-0.0538134351372718,0.0172171220183372,0.0,0.0,0.8317875862121582,-0.8965644836425781
-0.0674680694937706,0.1272499412298202,0.0347735956311225,-0.4376669228076935,-0.050937857478857,0.0575114488601684,0.0,0.0,0.8534812927246094,-0.3399156332015991
-0.0669545158743858,0.1173736155033111,0.0477714762091636,-0.4388295710086822,-0.0473989360034465,0.0707786828279495,0.0,0.0,0.8831932544708252,0.305743932723999
-0.0662334412336349,0.1077655181288719,0.0675563290715217,-0.4268909096717834,-0.0429014489054679,0.089949831366539,0.0,0.0,0.9883434772491456,-0.3523086309432983
-0.0653158202767372,0.0981628522276878,0.086244061589241,-0.4266363382339477,-0.0374445021152496,0.1091387495398521,0.0,0.0,0.9853397607803344,-0.4660087823867798
-0.0643630027770996,0.0892188623547554,0.0895945504307746,-0.3973802328109741,-0.0318353660404682,0.1121829003095626,0.0,0.0,0.9510877132415771,-0.5733777284622192
-0.0633806213736534,0.0809277594089508,0.091100700199604,-0.3683594167232513,-0.024790946394205,0.1408885419368744,0.0,0.0,0.9606562852859496,-0.2860188484191894
-0.0622240081429481,0.0731236785650253,0.1076511293649673,-0.3467377126216888,-0.0168790258467197,0.1582383513450622,0.0,0.0,0.8606233596801758,-0.0077568292617797
-0.0609412193298339,0.0651736855506897,0.1195436343550682,-0.3532605469226837,-0.0082582384347915,0.1724157631397247,0.0,0.0,0.9652948379516602,0.215105652809143
-0.0597102157771587,0.0574386939406394,0.1144791841506958,-0.3437523543834686,0.0002563220041338,0.1702909767627716,0.0,0.0,0.946791172027588,-0.1849143505096435
-0.0583744049072265,0.0505346171557903,0.1242985725402832,-0.3068808615207672,0.009414242580533,0.183158278465271,0.0,0.0,0.8732761144638062,-0.7212631702423096
-0.0571257583796978,0.0439028367400169,0.1140175461769104,-0.2948440313339233,0.020120620727539,0.2141276597976684,0.0,0.0,0.97490131855011,0.9063007831573486
-0.055984117090702,0.038008913397789,0.105289839208126,-0.2620998322963714,0.0288878697901964,0.1753448545932769,0.0,0.0,0.7943412065505981,0.9431483745574952
-0.0546809211373329,0.0325695388019084,0.1229935511946678,-0.2419101446866989,0.0361227802932262,0.1446984708309173,0.0,0.0,0.827568769454956,-0.7165086269378662
-0.0535255447030067,0.0276785474270582,0.106731928884983,-0.2176151573657989,0.0448111407458782,0.173767477273941,0.0,0.0,0.6368348598480225,0.1569364070892334
-0.0524828918278217,0.0231994725763797,0.0956859216094017,-0.1993490308523178,0.0532943345606327,0.1696638762950897,0.0,0.0,0.6282670497894287,0.9472858905792236
-0.0514168739318847,0.0187618117779493,0.0997882634401321,-0.1974877268075943,0.0600289665162563,0.1346926540136337,0.0,0.0,0.6952173709869385,0.8126609325408936
-0.0504540428519248,0.0145480968058109,0.0911767557263374,-0.1874886602163314,0.0650742426514625,0.1009055972099304,0.0,0.0,0.542397141456604,0.3108010292053222
-0.049662210047245,0.0103577710688114,0.0745789036154747,-0.1864448934793472,0.0696354508399963,0.0912242159247398,0.0,0.0,0.661198616027832,0.8487098217010498
-0.0487351417541503,0.0065780733712017,0.0894436761736869,-0.1681418269872665,0.0728632882237434,0.0645571202039718,0.0,0.0,0.6689485311508179,0.8422942161560059
-0.0477879531681537,0.0034055567812174,0.1118306145071983,-0.1402781754732132,0.0558598078787326,-0.3401684761047363,0.0,1.0,0.5528576374053955,0.1741188764572143
-0.0468414314091205,0.001201210077852,0.1265400797128677,-0.0972276404500007,0.0239065922796726,-0.6396470665931702,0.0,1.0,0.4831557273864746,-0.7034971117973328
-0.0460406318306922,-0.0003768587193917,0.1184080988168716,-0.0699667558073997,-0.0139781590551137,-0.7577566504478455,0.0,1.0,0.6580266952514648,-0.8639373779296875
-0.0450170524418354,-0.0006614589947275,0.1173189654946327,-0.0128790829330682,-0.0286731384694576,-0.2938026487827301,1.0,1.0,0.3071842193603515,-0.9824010729789734
-0.0438712127506732,-0.0003052258398383,0.1090478748083114,0.0159167721867561,-0.0231531355530023,0.1104607209563255,1.0,0.0,-0.9275908470153807,-0.9703038930892944
-0.042732335627079,-0.000213279723539,0.0946055799722671,0.0042666080407798,-0.0040856231935322,0.3813945651054382,1.0,0.0,-0.6375910639762878,-0.2722368240356445
-0.0418225303292274,-0.0002719307085499,0.0906401425600051,-0.0026458441279828,-0.0037953762803226,0.0057496530935168,1.0,1.0,-0.4659256339073181,-0.987768530845642
-0.0410698875784873,-0.0002724313817452,0.0752293840050697,-5.094753214507364e-05,-0.0037935965228825,-1.4160619684844278e-05,1.0,1.0,-0.2976745963096618,-0.9775034785270692
-0.0404966361820697,-0.000271501543466,0.0572982244193553,1.868861545517575e-05,-0.0037912623956799,5.15347346663475e-06,1.0,1.0,-0.4736406803131103,-0.9161444902420044
-0.0400966629385948,-0.000271072378382,0.0399718135595321,-6.293658998401952e-07,-0.0037895666901022,-1.6947328163041678e-07,1.0,1.0,-0.6580076813697815,-0.7179287672042847
-0.0398342125117778,-0.0002707147505134,0.0262187477201223,6.005769250805315e-07,-0.00378815154545,1.597511953832509e-07,1.0,1.0,-0.3321357369422912,-0.5719168186187744
-0.0396903976798057,-0.00027042865986,0.0143593866378068,-1.2727831233405598e-07,-0.0037869866937398,-4.522906849047104e-08,1.0,1.0,-0.531315803527832,-0.0602434873580932
-0.0396121963858604,-0.000270214077318,0.007804078515619,5.243595637693943e-07,-0.0037860197480767,1.3118524577748758e-07,1.0,1.0,-0.6696180105209351,0.0156753063201904
-0.0395996086299419,-0.0002699994947761,0.0012490184744819,5.4070834920594286e-08,-0.003785228356719,1.5077518122907916e-09,1.0,1.0,-0.7735946178436279,-0.0152613520622253
-0.0396163947880268,-0.0002698564494494,-0.0017352650174871,-2.047469934041146e-06,-0.0037571573629975,0.000534200167749,1.0,1.0,-0.6944929957389832,0.1169348955154419
