x_pos,y_pos,x_vel,y_vel,angle,ang_vel,leg_1,leg_2,main_booster,lat_booster
-0.0014960288535803,1.403058648109436,-0.1513005793094635,-0.3493987023830414,0.0015148821985349,0.0298638977110385,0.0,0.0,0.4301914648573322,0.6118634942283745
-0.0028680800460278,1.395250678062439,-0.1373466104269027,-0.3470199406147003,0.0016584576806053,0.0028721741400659,0.0,0.0,-0.0443881637591705,-0.8717481084732444
-0.004265880677849,1.3868696689605713,-0.1410502195358276,-0.372485339641571,0.0029132906347513,0.025099042803049,0.0,0.0,-0.809725135183947,0.509701865579542
-0.0056040761992335,1.377921462059021,-0.1340404748916626,-0.3977007567882538,0.0031298804096877,0.0043324320577085,0.0,0.0,-0.0401567464810548,-0.9967793474612208
-0.0069766044616699,1.3684102296829224,-0.1388150453567505,-0.4227264523506164,0.004673758521676,0.0308802314102649,0.0,0.0,-0.1866484508731232,-0.639963332788476
-0.0083607677370309,1.3583320379257202,-0.1407573223114013,-0.4479310810565948,0.0069746910594403,0.0460232160985469,0.0,0.0,-0.9388663931157528,0.8884914316151833
-0.0096508022397756,1.3476886749267578,-0.1293964087963104,-0.4730405509471893,0.0073655378073453,0.0078180413693189,0.0,0.0,-0.7413609308081177,0.8925003246658141
-0.0108263017609715,1.3364830017089844,-0.1155001744627952,-0.498019278049469,0.0053401007317006,-0.0405126065015792,0.0,0.0,0.1457418296630321,0.7521662226454624
-0.0119283674284815,1.32559072971344,-0.1064420193433761,-0.4840933382511139,0.0016074038576334,-0.0746609419584274,0.0,0.0,0.5874871166463904,-0.6904050344918098
-0.0130603788420557,1.3151837587356567,-0.1105933338403701,-0.4625347852706909,-0.0009624863741919,-0.051402747631073,0.0,0.0,0.0027472838110094,-0.8806393471093291
-0.0141728399321436,1.3047525882720947,-0.110205627977848,-0.4636055529117584,-0.0019884028006345,-0.0205200798809528,0.0,0.0,-0.8600955252569027,-0.7032206687382487
-0.0153081892058253,1.2937544584274292,-0.1135479211807251,-0.4888107478618622,-0.0019789307843893,0.0001894794550025,0.0,0.0,0.7906659669829237,0.5713639243767495
-0.0162203796207904,1.2833298444747925,-0.0903154164552688,-0.4633115530014038,-0.0028692474588751,-0.0178078319877386,0.0,0.0,0.6355025202827309,0.5909069347452873
-0.0169857982546091,1.272860765457153,-0.0744632184505462,-0.4653005301952362,-0.0049273134209215,-0.0411651954054832,0.0,0.0,0.7901983887543895,0.7647577767156113
-0.0174943916499614,1.2631721496582031,-0.047431755810976,-0.4306242167949676,-0.0083159748464822,-0.0677794516086578,0.0,0.0,-0.3351812404995939,0.6738504009676546
-0.0179155357182025,1.2529089450836182,-0.0369048081338405,-0.4561776220798492,-0.0134587511420249,-0.1028648987412452,0.0,0.0,0.0234863093645241,0.7578280628393936
-0.0181461330503225,1.2428810596466064,-0.0162270534783601,-0.4457602500915527,-0.020215768367052,-0.135152980685234,0.0,0.0,0.0641989118352692,0.6757876167657837
-0.0181903839111328,1.2326393127441406,0.003823633538559,-0.4553170800209045,-0.028364161029458,-0.1629825234413147,0.0,0.0,0.2795226871915879,-0.8414899535553796
-0.0181737896054983,1.2227718830108645,0.0082789007574319,-0.4386919736862182,-0.0349147692322731,-0.1310241520404815,0.0,0.0,-0.5824961520312881,-0.966110985040424
-0.0182209014892578,1.2123429775238037,-0.0001374941784888,-0.4636191725730896,-0.0394419468939304,-0.0905514806509018,0.0,0.0,0.333101473583939,0.5439751791855711
-0.0180668830871582,1.2022531032562256,0.0209616795182228,-0.4486048519611358,-0.0449446886777877,-0.1100645884871482,0.0,0.0,-0.1896548915752436,0.6776757716452638
-0.017836857587099,1.1915900707244873,0.0300875641405582,-0.4741393625736236,-0.0519608668982982,-0.1403360515832901,0.0,0.0,-0.7179133700982716,0.717779788969191
-0.0175171848386526,1.180355668067932,0.0409460365772247,-0.499633640050888,-0.0608457364141941,-0.1777132004499435,0.0,0.0,0.5918265165955516,-0.7915618998548325
-0.0171474460512399,1.1689969301223757,0.044350516051054,-0.5051451325416565,-0.0681548714637756,-0.1461959779262542,0.0,0.0,0.6741487059377631,0.8516462794382583
-0.0168063156306743,1.158061146736145,0.0436032190918922,-0.4864921271800995,-0.0775491371750831,-0.1879022121429443,0.0,0.0,-0.4645467898592439,0.9186345222247676
-0.016392707824707,1.146538019180298,0.0523604229092597,-0.5127444863319397,-0.0884440168738365,-0.2178979367017746,0.0,0.0,-0.0125950349930767,0.9118342838310458
-0.0158892627805471,1.13444721698761,0.0632868781685829,-0.5381863713264465,-0.1012759804725647,-0.2566394805908203,0.0,0.0,0.1335710430457899,0.5259112248850182
-0.0153687475249171,1.122652292251587,0.0663198381662368,-0.5252490639686584,-0.1154458150267601,-0.2833967804908752,0.0,0.0,0.9558006367079844,-0.6959387552540428
-0.0149471284821629,1.1117043495178225,0.0555343814194202,-0.4876590669155121,-0.1287358254194259,-0.2658003270626068,0.0,0.0,0.5121231757569056,-0.7587385598151177
-0.0145351411774754,1.1008696556091309,0.0531487390398979,-0.482618898153305,-0.1406392008066177,-0.2380676567554474,0.0,0.0,0.0790747526597028,-0.5557763848688448
-0.0140624046325683,1.0903048515319824,0.0581443309783935,-0.4706110060214996,-0.1514915823936462,-0.2170475274324417,0.0,0.0,-0.9585390686988832,-0.9287289977073668
-0.0136610986664891,1.0791891813278198,0.0489821396768093,-0.494958758354187,-0.1603277623653412,-0.1767231971025467,0.0,0.0,-0.9981200695037842,-0.994308054447174
-0.0133370403200387,1.0675392150878906,0.0390396937727928,-0.5185080766677856,-0.1669677644968032,-0.1328004896640777,0.0,0.0,-0.94938862323761,-0.9633550643920898
-0.0130887981504201,1.055336356163025,0.0294037703424692,-0.5428707003593445,-0.1715455502271652,-0.0915556773543357,0.0,0.0,-0.9971031546592712,-0.959270179271698
-0.0129060745239257,1.0425888299942017,0.0210316237062215,-0.5668774843215942,-0.1743122041225433,-0.05533342435956,0.0,0.0,-0.8501981496810913,-0.9822185635566713
-0.0127913476899266,1.0293024778366089,0.0123789776116609,-0.5906094908714294,-0.1752195060253143,-0.0181461386382579,0.0,0.0,-0.9584378600120544,-0.9817078113555908
-0.0127532957121729,1.0154666900634766,0.0027190907858312,-0.6147944927215576,-0.1741248220205307,0.0218932405114173,0.0,0.0,-0.9980075359344482,-0.9879788160324096
-0.0127841951325535,1.0010918378829956,-0.0059944451786577,-0.6385473012924194,-0.1712131649255752,0.0582332238554954,0.0,0.0,-0.992345690727234,-0.9538311958312988
-0.0128924371674656,0.9861823320388794,-0.0157339181751012,-0.6620848774909973,-0.1662959903478622,0.098343513906002,0.0,0.0,-0.9811242818832396,-0.8886546492576599
-0.013067627325654,0.9707253575325012,-0.0240991115570068,-0.6862562298774719,-0.1597133427858352,0.1316533386707306,0.0,0.0,-0.9877625107765198,-0.1609424352645874
-0.0132454875856637,0.9547030329704284,-0.0243486817926168,-0.7114068269729614,-0.1531568616628646,0.1311298906803131,0.0,0.0,-0.982296109199524,0.0088957548141479
-0.013427734375,0.9381158351898192,-0.0247633345425128,-0.7365572452545166,-0.1466213315725326,0.1307102441787719,0.0,0.0,-0.9114532470703124,0.0826014280319213
-0.0136157032102346,0.9209632873535156,-0.0253406204283237,-0.7617075443267822,-0.1401018053293228,0.1303905099630355,0.0,0.0,-0.8856263160705566,0.0993262529373169
-0.0138111114501953,0.9032453894615172,-0.026077190414071,-0.7868577241897583,-0.1335934698581695,0.1301670670509338,0.0,0.0,-0.7302502393722534,0.5875599384307861
-0.0139732360839843,0.8849467635154724,-0.0216376520693302,-0.8127979636192322,-0.1281896829605102,0.108075812458992,0.0,0.0,-0.7511757016181946,0.4919724464416504
-0.0141457561403512,0.8660827279090881,-0.0226793345063924,-0.8379470705986023,-0.1227880716323852,0.1080322414636612,0.0,0.0,-0.6102855801582336,0.1206364631652832
-0.0143301011994481,0.8466532230377197,-0.0238657370209693,-0.8630961179733276,-0.1173844784498214,0.1080719679594039,0.0,0.0,-0.3162637948989868,0.8352742195129395
-0.014473533257842,0.8266577124595642,-0.0184207800775766,-0.8883758783340454,-0.1133271157741546,0.0811469480395317,0.0,0.0,0.5283253192901611,0.6869199275970459
-0.0146282194182276,0.8072027564048767,-0.0179236661642789,-0.8644815683364868,-0.1108941286802291,0.0486600250005722,0.0,0.0,-0.4156491756439209,-0.2555363178253174
-0.0147986412048339,0.7871821522712708,-0.0195063259452581,-0.8896284699440002,-0.1084480583667755,0.0489215813577175,0.0,0.0,-0.0997584462165832,0.6274759769439697
-0.01492481213063,0.7665855288505554,-0.0135388253256678,-0.9153397083282472,-0.1075355783104896,0.0182499308139085,0.0,0.0,0.5849156379699707,-0.2263308763504028
-0.0150480270385742,0.7464859485626221,-0.0129988817498087,-0.8932669162750244,-0.1068593263626098,0.0135247837752103,0.0,0.0,0.2137501239776611,-0.4899222254753113
-0.0150754926726222,0.7262948751449585,-0.0038210165221244,-0.8973081707954407,-0.1057896316051483,0.0213938392698764,0.0,0.0,0.0914158821105957,-0.2012324929237365
-0.0150650022551417,0.706323504447937,-7.092128362273797e-05,-0.8875345587730408,-0.1046857610344886,0.0220775585621595,0.0,0.0,0.5345871448516846,-0.6006491780281067
-0.014926147647202,0.6864436864852905,0.0111953103914856,-0.883360743522644,-0.1020144447684288,0.0534265264868736,0.0,0.0,-0.3182442784309387,-0.5734465718269348
-0.014861392788589,0.6660036444664001,0.0024221257772296,-0.9081726670265198,-0.0979906097054481,0.0804765447974205,0.0,0.0,0.6603436470031738,-0.1721695065498352
-0.0146465301513671,0.6461799144744873,0.0169520527124404,-0.8807674646377563,-0.0934994220733642,0.0898239985108375,0.0,0.0,0.2247077226638794,-0.421491801738739
-0.0143062593415379,0.6265228390693665,0.0289856735616922,-0.8733377456665039,-0.0885032191872596,0.0999240800738334,0.0,0.0,0.5134903192520142,-0.1618642210960388
-0.0138548854738473,0.6074183583259583,0.0397421345114707,-0.848784863948822,-0.0831573382019996,0.1069174632430076,0.0,0.0,-0.1759822368621826,-0.3274457454681396
-0.0134279252961277,0.5877482295036316,0.037269003689289,-0.8739336729049683,-0.0777774304151535,0.1075978055596351,0.0,0.0,0.7695521116256714,-0.4071072340011596
-0.0129403118044137,0.5680995583534241,0.0430325306951999,-0.8729912638664246,-0.072109118103981,0.1133660897612571,0.0,0.0,0.9014534950256348,-0.2469992041587829
-0.0125351902097463,0.5491054654121399,0.0352977328002452,-0.8439334034919739,-0.0669393092393875,0.1033961325883865,0.0,0.0,0.0583493709564209,-0.5672164559364319
-0.012090397067368,0.5300362706184387,0.0379359349608421,-0.8472452163696289,-0.0604706443846225,0.1293734014034271,0.0,0.0,0.4220907688140869,-0.3854331374168396
-0.0116198537871241,0.511189877986908,0.0403820388019084,-0.837364137172699,-0.0538724586367607,0.1319635510444641,0.0,0.0,0.8789398670196533,-0.5552207827568054
-0.0111860278993844,0.4924598038196563,0.0355225950479507,-0.8321837782859802,-0.0461078621447086,0.155292123556137,0.0,0.0,0.5100123882293701,0.4022973775863647
-0.0108675006777048,0.4739819765090942,0.0244905203580856,-0.8210301995277405,-0.0388314463198185,0.1455280929803848,0.0,0.0,0.9412952661514282,0.6949377059936523
-0.0104549406096339,0.4564493894577026,0.0351781696081161,-0.7790796160697937,-0.0328344665467739,0.1199396625161171,0.0,0.0,0.7024343013763428,-0.1761332750320434
-0.0099758151918649,0.4387991726398468,0.0414114035665988,-0.7843264937400818,-0.0264124069362878,0.1284410804510116,0.0,0.0,0.8544061183929443,0.2740564346313476
-0.0094691272825002,0.4220192730426788,0.0439932234585285,-0.745669960975647,-0.0198171492666006,0.1319051086902618,0.0,0.0,0.583702802658081,0.3024430274963379
-0.009071921929717,0.4053573310375213,0.0334290638566017,-0.7404624819755554,-0.0136075280606746,0.1241921409964561,0.0,0.0,0.8825898170471191,0.2284786701202392
-0.0087974546477198,0.389289379119873,0.0216177888214588,-0.714088499546051,-0.0078516853973269,0.115117073059082,0.0,0.0,0.8327689170837402,0.3360650539398193
-0.0085122110322117,0.3736913204193115,0.0225023608654737,-0.6932299137115479,-0.0019093207083642,0.1188474670052528,0.0,0.0,0.8794255256652832,0.3329704999923706
-0.0084007261320948,0.3589693307876587,0.0057896664366126,-0.6543139815330505,0.0033820567186921,0.1058276072144508,0.0,0.0,0.8402763605117798,0.4944319725036621
-0.0082387924194335,0.3446471989154815,0.0104261524975299,-0.636563241481781,0.0090769883245229,0.1138983145356178,0.0,0.0,0.5867462158203125,0.6915831565856934
-0.0080903051421046,0.3303178548812866,0.0105207785964012,-0.6368921995162964,0.0133468303829431,0.0853969231247901,0.0,0.0,0.9623255729675292,0.6039025783538818
-0.0078426357358694,0.3159982860088348,0.0214038006961345,-0.636458694934845,0.0166746117174625,0.0665554255247116,0.0,0.0,0.8770573139190674,0.6774313449859619
-0.0076160430908203,0.3016850054264068,0.0207282379269599,-0.6361681222915649,0.018578290939331,0.0380738601088523,0.0,0.0,0.9694998264312744,0.3382419347763061
-0.0074468613602221,0.2882238328456878,0.0150195630267262,-0.5983002781867981,0.0204513017088174,0.0374603196978569,0.0,0.0,0.9436004161834716,0.754326343536377
-0.0071656228974461,0.2756486237049103,0.0274917837232351,-0.5589085221290588,0.0210724230855703,0.0124225337058305,0.0,0.0,0.8061091899871826,-0.0378053784370422
-0.0070559503510594,0.2638436257839203,0.0108966492116451,-0.5246655344963074,0.0211359076201915,0.0012699766084551,0.0,0.0,0.6490750312805176,0.1813429594039917
-0.0071126939728856,0.2519645690917969,-0.005141841713339,-0.5279496908187866,0.0206088311970233,-0.0105417082086205,0.0,0.0,0.8498142957687378,0.1441786289215088
-0.0071728704497218,0.2408484369516372,-0.0057004964910447,-0.4940442740917206,0.0202943459153175,-0.006289780139923,0.0,0.0,0.6877326965332031,0.7578012943267822
-0.0073291780427098,0.2300465703010559,-0.0135471429675817,-0.4800565838813782,0.0182479098439216,-0.0409290604293346,0.0,0.0,0.684260368347168,-0.1246230602264404
-0.0075843809172511,0.2197137027978897,-0.0231868978589773,-0.4592094421386719,0.0159399192780256,-0.0461599305272102,0.0,0.0,0.3326932191848755,0.1388847827911377
-0.0078888889402151,0.209660917520523,-0.0280647836625576,-0.4467667043209076,0.0135807264596223,-0.0471838302910327,0.0,0.0,0.5209711790084839,-0.0604479312896728
-0.008151245303452,0.199847400188446,-0.024205844849348,-0.4361402690410614,0.0115827545523643,-0.0399597808718681,0.0,0.0,0.834041953086853,0.0863865613937377
-0.0084223747253417,0.1900384575128555,-0.0252076126635074,-0.4359367489814758,0.009692620486021,-0.0378024876117706,0.0,0.0,0.5623348951339722,0.4063347578048706
-0.0086404802277684,0.1802362352609634,-0.0202889554202556,-0.4356467425823211,0.0081906635314226,-0.0300389770418405,0.0,0.0,0.8347322940826416,0.0998047590255737
-0.0087313652038574,0.1708213835954666,-0.0083114700391888,-0.4184325337409973,0.0074230073951184,-0.0153531413525342,0.0,0.0,0.2946994304656982,-0.6739217638969421
-0.0087874410673975,0.1612998992204666,-0.0063483715057373,-0.4231790602207184,0.0081652989611029,0.0148459626361727,0.0,0.0,0.6199650764465332,0.7622363567352295
-0.0088262557983398,0.1523237973451614,-0.0030658696778118,-0.3989335894584656,0.0073507777415215,-0.0162903219461441,0.0,0.0,0.8074562549591064,-0.8809840679168701
-0.0089347837492823,0.1440330594778061,-0.0118328481912612,-0.3684853017330169,0.0083210803568363,0.0194058921188116,0.0,0.0,0.3156636953353882,-0.5513641834259033
-0.0090144155547022,0.1359761357307434,-0.0102505218237638,-0.3580985069274902,0.0105822859331965,0.0452239997684955,0.0,0.0,0.3527640104293823,0.1656484603881836
-0.0090456008911132,0.1277557760477066,-0.0057497140951454,-0.3653719127178192,0.0131839411333203,0.0520332343876361,0.0,0.0,0.4198020696640014,-0.4214509129524231
-0.0091588972136378,0.1196250990033149,-0.0137174306437373,-0.3613843023777008,0.0155310975387692,0.0469432175159454,0.0,0.0,0.4347667694091797,0.6312510967254639
-0.0091849323362112,0.1120630577206611,-0.003821839345619,-0.3361040651798248,0.0167362838983535,0.0241035502403974,0.0,0.0,0.1572260856628418,-0.7001947164535522
-0.0093229291960597,0.1045310571789741,-0.0163532067090272,-0.3347868919372558,0.0192584358155727,0.050442885607481,0.0,0.0,0.3901515007019043,0.2763609886169433
-0.0096099851652979,0.0974340736865997,-0.0307064801454544,-0.3154461979866028,0.0212383083999156,0.0395973548293113,0.0,0.0,0.0621330738067626,0.9106266498565674
-0.0097996713593602,0.0904531776905059,-0.0190723780542612,-0.310264527797699,0.02134177275002,0.0020691636018455,0.0,0.0,0.1035794019699096,0.4183945655822754
-0.0100673679262399,0.0836568176746368,-0.0266343392431736,-0.3020564317703247,0.0212137158960104,-0.0025611766614019,0.0,0.0,0.3723719120025635,0.6092443466186523
-0.0104069709777832,0.0772309601306915,-0.032373808324337,-0.2855702042579651,0.01965207234025,-0.0312330685555934,0.0,0.0,-0.1815226078033447,0.8591365814208984
-0.0107128145173192,0.0702385529875755,-0.0272759310901165,-0.3107368648052215,0.016378441825509,-0.0654725059866905,0.0,0.0,0.7617723941802979,0.1360207796096801
-0.0111851692199707,0.0636392459273338,-0.0432608686387538,-0.2932653427124023,0.0124513125047087,-0.0785423517227172,0.0,0.0,0.7780493497848511,0.5800304412841797
-0.0118237491697072,0.057316169142723,-0.0581523478031158,-0.2809883654117584,0.0068279905244708,-0.1124664992094039,0.0,0.0,0.5033285617828369,0.4214367866516113
-999.0,0.0514095164835453,-0.0524848997592926,-0.2625040709972381,0.001564806792885,-0.1052637547254562,0.0,0.0,0.530769944190979,0.7393906116485596
-0.0128909107297658,0.0454441420733928,-0.0421004071831703,-0.2651346325874328,-0.0051450049504637,-0.1341960728168487,0.0,0.0,0.692491888999939,-0.2963014841079712
-0.0132588390260934,0.0400847308337688,-0.0306000523269176,-0.2382304966449737,-0.0112605597823858,-0.1223113387823104,0.0,0.0,0.0600311756134033,0.0640702247619628
-0.0136674884706735,0.0349070653319358,-0.0344999432563781,-0.2301781624555587,-0.017540730535984,-0.1256033629179,0.0,0.0,0.2714455127716064,0.4078079462051391
-0.0139863966032862,0.0301475375890731,-0.0259378291666507,-0.211616963148117,-0.0234131067991256,-0.1174477115273475,0.0,0.0,0.378340482711792,-0.1598986387252807
-0.0142618175595998,0.0255455113947391,-0.0217920243740081,-0.2046330273151397,-0.0290946587920188,-0.1136306673288345,0.0,0.0,0.140439748764038,-0.1050792932510376
-0.0145573616027832,0.0212235078215599,-0.0236718263477087,-0.1922161281108856,-0.0349060967564582,-0.116228774189949,0.0,0.0,0.1424365043640136,0.008905291557312
-0.0148235317319631,0.0171503406018018,-0.0208139847964048,-0.1811745166778564,-0.0406335368752479,-0.1145488172769546,0.0,0.0,0.4268462657928467,0.1138677597045898
-0.0150355342775583,0.0131011344492435,-0.0156103800982236,-0.180128201842308,-0.0461522303521633,-0.1103739142417907,0.0,0.0,0.4648550748825073,0.3410782814025879
-0.0153618808835744,0.0093155717477202,-0.0264307856559753,-0.1684509068727493,-0.0522886961698532,-0.1227291375398635,0.0,0.0,0.3205451965332031,0.3598939180374145
-0.0158005710691213,0.0055891964584589,-0.0370622351765632,-0.1658681482076645,-0.0590187273919582,-0.1346004456281662,0.0,0.0,0.5650891065597534,0.4878120422363281
-0.0161697380244731,0.0028282380662858,-0.0489866845309734,-0.1222785636782646,-0.0470685102045536,0.2390322685241699,1.0,0.0,0.5895297527313232,0.643578290939331
-0.0163317676633596,0.0008699035388417,-0.0438023842871189,-0.0864077135920524,-0.0197596661746501,0.5462407469749451,1.0,0.0,0.4183945655822754,0.7538124322891235
-0.0163156501948833,-0.0012148165842518,-0.0239472910761833,-0.0925116464495658,0.0054648523218929,0.5044899582862854,1.0,0.0,0.4277890920639038,0.8245614767074585
-0.0162372589111328,-0.0022614861372858,0.0032043152023106,-0.0465544015169143,0.0099977385252714,0.0905993729829788,0.0,1.0,-0.7229785919189453,0.2539851665496826
-0.0161719322204589,-0.0026443623937666,0.0035029717255383,-0.0170482322573661,0.0129494881257414,0.0589840039610862,1.0,1.0,-0.41436368227005,0.3697006702423095
-0.0161608699709177,-0.0025259875692427,0.0020133377984166,0.0052766003645956,0.0120415110141038,-0.0181910470128059,1.0,1.0,-0.8075019717216492,-0.0305376648902893
