x_pos,y_pos,x_vel,y_vel,angle,ang_vel,leg_1,leg_2,main_booster,lat_booster
-0.0015174865256994,1.403225064277649,-0.1535066962242126,-0.3419991731643677,0.0015762788243591,0.0310797989368438,0.0,0.0,-0.4454857110977173,0.7097444534301758
-0.0029679299332201,1.3951505422592163,-0.1448764204978943,-0.3588658571243286,0.0013995899353176,-0.0035332781262695,0.0,0.0,-0.4472055435180664,0.2682899236679077
-0.0044116973876953,1.3866761922836304,-0.1440056711435318,-0.3766377568244934,0.0010371629614382,-0.0072491327300667,0.0,0.0,-0.3930095434188843,0.5953545570373535
-0.0058107376098632,1.3778005838394165,-0.1383970975875854,-0.3944730460643768,-0.0004537561617325,-0.0298210438340902,0.0,0.0,-0.1673247814178466,0.5528843402862549
-0.0071496008895337,1.3685272932052612,-0.1308568269014358,-0.412146657705307,-0.0034513517748564,-0.0599575042724609,0.0,0.0,0.0598711967468261,0.657474160194397
-0.0083280559629201,1.3593758344650269,-0.1134472340345382,-0.406748503446579,-0.0078005967661738,-0.0869929194450378,0.0,0.0,0.3887110948562622,-0.3697878122329712
-0.0095137599855661,1.3505536317825315,-0.1139057055115699,-0.3921342194080353,-0.0124124735593795,-0.0922460407018661,0.0,0.0,-0.1776354908943176,0.2403792142868042
-0.0106911659240722,1.3413320779800415,-0.1129176616668701,-0.4098882973194122,-0.0171926002949476,-0.0956111252307891,0.0,0.0,-0.4981873035430908,-0.3933234214782715
-0.0118602756410837,1.3317118883132937,-0.1119113937020301,-0.4276365935802459,-0.0221367310732603,-0.0988916382193565,0.0,0.0,-0.3881717324256897,-0.0582510232925415
-0.0130207063630223,1.3216925859451294,-0.1108881086111068,-0.4453867375850677,-0.0272403508424758,-0.1020816564559936,0.0,0.0,-0.1545593738555908,-0.096393346786499
-0.0141723630949854,1.311274528503418,-0.1098485961556434,-0.4631378948688507,-0.032498650252819,-0.1051756143569946,0.0,0.0,-0.5731213688850403,-0.4973119497299194
-0.0153149608522653,1.3004573583602903,-0.108794055879116,-0.4808893203735351,-0.0379065833985805,-0.1081684082746505,0.0,0.0,-0.1619970798492431,-0.8952211737632751
-0.0165034290403127,1.289249062538147,-0.1146510019898414,-0.4982624351978302,-0.0420662313699722,-0.0832006484270095,0.0,0.0,-0.4842685461044311,0.7355270385742188
-0.017618179321289,1.2776306867599487,-0.1054893359541893,-0.5165452361106873,-0.0479925610125064,-0.1185371503233909,0.0,0.0,-0.5243141055107117,-0.9436193704605104
-0.0187800414860248,1.265627384185791,-0.1115093976259231,-0.5336354374885559,-0.0526139959692955,-0.0924372225999832,0.0,0.0,0.2889221906661987,-0.4537591934204101
-0.0198344234377145,1.253565788269043,-0.1010529175400734,-0.5362332463264465,-0.0569603852927684,-0.0869355201721191,0.0,0.0,0.1966269016265869,-0.9021570682525636
-0.0207984931766986,1.242039442062378,-0.0937617868185043,-0.5123810768127441,-0.059573370963335,-0.0522644333541393,0.0,0.0,-0.6937831044197083,-0.9138476252555848
-0.0218078605830669,1.2301111221313477,-0.0995787531137466,-0.5302076935768127,-0.060915008187294,-0.0268354304134845,0.0,0.0,-0.3586187362670898,0.008056640625
-0.0228070262819528,1.2177834510803225,-0.0984575301408767,-0.5479539632797241,-0.0623622834682464,-0.0289482381194829,0.0,0.0,-0.0347739458084106,-0.7970935702323914
-0.0238672252744436,1.2050628662109375,-0.1062702164053917,-0.565349280834198,-0.0621105283498764,0.0050356229767203,0.0,0.0,-0.0306741595268249,0.2028126716613769
-0.0249170307070016,1.1919429302215576,-0.1051387786865234,-0.5830985307693481,-0.0619494058191776,0.0032225456088781,0.0,0.0,-0.4098877906799316,0.2894489765167236
-0.0259561538696289,1.1784238815307615,-0.1039993911981582,-0.6008480787277222,-0.061869416385889,0.0015998374437913,0.0,0.0,0.0010735988616943,-0.3481075763702392
-0.0268857963383197,1.164992094039917,-0.0933316498994827,-0.5969551801681519,-0.0614963844418525,0.0074614086188375,0.0,0.0,-0.7889378666877747,-0.005759835243225
-0.0278044696897268,1.151160717010498,-0.0921818315982818,-0.6147080063819885,-0.0611873492598533,0.006181085947901,0.0,0.0,-0.7148363590240479,-0.1769740581512451
-0.0287121776491403,1.1369303464889526,-0.0910259038209915,-0.63245689868927,-0.0609325282275676,0.0050969100557267,0.0,0.0,-0.6845679879188538,-0.3682398796081543
-0.029609490185976,1.1222790479660034,-0.0899521261453628,-0.6511582136154175,-0.0607224404811859,0.0042018238455057,0.0,0.0,-0.6133614182472229,0.1564611196517944
-0.0304956436157226,1.1072285175323486,-0.088786669075489,-0.6689054369926453,-0.0605471692979335,0.0035051577724516,0.0,0.0,-0.5880223512649536,-0.286242127418518
-0.0313702598214149,1.0917786359786987,-0.0876175761222839,-0.6866526007652283,-0.0603966638445854,0.0030102883465588,0.0,0.0,-0.8290795683860779,0.3410800695419311
-0.0322333350777626,1.0759297609329224,-0.0864452496170997,-0.7043997645378113,-0.0602606199681758,0.0027208169922232,0.0,0.0,0.0481668710708618,-0.7649810910224915
-0.0331419929862022,1.0601483583450315,-0.0925318896770477,-0.7013232111930847,-0.0586152337491512,0.0329078137874603,0.0,0.0,-0.4640434980392456,0.1349146366119384
-0.0340388305485248,1.043967843055725,-0.0913542285561561,-0.7190703749656677,-0.0569634586572647,0.033035647124052,0.0,0.0,0.0660140514373779,-0.2386797666549682
-0.0349576957523822,1.027815580368042,-0.0933403819799423,-0.7178155183792114,-0.0555269755423069,0.0287297964096069,0.0,0.0,0.0115221738815307,-0.4326333403587341
-0.0358876213431358,1.0120034217834473,-0.0942442417144775,-0.7027150988578796,-0.0542969144880771,0.0246014520525932,0.0,0.0,-0.1446885466575622,0.3191972970962524
-0.0368054397404193,0.9957920908927916,-0.0930610075592994,-0.7204621434211731,-0.0530289113521575,0.0253600981086492,0.0,0.0,0.0447378158569335,-0.2724646925926208
-0.0376795753836631,0.9797744750976562,-0.0887939184904098,-0.711838960647583,-0.0516650080680847,0.0272780302911996,0.0,0.0,-0.3859202265739441,-0.1865636706352234
-0.0385412201285362,0.9633578062057496,-0.0876083895564079,-0.7295859456062317,-0.0502424873411655,0.0284504778683185,0.0,0.0,0.5259549617767334,0.0185141563415527
-0.0393934249877929,0.947173535823822,-0.0866161212325096,-0.7192555665969849,-0.0488633699715137,0.0275825355201959,0.0,0.0,-0.3367717862129211,-0.3440426588058471
-0.0402329452335834,0.9305899143218994,-0.0854293033480644,-0.737002432346344,-0.0474055930972099,0.0291557218879461,0.0,0.0,0.1393812894821167,-0.6093001365661621
-0.0411103256046772,0.9144901037216188,-0.0904870629310607,-0.7154675126075745,-0.0446923710405826,0.054264523088932,0.0,0.0,-0.4296340942382812,-0.4123683571815491
-0.0419749245047569,0.897990882396698,-0.0892998576164245,-0.7332146763801575,-0.0418813824653625,0.056219644844532,0.0,0.0,-0.0703330039978027,0.347200870513916
-0.0428264625370502,0.881092369556427,-0.0881127566099166,-0.7509620189666748,-0.0389635376632213,0.0583571791648864,0.0,0.0,-0.2231125831604004,0.2795650959014892
-0.0436650291085243,0.8637946248054504,-0.0869259536266326,-0.7687093615531921,-0.0359299853444099,0.0606707707047462,0.0,0.0,0.308779239654541,0.7046058177947998
-0.0443401336669921,0.8464546799659729,-0.0694136843085289,-0.7706212401390076,-0.0340450480580329,0.0376989170908927,0.0,0.0,0.8307616710662842,0.3185193538665771
-0.0448720939457416,0.8295879364013672,-0.0557516440749168,-0.749576985836029,-0.0315189063549041,0.0505228452384471,0.0,0.0,0.2679722309112549,0.1438664197921753
-0.0454148277640342,0.8126623034477234,-0.0568255968391895,-0.7522014379501343,-0.0289970468729734,0.0504369847476482,0.0,0.0,0.2983448505401611,0.7196706533432007
-0.0458393096923828,0.7957194447517395,-0.0437659434974193,-0.75299072265625,-0.0277021862566471,0.0258971005678176,0.0,0.0,-0.1656884551048278,0.5637199878692627
-0.0462015159428119,0.7783722281455994,-0.0364267751574516,-0.7709883451461792,-0.0274880211800336,0.0042831269092857,0.0,0.0,-0.0775173306465148,-0.1147898435592651
-0.0465501770377159,0.7606255412101746,-0.0352456383407115,-0.788735032081604,-0.0271128118038177,0.0075041884556412,0.0,0.0,-0.0657860040664672,0.2175108194351196
-0.0468853004276752,0.7424793839454651,-0.0340661108493804,-0.8064815998077393,-0.0265702698379755,0.0108508067205548,0.0,0.0,0.4989790916442871,0.231027603149414
-0.0472139343619346,0.7246267199516296,-0.0334903262555599,-0.7934410572052002,-0.0259432941675186,0.0125392526388168,0.0,0.0,0.3105741739273071,0.0954368114471435
-0.047403335571289,0.7070496082305908,-0.0202960185706615,-0.7811861038208008,-0.0246111620217561,0.0266425255686044,0.0,0.0,-0.1831023097038269,0.2446688413619995
-0.0475791916251182,0.6890730857849121,-0.019122589379549,-0.7989329099655151,-0.0230950340628623,0.0303226374089717,0.0,0.0,-0.0673160552978515,0.2075307369232177
-0.047741413116455,0.6706971526145935,-0.0179516542702913,-0.8166797757148743,-0.0213900171220302,0.0341003462672233,0.0,0.0,0.3062041997909546,0.5233252048492432
-0.0478322990238666,0.6528711318969727,-0.0099618583917617,-0.7922552824020386,-0.0205258335918188,0.0172834582626819,0.0,0.0,0.3812969923019409,0.4646291732788086
-0.0477766022086143,0.635253369808197,0.0039128717035055,-0.7829940915107727,-0.0188876818865537,0.0327628813683986,0.0,0.0,-0.1744511127471923,0.5261874198913574
-0.0476721748709678,0.6172327995300293,0.0094669563695788,-0.8009004592895508,-0.0179284643381834,0.0191843789070844,0.0,0.0,0.3240114450454712,0.3375604152679443
-0.0474674217402935,0.5997688174247742,0.0189527310431003,-0.7761597037315369,-0.0164153352379798,0.0302625987678766,0.0,0.0,0.2905397415161133,0.1237226724624633
-0.0471323952078819,0.5826930403709412,0.0312472730875015,-0.758901834487915,-0.0141947539523243,0.0444116666913032,0.0,0.0,-0.2284075021743774,0.6962826251983643
-0.0467217452824115,0.5652236938476562,0.0401752218604087,-0.7764037251472473,-0.0133183663710951,0.0175279732793569,0.0,0.0,0.2893040180206299,-0.158092975616455
-0.0463486686348915,0.5482760667800903,0.0364748053252697,-0.7532225251197815,-0.0125019857659935,0.0163277685642242,0.0,0.0,-0.0320116281509399,-0.1705372929573059
-0.0459620468318462,0.5309290289878845,0.0376151837408542,-0.7709693312644958,-0.0114679308608174,0.0206810198724269,0.0,0.0,0.0003490447998046,-0.3143602609634399
-0.0456176772713661,0.5138207674026489,0.0334517881274223,-0.7603600025177002,-0.0104945404455065,0.0194679778069257,0.0,0.0,0.4493250846862793,-0.3619077205657959
-0.0451466552913188,0.4969920217990875,0.0453849285840988,-0.7479350566864014,-0.0087973680347204,0.0339432545006275,0.0,0.0,-0.0054607987403869,-0.5113205909729004
-0.0447010025382041,0.479765236377716,0.0416295751929283,-0.765619695186615,-0.0058984700590372,0.0579777546226978,0.0,0.0,0.6854259967803955,0.1345112323760986
-0.0442315116524696,0.4627525806427002,0.0437478385865688,-0.7561087012290955,-0.0027359188534319,0.0632509812712669,0.0,0.0,0.8476061820983887,0.1063990592956543
-0.0438851341605186,0.4463326930999756,0.0318431183695793,-0.7297694683074951,1.484277527197264e-05,0.055015105754137,0.0,0.0,0.6957082748413086,0.2734211683273315
-0.0435034744441509,0.4308311641216278,0.0350439585745334,-0.6889585852622986,0.0030978897120803,0.0616608187556266,0.0,0.0,0.2380741834640503,-0.0082972645759582
-0.0430477149784565,0.4152595400810241,0.0419297851622104,-0.6920843124389648,0.006697426084429,0.0719909220933914,0.0,0.0,0.6080152988433838,-0.1095116734504699
-0.0425579063594341,0.4005353450775146,0.0449636653065681,-0.6544302701950073,0.0106520857661962,0.0790932923555374,0.0,0.0,0.3548955917358398,0.5448262691497803
-0.0421000495553016,0.3859913349151611,0.0428310558199882,-0.6464260816574097,0.0135705089196562,0.05836833268404,0.0,0.0,0.8601505756378174,0.3658208847045898
-0.0417428985238075,0.3721894919872284,0.0330030843615531,-0.6134429574012756,0.016246773302555,0.0535252913832664,0.0,0.0,-0.0093209147453308,0.843073844909668
-0.041302777826786,0.3579918146133423,0.0428443476557731,-0.6310251355171204,0.0173979438841342,0.0230234023183584,0.0,0.0,0.7264995574951172,0.588367223739624
-0.0409633629024028,0.3447223901748657,0.0340982303023338,-0.5897480249404907,0.0172445178031921,-0.0030686273239552,0.0,0.0,0.6925110816955566,0.476081371307373
-0.0405463203787803,0.3319429755210876,0.0412698872387409,-0.5679796934127808,0.0176787506788969,0.0086844954639673,0.0,0.0,0.8446000814437866,0.557579755783081
-0.0401204116642475,0.3194149136543274,0.0431427583098411,-0.5567958354949951,0.0171327013522386,-0.0109209213405847,0.0,0.0,0.1867508888244629,0.1556321382522583
-0.0396373756229877,0.3068389892578125,0.048381008207798,-0.5589257478713989,0.0170539077371358,-0.001575969508849,0.0,0.0,0.7881677150726318,0.3556811809539795
-0.0391827598214149,0.2944140136241913,0.0454596355557441,-0.5522218346595764,0.017059039324522,0.0001026782556436,0.0,0.0,0.7375307083129883,0.0848294496536254
-0.0387392044067382,0.2828406691551208,0.0441434904932975,-0.5143739581108093,0.0172663852572441,0.0041470620781183,0.0,0.0,0.7979331016540527,0.636430025100708
-0.0381552688777446,0.2722096145153045,0.0589864365756511,-0.4724855422973633,0.0166860036551952,-0.0116076339036226,0.0,0.0,-0.6310247778892517,-0.5841895937919617
-0.0376147255301475,0.2611837983131408,0.0529959797859191,-0.4900485873222351,0.0177278295159339,0.0208365619182586,0.0,0.0,0.4763829708099365,0.1811689138412475
-0.0371838584542274,0.2501996159553528,0.0423239432275295,-0.4881966710090637,0.0184798296540975,0.0150399999693036,0.0,0.0,0.847074031829834,0.6649678945541382
-0.0366572365164756,0.2401503473520279,0.0528713688254356,-0.4466325640678406,0.0182746537029743,-0.0041034831665456,0.0,0.0,0.2354006767272949,0.4344884157180786
-0.0362035743892192,0.2303451150655746,0.0456782765686512,-0.4357832670211792,0.0179652292281389,-0.0061883856542408,0.0,0.0,0.0919634103775024,-0.4804569482803345
-0.035783864557743,0.2208115458488464,0.042202390730381,-0.4237103164196014,0.0177350305020809,-0.0046041770838201,0.0,0.0,0.363610029220581,-0.6550827026367188
-0.0354271903634071,0.2117460370063781,0.0343492664396762,-0.4029280245304107,0.0190348792821168,0.0259972475469112,0.0,0.0,-0.4139760732650757,0.6870746612548828
-0.0349987037479877,0.2022832036018371,0.0428669676184654,-0.4205709099769592,0.0190183445811271,-0.0003307816805317,0.0,0.0,0.6861045360565186,-0.0014634132385253
-0.0345434173941612,0.1929456740617752,0.0451785661280155,-0.4150038063526153,0.0193620957434177,0.0068751065991818,0.0,0.0,0.2383664846420288,-0.5162652134895325
-0.0340501777827739,0.1836588680744171,0.0475185476243495,-0.4127731919288635,0.021145187318325,0.0356618762016296,0.0,0.0,0.6259385347366333,0.0568751096725463
-0.0334156975150108,0.1748202443122863,0.0607135891914367,-0.3928685188293457,0.0238474197685718,0.0540446415543556,0.0,0.0,0.2838083505630493,-0.4706268310546875
-0.0326723083853721,0.1660459786653518,0.0708424821496009,-0.3900271952152252,0.0273005720227956,0.0690627917647361,0.0,0.0,0.3361011743545532,-0.9130656719207764
-0.0320157036185264,0.1577872782945633,0.0600769631564617,-0.3671661913394928,0.0328151099383831,0.1102909445762634,0.0,0.0,0.1401642560958862,-0.5688555836677551
-0.0313907638192176,0.1499179750680923,0.0554669313132762,-0.349916934967041,0.0397518873214721,0.1387353539466858,0.0,0.0,-0.5089426040649414,0.3351860046386719
-0.0307596214115619,0.1416501104831695,0.0558492355048656,-0.3676688075065613,0.0469397194683551,0.1437564939260482,0.0,0.0,0.0153231620788574,0.341780424118042
-0.0300700180232524,0.1332889199256897,0.0611360855400562,-0.3718768060207367,0.0546656772494316,0.154519572854042,0.0,0.0,0.0252182483673095,-0.2992668747901916
-0.0294251441955566,0.124999962747097,0.056575845927,-0.3687077164649963,0.0624926313757896,0.1565389335155487,0.0,0.0,0.0071297883987426,0.0173811912536621
-0.0287569053471088,0.1171050369739532,0.0584100596606731,-0.3512616753578186,0.0708103999495506,0.1663554906845092,0.0,0.0,0.107010006904602,0.834334135055542
-0.0280639640986919,0.1093871444463729,0.0623215958476066,-0.343363881111145,0.0777114480733871,0.1380209177732467,0.0,0.0,0.2234863042831421,0.0290436744689941
-0.0275053028017282,0.1021410301327705,0.0490787699818611,-0.3224154114723205,0.0844390168786048,0.1345513612031936,0.0,0.0,-0.1498001217842102,0.165343165397644
-0.0269437786191701,0.0944965928792953,0.0491013191640377,-0.3401679694652557,0.0914196595549583,0.1396130919456482,0.0,0.0,0.5705524682998657,0.0476701259613037
-0.0264960285276174,0.087512195110321,0.0377209596335887,-0.3108664453029632,0.0984182581305503,0.1399716436862945,0.0,0.0,0.2551169395446777,0.4559943675994873
-0.026165198534727,0.0809693187475204,0.0260669942945241,-0.2912718057632446,0.1053796634078025,0.1392279416322708,0.0,0.0,0.3443292379379272,0.9810333251953124
-0.0258220676332712,0.074637733399868,0.0290301106870174,-0.2817865312099457,0.1106266304850578,0.1049393191933631,0.0,0.0,0.3272249698638916,0.8505226373672485
-0.0255713462829589,0.0686220005154609,0.0213498845696449,-0.2676448822021484,0.1143254861235618,0.0739769786596298,0.0,0.0,0.2339668273925781,0.9667181968688964
-0.0254200939089059,0.0627788603305816,0.0131225138902664,-0.2598496377468109,0.1163122206926345,0.0397348627448082,0.0,0.0,0.6208537817001343,0.97745680809021
-0.0251585952937603,0.0576268061995506,0.0257185250520706,-0.2290115654468536,0.1167374029755592,0.0085036316886544,0.0,0.0,0.0459883213043212,0.9187279939651488
-0.0248072631657123,0.0524367652833461,0.0363064743578434,-0.2305797040462494,0.1155792698264122,-0.0231627859175205,0.0,0.0,0.4330868721008301,0.945540189743042
-0.0243177413940429,0.0478789433836936,0.0516343191266059,-0.2023632377386093,0.1129125133156776,-0.0533352605998516,0.0,0.0,-0.385226845741272,0.7958215475082397
-0.0237712860107421,0.0429392419755458,0.0586105771362781,-0.2192497104406356,0.1089691519737243,-0.0788670033216476,0.0,0.0,-0.2492232322692871,-0.3751747608184814
-0.0232281684875488,0.0376007184386253,0.0580282136797905,-0.237000286579132,0.1052792444825172,-0.073798157274723,0.0,0.0,0.3688099384307861,0.0977189540863037
-0.0226763729006052,0.0325897075235843,0.0583411864936351,-0.2224914729595184,0.1021348536014556,-0.0628876611590385,0.0,0.0,0.4526007175445556,0.0618629455566406
-0.0222084037959575,0.0282500367611646,0.0497406348586082,-0.1926740258932113,0.0992139056324958,-0.0584191866219043,0.0,0.0,0.2691999673843384,0.6782195568084717
-0.021700382232666,0.0244363639503717,0.0547789856791496,-0.1692400276660919,0.0952701866626739,-0.0788742080330848,0.0,0.0,0.0831515789031982,-0.6144384741783142
-0.0212152488529682,0.0206710435450077,0.0509186089038848,-0.1671936362981796,0.0928843691945076,-0.0477162934839725,0.0,0.0,-0.1056919693946838,-0.3893158435821533
-0.020735740661621,0.0165068954229354,0.0501047782599926,-0.1849430650472641,0.0907494947314262,-0.042697362601757,0.0,0.0,0.5129019021987915,0.3446235656738281
-0.0204219818115234,0.0126319266855716,0.0338242128491401,-0.1720730811357498,0.0883210003376007,-0.0485697425901889,0.0,0.0,0.4604973793029785,0.6220986843109131
-0.0201301574707031,0.0091060735285282,0.0326699167490005,-0.1565016806125641,0.0848584324121475,-0.0692511647939682,0.0,0.0,0.2945661544799804,-0.2016727924346923
-0.0199526790529489,0.0065257884562015,0.0393543355166912,-0.1136006861925125,0.0634490177035331,-0.4282179474830627,0.0,1.0,0.5158860683441162,0.1319233179092407
-0.0196769721806049,0.0040572974830865,0.0486649200320243,-0.108951598405838,0.0425937660038471,-0.417118489742279,0.0,1.0,0.4554536342620849,0.0135262012481689
-0.0193412788212299,0.0021033978555351,0.0542810969054698,-0.0863808691501617,0.022135779261589,-0.4091599881649017,0.0,1.0,0.1840589046478271,-0.2238894701004028
-0.0190005302429199,0.0006232833839021,0.0547165982425212,-0.06560680270195,0.0017615333199501,-0.407485157251358,0.0,1.0,0.024604320526123,-0.0938883423805236
-0.0186205860227346,-0.0009604000952094,0.0584473125636577,-0.0704858526587486,-0.018429460003972,-0.4038197100162506,1.0,0.0,-0.1204473376274108,-0.4819691777229309
