x_pos,y_pos,x_vel,y_vel,angle,ang_vel,leg_1,leg_2,main_booster,lat_booster
-0.0015034675598144,1.4029675722122192,-0.1522676646709442,-0.3534467816352844,0.0017116094240918,0.0337593033909797,0.0,0.0,-0.945756238676811,0.8724545076553801
-0.002910804701969,1.3943772315979004,-0.1404698938131332,-0.3817934989929199,0.0014511658810079,-0.0052085411734879,0.0,0.0,0.091130464388915,-0.8363035800177702
-0.0042576789855957,1.385523557662964,-0.1361007392406463,-0.39349365234375,0.002839230466634,0.0277642421424388,0.0,0.0,-0.6486255311365794,-0.8063448439526066
-0.0056551932357251,1.376010179519653,-0.1430045664310455,-0.4228317439556122,0.0060633332468569,0.0644879564642906,0.0,0.0,0.3808582888595795,0.9732529795776064
-0.0068280221894383,1.3666621446609497,-0.1186224371194839,-0.4154682755470276,0.0073847221210598,0.026430394500494,0.0,0.0,0.8129380258027012,-0.9461776393585488
-0.007883071899414,1.357550859451294,-0.1089496240019798,-0.4049666821956634,0.0107841566205024,0.0679947584867477,0.0,0.0,0.2971194462566144,-0.608678788208761
-0.0089797973632812,1.348461627960205,-0.1141829639673233,-0.4040006399154663,0.0152482977136969,0.08929093927145,0.0,0.0,0.4857842789893061,0.9033324886512886
-0.009829712100327,1.3395960330963137,-0.0877897292375564,-0.3940560519695282,0.0180127881467342,0.0552950501441955,0.0,0.0,0.2197554712596385,-0.9123939390114594
-0.0107386587187647,1.331007957458496,-0.0953960791230201,-0.3817561864852905,0.0224609896540641,0.0889722481369972,0.0,0.0,-0.1409954805046693,-0.7797244354313577
-0.0116730686277151,1.3217658996582031,-0.0993752479553222,-0.4108577370643616,0.028328126296401,0.1173533946275711,0.0,0.0,-0.0230506154191731,-0.9665050405249452
-0.0126348491758108,1.3118654489517212,-0.1036364883184433,-0.4401775598526001,0.0357007607817649,0.1474661529064178,0.0,0.0,0.7734746179571155,-0.8146101753143384
-0.0135581018403172,1.302158236503601,-0.1014283075928688,-0.4316705763339996,0.0447129607200622,0.1802604645490646,0.0,0.0,-0.2023728379283078,-0.8574977651073505
-0.0144931795075535,1.2917959690093994,-0.1037937030196189,-0.4608832001686096,0.0549025200307369,0.2038096934556961,0.0,0.0,-0.396993784514754,0.6471363975594716
-0.015328025445342,1.2807763814926147,-0.0921757742762565,-0.4900907874107361,0.0634976476430893,0.1719181835651397,0.0,0.0,-0.0033584271039162,-0.9709311711828266
-0.0161772724241018,1.2691054344177246,-0.0949068665504455,-0.519158661365509,0.073395162820816,0.1979682743549347,0.0,0.0,0.8142474460644373,0.8850765558914446
-0.0168010704219341,1.2572786808013916,-0.0706535726785659,-0.5260531902313232,0.0816002860665321,0.1641174256801605,0.0,0.0,-0.7624086355782886,-0.8813057544532035
-0.0174306873232126,1.2447994947433472,-0.0724048912525177,-0.5551695227622986,0.0909636318683624,0.1872838735580444,0.0,0.0,0.5753488604210386,-0.6095785306181352
-0.0179441459476947,1.2322063446044922,-0.062142290174961,-0.560377299785614,0.1016907840967178,0.2145623713731765,0.0,0.0,0.1718979723957276,0.8322899898637431
-0.0183201786130666,1.2198370695114136,-0.0465671829879283,-0.5503825545310974,0.1106039211153984,0.1782790720462799,0.0,0.0,0.979595088474529,-0.6244467182618547
-0.018869686871767,1.2077968120574951,-0.0646551102399826,-0.5358622670173645,0.1202599108219146,0.1931370943784713,0.0,0.0,0.7263669200227476,-0.8329956330025803
-0.0193787571042776,1.196291446685791,-0.0622998960316181,-0.5123074650764465,0.1316182315349578,0.2271867543458938,0.0,0.0,-0.2681553714747433,-0.808818699634936
-0.0198937412351369,1.184113621711731,-0.0642262548208236,-0.5424102544784546,0.1443264186382293,0.2541863918304443,0.0,0.0,-0.6067165942599002,0.7343304110721993
-0.0202816966921091,1.171294331550598,-0.0494727864861488,-0.5708109140396118,0.1550089716911316,0.2136701345443725,0.0,0.0,0.4635113778629101,0.8818001701586247
-0.0205144882202148,1.158251404762268,-0.0320298448204994,-0.5806211829185486,0.1637668311595916,0.1751725524663925,0.0,0.0,-0.5716385751045501,-0.8791260151916341
-0.0207722671329975,1.1445335149765017,-0.0364170484244823,-0.6108929514884949,0.1744415462017059,0.213512971997261,0.0,0.0,0.8629753078513158,0.6153719693173382
-0.0212296489626169,1.1312808990478516,-0.0544369593262672,-0.5900439023971558,0.1831542402505874,0.1742539554834365,0.0,0.0,-0.6348972898390626,0.9256585849652224
-0.0215526577085256,1.1173975467681885,-0.0388374663889408,-0.6178646683692932,0.1897243708372116,0.1314030140638351,0.0,0.0,-0.5611602393794906,-0.8112922931913689
-0.0218892097473144,1.1028434038162231,-0.0418761745095253,-0.6479235887527466,0.1979941427707672,0.1653954088687896,0.0,0.0,-0.9910910197560654,-0.8807007937988035
-0.0222444534301757,1.0876150131225586,-0.0455890893936157,-0.6781977415084839,0.2081287205219268,0.2026914656162262,0.0,0.0,0.1708945224269089,0.9450695878698364
-0.0225484855473041,1.0722514390945437,-0.0382732599973678,-0.6839580535888672,0.2160741984844207,0.1589097082614898,0.0,0.0,0.6456270669354445,-0.9369543153186932
-0.0230193138122558,1.057459831237793,-0.0565363764762878,-0.6588155627250671,0.2256309390068054,0.1911348402500152,0.0,0.0,0.2826864243742122,-0.6298380089707205
-0.0236111637204885,1.0424665212631226,-0.0694507807493209,-0.6679757833480835,0.2360448688268661,0.2082788199186325,0.0,0.0,-0.0839282923389617,-0.9827480983389084
-0.0242211334407329,1.0267951488494873,-0.0731527581810951,-0.6985049843788147,0.2484012693166732,0.2471276968717575,0.0,0.0,0.2354069657445361,-0.9377087125725304
-0.0249517448246479,1.010804295539856,-0.0867099016904831,-0.7130776047706604,0.2623307108879089,0.2785886228084564,0.0,0.0,0.125766970076455,0.6051702091410833
-0.0256648063659667,0.9948014616966248,-0.0834255963563919,-0.7134586572647095,0.2747392952442169,0.2481708228588104,0.0,0.0,0.6706402937386591,0.6595772712599328
-0.0264456756412982,0.979280412197113,-0.0885985568165779,-0.6918331980705261,0.2855337262153625,0.2158888578414917,0.0,0.0,-0.7853561496260284,-0.907378657721578
-0.0272252075374126,0.96306711435318,-0.089993342757225,-0.7229943871498108,0.2979348301887512,0.2480219304561615,0.0,0.0,-0.7824139595369528,0.6765883719310675
-0.0278791431337595,0.9462271332740784,-0.0756553262472152,-0.7505732178688049,0.3085439205169678,0.212181881070137,0.0,0.0,-0.1832315403897229,-0.6976590122470925
-0.0285175330936908,0.9287113547325134,-0.0751875638961792,-0.7809351682662964,0.3203325271606445,0.2357716858386993,0.0,0.0,-0.9701670411669144,0.6576412705257937
-0.0290310867130756,0.9105654954910278,-0.061004888266325,-0.808660626411438,0.3303863108158111,0.2010755240917205,0.0,0.0,0.5778934322441063,-0.8564116591402116
-0.0298850052058696,0.8927361369132996,-0.0962075442075729,-0.7949246168136597,0.3416901230812073,0.2260762155055999,0.0,0.0,0.6957470178604126,0.99914813041687
-0.0306355468928813,0.8751184344291687,-0.0837337672710418,-0.785094141960144,0.3507846295833587,0.1818899810314178,0.0,0.0,0.360076904296875,0.9930269718170166
-0.0312375072389841,0.8572843670845032,-0.066632404923439,-0.7942087054252625,0.3575630187988281,0.1355683803558349,0.0,0.0,0.6989785432815552,0.9974676370620728
-0.0317730903625488,0.839655876159668,-0.0578601062297821,-0.784568190574646,0.3620957136154175,0.0906538441777229,0.0,0.0,0.5503907203674316,0.9998281002044678
-0.0322958938777446,0.821764349937439,-0.0542807467281818,-0.7956886887550354,0.3642150163650512,0.0423858575522899,0.0,0.0,0.4927376508712768,0.999482274055481
-0.0327307693660259,0.8036952614784241,-0.043282002210617,-0.8030112981796265,0.3639916777610779,-0.0044665923342108,0.0,0.0,0.599940299987793,0.9999940395355223
-0.0331073775887489,0.7856473326683044,-0.0352496765553951,-0.8015278577804565,0.3614488542079925,-0.0508566312491893,0.0,0.0,0.2480549812316894,0.9977819919586182
-0.0336542129516601,0.7678234577178955,-0.0499924272298812,-0.7909960150718689,0.356497585773468,-0.0990254506468772,0.0,0.0,0.0720566511154174,0.999880075454712
-0.0343304648995399,0.7500557899475098,-0.06068866699934,-0.7879700064659119,0.3492025434970855,-0.145900696516037,0.0,0.0,-0.2659014463424682,0.9949390888214112
-0.034860897809267,0.7316667437553406,-0.0439052656292915,-0.8151032328605652,0.3396091163158417,-0.1918684989213943,0.0,0.0,0.5884910821914673,0.9995406866073608
-0.0352788940072059,0.713514506816864,-0.03047994710505,-0.8041432499885559,0.3277884721755981,-0.2364121675491333,0.0,0.0,0.4211070537567138,0.9892948865890504
-0.035809613764286,0.6956223845481873,-0.0394014492630958,-0.7921706438064575,0.3135733604431152,-0.2843022048473358,0.0,0.0,-0.1603541374206543,0.984278678894043
-0.0361798293888568,0.6771122813224792,-0.0206813048571348,-0.81922847032547,0.296665608882904,-0.3381555378437042,0.0,0.0,-0.0710577368736267,0.7477743625640869
-0.0364233031868934,0.6579806208610535,-0.0061187008395791,-0.8466889262199402,0.2778973579406738,-0.3753647208213806,0.0,0.0,0.1948045492172241,-0.2388929724693298
-0.0365892425179481,0.6387484073638916,0.0015662998193874,-0.8514205813407898,0.2593061923980713,-0.3718236088752746,0.0,0.0,0.8793299198150635,-0.7171313762664795
-0.0369903557002544,0.6195695400238037,-0.0227181687951087,-0.8494167923927307,0.241578459739685,-0.3545548319816589,0.0,0.0,0.6486555337905884,0.5233592987060547
-0.0373759269714355,0.6009510159492493,-0.0200011804699897,-0.8245564103126526,0.2227456718683242,-0.3766559958457947,0.0,0.0,-0.2288265824317932,-0.299187421798706
-0.0376935005187988,0.5816792845726013,-0.0128062339499592,-0.8537743091583252,0.2036042064428329,-0.3828292489051819,0.0,0.0,0.846664309501648,-0.2653124928474426
-0.0380481705069541,0.5631318688392639,-0.0165352933108806,-0.8218358159065247,0.1845456063747406,-0.3811717927455902,0.0,0.0,0.5941309928894043,-0.5398100018501282
-0.0385962501168251,0.545020580291748,-0.0363710075616836,-0.802756667137146,0.1660663485527038,-0.3695851266384125,0.0,0.0,0.990097999572754,-0.0393841862678527
-0.0390925407409668,0.5269314646720886,-0.0311293043196201,-0.801999032497406,0.1475810408592224,-0.3697063624858856,0.0,0.0,0.9476243257522584,-0.7693204283714294
-0.0398344025015831,0.5093783140182495,-0.0566144660115242,-0.7784945964813232,0.1300571411848068,-0.3504781126976013,0.0,0.0,0.7211138010025024,0.5684642791748047
-0.0404029861092567,0.4920075535774231,-0.0381710939109325,-0.7705117464065552,0.1114837601780891,-0.3714679181575775,0.0,0.0,0.6944794654846191,-0.8333088755607605
-0.0410200133919715,0.4749155044555664,-0.0444433465600013,-0.7584465146064758,0.0943501964211463,-0.342671275138855,0.0,0.0,0.5504254102706909,-0.3634417057037353
-0.0416066162288188,0.4577330648899078,-0.0411311164498329,-0.7626527547836304,0.076990321278572,-0.3471977114677429,0.0,0.0,0.7920875549316406,-0.5448548793792725
-0.0423711761832237,0.4408349394798279,-0.059360571205616,-0.750235378742218,0.0600664168596267,-0.338478147983551,0.0,0.0,-0.2844196557998657,-0.4980509281158447
-0.0430809035897254,0.423283576965332,-0.053601861000061,-0.7794526815414429,0.042901299893856,-0.3433023989200592,0.0,0.0,0.9534060955047609,-0.7037896513938904
-0.0437033660709857,0.4055917859077453,-0.0463075116276741,-0.7859222888946533,0.0271649528294801,-0.3147270679473877,0.0,0.0,0.9837483167648317,-0.8619111776351929
-0.0443356521427631,0.388791561126709,-0.0488754548132419,-0.746475875377655,0.0129951480776071,-0.2833960354328155,0.0,0.0,0.9873170852661132,-0.4158850908279419
-0.0450399406254291,0.3721891343593597,-0.0553366243839263,-0.7378244996070862,-0.0019065081141889,-0.298033058643341,0.0,0.0,0.8033936023712158,-0.0052785873413085
-0.0457968711853027,0.3560418784618377,-0.0599377565085887,-0.7177514433860779,-0.0174677241593599,-0.3112246394157409,0.0,0.0,0.9065029621124268,-0.7979893684387207
-0.0465221405029296,0.3403199017047882,-0.0582739822566509,-0.6989811062812805,-0.0315418504178524,-0.281482458114624,0.0,0.0,0.9823621511459352,-0.7642034888267517
-0.0474021919071674,0.3254821300506592,-0.0747316926717758,-0.6597873568534851,-0.0446543917059898,-0.2622508406639099,0.0,0.0,0.4899438619613647,-0.5460736155509949
-0.0481925979256629,0.3107681274414062,-0.0668894201517105,-0.6543591618537903,-0.0566621422767639,-0.24015474319458,0.0,0.0,0.5906175374984741,-0.6396988034248352
-0.0490123741328716,0.295965313911438,-0.0709068030118942,-0.658356785774231,-0.0676175206899643,-0.2191075980663299,0.0,0.0,0.949892520904541,-0.9181952476501464
-0.0497589111328125,0.2810699939727783,-0.0654614269733429,-0.6624549627304077,-0.0767080560326576,-0.181810662150383,0.0,0.0,0.970292329788208,-0.8499047756195068
-0.0505539886653423,0.2661283016204834,-0.071839615702629,-0.6644888520240784,-0.084303580224514,-0.1519101858139038,0.0,0.0,0.986043095588684,-0.3599605560302734
-0.0512531287968158,0.2519570589065552,-0.0621101073920726,-0.630294144153595,-0.0920390710234642,-0.1547099500894546,0.0,0.0,0.9506806135177612,-0.7496038675308228
-0.051798153668642,0.2385697662830352,-0.0483718402683734,-0.5953792333602905,-0.0981161519885063,-0.1215415745973587,0.0,0.0,0.9837498664855956,-0.935543179512024
-0.0524491295218467,0.2260331213474273,-0.0605188012123107,-0.5574921369552612,-0.1026596352458,-0.0908698886632919,0.0,0.0,0.9832844734191896,-0.8156469464302063
-0.0532773956656456,0.2134607136249542,-0.0794711858034133,-0.5590093731880188,-0.1059898436069488,-0.0666040331125259,0.0,0.0,0.9231383800506592,-0.6392783522605896
-0.0539967529475688,0.2016097158193588,-0.0699814707040786,-0.5268509984016418,-0.1079338416457176,-0.0388799682259559,0.0,0.0,0.8336806297302246,-0.4989780187606811
-0.0547516830265522,0.1900726407766342,-0.0730064585804939,-0.5129408836364746,-0.1104018092155456,-0.0493594408035278,0.0,0.0,0.9551208019256592,-0.1216488480567932
-0.0554791465401649,0.1790853142738342,-0.0699744373559951,-0.4885326325893402,-0.1131544262170791,-0.0550519749522209,0.0,0.0,0.802600622177124,-0.5151777863502502
-0.0561749450862407,0.1685900837182998,-0.0678400695323944,-0.4665869772434234,-0.1148830130696296,-0.0345717146992683,0.0,0.0,0.0925726890563964,-0.0987060070037841
-0.0567738525569438,0.1580012887716293,-0.0584782138466835,-0.4707203805446625,-0.1162898987531662,-0.0281375907361507,0.0,0.0,0.8148336410522461,-0.4616382122039795
-0.05731201171875,0.1473112255334854,-0.0525931045413017,-0.4752083420753479,-0.1175011470913887,-0.0242250598967075,0.0,0.0,0.9450891017913818,-0.7717843651771545
-0.0577507019042968,0.1366546303033828,-0.0445621088147163,-0.4735738933086395,-0.1168110147118568,0.0138025525957345,0.0,0.0,0.9842073917388916,-0.0537267327308654
-0.0579510703682899,0.1263317614793777,-0.0216665156185627,-0.4586661756038666,-0.1151873916387558,0.0324723869562149,0.0,0.0,0.991490364074707,-0.3062324523925781
-0.0579511635005474,0.1160312965512275,-0.0025645641144365,-0.4576035737991333,-0.1126496121287345,0.0507552698254585,0.0,0.0,0.986851453781128,0.1296935081481933
-0.0578821189701557,0.1064215525984764,0.0042264903895556,-0.4268993437290191,-0.1099856719374656,0.0532788261771202,0.0,0.0,0.9246203899383544,-0.5844658017158508
-0.0577532760798931,0.0974779948592186,0.0087319649755954,-0.3971912264823913,-0.1058687791228294,0.0823379531502723,0.0,0.0,0.9348316192626952,-0.152582585811615
-0.057431124150753,0.089019738137722,0.0271930694580078,-0.3755759298801422,-0.1008780226111412,0.0998149812221527,0.0,0.0,0.8566162586212158,-0.7735048532485962
-0.0570487976074218,0.0804347395896911,0.0311527457088232,-0.3810950517654419,-0.0938621163368225,0.1403182595968246,0.0,0.0,0.9510951042175292,-0.7978472113609314
-0.0567830093204975,0.0721075162291526,0.0178014002740383,-0.3695693016052246,-0.0851645693182945,0.1739507317543029,0.0,0.0,0.9836432933807372,0.6692659854888916
-0.0563138946890831,0.0646596252918243,0.038914680480957,-0.3305833637714386,-0.0772547870874404,0.1581960022449493,0.0,0.0,0.5113308429718018,0.5010398626327515
-0.0558389648795127,0.0573318339884281,0.0402916893362998,-0.3253256380558014,-0.0701222419738769,0.1426511704921722,0.0,0.0,0.9161123037338256,0.5238986015319824
-0.0554652214050293,0.0507443994283676,0.0313663519918918,-0.2925045788288116,-0.0641831383109092,0.1187819838523864,0.0,0.0,0.7241251468658447,0.1338152885437011
-0.0550131797790527,0.0445817559957504,0.0384505502879619,-0.2736203074455261,-0.0575040131807327,0.1335825622081756,0.0,0.0,0.5621092319488525,0.766409158706665
-0.0545784942805767,0.0388298854231834,0.0380177348852157,-0.2554373443126678,-0.0521088354289531,0.1079035773873329,0.0,0.0,0.3968372344970703,0.712527871131897
-0.054198645055294,0.0333763472735881,0.0337328128516674,-0.2422378659248352,-0.0479019694030284,0.0841371417045593,0.0,0.0,0.3701610565185547,0.7522209882736206
-0.0538331046700477,0.02787946164608,0.0334631986916065,-0.2442090213298797,-0.0448504425585269,0.0610304474830627,0.0,0.0,0.7174801826477051,0.9022971391677856
-0.0535772331058979,0.022667609155178,0.0241318810731172,-0.231595903635025,-0.0434141755104064,0.0287251584231853,0.0,0.0,0.4862257242202759,0.9070029258728028
-0.0534601211547851,0.0175079684704542,0.0118568046018481,-0.2293212711811065,-0.043547935783863,-0.0026753204874694,0.0,0.0,0.684349775314331,0.9754924774169922
-0.0531931892037391,0.0127819152548909,0.0281987842172384,-0.210092008113861,-0.0450370982289314,-0.0297831539064645,0.0,0.0,0.659561276435852,0.924832820892334
-0.0528519637882709,0.0079364515841007,0.0369495153427124,-0.2154400795698166,-0.0478276908397674,-0.0558120794594287,0.0,0.0,0.7864652872085571,0.7067838907241821
-0.0523324012756347,0.003659222042188,0.0553449690341949,-0.1902099102735519,-0.0511793494224548,-0.0670330077409744,0.0,0.0,0.5828661918640137,0.4492045640945434
-0.051796056330204,0.0005721425986848,0.0375331155955791,-0.1367802619934082,-0.0350782424211502,0.322248250246048,1.0,0.0,0.5242047309875488,-0.3246581554412842
-0.0510040298104286,-0.0014487052103504,0.047519389539957,-0.0895306766033172,-0.0032847409602254,0.6365324258804321,1.0,0.0,0.3624944686889648,0.8485250473022461
-0.0502254478633403,-0.0024718784261494,0.056174524128437,-0.0455788038671016,0.0181123483926057,0.4279350340366363,1.0,1.0,0.2429311275482177,0.5159437656402588
-0.0496665015816688,-0.0026290558744221,0.0546733066439628,-0.0070027038455009,0.0193239171057939,0.0242414362728595,1.0,1.0,-0.7356091737747192,-0.7276002168655396
-0.0492968559265136,-0.0024024629965424,0.0387442111968994,0.0100895473733544,0.01757737621665,-0.0349225103855133,1.0,1.0,-0.4558440446853637,-0.470929741859436
-0.0490313544869422,-0.0018356228247284,0.030908128246665,0.0252370126545429,0.013272943906486,-0.0860813409090042,1.0,1.0,-0.3037453889846802,-0.1760211586952209
-0.0487798675894737,-0.0011162185110151,0.0306663624942302,0.0320120938122272,0.007830980233848,-0.1088321805000305,1.0,1.0,-0.5225504040718079,-0.814974844455719
-0.0486295707523822,-0.0003988886019214,0.0205587521195411,0.0318993218243122,0.0023816858883947,-0.1089799180626869,1.0,1.0,-0.5396482348442078,-0.4542779922485351
-0.0484489426016807,-0.0002327704423805,0.019382394850254,0.0073848613537848,0.0010869546094909,-0.0258913598954677,1.0,1.0,-0.5367539525032043,-0.1556545495986938
-0.0483027473092079,-0.0002353453601244,0.0146161746233701,-0.0001132459219661,0.0010853027924895,-2.902337655541487e-05,1.0,1.0,-0.5894630551338196,-0.0946952104568481
-0.0482186302542686,-0.000236561303609,0.0084104733541607,-5.309939297148958e-05,0.0010844774078577,-1.3594190932053609e-05,1.0,1.0,-0.684465229511261,-0.100479245185852
-0.0481966026127338,-0.000236561303609,0.0022059620823711,5.265711422453023e-08,0.0010843724012374,1.6546014336427106e-08,1.0,1.0,-0.7595506310462952,-0.0601504445075988
-0.0482095703482627,-0.000236561303609,-0.0013127882266417,1.928034123466205e-07,0.001104533788748,0.0003941730537917,1.0,1.0,-0.7515169978141785,0.1292744874954223
-0.0482250228524208,-0.000236561303609,-0.001584812416695,-2.13254438108379e-07,0.0011289187241345,0.0004758166032843,1.0,1.0,-0.6228697299957275,0.2607289552688598
