x_pos,y_pos,x_vel,y_vel,angle,ang_vel,leg_1,leg_2,main_booster,lat_booster
-0.0016728400951251,1.4033933877944946,-0.1695016920566558,-0.3345262110233307,0.0019918573088943,0.039307914674282,0.0,0.0,-0.3699268579406602,0.7766113496418394
-0.0034293173812329,1.3956549167633057,-0.1760348677635193,-0.3439317345619201,0.0023830516729503,0.0078252712264657,0.0,0.0,0.1883714737222972,-0.6143359906896859
-0.0052772522903978,1.3881163597106934,-0.186729609966278,-0.3350492715835571,0.00429531885311,0.0382488816976547,0.0,0.0,0.1779831016061497,-0.8126760987465809
-0.0074372291564941,1.3808772563934326,-0.2195754796266555,-0.3217508494853973,0.007833250798285,0.0707651078701019,0.0,0.0,0.4073467476719221,0.5831655343042506
-0.0095846178010106,1.374244213104248,-0.2175445258617401,-0.2948265075683594,0.0106023587286472,0.0553871393203735,0.0,0.0,-0.7053745483436475,-0.7217030710234017
-0.0119240758940577,1.367377996444702,-0.237969309091568,-0.3051925897598266,0.0145776597782969,0.079513318836689,0.0,0.0,-0.3004410114299629,-0.707521935634496
-0.0144691467285156,1.3602797985076904,-0.2600871324539184,-0.3155365586280823,0.0201032403856515,0.1105218306183815,0.0,0.0,-0.5362401934368748,-0.5688080713380459
-0.0171950347721576,1.3529515266418457,-0.279134452342987,-0.3257977664470672,0.0265693310648202,0.129333883523941,0.0,0.0,0.7861419900052169,-0.5127794408193294
-0.020146083086729,1.3467528820037842,-0.3027106523513794,-0.2756505906581878,0.034097783267498,0.1505828350782394,0.0,0.0,0.4583285656209468,0.9546678822990315
-0.023190688341856,1.341294527053833,-0.3102480769157409,-0.2427441626787185,0.0398170612752437,0.1143961697816848,0.0,0.0,0.1648387358865035,-0.8676370793455055
-0.0263951309025287,1.3362343311309814,-0.3280876278877258,-0.225119486451149,0.0473799146711826,0.1512712985277176,0.0,0.0,0.1290613941431939,0.8941223960951097
-0.0296341888606548,1.3314915895462036,-0.3298566043376922,-0.2109861373901367,0.0532648600637912,0.1177095919847488,0.0,0.0,0.2174434746905322,-0.5129923717572172
-0.0329802520573139,1.3272981643676758,-0.3418819010257721,-0.1866533011198043,0.06047298386693,0.1441756933927536,0.0,0.0,0.2854541204008629,-0.9298238872723336
-0.0364965423941612,1.323278307914734,-0.3608751893043518,-0.1790565103292465,0.0696356743574142,0.1832704842090606,0.0,0.0,-0.9408416212845124,-0.9909985095053654
-0.0402147285640239,1.3190326690673828,-0.3826474547386169,-0.1892341673374176,0.0803636014461517,0.2145780026912689,0.0,0.0,0.726896565262648,-0.7044651217985678
-0.0440293326973915,1.3150222301483154,-0.394019216299057,-0.1789591610431671,0.0928336456418037,0.2494236677885055,0.0,0.0,0.1916448768937326,0.9457849653049448
-0.0478508956730365,1.311741590499878,-0.3929051160812378,-0.1465117335319519,0.1035050675272941,0.2134479284286499,0.0,0.0,0.2520287786424842,0.8342588591870498
-0.0516510009765625,1.3086767196655271,-0.3892327845096588,-0.1368772238492965,0.1126786991953849,0.1834892928600311,0.0,0.0,-0.3604571357788089,0.8827002907974713
-0.0555076599121093,1.305403470993042,-0.3928767442703247,-0.1460323333740234,0.1198480054736137,0.1433991938829422,0.0,0.0,0.7435136094101868,0.8162108691844192
-0.0595994964241981,1.302783727645874,-0.4146045744419098,-0.1168844401836395,0.1252470314502716,0.1079903021454811,0.0,0.0,-0.9036503480891174,-0.9399407854973578
-0.0638827309012413,1.2999286651611328,-0.4352537989616394,-0.1274802535772323,0.1321526169776916,0.1381235420703888,0.0,0.0,0.2029844519757335,0.566278537591309
-0.0682853683829307,1.297329664230347,-0.4460936188697815,-0.1160341948270797,0.1379721015691757,0.1163997799158096,0.0,0.0,0.0315031451215426,0.8882520863844728
-0.0726984962821006,1.2950379848480225,-0.4453733563423157,-0.1022346541285514,0.1420345604419708,0.0812562853097915,0.0,0.0,0.6687838777936308,-0.9603085010218356
-0.0772777572274208,1.2929737567901611,-0.4640494287014007,-0.0923367738723754,0.1481432467699051,0.1221844553947448,0.0,0.0,0.7342975771047164,0.7562294122685599
-0.0821830779314041,1.291660189628601,-0.4947964549064636,-0.058814562857151,0.1524138450622558,0.0854194462299346,0.0,0.0,0.8824884111513502,0.5740901394650108
-0.0874590873718261,1.2912567853927612,-0.5302454829216003,-0.0182053092867136,0.1550517082214355,0.0527571514248847,0.0,0.0,0.1208747730284887,0.826883617583277
-0.0928619354963302,1.2913734912872314,-0.5412633419036865,0.0050860145129263,0.1560345143079757,0.0196562204509973,0.0,0.0,-0.9081201070748092,-0.837079178339942
-0.0984595268964767,0.0,-0.5627772808074951,-0.0058544976636767,0.1590463072061538,0.060236245393753,0.0,0.0,-0.3096307245972098,0.9553549184093008
-0.1041104346513748,1.2909151315689087,-0.5665921568870544,-0.0149980215355753,0.1605448871850967,0.0299719274044036,0.0,0.0,-0.934643183340023,-0.9731086596092438
-0.10994653403759,1.290327548980713,-0.5871087908744812,-0.026498744264245,0.1640450358390808,0.0700028091669082,0.0,0.0,-0.5945834034336992,-0.7889646318994095
-0.1159461960196495,1.2895028591156006,-0.6049615740776062,-0.0372098013758659,0.1690482199192047,0.1000640764832496,0.0,0.0,-0.752539336681366,0.9961788654327391
-0.1219760924577713,1.2884587049484253,-0.6062254309654236,-0.0467738024890422,0.1722884476184845,0.0648048594594001,0.0,0.0,-0.5834497809410095,0.9989322423934937
-0.1280337274074554,1.28721022605896,-0.6072441339492798,-0.0556588023900985,0.1737610697746276,0.0294523276388645,0.0,0.0,-0.5847563743591309,0.998751163482666
-0.134109690785408,1.2857400178909302,-0.6072453856468201,-0.065307393670082,0.1734090149402618,-0.0070410957559943,0.0,0.0,-0.6209477186203003,0.997791051864624
-0.1401896476745605,1.2840614318847656,-0.6055492162704468,-0.0743189379572868,0.1709554344415664,-0.0490713492035865,0.0,0.0,-0.8127959966659546,0.9893720149993896
-0.1462691277265548,1.282179594039917,-0.603395938873291,-0.0831197202205658,0.166402593255043,-0.0910571739077568,0.0,0.0,-0.9412306547164916,0.9855608940124512
-0.1523466110229492,1.2800804376602173,-0.6012510061264038,-0.0925820544362068,0.1599062383174896,-0.1299272328615188,0.0,0.0,-0.8837710022926331,0.8866270780563354
-0.1584172248840332,1.2777752876281738,-0.5985985398292542,-0.1015652939677238,0.1514543145895004,-0.1690386533737182,0.0,0.0,-0.9567207098007202,0.863985538482666
-0.1644852608442306,1.275264024734497,-0.5966333150863647,-0.1106158345937728,0.1413110494613647,-0.2028656750917434,0.0,0.0,-0.950212299823761,0.8296186923980713
-0.1705381423234939,1.272538423538208,-0.5932945609092712,-0.1200410425662994,0.1293542087078094,-0.2391367852687835,0.0,0.0,-0.8356196284294128,0.8357696533203125
-0.176583856344223,1.2696012258529663,-0.5910760164260864,-0.129428282380104,0.1159377992153167,-0.2683281302452087,0.0,0.0,-0.9724632501602172,0.8127191066741943
-0.1825912445783615,1.2664470672607422,-0.5851773023605347,-0.1390475481748581,0.1004787385463714,-0.3091813027858734,0.0,0.0,-0.9948626756668092,0.5015743970870972
-0.1885841339826584,1.2630665302276611,-0.5824262499809265,-0.1491990536451339,0.0837649554014206,-0.3342759013175964,0.0,0.0,-0.9881290793418884,0.8993992805480957
-0.1945185661315918,1.2594674825668335,-0.5743433237075806,-0.1589968502521515,0.064862921833992,-0.3780408501625061,0.0,0.0,-0.9970811605453492,0.5792990922927856
-0.2004266679286956,1.2556395530700684,-0.5705001950263977,-0.1693729758262634,0.0447794310748577,-0.4016700685024261,0.0,0.0,-0.968205451965332,0.0474911928176879
-0.2063439339399337,1.2515859603881836,-0.5712798833847046,-0.1796803027391433,0.0245821494609117,-0.4039457738399505,0.0,0.0,-0.9887122511863708,0.8540956974029541
-0.2121881991624832,1.247305154800415,-0.5619547367095947,-0.1900427788496017,0.0023945397697389,-0.4437521398067474,0.0,0.0,-0.9916145205497742,0.6890263557434082
-0.2179820537567138,1.2428076267242432,-0.5556538701057434,-0.2000202238559723,-0.0210334472358226,-0.4685598909854889,0.0,0.0,-0.9373548030853271,-0.8098453283309937
-0.2238404303789138,1.2380954027175903,-0.5639685392379761,-0.2098852694034576,-0.0426271818578243,-0.4318746626377105,0.0,0.0,-0.9667073488235474,0.5548994541168213
-0.2296353876590728,1.233154296875,-0.5564373731613159,-0.2204209268093109,-0.0654239952564239,-0.4559364318847656,0.0,0.0,-0.9422124028205872,-0.2467464208602905
-0.2354019582271576,1.2279889583587646,-0.553490161895752,-0.2307392060756683,-0.0883639529347419,-0.4587992131710052,0.0,0.0,-0.9532874822616576,0.765575647354126
-0.241078183054924,1.2225980758666992,-0.5429588556289673,-0.2412366569042205,-0.1128305494785308,-0.4893320500850677,0.0,0.0,-0.9187681078910828,-0.2125964760780334
-0.2467118203639984,1.2169842720031738,-0.5386223793029785,-0.2515620291233063,-0.137450709939003,-0.4924032092094421,0.0,0.0,-0.9707720875740052,0.0062670707702636
-0.2522963583469391,1.211147665977478,-0.5336247682571411,-0.2618882954120636,-0.1622293442487716,-0.4955729842185974,0.0,0.0,-0.8863980770111084,-0.9910511374473572
-0.2578837871551513,1.2050983905792236,-0.5353406667709351,-0.2715817093849182,-0.1856799870729446,-0.4690127968788147,0.0,0.0,-0.5340451002120972,-0.9479236602783204
-0.2634952962398529,1.1988446712493896,-0.5398685932159424,-0.2807457149028778,-0.2070973664522171,-0.4283478856086731,0.0,0.0,-0.8603449463844299,0.0304435491561889
-0.2690393924713135,1.1923662424087524,-0.533039927482605,-0.2910604476928711,-0.2286868393421173,-0.4317894577980041,0.0,0.0,-0.3992246389389038,0.2853612899780273
-0.2745102345943451,1.1856635808944702,-0.5256578922271729,-0.3013759851455688,-0.2504522502422333,-0.4353079795837402,0.0,0.0,-0.4049318432807922,0.3525335788726806
-0.2799026072025299,1.1787363290786743,-0.5177516937255859,-0.311692327260971,-0.2723971307277679,-0.4388976693153381,0.0,0.0,-0.2150106430053711,0.5745534896850586
-0.2851723134517669,1.1715739965438845,-0.5044586658477783,-0.3226890563964844,-0.2955372631549835,-0.4628026485443115,0.0,0.0,-0.3717213273048401,-0.5016364455223083
-0.2903890609741211,1.1641995906829834,-0.5000394582748413,-0.3323106169700622,-0.3179342150688171,-0.4479387700557709,0.0,0.0,-0.1771271228790283,0.0685839653015136
-0.2955130040645599,1.1566009521484375,-0.4907348752021789,-0.3426297008991241,-0.3405195474624634,-0.4517067968845367,0.0,0.0,0.1803406476974487,0.0234405994415283
-0.3003333508968353,1.149256706237793,-0.4607515931129455,-0.331604391336441,-0.3628875911235809,-0.447361558675766,0.0,0.0,-0.3774814009666443,-0.341033935546875
-0.3050526976585388,1.141688346862793,-0.4506532549858093,-0.3419235944747925,-0.3854486346244812,-0.451221615076065,0.0,0.0,-0.6569303870201111,-0.927114188671112
-0.3097359240055084,1.1339298486709597,-0.4487963616847992,-0.3502468466758728,-0.4063255488872528,-0.4175384044647217,0.0,0.0,0.603268027305603,-0.1304043531417846
-0.3141948580741882,1.1268081665039062,-0.4258520603179931,-0.3224218189716339,-0.4279549121856689,-0.4325870871543884,0.0,0.0,-0.0455743074417114,-0.7724648118019104
-0.3185933232307434,1.1195061206817627,-0.4212415218353271,-0.330325186252594,-0.4482212960720062,-0.405327558517456,0.0,0.0,0.7681002616882324,-0.8249489068984985
-0.3227163851261139,1.1123720407485962,-0.3954083323478699,-0.3226019740104675,-0.4668076336383819,-0.3717267215251922,0.0,0.0,0.3724285364151001,-0.6833900809288025
-0.3264270722866058,1.1059880256652832,-0.3554794192314148,-0.2890723943710327,-0.4841119647026062,-0.3460868000984192,0.0,0.0,0.7895488739013672,-0.6159554719924927
-0.3299208581447601,1.1001657247543335,-0.3346551060676574,-0.2640170156955719,-0.5005962252616882,-0.329684853553772,0.0,0.0,0.7488933801651001,-0.7147727608680725
-0.3330904543399811,1.0951788425445557,-0.3033313453197479,-0.22669617831707,-0.5159903168678284,-0.3078818917274475,0.0,0.0,0.6434677839279175,-0.6548972725868225
-0.3358469009399414,1.0907864570617676,-0.2632291913032532,-0.1999764740467071,-0.5301291346549988,-0.2827762365341186,0.0,0.0,0.8730785846710205,-0.7955403327941895
-0.3381823003292084,1.0875811576843262,-0.2222595959901809,-0.1469322293996811,-0.5430833101272583,-0.2590832412242889,0.0,0.0,0.8414087295532227,-0.7795161604881287
-0.3400343060493469,1.084951877593994,-0.1754091084003448,-0.1208369582891464,-0.5544063448905945,-0.2264606654644012,0.0,0.0,0.9347853660583496,-0.7067031264305115
-0.3416022658348083,1.082750678062439,-0.148099884390831,-0.1014526858925819,-0.5645333528518677,-0.2025401890277862,0.0,0.0,0.7386002540588379,-0.9154149293899536
-0.3428544104099273,1.0807397365570068,-0.1181472986936569,-0.0923925936222076,-0.572813868522644,-0.1656093746423721,0.0,0.0,0.303422212600708,-0.9348034858703612
-0.3439196646213531,1.0789119005203247,-0.1009915024042129,-0.0836319178342819,-0.5793225765228271,-0.1301739513874054,0.0,0.0,0.5068506002426147,-0.8566319346427917
-0.3445170521736145,1.0778309106826782,-0.0556121654808521,-0.0498514138162136,-0.584196150302887,-0.0974728688597679,0.0,0.0,-0.3688015937805176,-0.8765624761581421
-0.3450275361537933,1.076576590538025,-0.0481486320495605,-0.0570310615003109,-0.5876290202140808,-0.0686574727296829,0.0,0.0,-0.6395622491836548,-0.5263002514839172
-0.3454424440860748,1.0751373767852783,-0.0395627841353416,-0.0648234561085701,-0.5899177193641663,-0.0457737818360328,0.0,0.0,-0.0951135158538818,-0.7660490274429321
-0.3457856178283691,1.073522448539734,-0.0338870175182819,-0.0719659700989723,-0.5904250741004944,-0.0101466570049524,0.0,0.0,0.0550500154495239,-0.7183131575584412
-0.345731258392334,1.0723341703414917,0.0047100377269089,-0.052493080496788,-0.5895686149597168,0.0171295292675495,0.0,0.0,-0.2101035118103027,-0.4534568786621094
-0.3455403447151184,1.0709161758422852,0.0185493677854537,-0.0627768486738205,-0.5889204740524292,0.0129627287387847,0.0,0.0,-0.5860650539398193,-0.5107298493385315
-0.3452471792697906,1.069306492805481,0.0279345847666263,-0.0709280222654342,-0.5872789025306702,0.0328313633799552,0.0,0.0,-0.2174511551856994,-0.8424015045166016
-0.3448697924613952,1.0675262212753296,0.0349632464349269,-0.0778949335217475,-0.5839919447898865,0.065739020705223,0.0,0.0,-0.4732424616813659,-0.6293378472328186
-0.3443884253501892,1.0655512809753418,0.0445500388741493,-0.0862068608403205,-0.579757809638977,0.0846827328205108,0.0,0.0,-0.4046519994735718,-0.9159042239189148
-0.3438283503055572,1.063395619392395,0.0510061159729957,-0.0936310067772865,-0.5738597512245178,0.1179609298706054,0.0,0.0,-0.6419907808303833,-0.8292576670646667
-0.3431763052940368,1.061050295829773,0.0590852908790111,-0.1016183272004127,-0.566677987575531,0.1436347514390945,0.0,0.0,-0.6573562026023865,-0.8028575778007507
-0.3424234986305237,1.058513879776001,0.0681911185383796,-0.1097535043954849,-0.5584086179733276,0.1653878390789032,0.0,0.0,-0.3772835731506347,-0.8530449271202087
-0.3415753245353699,1.05578351020813,0.0766775533556938,-0.1179853156208992,-0.5489602088928223,0.1889679282903671,0.0,0.0,-0.2049744129180908,-0.7926708459854126
-0.340636670589447,1.0528783798217771,0.0843720212578773,-0.1252869665622711,-0.5380079746246338,0.2190440893173217,0.0,0.0,-0.5570716857910156,-0.8175400495529175
-0.3396057486534118,1.0497968196868896,0.0922750309109687,-0.1327063292264938,-0.5256081819534302,0.2479956448078155,0.0,0.0,-0.2009881138801574,-0.8689497113227844
-0.3384776711463928,1.0465306043624878,0.100797951221466,-0.1405817866325378,-0.5119534730911255,0.2730947136878967,0.0,0.0,-0.5015743374824524,-0.8979498744010925
-0.3372608721256256,1.0430718660354614,0.1083777770400047,-0.1488166153430938,-0.4969448149204254,0.3001728951931,0.0,0.0,-0.6460333466529846,-0.8319633603096008
-0.3359636664390564,1.039434552192688,0.1147836595773696,-0.1563498228788375,-0.4802457094192505,0.3339821696281433,0.0,0.0,-0.7895477414131165,-0.3858205080032348
-0.3345231115818023,1.0355708599090576,0.1291881054639816,-0.1666527241468429,-0.4637598693370819,0.3297169506549835,0.0,0.0,-0.4789391160011291,-0.5311364531517029
-0.3329775929450989,1.0315093994140625,0.138697013258934,-0.1753266304731369,-0.4463326334953308,0.3485450148582458,0.0,0.0,-0.8857778906822205,-0.3907914757728576
-0.3312884271144867,1.0272215604782104,0.1531280875205993,-0.1856312453746795,-0.4291190803050995,0.3442708849906921,0.0,0.0,-0.9251331090927124,-0.2750823497772217
-0.329455554485321,1.022707462310791,0.1675686985254287,-0.1959352195262909,-0.4121192693710327,0.3399960100650787,0.0,0.0,-0.9629958868026732,-0.433146059513092
-0.3274790644645691,1.0179665088653564,0.1820155531167984,-0.2062385380268097,-0.3953331410884857,0.3357228636741638,0.0,0.0,-0.9298352003097534,-0.2172646522521972
-0.3253590166568756,1.0129992961883545,0.1964654624462127,-0.2165411859750747,-0.3787604868412018,0.3314539790153503,0.0,0.0,-0.97018164396286,-0.447748064994812
-0.3230954110622406,1.007805109024048,0.2109152525663375,-0.2268431335687637,-0.3624008893966675,0.3271920084953308,0.0,0.0,-0.9782016277313232,-0.2306726574897766
-0.3206884264945984,1.0023839473724363,0.2253617793321609,-0.2371444106101989,-0.346253901720047,0.322939932346344,0.0,0.0,-0.9866020083427428,-0.492496132850647
-0.3181381821632385,0.9967360496520996,0.2398019284009933,-0.2474450021982193,-0.3303188681602478,0.3187006413936615,0.0,0.0,-0.9784454107284546,-0.551954984664917
-0.3154778480529785,0.9908816814422609,0.2500272691249847,-0.2566302418708801,-0.3136616945266723,0.3331435024738312,0.0,0.0,-0.990656077861786,-0.3830289244651794
-0.3126745820045471,0.9848002791404724,0.264443963766098,-0.266931802034378,-0.2972148060798645,0.3289380073547363,0.0,0.0,-0.982751190662384,-0.30597984790802
-0.3097284734249115,0.978492021560669,0.2788447737693786,-0.2772325873374939,-0.2809770703315735,0.3247548937797546,0.0,0.0,-0.981453001499176,-0.3899646997451782
-0.3066399097442627,0.971956729888916,0.293226420879364,-0.2875326871871948,-0.2649471759796142,0.3205980360507965,0.0,0.0,-0.9657176733016968,-0.7743115425109863
-0.3034523129463196,0.9652215838432312,0.302076905965805,-0.2964216768741607,-0.2479191869497299,0.3405598402023315,0.0,0.0,-0.971851646900177,-0.6648111343383789
-0.3001670241355896,0.958276629447937,0.3108188211917877,-0.3057774305343628,-0.2299229353666305,0.3599250912666321,0.0,0.0,-0.9682132601737976,-0.300432801246643
-0.2967399954795837,0.9511054754257202,0.3251201510429382,-0.3160817921161651,-0.2121295630931854,0.355867862701416,0.0,0.0,-0.940161108970642,-0.3465397357940674
-0.2931715548038482,0.9437075853347778,0.3393885493278503,-0.3263852894306183,-0.194536879658699,0.3518536984920501,0.0,0.0,-0.927923321723938,-0.5230963826179504
-0.2894976735115051,0.936091125011444,0.3491714000701904,-0.3362217247486114,-0.1762343496084213,0.366050660610199,0.0,0.0,-0.8982404470443726,-0.6357553601264954
-0.2857424616813659,0.9282655119895936,0.3558952212333679,-0.345590740442276,-0.1565934270620346,0.392818421125412,0.0,0.0,-0.8931300640106201,-0.2416420578956604
-0.2818471491336822,0.920214295387268,0.3700394928455353,-0.3558992445468902,-0.1371453553438186,0.3889616727828979,0.0,0.0,-0.8806512951850891,-0.4644571542739868
-0.2778123021125793,0.911937177181244,0.3841348588466644,-0.3662068545818329,-0.1178868561983108,0.3851701021194458,0.0,0.0,-0.8248704075813293,-0.3942865133285522
-0.2736384272575378,0.9034340977668762,0.3981768190860748,-0.3765136301517486,-0.098814345896244,0.3814502358436584,0.0,0.0,-0.8359615802764893,-0.7841535210609436
-0.2693750858306885,0.8947052359580994,0.4060453474521637,-0.3867351710796356,-0.0787021517753601,0.4022441506385803,0.0,0.0,-0.7498790621757507,-0.4766266345977783
-0.2649739384651184,0.8857505321502686,0.4199655652046203,-0.3970442116260528,-0.0587678588926792,0.3986857831478119,0.0,0.0,-0.8206779956817627,-0.3586057424545288
-0.2604358196258545,0.8765702247619629,0.4338176250457763,-0.4073523879051208,-0.0390068776905536,0.3952196836471557,0.0,0.0,-0.7790226936340332,-0.6394913196563721
