x_pos,y_pos,x_vel,y_vel,angle,ang_vel,leg_1,leg_2,main_booster,lat_booster
-0.0016720772255212,1.4035391807556152,-0.1694021672010421,-0.3280419111251831,0.001967295538634,0.0388217940926551,0.0,0.0,-0.5800414085388184,0.871044397354126
-0.0034195899497717,1.3960920572280884,-0.1748981177806854,-0.3309818804264068,0.0021122354082763,0.0028998502530157,0.0,0.0,-0.2707762718200683,0.4349204301834106
-0.0053169252350926,1.388559103012085,-0.1899832487106323,-0.334796279668808,0.0023557946551591,0.004871585406363,0.0,0.0,-0.1979260444641113,0.8725936412811279
-0.0073092458769679,1.3809382915496826,-0.1981873363256454,-0.3387066423892975,0.0013132109306752,-0.0208534635603427,0.0,0.0,-0.3744065761566162,0.4595378637313843
-0.0094519611448049,1.373232126235962,-0.2133222818374633,-0.342497706413269,0.0003725761489477,-0.0188143718987703,0.0,0.0,-0.1526254415512085,0.787527322769165
-0.0116692539304494,1.365439534187317,-0.2189416587352752,-0.3463369011878967,-0.0023785142693668,-0.0550269894301891,0.0,0.0,-0.738892674446106,0.8197810649871826
-0.0139750484377145,1.357561707496643,-0.2263236790895462,-0.3501408994197845,-0.0065866312943398,-0.0841701850295066,0.0,0.0,-0.821658730506897,0.7670571804046631
-0.0163562782108783,1.349600315093994,-0.2320603132247924,-0.3538754880428314,-0.0125834438949823,-0.1199470981955528,0.0,0.0,-0.594169020652771,0.6637454032897949
-0.0188371650874614,1.3415603637695312,-0.2408268451690673,-0.3574024438858032,-0.0197603981941938,-0.1435524672269821,0.0,0.0,-0.554236650466919,0.8064384460449219
-0.0214055068790912,1.3334393501281738,-0.2480727881193161,-0.361078530550003,-0.0284236930310726,-0.1732817888259887,0.0,0.0,-0.8217483162879944,0.5886173248291016
-0.0240718834102153,1.3252321481704712,-0.256641685962677,-0.3649825155735016,-0.0383094660937786,-0.1977340877056121,0.0,0.0,-0.8545368909835815,-0.1453121304512024
-0.0268892291933298,1.3169407844543457,-0.2718658149242401,-0.3687811195850372,-0.0480832941830158,-0.1954941153526306,0.0,0.0,-0.6986554861068726,0.2092163562774658
-0.029857825487852,1.308565378189087,-0.2870993316173553,-0.3725796341896057,-0.0577444471418857,-0.1932406574487686,0.0,0.0,-0.6235079169273376,0.4996103048324585
-0.0329775810241699,1.3001058101654053,-0.3023405969142914,-0.3763779401779175,-0.0672915279865264,-0.1909590065479278,0.0,0.0,-0.8522083759307861,0.3175828456878662
-0.0362484939396381,1.2915618419647217,-0.3175875842571258,-0.3801762759685516,-0.0767234042286872,-0.1886543929576873,0.0,0.0,-0.908766269683838,0.7156233787536621
-0.0396047607064247,1.2829179763793943,-0.3245335221290588,-0.3847751319408417,-0.087721861898899,-0.2199888527393341,0.0,0.0,-0.9209913611412048,-0.2191498875617981
-0.0431120879948139,1.2741903066635132,-0.3397825360298157,-0.3885765373706817,-0.0986019447445869,-0.2176213711500167,0.0,0.0,-0.7513221502304077,-0.3618596792221069
-0.0467706695199012,0.0,-0.3550330996513366,-0.3923779726028442,-0.1093636900186538,-0.2152542769908905,0.0,0.0,-0.7650917768478394,0.4828604459762573
-0.0505804046988487,1.2564828395843506,-0.3702833950519562,-0.39617919921875,-0.1200058236718177,-0.2128615826368332,0.0,0.0,-0.6054276823997498,0.6884932518005371
-0.0544946677982807,1.2474945783615112,-0.3796657919883728,-0.4004672765731811,-0.1317162960767746,-0.2342305928468704,0.0,0.0,-0.8885114192962646,-0.0384224653244018
-0.0585597977042198,1.2384225130081177,-0.3949071764945984,-0.4042710661888122,-0.1433045417070388,-0.2317855656147003,0.0,0.0,-0.7070554494857788,-0.7576417922973633
-0.0628344565629959,1.2292745113372805,-0.4174771308898926,-0.4075620472431183,-0.1532886326313018,-0.199699655175209,0.0,0.0,-0.750443696975708,0.0218499898910522
-0.0672600716352462,1.22004234790802,-0.4327119886875152,-0.4113627970218658,-0.1631501317024231,-0.1972473710775375,0.0,0.0,-0.8864379525184631,0.7914202213287354
-0.0717687606811523,1.2107003927230835,-0.4393829703330993,-0.4164988398551941,-0.1746603101491928,-0.2302244454622268,0.0,0.0,-0.6572701930999756,0.0327255725860595
-0.0764278396964073,1.2012743949890137,-0.4545926451683044,-0.4203032851219177,-0.1860446780920028,-0.2277074307203292,0.0,0.0,-0.5906513333320618,-0.0091925263404846
-0.0812404602766037,1.1917433738708496,-0.4700555205345154,-0.4250448048114776,-0.1973045319318771,-0.2251971662044525,0.0,0.0,-0.7815355062484741,0.5751248598098755
-0.086158275604248,1.1821186542510986,-0.4795869290828705,-0.4294374287128448,-0.2096007764339447,-0.2459249496459961,0.0,0.0,-0.7699602842330933,0.0959235429763794
-0.091226577758789,1.1724101305007937,-0.4947856962680816,-0.4332371354103088,-0.2217737138271331,-0.2434588223695755,0.0,0.0,-0.6939258575439453,-0.4409315586090088
-0.0964451804757118,1.1626180410385132,-0.5099652409553528,-0.4370364844799042,-0.2338238805532455,-0.2410032302141189,0.0,0.0,-0.5464320778846741,0.2928433418273926
-0.101813793182373,1.1527421474456787,-0.525123119354248,-0.4408354163169861,-0.2457518279552459,-0.2385589182376861,0.0,0.0,-0.7763979434967041,0.0414704084396362
-0.10733213275671,1.1427825689315796,-0.5402569770812988,-0.4446339905261993,-0.2575581669807434,-0.2361268699169159,0.0,0.0,-0.6208304762840271,-0.2800266146659851
-0.1130001097917556,1.1327389478683472,-0.5553641319274902,-0.4484321773052215,-0.2692435681819916,-0.2337075769901275,0.0,0.0,-0.5573126077651978,-0.2250490188598632
-0.1188172325491905,1.122611165046692,-0.5704415440559387,-0.4522300064563751,-0.2808086574077606,-0.2313019335269928,0.0,0.0,-0.7731724977493286,-0.1187578439712524
-0.124783419072628,1.1123995780944824,-0.5854861736297607,-0.4560275077819824,-0.2922541797161102,-0.2289102971553802,0.0,0.0,-0.658412516117096,-0.0236223340034484
-0.1308979988098144,1.1021039485931396,-0.6004946231842041,-0.4598246216773987,-0.3035808801651001,-0.2265339344739914,0.0,0.0,-0.8720059394836426,-0.3679934740066528
-0.1371607780456543,1.0917242765426636,-0.615463137626648,-0.463621437549591,-0.3147895634174347,-0.2241737395524978,0.0,0.0,-0.8359760642051697,-0.1423946619033813
-0.1435712873935699,1.0812604427337646,-0.6303879022598267,-0.4674178659915924,-0.3258810639381408,-0.2218304574489593,0.0,0.0,-0.8635058403015137,0.0731830596923828
-0.1501291245222091,1.0707120895385742,-0.6452644467353821,-0.4712139964103699,-0.336856335401535,-0.2195052206516266,0.0,0.0,-0.7132958769798279,-0.2296591997146606
-0.1568335592746734,1.060079574584961,-0.6600881218910217,-0.4750098288059234,-0.3477163016796112,-0.2171989977359771,0.0,0.0,-0.7984974980354309,0.0191094875335693
-0.1636843681335449,1.0493626594543457,-0.6748536825180054,-0.4788053333759308,-0.3584619462490082,-0.2149129211902618,0.0,0.0,-0.5680578351020813,0.3162126541137695
-0.1706805229187011,1.0385615825653076,-0.6895557045936584,-0.4826005399227142,-0.3690943419933319,-0.2126480042934417,0.0,0.0,-0.7357694506645203,0.5827417373657227
-0.1777704209089279,1.0276451110839844,-0.6977108716964722,-0.488128513097763,-0.3810606300830841,-0.2393260449171066,0.0,0.0,-0.3049315214157104,0.090085744857788
-0.185004323720932,1.0166447162628174,-0.7122682332992554,-0.4919256865978241,-0.3929159939289093,-0.2371074706315994,0.0,0.0,-0.3740185499191284,0.4659360647201538
-0.1923813819885254,1.0055601596832275,-0.7267419099807739,-0.4957225918769836,-0.4046617448329925,-0.2349148988723755,0.0,0.0,-0.0498096346855163,0.2577486038208008
-0.1999006271362304,0.9943913221359252,-0.7411240339279175,-0.4995191395282745,-0.4162992238998413,-0.2327498197555542,0.0,0.0,0.0587583780288696,0.0040611028671264
-0.207447811961174,0.9834142923355104,-0.7441794276237488,-0.4910154342651367,-0.4276937246322632,-0.227890208363533,0.0,0.0,0.1576694250106811,0.6016983985900879
-0.2149199992418289,0.9727186560630798,-0.7357513308525085,-0.4788973033428192,-0.4401674568653106,-0.2494748830795288,0.0,0.0,0.6540311574935913,0.2060073614120483
-0.2222771644592285,0.9631437659263612,-0.7239378094673157,-0.4293044805526733,-0.4530580639839172,-0.2578124403953552,0.0,0.0,0.5036046504974365,0.1107523441314697
-0.2295664846897125,0.9545316696166992,-0.7168093919754028,-0.3867502212524414,-0.4664053916931152,-0.266945868730545,0.0,0.0,0.4020206928253174,0.6183843612670898
-0.2367726266384124,0.9463934898376464,-0.7074620127677917,-0.3661839365959167,-0.4809883236885071,-0.2916585803031921,0.0,0.0,0.5193898677825928,0.2123112678527832
-0.2437532842159271,0.9387785792350768,-0.6856421828269958,-0.3428255319595337,-0.4948630034923553,-0.2774941623210907,0.0,0.0,0.7441024780273438,0.3389558792114258
-0.2505508065223694,0.9321498870849608,-0.6672582626342773,-0.2991648316383362,-0.5089229941368103,-0.2812000811100006,0.0,0.0,0.694311261177063,0.0810053348541259
-0.2571591436862945,0.9259529113769532,-0.6489790081977844,-0.2798937261104584,-0.5223707556724548,-0.2689554095268249,0.0,0.0,0.8161724805831909,0.2932264804840088
-0.263455867767334,0.9208095073699952,-0.6179987192153931,-0.2331417948007583,-0.5357109904289246,-0.2668046951293945,0.0,0.0,0.8408608436584473,0.4619916677474975
-0.2694592475891113,0.9161556363105774,-0.5895004868507385,-0.2111821621656417,-0.548194408416748,-0.2496685534715652,0.0,0.0,0.8888896703720093,0.3106230497360229
-0.2753995060920715,0.912192702293396,-0.5829103589057922,-0.1807099282741546,-0.5610968470573425,-0.258048951625824,0.0,0.0,0.7885819673538208,0.4101190567016601
-0.2809162735939026,0.909160315990448,-0.5411214232444763,-0.1392487585544586,-0.5734448432922363,-0.2469600439071655,0.0,0.0,0.8442788124084473,0.0762878656387329
-0.2860141694545746,0.9068669080734252,-0.4999927878379822,-0.1061939969658851,-0.5849994421005249,-0.23109170794487,0.0,0.0,0.8319308757781982,0.640569806098938
-0.2906056940555572,0.9055213332176208,-0.4485248625278473,-0.0645482987165451,-0.5976293683052063,-0.2525971233844757,0.0,0.0,0.8281593322753906,0.3219615221023559
-0.2948901653289795,0.9052411317825316,-0.4176520407199859,-0.0174131914973258,-0.6105741858482361,-0.2588958740234375,0.0,0.0,0.8361384868621826,0.0233285427093505
-0.2990011274814605,0.905333697795868,-0.4006690979003906,-0.0008043989655561,-0.623184084892273,-0.2521983683109283,0.0,0.0,0.7520051002502441,-0.3340744972229004
-0.3028694689273834,0.906341314315796,-0.3761565089225769,0.0396082997322082,-0.6362175345420837,-0.2606692016124725,0.0,0.0,0.6780970096588135,-0.6296312808990479
-0.3064577579498291,0.9078200459480286,-0.3496529757976532,0.0611578598618507,-0.6475204825401306,-0.2260577380657196,0.0,0.0,0.3083434104919433,-0.6478542685508728
-0.3098732829093933,0.9098224639892578,-0.3336673676967621,0.0849824771285057,-0.6573171019554138,-0.1959323585033416,0.0,0.0,0.721237063407898,-0.64102703332901
-0.3131603598594665,0.912269651889801,-0.3220484852790832,0.1053106114268302,-0.6656443476676941,-0.1665449440479278,0.0,0.0,0.3774361610412597,-0.5554758310317993
-0.3163524568080902,0.915356993675232,-0.3134133219718933,0.1341616958379745,-0.672928512096405,-0.1456848084926605,0.0,0.0,-0.3579822778701782,-0.638331413269043
-0.3196607530117035,0.9184094071388244,-0.3261915147304535,0.1331770122051239,-0.6787996888160706,-0.1174234524369239,0.0,0.0,-0.0304839015007019,-0.288327693939209
-0.3230457901954651,0.921376407146454,-0.3339201807975769,0.1293877214193344,-0.6846247315406799,-0.1165003553032875,0.0,0.0,0.0621839761734008,-0.5504084825515747
-0.3261697888374328,0.9249226450920104,-0.3088496327400207,0.1556699723005294,-0.6891600489616394,-0.0907062590122222,0.0,0.0,-0.1053831577301025,0.0872373580932617
-0.3293584883213043,0.9283836483955384,-0.3153620660305023,0.1518812179565429,-0.6936573386192322,-0.0899457484483718,0.0,0.0,0.1465110778808593,-0.0243657231330871
-0.3323540091514587,0.9323623180389404,-0.295852392911911,0.1747675836086273,-0.6984155178070068,-0.0951651781797409,0.0,0.0,-0.3636762499809265,-0.1797693371772766
-0.3354010581970215,0.9362557530403136,-0.3010436296463012,0.1709782630205154,-0.7031441926956177,-0.0945752784609794,0.0,0.0,-0.2944133281707763,0.0044660568237304
-0.3384926915168762,0.9400638937950134,-0.3055394887924194,0.1671887189149856,-0.7078478336334229,-0.09407339990139,0.0,0.0,-0.1710320711135864,-0.0273998975753784
-0.3416218757629394,0.9437866806983948,-0.3093205094337463,0.1633989810943603,-0.7125309109687805,-0.0936606973409652,0.0,0.0,0.0724925994873046,0.0913197994232177
-0.3446318507194519,0.9477340579032898,-0.2973511815071106,0.1733253747224807,-0.7172991037368774,-0.0953633040189743,0.0,0.0,-0.3369499444961548,0.1045507192611694
-0.3476646840572357,0.9515962600708008,-0.2996576428413391,0.1695351153612136,-0.7220556735992432,-0.0951313227415084,0.0,0.0,-0.5906357169151306,-0.0155845880508422
-0.3507128357887268,0.955373227596283,-0.3012115657329559,0.1657446175813675,-0.7268050909042358,-0.0949899405241012,0.0,0.0,-0.1663320064544677,0.5826919078826904
-0.3537332415580749,0.9590250849723816,-0.2974991500377655,0.15959432721138,-0.7328187227249146,-0.1202723607420921,0.0,0.0,-0.4677841663360595,-0.0725545287132263
-0.3567537665367126,0.96259206533432,-0.2975386083126068,0.1558024883270263,-0.7388342022895813,-0.1203102841973304,0.0,0.0,-0.1794593334197998,0.1525026559829712
-0.3597670197486877,0.9660740494728088,-0.2968231439590454,0.152010440826416,-0.7448559999465942,-0.1204359680414199,0.0,0.0,0.0319797992706298,-0.0155278444290161
-0.3626846373081207,0.9697816371917723,-0.2869980037212372,0.1618394255638122,-0.7512621879577637,-0.1281243115663528,0.0,0.0,-0.6045365929603577,-0.1727641224861145
-0.3655800819396972,0.9734047055244446,-0.2847984433174133,0.1580465734004974,-0.7576831579208374,-0.1284193694591522,0.0,0.0,-0.5880507230758667,0.3945145606994629
-0.3684461712837219,0.976942777633667,-0.2818766832351684,0.1542535275220871,-0.7641229033470154,-0.1287952363491058,0.0,0.0,-0.5071475505828857,0.311578631401062
-0.3712758123874664,0.980396330356598,-0.278250515460968,0.1504602432250976,-0.7705853581428528,-0.1292489022016525,0.0,0.0,-0.0578652620315551,0.4285931587219238
-0.3740622401237488,0.9837653040885924,-0.2739405035972595,0.1466667354106903,-0.7770742177963257,-0.1297771036624908,0.0,0.0,-0.2681723833084106,0.1392686367034912
-0.376798927783966,0.987049639225006,-0.2689695954322815,0.142873004078865,-0.7835930585861206,-0.130376249551773,0.0,0.0,-0.3072190284729004,0.1415404081344604
-0.3794794678688049,0.9902493953704834,-0.2633629441261291,0.1390790492296219,-0.790145218372345,-0.1310427337884903,0.0,0.0,-0.2311494350433349,0.2635258436203003
-0.3820978105068207,0.9933646321296692,-0.2571471333503723,0.135284885764122,-0.7967338562011719,-0.1317727267742157,0.0,0.0,-0.2735600471496582,0.2727296352386474
-0.3846481442451477,0.996395468711853,-0.2503499388694763,0.1314905136823654,-0.8033619523048401,-0.1325623691082,0.0,0.0,-0.2747434377670288,0.3518047332763672
-0.3871249258518219,0.9993417263031006,-0.2429999411106109,0.1276959329843521,-0.8100323677062988,-0.1334077268838882,0.0,0.0,0.1909170150756836,0.0910776853561401
-0.3891335427761078,1.0027682781219482,-0.1961692422628402,0.1489801257848739,-0.8167665600776672,-0.1346832662820816,0.0,0.0,-0.6193488240242004,0.2227391004562378
-0.3910585045814514,1.0061103105545044,-0.1878005713224411,0.1451851576566696,-0.8235479593276978,-0.1356283724308014,0.0,0.0,-0.326035737991333,0.2126420736312866
-0.3928950726985931,1.009368062019348,-0.1789658367633819,0.1413900405168533,-0.8303788304328918,-0.1366176009178161,0.0,0.0,-0.608936607837677,0.510806679725647
-0.394610732793808,1.012487292289734,-0.1659476906061172,0.1345082819461822,-0.8386277556419373,-0.1649789810180664,0.0,0.0,-0.4763878583908081,0.2724883556365967
-0.3962294161319732,1.0155223608016968,-0.1562669575214386,0.1307116597890854,-0.8469299674034119,-0.1660437881946563,0.0,0.0,-0.38447105884552,0.1660783290863037
-0.3977473378181457,1.018473505973816,-0.1462027877569198,0.1269149035215377,-0.8552870154380798,-0.1671405136585235,0.0,0.0,-0.4164069890975952,0.1930621862411499
-0.399160772562027,1.0213406085968018,-0.1357809007167816,0.1231180280447006,-0.863700270652771,-0.1682656556367874,0.0,0.0,-0.2699842453002929,-0.1408005952835083
-0.4004665911197662,1.0241236686706543,-0.1250258982181549,0.1193210259079933,-0.8721710443496704,-0.1694159358739853,0.0,0.0,-0.4042483568191528,-0.1579788327217102
-0.4016614854335785,1.0268223285675049,-0.1139611974358558,0.115523912012577,-0.8807004690170288,-0.17058826982975,0.0,0.0,-0.4359666109085083,-0.2325841188430786
-0.4027427732944488,1.0294370651245115,-0.1026089638471603,0.1117266863584518,-0.8892894387245178,-0.1717796921730041,0.0,0.0,-0.4217641353607178,0.1011475324630737
-0.4037075936794281,1.0319678783416748,-0.0909902080893516,0.10792937874794,-0.8979387879371643,-0.1729873716831207,0.0,0.0,-0.5641301870346069,0.313145637512207
-0.4045535922050476,1.034414529800415,-0.0791246443986892,0.1041319742798805,-0.9066492319107056,-0.1742086708545684,0.0,0.0,-0.2189584970474243,-0.0771164894104003
-0.4052784442901611,1.0367772579193115,-0.0670308023691177,0.100334495306015,-0.9154213070869446,-0.1754411160945892,0.0,0.0,-0.3582391738891601,0.0883333683013916
-0.4058799743652344,1.0390560626983645,-0.0547260157763958,0.0965369567275047,-0.9242554306983948,-0.1766822785139084,0.0,0.0,-0.1835750341415405,-0.7318761944770813
-0.4063816964626312,1.0413084030151367,-0.0456198565661907,0.0960559025406837,-0.9317429661750792,-0.1497494578361511,0.0,0.0,-0.2143720388412475,-0.636844277381897
-0.4067855477333069,1.0435256958007812,-0.0366372875869274,0.095163308084011,-0.9379715919494628,-0.1245720982551574,0.0,0.0,-0.1825313568115234,-0.0175927877426147
-0.4070609509944916,1.0456587076187134,-0.0237882398068904,0.0913676396012306,-0.9442632794380188,-0.1258333772420883,0.0,0.0,-0.4212792515754699,0.30208420753479
-0.4072064459323883,1.047707438468933,-0.0107865631580352,0.0875719338655471,-0.9506182670593262,-0.1270994246006012,0.0,0.0,-0.1676316857337951,0.5975508689880371
-0.4071839451789856,1.049607276916504,0.0070155831053853,0.0799567028880119,-0.9587522149086,-0.1626794040203094,0.0,0.0,-0.3847694396972656,0.6197820901870728
-0.4069979190826416,1.051357984542847,0.0242891386151313,0.0723606348037719,-0.9685842394828796,-0.1966414451599121,0.0,0.0,-0.6545124053955078,0.8331813812255859
-0.40663743019104,1.0529524087905884,0.0427825488150119,0.0642619282007217,-0.980396568775177,-0.2362464666366577,0.0,0.0,-0.4634274244308471,0.669058084487915
-0.4061064720153808,1.0543971061706543,0.0606868937611579,0.0565392635762691,-0.9939935803413392,-0.2719407677650451,0.0,0.0,-0.6702752709388733,0.2265650033950805
-0.4054385125637054,1.055758357048035,0.0742709785699844,0.0527368895709514,-1.0076525211334229,-0.2731784880161285,0.0,0.0,-0.2977398633956909,0.3374836444854736
-0.4046325087547302,1.057036519050598,0.0879463627934455,0.048934631049633,-1.0213725566864014,-0.2744013369083404,0.0,0.0,-0.48603355884552,0.8480374813079834
-0.4036623537540436,1.0581656694412231,0.1050556898117065,0.0412950366735458,-1.0367388725280762,-0.3073262274265289,0.0,0.0,-0.3973008394241333,0.7657589912414551
-0.4025236666202545,1.0591394901275637,0.122611328959465,0.0332528986036777,-1.0539213418960571,-0.3436492085456848,0.0,0.0,-0.4176448583602905,0.7634257078170776
-0.4012145102024078,1.0599517822265625,0.1403507143259048,0.0248094741255044,-1.073064208030701,-0.3828581869602203,0.0,0.0,-0.2710331678390503,0.6706404685974121
-0.3997367322444916,1.0605981349945068,0.1578303277492523,0.0160989835858345,-1.0942271947860718,-0.4232588410377502,0.0,0.0,-0.210070788860321,0.6710306406021118
-0.3980861306190491,1.06108558177948,0.175574392080307,0.0077388347126543,-1.1173145771026611,-0.4617470800876617,0.0,0.0,-0.5039916038513184,0.7348030805587769
-0.3962606489658355,1.0614171028137207,0.193383514881134,-0.0005158596904948,-1.142291784286499,-0.4995442032814026,0.0,0.0,-0.5376938581466675,0.542625904083252
