x_pos,y_pos,x_vel,y_vel,angle,ang_vel,leg_1,leg_2,main_booster,lat_booster
-0.0015366554725915,1.403001308441162,-0.1553425192832946,-0.3519430756568908,0.001493519055657,0.0294410642236471,0.0,0.0,-0.1117904000229679,-0.5739045807631508
-0.0031271935440599,1.394479751586914,-0.161299243569374,-0.3787373006343841,0.0037180525250732,0.0444957353174686,0.0,0.0,-0.8388993973354675,-0.8552260819190164
-0.0047815321013331,1.38532817363739,-0.1687653809785843,-0.4067461192607879,0.007011279463768,0.0658707544207573,0.0,0.0,-0.4426656181397854,0.7231853535263215
-0.0064007760956883,1.3755518198013306,-0.163860946893692,-0.4345209002494812,0.0089289778843522,0.0383575186133384,0.0,0.0,-0.643541469660758,0.1127402115063951
-0.0080292699858546,1.3651522397994995,-0.1645934283733368,-0.4622133374214172,0.0106427604332566,0.0342791266739368,0.0,0.0,-0.5904658984523412,0.015327465051242
-0.0096661569550633,1.3541295528411863,-0.1652324050664901,-0.489905834197998,0.0121746305376291,0.0306399576365947,0.0,0.0,0.904500906821706,0.5482019317248533
-0.0113025661557912,1.3434826135635376,-0.1638475954532623,-0.4731998741626739,0.0123797301203012,0.0041022067889571,0.0,0.0,-0.6633009164515649,-0.3010826142972295
-0.0129445074126124,1.3322123289108276,-0.1642739325761795,-0.500900387763977,0.0124524775892496,0.0014550838386639,0.0,0.0,-0.9405568864227668,0.0251381798015353
-0.0145907402038574,1.3203190565109253,-0.1645862162113189,-0.5285895466804504,0.0124173611402511,-0.0007022102363407,0.0,0.0,0.1188312745443014,0.890377856743989
-0.016176413744688,1.3085473775863647,-0.1566559970378875,-0.523171067237854,0.0105361407622694,-0.0376280173659324,0.0,0.0,0.6300720063456771,-0.8066192425257552
-0.0177387241274118,1.297033190727234,-0.156066745519638,-0.511735737323761,0.0103738792240619,-0.0032455667387694,0.0,0.0,-0.2617254331156142,-0.4592742998465158
-0.0193006508052349,1.2848960161209106,-0.1559979021549224,-0.5394325256347656,0.0101815918460488,-0.0038465089164674,0.0,0.0,-0.2498817408760199,-0.0540836427023798
-0.0208605770021677,1.2721357345581057,-0.1557894945144653,-0.5671229958534241,0.009987655095756,-0.0038792199920862,0.0,0.0,-0.4524830291198913,-0.6608248711236634
-0.0224627498537302,1.2587454319000244,-0.1612220406532287,-0.5951278805732727,0.010978820733726,0.0198252480477094,0.0,0.0,0.7866277279840816,0.5223400892317681
-0.0238658897578716,1.2460780143737793,-0.1407963782548904,-0.5629974007606506,0.0114602129906415,0.0096286414191126,0.0,0.0,0.8002862738075691,0.8570709039513833
-0.0250658988952636,1.2332665920257568,-0.1191002130508422,-0.5693913698196411,0.0105712097138166,-0.017781738191843,0.0,0.0,0.5102438646164751,-0.0597191101912994
-0.0261389724910259,1.2210067510604858,-0.1071092709898948,-0.5448691248893738,0.0103765092790126,-0.0038945481646806,0.0,0.0,-0.420741396914281,0.0622893221358659
-0.027200985699892,1.208124041557312,-0.1061319932341575,-0.572569727897644,0.0103081716224551,-0.0013669080799445,0.0,0.0,0.2749968310874877,-0.1315807011029423
-0.0281814578920602,1.1955486536026,-0.0984841957688331,-0.5589110255241394,0.0107418671250343,0.0086746849119663,0.0,0.0,0.7337145504929439,0.5051192884109476
-0.0292035099118948,1.1832398176193235,-0.1015359312295913,-0.5470557808876038,0.0100847538560628,-0.0131435198709368,0.0,0.0,0.973900234050182,-0.4979964665275499
-0.0300651546567678,1.1716575622558594,-0.0864267125725746,-0.5147695541381836,0.0103357173502445,0.0050196005031466,0.0,0.0,0.929718003538168,-0.6266647022853602
-0.03094825707376,1.1602232456207275,-0.090085469186306,-0.5082080364227295,0.0120873535051941,0.035036202520132,0.0,0.0,0.1361842767077226,-0.0188196158682223
-0.0317258834838867,1.1487292051315308,-0.0801947638392448,-0.5108729600906372,0.0144904060289263,0.0480654649436473,0.0,0.0,0.8134119441223051,0.723946057684262
-0.0323450081050396,1.1371208429336548,-0.0633447766304016,-0.5159376263618469,0.0158988051116466,0.0281706452369689,0.0,0.0,0.489967050089289,-0.0422170443810425
-0.0330767631530761,1.1257569789886477,-0.0742755234241485,-0.5050725340843201,0.016986645758152,0.0217588655650615,0.0,0.0,-0.3578475153728127,0.831303404981753
-0.0337316505610942,1.1137542724609375,-0.0656182393431663,-0.5334542393684387,0.0171104446053504,0.0024761531967669,0.0,0.0,0.1815632976871,-0.8804379527854943
-0.0344332680106163,1.1019116640090942,-0.0723685845732688,-0.5263665914535522,0.0192909408360719,0.0436101220548152,0.0,0.0,-0.3913905634481405,0.6155085420890746
-0.0350660309195518,1.0894538164138794,-0.0648397356271743,-0.5537127256393433,0.0208314526826143,0.0308103021234273,0.0,0.0,-0.9833097278205112,0.2594424527424549
-0.0356660857796669,1.076372742652893,-0.0619036741554737,-0.5814043283462524,0.0227041579782962,0.0374539010226726,0.0,0.0,0.4195158629734481,-0.2358762788735955
-0.036259077489376,1.0632964372634888,-0.061453603208065,-0.5812006592750549,0.0248377416282892,0.0426718071103096,0.0,0.0,-0.9130535868528292,0.8964282342986813
-0.0367424003779888,1.0496101379394531,-0.0489931479096412,-0.6082913279533386,0.0254876427352428,0.0129982698708772,0.0,0.0,-0.9002147316932678,-0.1230010986328125
-0.0371871963143348,1.0353010892868042,-0.045510184019804,-0.635982871055603,0.0265033803880214,0.0203149039298295,0.0,0.0,-0.9017625451087952,-0.3307566046714782
-0.0375915542244911,1.0203689336776731,-0.0418478026986122,-0.6636745929718018,0.0278943423181772,0.0278193354606628,0.0,0.0,-0.8243831396102905,-0.1312280297279358
-0.0379536636173725,1.0048139095306396,-0.0380080863833427,-0.6913664937019348,0.0296690929681062,0.0354950726032257,0.0,0.0,-0.4158521294593811,0.8526670932769775
-0.0382023826241493,0.9886409640312196,-0.0253052469342947,-0.7188076376914978,0.0300934072583913,0.008486540056765,0.0,0.0,-0.2268174290657043,-0.38931405544281
-0.0384051315486431,0.9718450307846068,-0.0211186036467552,-0.7464994788169861,0.0309163872152566,0.0164596308022737,0.0,0.0,-0.166126549243927,0.4933663606643677
-0.0385603904724121,0.954426407814026,-0.0167630575597286,-0.7741914391517639,0.0321444533765316,0.0245611034333705,0.0,0.0,0.3340518474578857,0.5572690963745117
-0.0386084541678428,0.9373143315315248,-0.0054160896688699,-0.7605486512184143,0.0327465124428272,0.0120413172990083,0.0,0.0,-0.3733118176460266,0.301302433013916
-0.0386055000126361,0.919579267501831,-0.0007335254340432,-0.7882405519485474,0.0337647162377834,0.0203641019761562,0.0,0.0,0.5680419206619263,0.3606338500976562
-0.0385425575077533,0.9020878672599792,0.0047158380039036,-0.7774349451065063,0.035327885299921,0.0312630869448185,0.0,0.0,-0.147135317325592,0.8317427635192871
-0.0383713729679584,0.8839834332466125,0.0164832212030887,-0.8046557903289795,0.0359540805220603,0.0125241056084632,0.0,0.0,0.3170195817947387,0.8415114879608154
-0.03798084333539,0.8658894896507263,0.0395643711090087,-0.80416339635849,0.035447608679533,-0.0101292375475168,0.0,0.0,0.3111783266067505,0.0378162860870361
-0.0374648086726665,0.8475500345230103,0.0513129234313964,-0.8150995373725891,0.0357302986085414,0.0056538814678788,0.0,0.0,0.2076400518417358,0.7822220325469971
-0.0367593765258789,0.8291729688644409,0.0713161751627922,-0.8167389035224915,0.0349719524383544,-0.0151672344654798,0.0,0.0,0.280335783958435,0.5812523365020752
-0.035990335047245,0.8105089068412781,0.0784697085618972,-0.8294762969017029,0.033428955823183,-0.0308599807322025,0.0,0.0,0.0166462659835815,0.7623857259750366
-0.0350734703242778,0.7915273308753967,0.0943202823400497,-0.8435718417167664,0.030826386064291,-0.0520515143871307,0.0,0.0,0.3701775074005127,-0.5045797824859619
-0.034090805798769,0.7724764943122864,0.0993094891309738,-0.8466840982437134,0.0298032406717538,-0.0204629339277744,0.0,0.0,0.0570024251937866,0.5584368705749512
-0.0330962166190147,0.753606915473938,0.1012879982590675,-0.8386096358299255,0.0279885083436965,-0.036294512450695,0.0,0.0,0.3958077430725097,0.1497870683670044
-0.032167624682188,0.7351083755493164,0.0947771817445755,-0.8221274614334106,0.0261022802442312,-0.0377246215939521,0.0,0.0,0.0006431341171264,-0.5280762910842896
-0.0312371253967285,0.7164450883865356,0.0934625938534736,-0.829472541809082,0.0256927050650119,-0.0081916442140936,0.0,0.0,-0.5064960718154907,0.4926092624664306
-0.0302398689091205,0.697158932685852,0.0996918752789497,-0.8571643829345703,0.0257332529872655,0.0008108916808851,0.0,0.0,0.281813383102417,0.4583204984664917
-0.0292340274900198,0.6781052350997925,0.1002855747938156,-0.8468372821807861,0.0260185915976762,0.0057070897892117,0.0,0.0,0.4349435567855835,0.3807306289672851
-0.028074836358428,0.6590113043785095,0.1147312745451927,-0.8486390709877014,0.0271958373486995,0.02354496717453,0.0,0.0,-0.5607199668884277,-0.0912047624588012
-0.0268462188541889,0.6392945647239685,0.1212092414498329,-0.8763310313224792,0.0288268402218818,0.0326199531555175,0.0,0.0,0.1703332662582397,-0.033033549785614
-0.0254520419985055,0.6194774508476257,0.1368180811405182,-0.880813717842102,0.031400840729475,0.0514797940850257,0.0,0.0,0.9127819538116456,-0.3087458610534668
-0.0241147987544536,0.5998502373695374,0.1311765909194946,-0.8723757863044739,0.0339187234640121,0.050357811152935,0.0,0.0,0.9592745304107666,-0.0744301080703735
-0.0226268768310546,0.5810228586196899,0.1452584564685821,-0.8368539810180664,0.0374088175594806,0.0698017105460167,0.0,0.0,0.283799409866333,-0.239831805229187
-0.0209795944392681,0.5623644590377808,0.1602242141962051,-0.8293781280517578,0.0418521948158741,0.0888676419854164,0.0,0.0,0.7438678741455078,-0.1667460203170776
-0.0192178729921579,0.5443910956382751,0.1708509624004364,-0.7989766597747803,0.0471183396875858,0.105322852730751,0.0,0.0,0.5398328304290771,-0.3711037635803222
-0.017488956451416,0.5268876552581787,0.1674263775348663,-0.7781131863594055,0.0525146871805191,0.1079270243644714,0.0,0.0,0.3113043308258056,0.1774885654449463
-0.0156622882932424,0.5092054605484009,0.176556795835495,-0.7861053347587585,0.0585581846535205,0.1208699569106102,0.0,0.0,0.7853901386260986,0.051274299621582
-0.013915347866714,0.4920265078544616,0.168632835149765,-0.7637574672698975,0.0645601749420166,0.1200397238135337,0.0,0.0,0.4504536390304565,-0.0647922754287719
-0.0120164873078465,0.4749156534671783,0.1828472316265106,-0.7608029842376709,0.0715240910649299,0.1392781436443328,0.0,0.0,0.7912626266479492,0.1635267734527588
-0.0100667001679539,0.4581798911094665,0.1873573511838913,-0.7441934943199158,0.0790670216083526,0.1508589833974838,0.0,0.0,0.5452022552490234,0.7002453804016113
-0.0080101015046238,0.441385269165039,0.1989606469869613,-0.7467983365058899,0.0856937542557716,0.1325345635414123,0.0,0.0,0.2964311838150024,0.0848506689071655
-0.0060174940153956,0.4246492683887481,0.1925696730613708,-0.7442194223403931,0.0923330262303352,0.1327852308750152,0.0,0.0,0.7923203706741333,-0.1631247997283935
-0.0040147779509425,0.4086813926696777,0.1929986327886581,-0.7101498246192932,0.0995423942804336,0.1441871523857116,0.0,0.0,0.5463443994522095,0.0945909023284912
-0.0018908500205725,0.3925118446350097,0.2043070346117019,-0.7192060947418213,0.1075700148940086,0.1605524122714996,0.0,0.0,0.6658720970153809,-0.5740500092506409
0.0001957893400685,0.3770086765289306,0.1988884061574936,-0.6897628307342529,0.117278017103672,0.1941599249839782,0.0,0.0,0.5222856998443604,0.5838651657104492
0.0022552490700036,0.3615230917930603,0.1971013396978378,-0.688964307308197,0.1260665953159332,0.1757719218730926,0.0,0.0,0.8424183130264282,0.5976942777633667
0.0042280196212232,0.3465306162834167,0.1894787400960922,-0.6670116782188416,0.133833110332489,0.1553302705287933,0.0,0.0,0.66765296459198,0.536837100982666
0.0062616346403956,0.3318666517734527,0.1960865706205368,-0.6524009108543396,0.141080230474472,0.1449424028396606,0.0,0.0,0.6073532104492188,0.2694199085235595
0.0081245424225926,0.3177750408649444,0.1791374236345291,-0.6269893050193787,0.1482129544019699,0.1426541060209274,0.0,0.0,0.7933547496795654,0.9003748893737793
0.0101206777617335,0.304027110338211,0.1936615854501724,-0.6116230487823486,0.1541598886251449,0.1189390420913696,0.0,0.0,0.7047350406646729,0.2797291278839111
0.0120874401181936,0.2902477085590362,0.1904247850179672,-0.6130784749984741,0.1604122221469879,0.1250467300415039,0.0,0.0,0.8061536550521851,0.6055684089660645
0.0141901019960641,0.2763972282409668,0.2045427560806274,-0.6162053346633911,0.1661296784877777,0.1143491119146347,0.0,0.0,0.934749960899353,-0.4177465438842773
0.0162549968808889,0.2625041007995605,0.2004926949739456,-0.6181594729423523,0.1721432507038116,0.1202718839049339,0.0,0.0,0.9629943370819092,-0.6139167547225952
0.0181629173457622,0.2493725568056106,0.1831328272819519,-0.5845301747322083,0.1798225790262222,0.1535863578319549,0.0,0.0,0.5198429822921753,0.8499565124511719
0.0201447494328022,0.2367758303880691,0.1916505843400955,-0.5606608986854553,0.1863742619752884,0.1310334503650665,0.0,0.0,0.7990021705627441,0.0711618661880493
0.0219017975032329,0.2248356491327285,0.1692849248647689,-0.5314956903457642,0.1928294897079467,0.1291046738624572,0.0,0.0,0.5487222671508789,0.628990888595581
0.0235780719667673,0.2127011865377426,0.1622870564460754,-0.5400149822235107,0.1982057690620422,0.1075255051255226,0.0,0.0,0.8229820728302002,0.7365720272064209
0.0252431873232126,0.2012658864259719,0.1620642393827438,-0.5088362097740173,0.2026741951704025,0.0893685594201088,0.0,0.0,0.8977458477020264,-0.0588988065719604
0.0267160423099994,0.1901452392339706,0.1429254710674286,-0.494856059551239,0.2070744484663009,0.0880054384469986,0.0,0.0,0.8964316844940186,0.6965794563293457
0.0280689243227243,0.1795440763235092,0.1320073902606964,-0.4716273248195648,0.210378959774971,0.0660902261734008,0.0,0.0,0.9050126075744628,0.1841531991958618
0.0292906761169433,0.1694997400045395,0.1185027360916137,-0.4469417929649353,0.214090809226036,0.0742366015911102,0.0,0.0,0.8975206613540649,-0.2176553010940551
0.0305169112980365,0.1598452925682068,0.1180262565612793,-0.4297591149806976,0.2187373787164688,0.0929316580295562,0.0,0.0,0.9592089653015136,0.3503868579864502
0.0317286476492881,0.1501730233430862,0.115986667573452,-0.4306556284427643,0.2239858210086822,0.1049690023064613,0.0,0.0,0.922271728515625,-0.7371189594268799
0.032938003540039,0.1405791640281677,0.113555684685707,-0.4275332689285278,0.2314660847187042,0.149605318903923,0.0,0.0,0.7190203666687012,0.7701932191848755
0.0342746749520301,0.131310373544693,0.1270379871129989,-0.4130043983459472,0.2381947338581085,0.1345729529857635,0.0,0.0,0.7328505516052246,-0.6307722926139832
0.0356577858328819,0.1220572590827941,0.1295829266309738,-0.412683755159378,0.2470544725656509,0.1771952211856842,0.0,0.0,0.6844325065612793,0.0470422506332397
0.0368830673396587,0.1132956594228744,0.1133983135223388,-0.3909670412540436,0.25636026263237,0.1861156523227691,0.0,0.0,0.3023748397827148,0.7595857381820679
0.0380724892020225,0.1048199534416198,0.1108437627553939,-0.3781311213970184,0.2646314203739166,0.1654230058193206,0.0,0.0,0.2559837102890014,0.6337339878082275
0.0393075942993164,0.0965209826827049,0.1160509586334228,-0.3702061772346496,0.2722627222537994,0.1526261568069458,0.0,0.0,0.3246266841888428,0.2569146156311035
0.0405760779976844,0.0880123004317283,0.1185811311006546,-0.3797247111797333,0.2807406783103943,0.169559359550476,0.0,0.0,0.5260512828826904,0.454410195350647
0.0416901595890522,0.0795409530401229,0.1029151678085327,-0.3781558275222778,0.2894664406776428,0.1745152324438095,0.0,0.0,0.8982224464416504,0.8433735370635986
0.0427040085196495,0.0719580948352813,0.0939393937587738,-0.3385143876075744,0.2971497774124145,0.1536667495965957,0.0,0.0,0.8136520385742188,0.4570753574371338
0.0435259826481342,0.0646396726369857,0.0744238793849945,-0.3268710374832153,0.3051859140396118,0.1607227474451065,0.0,0.0,0.7691489458084106,0.8758490085601807
0.0440273284912109,0.0578917376697063,0.0438855774700641,-0.3012342751026153,0.3116528391838074,0.1293385326862335,0.0,0.0,0.7738113403320312,0.9573037624359132
0.0444769859313964,0.0516800247132778,0.0400222726166248,-0.2771459519863128,0.3167831897735595,0.1026078090071678,0.0,0.0,0.7418510913848877,0.974411129951477
0.0446957573294639,0.0459878779947757,0.018489770591259,-0.253727376461029,0.3203021585941314,0.0703788474202156,0.0,0.0,0.8406133651733398,0.8327195644378662
0.0446171760559082,0.0408512689173221,-0.0098732318729162,-0.2287383675575256,0.3223887681961059,0.0417323559522628,0.0,0.0,0.9277219772338868,0.9826843738555908
0.0443943031132221,0.0359386056661605,-0.022768747061491,-0.2184463441371917,0.3228861093521118,0.009946646168828,0.0,0.0,0.9881608486175536,0.9868736267089844
0.0438599586486816,0.031398307532072,-0.0521614961326122,-0.2015106379985809,0.3215708434581756,-0.0263050980865955,0.0,1.0,0.9665024280548096,0.9997005462646484
0.0430006980895996,0.0281186439096927,-0.0670511648058891,-0.1424091011285781,0.3000293970108032,-0.4336807131767273,0.0,1.0,0.9308606386184692,0.9954280853271484
0.0419906601309776,0.0261566266417503,-0.0642873719334602,-0.0801279246807098,0.2621603906154632,-0.75755774974823,0.0,1.0,0.6009533405303955,0.7969191074371338
0.0409776680171489,0.0244269948452711,-0.0567770898342132,-0.0695876851677894,0.2167793959379196,-0.9077872037887572,0.0,1.0,0.3158745765686035,0.4694750308990478
0.0399797447025775,0.0229884721338748,-0.0570979826152324,-0.058237325400114,0.1737893670797348,-0.8598012924194336,0.0,1.0,0.2281109094619751,0.3647106885910034
0.0388624183833599,0.0217990018427371,-0.0686208829283714,-0.0483900047838687,0.1307251155376434,-0.8612865209579468,0.0,0.0,-0.9945011138916016,-0.5118363499641418
0.0377003662288188,0.0200108624994754,-0.0741145014762878,-0.0763162076473236,0.0889040976762771,-0.8364211916923523,0.0,0.0,-0.958283305168152,-0.8023281693458557
0.036465834826231,0.0176150426268577,-0.0830705985426902,-0.1045665219426155,0.0489421486854553,-0.799239993095398,0.0,0.0,-0.3292880058288574,-0.9334431886672974
0.0351356491446495,0.0146202659234404,-0.0949252918362617,-0.1322854310274124,0.0113172307610511,-0.7524988651275635,0.0,0.0,0.686772346496582,-0.9187760949134828
0.0337684638798236,0.012234172783792,-0.1010252237319946,-0.1061527580022811,-0.0239258650690317,-0.7048622965812683,0.0,0.0,0.571108341217041,-0.9771686792373656
0.0323927886784076,0.0098888846114277,-0.1044056192040443,-0.1050891801714897,-0.0566829368472099,-0.6551419496536255,0.0,0.0,0.8141629695892334,-0.745930016040802
0.0308182723820209,0.0079692816361784,-0.1259732842445373,-0.0868019238114357,-0.0878307819366455,-0.6229571104049683,1.0,0.0,0.8389585018157959,0.1078828573226928
0.0293200500309467,0.0067869639024138,-0.1329569965600967,-0.0538314133882522,-0.1038203239440918,-0.3188379406929016,1.0,0.0,0.3234360218048095,0.747694730758667
0.0281509403139352,0.0061965561471879,-0.1188566237688064,-0.0261121913790702,-0.1018716394901275,0.039002425968647,1.0,0.0,-0.6199823617935181,0.7762683629989624
0.0272449497133493,0.0054467534646391,-0.1076834052801132,-0.0322580225765705,-0.08490601927042,0.3393486738204956,1.0,0.0,-0.5486157536506653,0.7836484909057617
0.0265436172485351,0.0043762302957475,-0.0963600799441337,-0.0463082939386367,-0.0589123964309692,0.519919753074646,1.0,0.0,-0.3130212426185608,0.6197185516357422
0.0259232521057128,0.0028668974991887,-0.0916024297475814,-0.0661859810352325,-0.029677590355277,0.5847321152687073,1.0,0.0,-0.0726764798164367,0.6053488254547119
0.0253337863832712,0.00071923492942,-0.0861332863569259,-0.0951327383518219,-0.0028348623309284,0.5368543267250061,1.0,0.0,0.6051255464553833,0.8545708656311035
0.0248818397521972,-0.0015979432500898,-0.0707683563232421,-0.1031296700239181,0.0224121771752834,0.5049408674240112,0.0,1.0,0.530969500541687,0.939765214920044
0.0245469100773334,-0.0031779431737959,-0.0456257835030555,-0.0708370208740234,0.0328509211540222,0.2068120688199997,0.0,1.0,0.0654995441436767,0.765455961227417
