x_pos,y_pos,x_vel,y_vel,angle,ang_vel,leg_1,leg_2,main_booster,lat_booster
-0.0016490935813635,1.403459906578064,-0.1669126152992248,-0.3315626084804535,0.001798219513148,0.0354739390313625,0.0,0.0,0.2305467075752243,-0.6699021972818229
-0.0034318924881517,1.3963706493377686,-0.1814091801643371,-0.3150900602340698,0.004890555050224,0.0618531294167041,0.0,0.0,-0.1729979027030033,0.651300739205221
-0.0052730562165379,1.389111876487732,-0.1855909377336502,-0.3226150572299957,0.0063514453358948,0.0292205102741718,0.0,0.0,-0.79189590830797,-0.69503156040505
-0.0072974204085767,1.381685733795166,-0.2055203169584274,-0.3300639688968658,0.0094023533165454,0.0610239617526531,0.0,0.0,-0.2430627677088443,0.4326220698867883
-0.0094365123659372,1.3740952014923096,-0.2169301211833953,-0.3373762965202331,0.012394786812365,0.0598539300262928,0.0,0.0,0.3927428977486886,-0.1219288189112977
-0.0115768434479832,1.3670291900634766,-0.2175548523664474,-0.3140777051448822,0.0158830825239419,0.0697722062468528,0.0,0.0,-0.5936434829561947,-0.8371697700506662
-0.0138931274414062,1.359797120094299,-0.2368353903293609,-0.3214869499206543,0.02103241533041,0.1029960960149765,0.0,0.0,-0.1647245734399909,0.7530026711903777
-0.0162393562495708,1.3524054288864136,-0.2378891706466674,-0.3285703957080841,0.0242623351514339,0.0646042302250862,0.0,0.0,-0.8036164449342131,-0.4965339058002694
-0.0186853408813476,1.3448493480682373,-0.2477988451719284,-0.3358831703662872,0.0274348687380552,0.0634563118219375,0.0,0.0,0.8426626763009601,0.8340513014852448
-0.0211841575801372,1.3383513689041138,-0.2513618469238281,-0.2888253927230835,0.0288926362991333,0.0291579701006412,0.0,0.0,0.2675874972813268,0.0393937551544504
-0.0237207412719726,1.332375407218933,-0.255397081375122,-0.2656320035457611,0.0306052435189485,0.0342553406953811,0.0,0.0,-0.05360001179292,-0.866618285402847
-0.0264037139713764,1.326230525970459,-0.271488606929779,-0.2731788456439972,0.033773735165596,0.0633755847811698,0.0,0.0,0.3727056063855904,0.4151357511412833
-0.0290789604187011,1.3207979202270508,-0.2711798548698425,-0.2415337860584259,0.0373918898403644,0.0723697394132614,0.0,0.0,-0.7658789509381112,-0.3996915048696022
-0.031829833984375,1.315200924873352,-0.2786866724491119,-0.2488540858030319,0.0409474298357963,0.0711172297596931,0.0,0.0,0.8222736949758691,0.4356276316124485
-0.0345327369868755,1.3108118772506714,-0.2745571732521057,-0.195190817117691,0.0451725646853446,0.0845104977488517,0.0,0.0,-0.8428534591672432,0.5151377627792051
-0.0372519493103027,1.306255340576172,-0.2749077975749969,-0.2026024907827377,0.0481246896088123,0.0590477958321571,0.0,0.0,-0.4119970733212359,0.2230290606896904
-0.0400298126041889,1.3015345335006714,-0.280704915523529,-0.2099101096391677,0.0510115884244442,0.0577432699501514,0.0,0.0,0.3267777667915275,0.7428106371872129
-0.042688749730587,1.2971079349517822,-0.2674394249916076,-0.1967897862195968,0.0525442212820053,0.030655538663268,0.0,0.0,-0.9851301520412384,0.0921623528854813
-0.0453940406441688,1.2925169467926023,-0.2720042169094085,-0.2041056603193283,0.054008599370718,0.0292902179062366,0.0,0.0,-0.0805296071114252,0.7273444669237541
-0.0480895042419433,1.2877647876739502,-0.2696985900402069,-0.2112072557210922,0.0541508123278617,0.0028445697389543,0.0,0.0,-0.6331422949177765,0.9805234469503784
-0.0507251732051372,1.2828631401062012,-0.2612424492835998,-0.2177764475345611,0.0518589504063129,-0.045841097831726,0.0,0.0,-0.1839284707758268,0.0430143902303481
-0.0533876419067382,1.277796745300293,-0.2638626396656036,-0.225088894367218,0.04949551820755,-0.0472731068730354,0.0,0.0,-0.4658147991996877,-0.7070460041390167
-0.0561143867671489,1.2725616693496704,-0.2713172733783722,,0.048161081969738,-0.0266912374645471,0.0,0.0,0.4987873214736604,-0.9310837445504532
-0.0588698387145996,1.267575979232788,-0.2760754525661468,-0.2216091454029083,0.0486841052770614,0.0104613881558179,0.0,0.0,-0.3606937368703677,0.5843895646706987
-0.0615973472595214,1.2624294757843018,-0.2723012566566467,-0.2287090569734573,0.0482409037649631,-0.0088648088276386,0.0,0.0,0.0714278126157583,0.9319450158763644
-0.0643856078386306,1.2577835321426392,-0.2764281928539276,-0.2064117640256881,0.0458768159151077,-0.0472818240523338,0.0,0.0,-0.137628671105217,-0.5899515599581563
-0.0672144889831543,1.252973556518555,-0.2815908193588257,-0.2137367278337478,0.0445995554327964,-0.0255451556295156,0.0,0.0,-0.1388176489477779,-0.5462335798462464
-0.070083811879158,1.248001217842102,-0.2868951559066772,-0.2209912985563278,0.0445643365383148,-0.0007042543729767,0.0,0.0,-0.6450976930635228,0.8395358076965383
-0.0728827491402626,1.2428748607635498,-0.2784528434276581,-0.2277994751930236,0.0431395173072814,-0.0284964330494403,0.0,0.0,-0.5889973910301989,-0.1916705032718136
-0.0756569877266883,1.237583875656128,-0.2758941352367401,-0.2351097017526626,0.0416344739496707,-0.0301010850816965,0.0,0.0,-0.0410328800719779,0.9626043132091472
-0.0783222168684005,1.232144117355347,-0.2629137337207794,-0.241664320230484,0.0380730517208576,-0.071228489279747,0.0,0.0,-0.9224655032157898,0.8402719497680664
-0.0808927565813064,1.2265385389328003,-0.2518898844718933,-0.2490088045597076,0.0329770147800445,-0.1019209176301956,0.0,0.0,-0.8841961026191711,0.1942567825317382
-0.0834208503365516,1.2207690477371216,-0.2475696802139282,-0.2563211023807525,0.0278020966798067,-0.1034984812140464,0.0,0.0,-0.913398027420044,0.9074885845184326
-0.0858366936445236,1.2148298025131226,-0.2346305400133133,-0.2638504803180694,0.0209363177418708,-0.1373156309127807,0.0,0.0,-0.9586345553398132,0.3329142332077026
-0.0881993323564529,1.2087268829345703,-0.2292316406965255,-0.2711645662784576,0.0139942085370421,-0.1388424038887024,0.0,0.0,-0.7141600847244263,0.3027734756469726
-0.0905036926269531,1.2024599313735962,-0.2233250886201858,-0.2784788012504577,0.0069774892181158,-0.1403341144323349,0.0,0.0,-0.9531511664390564,0.7615156173706055
-0.0926871299743652,1.1960262060165403,-0.2096990346908569,-0.2859328389167785,-0.0015599908074364,-0.1707497090101242,0.0,0.0,-0.9846503138542176,0.6621479988098145
-0.0947470664978027,1.1894339323043823,-0.195851981639862,-0.2930299341678619,-0.0115675358101725,-0.2001511603593826,0.0,0.0,-0.9544860124588012,0.8429965972900391
-0.0966721549630165,1.1826870441436768,-0.1807242929935455,-0.2999928593635559,-0.0232090447098016,-0.2328300178050995,0.0,0.0,-0.8941643238067627,0.2566931247711181
-0.0985207557678222,1.1757776737213137,-0.1730082333087921,-0.3073146641254425,-0.0349149852991104,-0.2341186553239822,0.0,0.0,-0.9671642780303956,0.1370047330856323
-0.1002888679504394,1.168705701828003,-0.164895161986351,-0.314636617898941,-0.0466821417212486,-0.2353430688381195,0.0,0.0,-0.9333207607269288,0.1697137355804443
-0.1019725799560546,1.1614710092544556,-0.1564066559076309,-0.3219587206840515,-0.0585070848464965,-0.23649862408638,0.0,0.0,-0.9746578335762024,0.8987588882446289
-0.1034861579537391,1.1540571451187134,-0.1372556090354919,-0.3301259279251098,-0.0724656879901886,-0.2791722416877746,0.0,0.0,-0.9820046424865724,-0.5132662057876587
-0.1049423217773437,1.1464835405349731,-0.1323294192552566,-0.3372940719127655,-0.0856212675571441,-0.2631116211414337,0.0,0.0,-0.9855743050575256,-0.5561546683311462
-0.1063510924577713,1.1387473344802856,-0.1287500560283661,-0.3445751368999481,-0.0976423099637031,-0.2404207438230514,0.0,0.0,-0.967176616191864,-0.0964145064353942
-0.1076622009277343,1.1308485269546509,-0.1189645528793335,-0.3518978655338287,-0.1097055524587631,-0.2412646561861038,0.0,0.0,-0.879442036151886,0.0759409666061401
-0.1088729873299598,1.1227871179580688,-0.1089025363326072,-0.3592206239700317,-0.1218067929148674,-0.24202461540699,0.0,0.0,-0.7184094190597534,0.4833357334136963
-0.1099807769060134,1.114563226699829,-0.0985816419124603,-0.3665434718132019,-0.1339417695999145,-0.2426994293928146,0.0,0.0,-0.8784980773925781,0.4117169380187988
-0.1109828948974609,1.1061770915985107,-0.0880186930298805,-0.3738664090633392,-0.1461061984300613,-0.243288516998291,0.0,0.0,-0.9395955801010132,0.2666338682174682
-0.1118772476911544,1.097628116607666,-0.0772297084331512,-0.3811893165111542,-0.1582957655191421,-0.243791788816452,0.0,0.0,-0.9898442625999452,-0.5350319147109985
-0.112693503499031,1.0889241695404053,-0.0702285021543502,-0.3880932033061981,-0.1696905195713043,-0.2278953492641449,0.0,0.0,-0.9278145432472228,-0.0671980381011962
-0.1133975982666015,1.0800576210021973,-0.0590320453047752,-0.3954144716262817,-0.181101992726326,-0.228229358792305,0.0,0.0,-0.8847220540046692,-0.7903999090194702
-0.1140387505292892,1.071037530899048,-0.0540251806378364,-0.4021568298339844,-0.1912314295768737,-0.2025886327028274,0.0,0.0,-0.9125397205352784,-0.9139329791069032
-0.114633560180664,1.0618828535079956,-0.0512336604297161,-0.4079636931419372,-0.199538767337799,-0.166146770119667,0.0,0.0,-0.9945334196090698,-0.9589872360229492
-0.1151677146553993,1.0525777339935305,-0.0465992279350757,-0.4144900739192962,-0.2064033150672912,-0.1372909992933273,0.0,0.0,-0.8723013401031494,-0.9083581566810608
-0.1156650558114051,1.0431303977966309,-0.0450319461524486,-0.4205521047115326,-0.2111556082963943,-0.0950459912419319,0.0,0.0,-0.9755503535270692,-0.9219141602516174
-0.116101361811161,1.0335462093353271,-0.0404804088175296,-0.4264160096645355,-0.2143339961767196,-0.0635681301355362,0.0,0.0,-0.9654279351234436,-0.968220829963684
-0.1164733916521072,1.023820400238037,-0.035554327070713,-0.4325051605701446,-0.2160015702247619,-0.0333514884114265,0.0,0.0,-0.9394893646240234,-0.9450324177742004
-0.116785429418087,1.013960361480713,-0.0312182866036891,-0.4382180869579315,-0.2159864902496338,0.0003019273863174,0.0,0.0,-0.8385949730873108,-0.7365975379943848
-0.1170370131731033,1.0039632320404053,-0.0268434323370456,-0.4440715610980987,-0.2142841666936874,0.034046359360218,0.0,0.0,-0.6875901222229004,-0.6893664002418518
-0.1172137260437011,0.9938117861747742,-0.0206198841333389,-0.4507536888122558,-0.2113018333911895,0.0596462376415729,0.0,0.0,-0.960750162601471,-0.3779380321502685
-0.1172650307416915,0.9834959506988524,-0.008102836087346,-0.4580644071102142,-0.2083015888929367,0.0600045137107372,0.0,0.0,-0.9373836517333984,0.023565649986267
-0.1171901673078537,0.9730156064033508,0.0044939187355339,-0.4653750956058502,-0.2052809000015258,0.0604134127497673,0.0,0.0,-0.9684576392173768,-0.0834847092628479
-0.1169882789254188,0.9623708724975586,0.0171627476811409,-0.4726858139038086,-0.2022373974323272,0.0608700290322303,0.0,0.0,-0.9614786505699158,0.0265777111053466
-0.1166588813066482,0.9515616297721864,0.0298963692039251,-0.4799965322017669,-0.1991688460111618,0.0613714158535003,0.0,0.0,-0.9423965215682985,0.0945734977722168
-0.1162012070417404,0.9405879378318788,0.0426878295838832,,-0.1960731148719787,0.0619148686528205,0.0,0.0,-0.9891448616981506,-0.436892569065094
-0.1156148910522461,0.9294497966766356,0.0555304698646068,-0.494617760181427,-0.1929482221603393,0.0624977126717567,0.0,0.0,-0.9138377904891968,-0.7666608095169067
-0.114951804280281,0.9181534647941588,0.0618472211062908,-0.5014873147010803,-0.1884690821170807,0.0895827412605285,0.0,0.0,-0.963099718093872,-0.4591684341430664
-0.1141591072082519,0.9066928029060364,0.0747730284929275,-0.5087987184524536,-0.1839572638273239,0.0902364701032638,0.0,0.0,-0.9809439778327942,-0.3161200284957886
-0.1132365241646766,0.8950678706169128,0.0877315178513526,-0.5161102414131165,-0.1794111579656601,0.0909221470355987,0.0,0.0,-0.8157597780227661,-0.3627475500106811
-0.1121836677193641,0.8832786083221436,0.1007169261574745,-0.5234217643737793,-0.1748292744159698,0.0916377827525138,0.0,0.0,-0.9915944933891296,-0.7156648635864258
-0.1110529899597168,0.8713404536247253,0.1070976629853248,-0.5298923850059509,-0.1688481867313385,0.1196217536926269,0.0,0.0,-0.9448440074920654,-0.6301685571670532
-0.1098505035042762,0.8592604994773865,0.1127095595002174,-0.5360450744628906,-0.1612919270992279,0.1511252969503402,0.0,0.0,-0.9658246040344238,-0.4871082305908203
-0.1085170730948448,0.8470168709754944,0.1257420182228088,-0.5433597564697266,-0.1536960154771804,0.1519178003072738,0.0,0.0,-0.9759756326675416,-0.5976332426071167
-0.1071025878190994,0.8346163630485535,0.1325391083955764,-0.5502397418022156,-0.1447991877794265,0.1779365390539169,0.0,0.0,-0.9712709784507751,-0.6791736483573914
-0.1056049317121505,0.8220557570457458,0.1395876705646515,-0.5572966933250427,-0.1346596181392669,0.2027910500764846,0.0,0.0,-0.9854914546012878,-0.4945034980773926
-0.1039765328168869,0.8093320727348328,0.1526201069355011,-0.5646151304244995,-0.1244772896170616,0.203646570444107,0.0,0.0,-0.9651855826377868,-0.7473594546318054
-0.1022760421037674,0.7964630126953125,0.1582319885492324,-0.5710129141807556,-0.1127353459596633,0.2348388880491256,0.0,0.0,-0.9703488349914552,-0.6509010195732117
-0.1004887595772743,0.7834455370903015,0.1657189428806305,-0.5776270627975464,-0.0998201817274093,0.2583031058311462,0.0,0.0,-0.9539675712585448,0.0396713018417358
-0.0985709205269813,0.770265519618988,0.1787060648202896,-0.584950864315033,-0.0868596509099006,0.2592109143733978,0.0,0.0,-0.9845171570777892,-0.046486496925354
-0.0965229049324989,0.756923258304596,0.1916684657335281,-0.5922749042510986,-0.073852889239788,0.2601354122161865,0.0,0.0,-0.9616748690605164,-0.3723418712615967
-0.0943449959158897,0.74341881275177,0.2046011388301849,-0.5995990633964539,-0.0607990883290767,0.261076271533966,0.0,0.0,-0.9836078882217408,-0.4719135165214538
-0.092037484049797,0.7297521233558655,0.2174990177154541,-0.6069234013557434,-0.0476973988115787,0.2620334327220917,0.0,0.0,-0.9705485701560974,-0.4712780117988586
-0.0896007567644119,0.7159230709075928,0.2303569614887237,-0.6142479777336121,-0.034547071903944,0.2630066573619842,0.0,0.0,-0.94622802734375,-0.5306282639503479
-0.0870780944824218,0.7019369602203369,0.2378058731555938,-0.6213286519050598,-0.0202705040574073,0.2855314612388611,0.0,0.0,-0.94428950548172,0.0569223165512084
-0.0844272598624229,0.6877890825271606,0.2505683898925781,-0.6286560297012329,-0.0059436899609863,0.2865362763404846,0.0,0.0,-0.918409526348114,-0.5898796319961548
-0.0816937461495399,0.6734742522239685,0.2576466202735901,-0.6362196207046509,0.0095608783885836,0.3100914359092712,0.0,0.0,-0.934734582901001,-0.4508166909217834
-0.0788332968950271,0.6589980125427246,0.2702926993370056,-0.6435501575469971,0.0251172967255115,0.3111284375190735,0.0,0.0,-0.9721174836158752,0.0846103429794311
-0.0758465752005577,0.6443607211112976,0.2828724682331085,-0.6508809328079224,0.0407264418900013,0.312182605266571,0.0,0.0,-0.9288657307624816,-0.0279669165611267
-0.0727342590689659,0.629562258720398,0.2953802943229675,-0.658211886882782,0.056389145553112,0.3132544159889221,0.0,0.0,-0.8234590291976929,0.3635913133621216
-0.0694973021745681,0.6146025061607361,0.3078104257583618,-0.6655430197715759,0.0721063911914825,0.3143444657325744,0.0,0.0,-0.4135183095932007,0.1315152645111084
-0.0661364570260047,0.5994816422462463,0.3201570212841034,-0.6728744506835938,0.0878790393471717,0.3154533803462982,0.0,0.0,-0.3764690160751343,0.2583487033843994
-0.0626526847481727,0.584199845790863,0.3324141502380371,-0.6802061200141907,0.1037081405520439,0.3165817856788635,0.0,0.0,-0.2432277798652649,-0.4635613560676574
-0.0590470321476459,0.5687569379806519,0.3445756733417511,-0.6875379085540771,0.1195946633815765,0.3177304863929748,0.0,0.0,0.0928889513015747,-0.4002978205680847
-0.0553951263427734,0.5536483526229858,0.3493279814720154,-0.6728362441062927,0.1353788673877716,0.315684050321579,0.0,0.0,-0.4565383195877075,0.1160457134246826
-0.0516234412789344,0.5383787751197815,0.3612793684005737,-0.6801679134368896,0.1512226313352584,0.3168755173683166,0.0,0.0,-0.0718938112258911,0.1994726657867431
-0.0477332100272178,0.522948145866394,0.373115986585617,-0.6874998211860657,0.1671271026134491,0.3180895149707794,0.0,0.0,0.2352122068405151,-0.1269658207893371
-0.0439162254333496,0.5082128643989563,0.3661953508853912,-0.6567171216011047,0.182663083076477,0.3107196986675262,0.0,0.0,0.599787712097168,0.2772071361541748
-0.0400230400264263,0.4943362772464752,0.3734094500541687,-0.6187755465507507,0.1986519545316696,0.3197773098945617,0.0,0.0,0.641944169998169,0.5893681049346924
-0.036173440515995,0.4813958704471588,0.3703502118587494,-0.5771552920341492,0.2133771479129791,0.2945041358470917,0.0,0.0,0.063024878501892,-0.1237282156944274
-0.0323646552860736,0.4689834117889404,0.3664996325969696,-0.5538097023963928,0.2279217541217804,0.2908924520015716,0.0,0.0,-0.390804648399353,0.1886352300643921
-0.0284441001713275,0.4564093351364136,0.3776591718196869,-0.5611386895179749,0.2425333708524704,0.2922320067882538,0.0,0.0,-0.5299831032752991,-0.1458508968353271
-0.0244132988154888,0.4436738491058349,0.3886622786521911,-0.5684678554534912,0.2572132647037506,0.2935985624790191,0.0,0.0,0.0993225574493408,0.1692372560501098
-0.0204595569521188,0.4312441349029541,0.3814077079296112,-0.5549463033676147,0.2714997828006744,0.2857303023338318,0.0,0.0,0.5103037357330322,-0.153404414653778
-0.0164817813783884,0.4196411967277527,0.383351981639862,-0.5184335708618164,0.28630530834198,0.2961108088493347,0.0,0.0,-0.5692388415336609,-0.0102409124374389
-0.012399005703628,0.4078768193721771,0.3938419222831726,-0.5257633328437805,0.3011834621429443,0.2975629270076751,0.0,0.0,0.3053553104400635,0.0026019811630249
-0.0082825664430856,0.3968656659126282,0.3966982960700989,-0.4925557374954223,0.316665768623352,0.3096465170383453,0.0,0.0,0.460247278213501,-0.4177716970443725
-0.0042976378463208,0.3866616189479828,0.3836220800876617,-0.4568343162536621,0.3321301341056824,0.309287965297699,0.0,0.0,0.2914557456970215,0.1112101078033447
-0.0003261566162109,0.3772982656955719,0.3818064332008362,-0.4197576642036438,0.3481875956058502,0.3211501240730285,0.0,0.0,0.6163802146911621,0.4376671314239502
0.0036189078819006,0.3686119318008423,0.3788521885871887,-0.3899359405040741,0.3646691739559173,0.3296315670013428,0.0,0.0,0.2579476833343506,0.5024857521057129
0.007467174436897,0.3606584966182709,0.3701750934123993,-0.3572922945022583,0.3801791965961456,0.3102003037929535,0.0,0.0,0.7605104446411133,0.0945390462875366
0.0111564639955759,0.3537489175796509,0.3540235459804535,-0.3111449778079986,0.3960703611373901,0.317823976278305,0.0,0.0,0.820871114730835,0.4128854274749756
0.0148230548948049,0.3474291265010834,0.3513785302639007,-0.2852209806442261,0.4124561250209808,0.3277160227298736,0.0,0.0,0.8353303670883179,0.0978451967239379
0.0181775093078613,0.3418107032775879,0.32078617811203,-0.2540642023086548,0.4282990097999573,0.3168583810329437,0.0,0.0,0.7100727558135986,0.8176103830337524
0.0213217735290527,0.3367047309875488,0.3015775382518768,-0.2309064418077469,0.4422799348831177,0.2796184420585632,0.0,0.0,0.6505227088928223,0.5391745567321777
0.0243254657834768,0.3322124779224396,0.2886131405830383,-0.203424721956253,0.4551669359207153,0.2577399611473083,0.0,0.0,0.2197245359420776,0.2194117307662964
0.0272540096193552,0.3281015455722809,0.2809977531433105,-0.18663290143013,0.4682334363460541,0.2613299190998077,0.0,0.0,0.6588189601898193,0.7123852968215942
0.030277157202363,0.3244407176971435,0.2915398478507995,-0.1663843989372253,0.4801916182041168,0.2391636371612548,0.0,0.0,0.3685891628265381,-0.2148530483245849
0.0331857688724994,0.3214272856712341,0.2797311246395111,-0.1378475278615951,0.4926174283027649,0.2485157996416092,0.0,0.0,0.2084002494812011,-0.7947012186050415
0.0358491912484169,0.3190093040466308,0.253718763589859,-0.1120545417070388,0.5068164467811584,0.2839789092540741,0.0,0.0,-0.1286577582359314,0.414528489112854
0.0385823249816894,0.316429853439331,0.2607097029685974,-0.119383692741394,0.5211127996444702,0.2859267294406891,0.0,0.0,-0.3991559743881225,-0.7417662739753723
