x_pos,y_pos,x_vel,y_vel,angle,ang_vel,leg_1,leg_2,main_booster,lat_booster
-0.0014834403991699,1.4031184911727903,-0.15005923807621,-0.3467417061328888,0.0015332124894484,0.0302267707884311,0.0,0.0,-0.1176345348358154,0.770287275314331
-0.0028618811629712,1.3948302268981934,-0.1374665200710296,-0.368363469839096,0.0011616726405918,-0.0074307485483586,0.0,0.0,0.0763214826583862,0.6441744565963745
-0.0040532113052904,1.3864258527755735,-0.11739531904459,-0.3735272586345672,-0.0005583825986832,-0.0344044975936412,0.0,0.0,0.0309617519378662,0.3197619915008545
-0.00528125744313,1.3779829740524292,-0.1204865574836731,-0.3752365708351135,-0.0028455706778913,-0.0457481890916824,0.0,0.0,0.2493563890457153,0.3408328294754028
-0.0063738822937011,1.3697733879089355,-0.1072038412094116,-0.3648726642131805,-0.0048758438788354,-0.0406091324985027,0.0,0.0,0.0437875986099243,0.052466869354248
-0.007342719938606,1.3615717887878418,-0.0950373038649559,-0.3645200431346893,-0.0067019630223512,-0.0365256778895854,0.0,0.0,-0.7258634567260742,-0.0434827208518981
-0.008277416229248,1.3528642654418943,-0.0914072766900062,-0.387012630701065,-0.0087376069277524,-0.04071656614542,0.0,0.0,-0.4647630453109741,-0.137526273727417
-0.0091792102903127,1.3436508178710938,-0.0878959819674491,-0.4095026552677154,-0.0109818689525127,-0.0448897816240787,0.0,0.0,-0.5971373319625854,0.0950086116790771
-0.0100490571931004,1.33393132686615,-0.0845070034265518,-0.4319936037063598,-0.0134342908859252,-0.0490530617535114,0.0,0.0,-0.7694885730743408,-0.1848177313804626
-0.0108884815126657,1.323706030845642,-0.0812434554100036,-0.4544853270053863,-0.016094135120511,-0.0532017238438129,0.0,0.0,-0.8119484782218933,-0.3829885721206665
-0.011698436923325,1.3129749298095703,-0.078108049929142,-0.4769772589206695,-0.0189605671912431,-0.0573339685797691,0.0,0.0,-0.5350639820098877,-0.5083321332931519
-0.012515926733613,1.301737666130066,-0.0795409008860588,-0.4994598925113678,-0.0211433246731758,-0.0436587557196617,0.0,0.0,-0.4627649784088135,-0.1875187158584594
-0.0133068086579442,1.2899945974349976,-0.0766719505190849,-0.5219518542289734,-0.023531325161457,-0.0477644726634025,0.0,0.0,-0.3736541271209717,-0.3342500329017639
-0.0140725132077932,1.2777456045150757,-0.0739380568265914,-0.5444440245628357,-0.0261229630559682,-0.051837645471096,0.0,0.0,-0.0709391832351684,-0.63148432970047
-0.0148521419614553,1.2649985551834106,-0.076115682721138,-0.5665626525878906,-0.0279570631682872,-0.0366853438317775,0.0,0.0,-0.0982242226600647,-0.8536455035209656
-0.015664767473936,1.2517380714416504,-0.080590471625328,-0.5893715023994446,-0.0286083165556192,-0.0130264656618237,0.0,0.0,-0.3131583929061889,-0.4685307741165161
-0.016456127166748,1.237971544265747,-0.0782785266637802,-0.6118634939193726,-0.0294605772942304,-0.01704678311944,0.0,0.0,-0.5539956092834473,-0.8041420578956604
-0.01727638207376,1.2236943244934082,-0.0822009593248367,-0.6345397233963013,-0.0292933005839586,0.0033458708785474,0.0,0.0,-0.3849693536758423,-0.750330924987793
-0.0181280132383108,1.2089204788208008,-0.0863945335149765,-0.656593918800354,-0.0280739180743694,0.0243900064378976,0.0,0.0,0.3166977167129516,0.0203847885131835
-0.0190143585205078,1.1943196058273315,-0.0893679782748222,-0.648912250995636,-0.0273518878966569,0.0144421029835939,0.0,0.0,-0.6326879262924194,-0.0740963816642761
-0.0198852531611919,1.1792126893997192,-0.0876268446445465,-0.671409010887146,-0.0268243290483951,0.0105522628873586,0.0,0.0,0.2486305236816406,-0.7391216158866882
-0.0207816120237112,1.1640989780426023,-0.0914780274033546,-0.6716856360435486,-0.0250092558562755,0.0363052263855934,0.0,0.0,-0.3565282225608825,0.3309189081192016
-0.0216654781252145,1.148479461669922,-0.0900232344865799,-0.6941814422607422,-0.0233865547925233,0.0324567481875419,0.0,0.0,0.448742151260376,0.056990623474121
-0.0224703792482614,1.13276207447052,-0.0822292193770408,-0.6985193490982056,-0.0216690748929977,0.0343529507517814,0.0,0.0,-0.2184010744094848,0.0231279134750366
-0.0232653617858886,1.116538643836975,-0.0810527950525283,-0.7210147976875305,-0.0201398488134145,0.0305871609598398,0.0,0.0,0.2426249980926513,-0.7307043075561523
-0.0242229457944631,1.1005916595458984,-0.0984245017170906,-0.7087280750274658,-0.0174983516335487,0.0528301522135734,0.0,0.0,0.5303866863250732,0.0629854202270507
-0.0251578334718942,1.0851478576660156,-0.0959990695118904,-0.686367928981781,-0.0150241339579224,0.0494843982160091,0.0,0.0,-0.6482601165771484,-0.0671299695968627
-0.0260868072509765,1.0691978931427002,-0.0952235758304596,-0.7088581323623657,-0.0127313351258635,0.0458559207618236,0.0,0.0,0.4690413475036621,0.4167450666427612
-0.0271184928715229,1.0537774562835691,-0.1047587245702743,-0.6853411197662354,-0.0111544001847505,0.0315384492278099,0.0,0.0,-0.8196580410003662,0.0571988821029663
-0.028146743774414,1.037851095199585,-0.1042421013116836,-0.7078309655189514,-0.0097542414441704,0.0280032753944396,0.0,0.0,-0.4779947996139526,0.0284243822097778
-0.0291728973388671,1.0214186906814575,-0.1038504391908645,-0.7303207516670227,-0.0085283638909459,0.0245171766728162,0.0,0.0,0.6259697675704956,-0.724263608455658
-0.0303356163203716,1.005124807357788,-0.1186311244964599,-0.7241586446762085,-0.0062023005448281,0.0465212501585483,0.0,0.0,-0.4460091590881347,0.4801669120788574
-0.0314985290169715,0.98832505941391,-0.1184789985418319,-0.7466487288475037,-0.0040453667752444,0.0431387647986412,0.0,0.0,0.1001125574111938,0.4621458053588867
-0.0327041633427143,0.971379816532135,-0.1223887950181961,-0.753117024898529,-0.0022511954884976,0.0358835384249687,0.0,0.0,0.5831426382064819,-0.0200027823448181
-0.0338953025639057,0.9548302292823792,-0.1208378076553344,-0.7355403304100037,-0.0005484818248078,0.034054197371006,0.0,0.0,-0.0364310145378112,0.1795637607574463
-0.0350897796452045,0.9377745389938354,-0.1210152134299278,-0.7580299973487854,0.00099357299041,0.0308413170278072,0.0,0.0,0.5230499505996704,-0.0804885029792785
-0.0363133437931537,0.9208424091339112,-0.123639777302742,-0.7525390982627869,0.0022661658003926,0.0254512690007686,0.0,0.0,-0.7117686867713928,-0.4823408722877502
-0.0375421531498432,0.9034043550491332,-0.1240142434835434,-0.775028645992279,0.0033842609263956,0.0223619621247053,0.0,0.0,0.2221721410751342,0.5177297592163086
-0.0387701019644737,0.8864009976387024,-0.1226595491170883,-0.7557038068771362,0.0032541584223508,-0.002602202584967,0.0,0.0,-0.6839674711227417,0.0281521081924438
-0.0400051102042198,0.8688916563987732,-0.1232109293341636,-0.7781931757926941,0.0029762163758277,-0.0055588521063327,0.0,0.0,-0.4202369451522827,-0.544427216053009
-0.0412984862923622,0.8508806824684143,-0.1302077621221542,-0.8004912734031677,0.0038284095935523,0.0170437693595886,0.0,0.0,0.704021692276001,0.5034955739974976
-0.042427159845829,0.8331735134124756,-0.1129616871476173,-0.786989152431488,0.0039223292842507,0.0018782948609441,0.0,0.0,0.5679320096969604,0.0429480075836181
-0.04347400739789,0.8154072761535645,-0.1050647869706153,-0.789613664150238,0.0043058209121227,0.0076696039177477,0.0,0.0,0.3986654281616211,-0.0183055996894836
-0.0444483757019043,0.7978066802024841,-0.0980834364891052,-0.782245397567749,0.0049450304359197,0.0127839324995875,0.0,0.0,-0.3547228574752807,0.5291119813919067
-0.045393943786621,0.7796942591667175,-0.0940781682729721,-0.8049975037574768,0.0044740932062268,-0.0094187138602137,0.0,0.0,0.6713323593139648,-0.0401918888092041
-0.0463051795959472,0.761583149433136,-0.090745523571968,-0.8049382567405701,0.0040931850671768,-0.0076178638264536,0.0,0.0,0.8983886241912842,0.3290008306503296
-0.0471596717834472,0.7437366843223572,-0.0852643474936485,-0.7931764721870422,0.0039158998988568,-0.0035460125654935,0.0,0.0,0.3802103996276855,0.6427198648452759
-0.0480808243155479,0.7264354825019836,-0.0903246998786926,-0.7689327597618103,0.0021482845768332,-0.0353521518409252,0.0,0.0,0.3635127544403076,-0.3286603689193725
-0.0491245277225971,0.7096037864685059,-0.1019598990678787,-0.7480736970901489,-0.0002375764597672,-0.0477173551917076,0.0,0.0,0.0425728559494018,-0.6557908058166504
-0.0502471923828125,0.6927456259727478,-0.1110503301024437,-0.7492484450340271,-0.0014424857217818,-0.0240981038659811,0.0,0.0,0.6977368593215942,0.8411093950271606
-0.0511513724923133,0.6762611269950867,-0.0876766592264175,-0.7326508164405823,-0.0041388869285583,-0.053928293287754,0.0,0.0,-0.1673302054405212,0.1225206851959228
-0.052067469805479,0.659270703792572,-0.0887918025255203,-0.7551409006118774,-0.0069327671080827,-0.0558775290846824,0.0,0.0,0.1369867324829101,0.3554182052612304
-0.0529185310006141,0.6422324180603027,-0.0825273320078849,-0.7572678923606873,-0.0094710988923907,-0.0507666543126106,0.0,0.0,0.4093456268310547,0.5563852787017822
-0.0537281036376953,0.625713586807251,-0.0771801322698593,-0.7342042326927185,-0.0131963482126593,-0.0745050907135009,0.0,0.0,0.666466236114502,0.5052354335784912
-0.0543428435921669,0.609420657157898,-0.0570560023188591,-0.7241767048835754,-0.0175620131194591,-0.0873133093118667,0.0,0.0,-0.1570633053779602,0.1717990636825561
-0.054969310760498,0.5926219820976257,-0.058145485818386,-0.7466678619384766,-0.0220046434551477,-0.0888527333736419,0.0,0.0,0.4118697643280029,-0.5598673820495605
-0.0555490478873252,0.5763426423072815,-0.0547360181808471,-0.7235790491104126,-0.0252072904258966,-0.064052864909172,0.0,0.0,0.2657780647277832,0.6577925682067871
-0.0559571273624897,0.560328483581543,-0.0363601744174957,-0.7118178009986877,-0.0295949913561344,-0.0877539739012718,0.0,0.0,-0.5428730249404907,-0.6420047283172607
-0.0564201362431049,0.5438172221183777,-0.0429228134453296,-0.733905017375946,-0.0329244323074817,-0.0665887966752052,0.0,0.0,0.7665326595306396,-0.3489314317703247
-0.0569467544555664,0.5280637145042419,-0.0488601326942443,-0.700242280960083,-0.0366860441863536,-0.07523213326931,0.0,0.0,0.3199145793914795,-0.7549764513969421
-0.0574859604239463,0.5122420787811279,-0.0516432523727417,-0.703241765499115,-0.0389352180063724,-0.0449834950268268,0.0,0.0,0.9299752712249756,0.4963880777359009
-0.0581191070377826,0.4971495270729065,-0.0604408010840415,-0.6708576083183289,-0.0417708531022071,-0.0567128174006938,0.0,0.0,0.9343547821044922,0.8175709247589111
-0.0585125908255577,0.4824426472187042,-0.0351343974471092,-0.6537629961967468,-0.0459371954202652,-0.0833267942070961,0.0,0.0,0.6557719707489014,-0.2291475534439087
-0.0588615424931049,0.4681487679481506,-0.0307514127343893,-0.6354131698608398,-0.0500281006097793,-0.0818182826042175,0.0,0.0,-0.3744136691093445,-0.9054840803146362
-0.0592877380549907,0.453347772359848,-0.0402419455349445,-0.6579057574272156,-0.0523704178631305,-0.0468463115394115,0.0,0.0,0.8228664398193359,-0.4633690118789673
-0.0598215088248252,0.4390283524990082,-0.0503414757549762,-0.636527955532074,-0.0553678460419178,-0.0599486418068409,0.0,0.0,-0.2897593975067138,0.4997608661651611
-0.0603594779968261,0.4242030382156372,-0.0507578551769256,-0.6590182185173035,-0.0583834126591682,-0.0603111796081066,0.0,0.0,0.9642412662506104,0.0806628465652465
-0.0607830993831157,0.4093839228153229,-0.0397528260946273,-0.6587304472923279,-0.0609605871140956,-0.0515434369444847,0.0,0.0,0.9210957288742064,0.0170878171920776
-0.0611167922616004,0.3955422341823578,-0.0309100802987813,-0.6152880787849426,-0.0634005442261695,-0.0487988665699958,0.0,0.0,-0.4095574617385864,0.6187049150466919
-0.0614103302359581,0.3811880350112915,-0.0258267782628536,-0.6381166577339172,-0.0668836385011673,-0.0696618854999542,0.0,0.0,0.988991379737854,-0.7005000114440918
-0.0618226043879985,0.3675684332847595,-0.0388266220688819,-0.6054270267486572,-0.0692688971757888,-0.0477053634822368,0.0,0.0,0.9111595153808594,0.1325222253799438
-0.0621478073298931,0.3545164465904236,-0.0302758775651454,-0.5801935791969299,-0.0714837089180946,-0.0442962944507598,0.0,0.0,0.889342188835144,-0.3550230860710144
-0.0625475868582725,0.3424193263053894,-0.0370581075549125,-0.5377935171127319,-0.0743698105216026,-0.0577222406864166,0.0,0.0,-0.4966077804565429,0.1343946456909179
-0.0629425048828125,0.3298162221908569,-0.0365889407694339,-0.5602835416793823,-0.0772416070103645,-0.0574359707534313,0.0,0.0,0.8640719652175903,-0.8246220350265503
-0.0634038895368576,0.3173730075359344,-0.0448288582265377,-0.5530980229377747,-0.0785385966300964,-0.0259398259222507,0.0,0.0,0.8024601936340332,0.1823890209197998
-0.0637555122375488,0.3049454391002655,-0.0342134423553943,-0.5523874163627625,-0.0794702842831611,-0.0186339449137449,0.0,0.0,0.9722747802734376,-0.6049106121063232
-0.064153291285038,0.2926221489906311,-0.0399652123451232,-0.5476911067962646,-0.0792844220995903,0.003717269282788,0.0,0.0,0.7096664905548096,0.0606609582901001
-0.0644832625985145,0.2810212075710296,-0.0331650860607624,-0.5155878067016602,-0.0791094750165939,0.0034986224491149,0.0,0.0,0.1947749853134155,0.6802668571472168
-0.0646343231201171,0.2697890400886535,-0.0140405055135488,-0.4992634654045105,-0.0801676735281944,-0.0211638323962688,0.0,0.0,0.2575904130935669,-0.3577215075492859
-0.0648056045174598,0.2589913308620453,-0.015693811699748,-0.4799748957157135,-0.0815856829285621,-0.0283603426069021,0.0,0.0,0.2981545925140381,-0.8505759239196777
-0.0651219338178634,0.2480904012918472,-0.0318391099572181,-0.4844763576984405,-0.0813800692558288,0.0041123470291495,0.0,0.0,0.7085821628570557,0.1498382091522216
-0.0653112381696701,0.23790043592453,-0.0193715468049049,-0.4528611004352569,-0.0809406861662864,0.0087876450270414,0.0,0.0,-0.4703736901283264,0.8286921977996826
-0.0654252022504806,0.2271977812051773,-0.0104983700439333,-0.4757221341133117,-0.081831194460392,-0.0178102347999811,0.0,0.0,0.0410605669021606,-0.9005318880081177
-0.0655929595232009,0.2166451811790466,-0.0177392549812793,-0.4689536690711975,-0.0808779001235961,0.0190659407526254,0.0,0.0,-0.1253644227981567,0.1236412525177002
-0.0657357200980186,0.2055864632129669,-0.0152860460802912,-0.4914427995681762,-0.0798772126436233,0.0200136136263608,0.0,0.0,0.7465672492980957,0.1702892780303955
-0.0657104477286338,0.194930300116539,0.0010407551890239,-0.4735264182090759,-0.078400894999504,0.0295262038707733,0.0,0.0,0.746753454208374,0.0110267400741577
-0.0656025856733322,0.1843063980340957,0.0091244596987962,-0.472087413072586,-0.0767578110098838,0.032861765474081,0.0,0.0,0.6755613088607788,0.2362622022628784
-0.0653383284807205,0.1737764030694961,0.0242750905454158,-0.4678917527198791,-0.0746271908283233,0.0426121540367603,0.0,0.0,0.7468599081039429,-0.5374096035957336
-0.0648725479841232,0.1636296361684799,0.0428317114710807,-0.4507838189601898,-0.0709146931767463,0.0742499232292175,0.0,0.0,0.6112669706344604,-0.7958703637123108
-0.0642568618059158,0.1535372287034988,0.0558991357684135,-0.4482921361923218,-0.0653023049235344,0.1122476831078529,0.0,0.0,0.7291936874389648,-0.4924203157424927
-0.0635580047965049,0.1441167443990707,0.0641837567090988,-0.4184508025646209,-0.0596617385745048,0.112811304628849,0.0,0.0,0.2962729930877685,-0.3825587034225464
-0.0627594962716102,0.1350796371698379,0.073973536491394,-0.4014277458190918,-0.0538524501025676,0.1161858811974525,0.0,0.0,0.1123765707015991,-0.8652899861335754
-0.0618651397526264,0.1262106746435165,0.0817230194807052,-0.3939189612865448,-0.0462317764759063,0.1524132341146469,0.0,0.0,0.3784815073013305,-0.8277712464332581
-0.0608847625553607,0.1172339990735054,0.0884888023138046,-0.398697555065155,-0.0367946438491344,0.1887423992156982,0.0,0.0,0.5371241569519043,-0.3393274545669555
-0.0598895065486431,0.1084653213620185,0.0901448130607605,-0.3895154595375061,-0.0275258179754018,0.1853764057159423,0.0,0.0,0.6894268989562988,-0.9133506417274476
-0.0587968826293945,0.1005246937274932,0.0978296920657157,-0.3527403175830841,-0.0162363201379776,0.2257900536060333,0.0,0.0,0.2851443290710449,0.3049495220184326
-0.057664681226015,0.0927442908287048,0.101808987557888,-0.3457112908363342,-0.0049726152792572,0.2252742499113083,0.0,0.0,0.3638086318969726,0.9478863477706908
-0.0565198883414268,0.0854533314704895,0.1050113812088966,-0.3240407407283783,0.0043787015601992,0.1870260834693908,0.0,0.0,0.0712822675704956,-0.1450895071029663
-0.0552660003304481,0.0783366039395332,0.1155920624732971,-0.3163553476333618,0.0140490783378481,0.1934076994657516,0.0,0.0,0.435990571975708,0.1743875741958618
-0.0540111549198627,0.0716922357678413,0.1158419474959373,-0.2954241037368774,0.0235619451850652,0.1902576386928558,0.0,0.0,0.2324225902557373,0.0323621034622192
-0.0527727119624614,0.0653784573078155,0.1144431680440902,-0.2807859778404236,0.0328467898070812,0.1856966465711593,0.0,0.0,0.2984476089477539,-0.4518386125564575
-0.0515062324702739,0.0591456517577171,0.1172863245010376,-0.2772464454174042,0.0420981682837009,0.1850276440382003,0.0,0.0,0.4189071655273437,-0.5065345168113708
-0.0503470413386821,0.0531732663512229,0.1057516932487487,-0.2657538950443268,0.0521453581750392,0.2009439170360565,0.0,0.0,0.5921770334243774,0.8976032733917236
-0.0492415428161621,0.0474429950118064,0.1023672446608543,-0.2549856901168823,0.0602380037307739,0.1618530750274658,0.0,0.0,0.2824031114578247,0.4108990430831909
-0.0480215065181255,0.0420503243803978,0.1133784502744674,-0.2400472611188888,0.0687661096453666,0.1705623865127563,0.0,0.0,0.7060737609863281,0.2213728427886963
-0.0466967597603797,0.0367292501032352,0.1235064417123794,-0.2369249761104583,0.0776416286826133,0.1775104105472564,0.0,0.0,0.7999663352966309,0.5777026414871216
-0.0451531410217285,0.0321757905185222,0.1460456252098083,-0.2028297334909439,0.0858726054430008,0.1646196991205215,0.0,0.0,0.2886509895324707,-0.8110867738723755
-0.0436749458312988,0.0280179362744092,0.1378523409366607,-0.1853974312543869,0.0957488566637039,0.1975251734256744,0.0,0.0,0.3462280035018921,0.1633622646331787
-0.0420749671757221,0.0244117602705955,0.1494484394788742,-0.1609825640916824,0.1062145382165908,0.2093137055635452,0.0,0.0,-0.2244132757186889,-0.2909944057464599
-0.0404008850455284,0.0203011129051446,0.1568234264850616,-0.1834815293550491,0.1167307347059249,0.2103240489959716,0.0,0.0,0.2231930494308471,-0.1671155095100402
-0.0387269034981727,0.0165857169777154,0.1568050533533096,-0.1659945994615554,0.1272716522216797,0.2108184844255447,0.0,0.0,0.1165823936462402,-0.350032091140747
-0.0370026603341102,0.0131655791774392,0.1615972220897674,-0.1529650092124939,0.1380504518747329,0.2155763208866119,0.0,1.0,0.962087869644165,0.9493365287780762
-0.035303495824337,0.0104802222922444,0.1725969314575195,-0.1193851456046104,0.1344737857580185,-0.0727445632219314,0.0,1.0,0.6490874290466309,0.3282984495162964
-0.0340001098811626,0.0085948444902896,0.149306371808052,-0.0822102949023246,0.115557886660099,-0.3783802986145019,0.0,1.0,-0.2149037718772888,-0.4451326727867126
-0.0328270904719829,0.0065268254838883,0.1473142057657241,-0.0898769199848175,0.0857253968715667,-0.596725344657898,0.0,1.0,0.3165271282196045,-0.5912185907363892
-0.0318157188594341,0.0047650788910686,0.1348684430122375,-0.0767270624637603,0.0522819943726062,-0.6689468026161194,0.0,1.0,0.5397677421569824,-0.857445240020752
-0.0308591835200786,0.0032339310273528,0.1270135939121246,-0.0672550573945045,0.0212750248610973,-0.6201740503311157,0.0,1.0,-0.047200858592987,-0.6800905466079712
-0.0299349781125783,0.0011862254468724,0.1221684664487838,-0.0908461362123489,-0.0080852359533309,-0.5872058868408203,0.0,0.0,0.7955913543701172,-0.967639684677124
-0.0288843158632516,-0.0002383494429523,0.132625550031662,-0.0636863783001899,-0.0352958999574184,-0.5442134141921997,1.0,0.0,0.109570026397705,-0.7985782027244568
-0.027818489819765,-0.0009134793072007,0.1224528402090072,-0.0307994503527879,-0.0496938303112983,-0.2863063514232635,1.0,0.0,0.2223439216613769,-0.7869807481765747
