x_pos,y_pos,x_vel,y_vel,angle,ang_vel,leg_1,leg_2,main_booster,lat_booster
-0.001533317612484,1.40330970287323,-0.1557855308055877,-0.3382417261600494,0.0021939042489975,0.0433091148734092,0.0,0.0,0.6355120024611045,-0.6895475577682034
-0.0030752182938158,1.3960895538330078,-0.1582877784967422,-0.3209143280982971,0.0062461039051413,0.0810522511601448,0.0,0.0,0.7315422721017868,0.895478994730834
-0.0044027329422533,1.389184594154358,-0.1357620954513549,-0.3068972826004028,0.0092303790152072,0.0596907958388328,0.0,0.0,-0.392909382188594,0.278787942286637
-0.0057385442778468,1.3819650411605835,-0.1370270252227783,-0.3208952248096466,0.0126438941806554,0.0682766586542129,0.0,0.0,-0.8122598297264507,-0.2453306487158264
-0.0070821763947606,1.374431014060974,-0.1382498443126678,-0.3348855376243591,0.0164898317307233,0.0769256576895713,0.0,0.0,-0.7874619142269859,-0.6093831086530518
-0.0084702493622899,1.3665807247161863,-0.1440752297639846,-0.3489684164524078,0.0217042583972215,0.104298211634159,0.0,0.0,0.4153948405675975,0.3412200846865395
-0.0098952297121286,1.3591574430465698,-0.1481276601552963,-0.3300144076347351,0.0272657070308923,0.1112394109368324,0.0,0.0,0.9586184220464882,-0.6710306054821371
-0.0112103465944528,1.3525776863098145,-0.1394430547952652,-0.2925988733768463,0.0351142212748527,0.156984806060791,0.0,0.0,-0.8905537443745315,0.4348042206969627
-0.0125313755124807,1.3456841707229614,-0.1404978930950164,-0.306602269411087,0.0434071570634841,0.165874034166336,0.0,0.0,-0.6172944438990648,0.2999231681716603
-0.0138581274077296,1.3384768962860107,-0.1415075361728668,-0.3205962181091308,0.0521487481892108,0.1748482882976532,0.0,0.0,-0.9492515744133035,-0.9731452595943292
-0.0152557371184229,1.3309520483016968,-0.1507083475589752,-0.3348511755466461,0.0629946365952491,0.2169374227523803,0.0,0.0,0.4070658502974777,0.6400014459732644
-0.0165699012577533,1.3237974643707275,-0.1416778862476349,-0.3184415400028229,0.0731586813926696,0.2032994925975799,0.0,0.0,-0.1529128729223603,-0.9740953882146922
-0.0179487224668264,1.316328525543213,-0.1501101702451706,-0.3325968980789184,0.0852924808859825,0.2426981478929519,0.0,0.0,0.9507821598271508,0.1560505271902074
-0.019285773858428,1.3091845512390137,-0.146779328584671,-0.3183050155639648,0.0982657745480537,0.2594895362854004,0.0,0.0,0.0898429515411549,-0.3397987799028725
-0.0205870624631643,1.3025542497634888,-0.1440823823213577,-0.2956598699092865,0.1121344417333602,0.2773986160755157,0.0,0.0,0.1325399924669588,-0.0770677695683362
-0.0218396186828613,1.295928716659546,-0.1399952471256256,-0.2956428825855255,0.1268145740032196,0.2936294674873352,0.0,0.0,0.2725589694016028,0.5859349139069788
-0.02301711961627,1.2900099754333496,-0.1319854259490966,-0.2643280625343323,0.1410144865512848,0.2840242981910705,0.0,0.0,0.4108343061767967,-0.9207357367971108
-0.0241754539310932,1.2842615842819214,-0.132487952709198,-0.2571422457695007,0.1576523780822754,0.3327882885932922,0.0,0.0,-0.3268244681071184,-0.8377962527336932
-0.025391673669219,1.2781982421875,-0.1400665789842605,-0.2715469300746918,0.1761499941349029,0.3699856102466583,0.0,0.0,0.3111888325583862,-0.0992443747680308
-0.0267513282597064,1.2724720239639282,-0.1545195579528808,-0.2568055391311645,0.1948097497224807,0.3732284903526306,0.0,0.0,0.8051219314806528,-0.934431800015414
-0.0281926151365041,1.2676764726638794,-0.1651753783226013,-0.2160421311855316,0.2160552591085434,0.4249483942985534,0.0,0.0,-0.2933671504081547,-0.3722653801048803
-0.0296352393925189,1.2625732421875,-0.1656701266765594,-0.2300922572612762,0.2377615571022033,0.4341651499271393,0.0,0.0,-0.7261212541060145,0.4514400868922481
-0.031079102307558,1.2571628093719482,-0.1661259233951568,-0.2441347986459732,0.2599310278892517,0.443429172039032,0.0,0.0,0.7194017078954744,-0.5702466601900158
-0.032574463635683,1.2519233226776123,-0.1729205101728439,-0.2371973693370819,0.2839262187480926,0.4799468517303467,0.0,0.0,0.0882136801853701,0.7898886621058122
-0.0342338569462299,1.2469704151153564,-0.1880153119564056,-0.2245841771364212,0.3067225515842438,0.4559676051139831,0.0,0.0,-0.6930425204406554,-0.5467337141572866
-0.0359407439827919,1.241669774055481,-0.1944070160388946,-0.2407864481210708,0.331365168094635,0.4928518831729889,0.0,0.0,0.4525667708059044,0.3452918564367946
-0.0378520973026752,1.236971735954285,-0.2151144444942474,-0.2145036607980728,0.3564901351928711,0.5024998784065247,0.0,0.0,-0.603814284638664,0.8852263237263994
-0.0397143363952636,1.232005596160889,-0.2090667486190796,-0.2265709042549133,0.3806484937667846,0.4831678867340088,0.0,0.0,0.7219618909908654,0.1847638511969989
-0.0420022010803222,1.2277827262878418,-0.2512566149234772,-0.1938611716032028,0.4046450853347778,0.4799317717552185,0.0,0.0,0.5079072577600587,0.0470815669370124
-0.0444821342825889,1.2238571643829346,-0.2705838084220886,-0.1811182647943496,0.4290205240249634,0.4875088334083557,0.0,0.0,-0.5052023181242935,-0.7158920306538405
-0.0470131859183311,1.2196004390716553,-0.2771732211112976,-0.1967553049325943,0.4552949666976928,0.5254887342453003,0.0,0.0,-0.976018249988556,0.9985336065292358
-0.0494806282222271,1.2150793075561523,-0.2692994773387909,-0.2085128724575042,0.4802275598049164,0.4986515939235687,0.0,0.0,-0.9692044258117676,0.9953564405441284
-0.0518904700875282,1.2103079557418823,-0.26204714179039,-0.2195675373077392,0.5038094520568848,0.4716374278068542,0.0,0.0,-0.9739174246788024,0.9879412651062012
-0.0542352683842182,1.2052730321884155,-0.2540796399116516,-0.2311395853757858,0.526007890701294,0.4439691603183746,0.0,0.0,-0.9572368264198304,0.9907411336898804
-0.0565105453133583,1.1999932527542114,-0.2453889101743698,-0.2417176514863968,0.5465126633644104,0.4100949168205261,0.0,0.0,-0.9522558450698853,0.9865617752075196
-0.058718491345644,1.194474220275879,-0.2369815409183502,-0.2519735693931579,0.5653079152107239,0.3759054541587829,0.0,0.0,-0.9192218780517578,0.932564616203308
-0.0608634948730468,1.1886993646621704,-0.2292789667844772,-0.2630199491977691,0.5826706886291504,0.3472560346126556,0.0,0.0,-0.8958705067634583,0.9894442558288574
-0.0629401206970214,1.182689905166626,-0.220763087272644,-0.2729292213916778,0.5982292294502258,0.3111703097820282,0.0,0.0,-0.9797704815864564,0.9221999645233154
-0.0649621933698654,1.176436424255371,-0.2139932811260223,-0.2833602726459503,0.6123804450035095,0.2830248177051544,0.0,0.0,-0.9276560544967652,0.9373903274536132
-0.0669188499450683,1.16994047164917,-0.2059720456600189,-0.2936000525951385,0.6248752474784851,0.2498960942029953,0.0,0.0,-0.9093496203422546,0.9601888656616212
-0.0688250511884689,1.1631951332092283,-0.1998272389173507,-0.3042645752429962,0.6361106038093567,0.2247069329023361,0.0,0.0,-0.9868093132972716,0.9769046306610109
-0.070652961730957,1.1562190055847168,-0.190226674079895,-0.3137249946594238,0.6452577710151672,0.182942733168602,0.0,0.0,-0.945109486579895,0.9725832939147948
-0.0724022835493087,1.149003505706787,-0.1807233393192291,-0.3236189484596252,0.6524296998977661,0.1434383392333984,0.0,0.0,-0.975033700466156,0.9359914064407348
-0.074079230427742,1.1415526866912842,-0.1719288527965545,-0.3333106935024261,0.6576920747756958,0.1052474826574325,0.0,0.0,-0.9938569068908693,0.85042405128479
-0.0756989493966102,1.133839726448059,-0.1651792675256729,-0.3444644808769226,0.6617055535316467,0.0802700966596603,0.0,0.0,-0.9936738014221193,0.855546236038208
-0.0772541016340255,1.125874638557434,-0.1575004011392593,-0.355030745267868,0.6641862392425537,0.0496138371527195,0.0,0.0,-0.99728262424469,0.2605321407318115
-0.0788047760725021,1.1175986528396606,-0.1574131548404693,-0.3690448403358459,0.6671323776245117,0.0589220635592937,0.0,0.0,-0.9792401790618896,0.5691565275192261
-0.0803254097700119,1.109049916267395,-0.1539615094661712,-0.3809441030025482,0.6695186495780945,0.0477260202169418,0.0,0.0,-0.9830455183982848,0.4475228786468506
-0.0818416625261306,1.1001901626586914,-0.1538873016834259,-0.3949582278728485,0.6723691821098328,0.0570101849734783,0.0,0.0,-0.9712583422660828,0.4396116733551025
-0.083353616297245,1.0910197496414185,-0.1538228094577789,-0.4089726209640503,0.6756832003593445,0.0662803500890731,0.0,0.0,-0.9850756525993348,0.364434003829956
-0.084861472249031,1.0815386772155762,-0.1537702530622482,-0.4229872524738312,0.6794599294662476,0.0755351409316062,0.0,0.0,-0.995004951953888,0.2904947996139526
-0.0863654166460037,1.071746587753296,-0.153731882572174,-0.4370021224021911,0.6836985945701599,0.0847729295492172,0.0,0.0,-0.9637603759765624,0.6546576023101807
-0.0878177657723426,1.0616977214813232,-0.147586703300476,-0.4479002058506012,0.6867040991783142,0.0601098239421844,0.0,0.0,-0.99206805229187,0.3237677812576294
-0.0892664939165115,1.0513380765914917,-0.1475844085216522,-0.4619148969650268,0.6901695132255554,0.0693083703517913,0.0,0.0,-0.9839469194412231,0.2433738708496093
-0.0907118767499923,1.0406677722930908,-0.1476031243801117,-0.4759297668933868,0.6940937042236328,0.078484259545803,0.0,0.0,-0.9328725934028624,0.8055719137191772
-0.0921124443411827,1.0297342538833618,-0.1423055827617645,-0.4871898591518402,0.6969881057739258,0.0578885972499847,0.0,0.0,-0.9884183406829834,0.4728639125823974
-0.0935101509094238,1.0184898376464844,-0.1423737108707428,-0.5012046098709106,0.7003387212753296,0.067012183368206,0.0,0.0,-0.9165764451026917,0.7101340293884277
-0.0948551148176193,1.0070021152496338,-0.1359471827745437,-0.5113867521286011,0.7022122740745544,0.0374708548188209,0.0,0.0,-0.9974413514137268,0.7285194396972656
-0.0961528792977333,0.9952701926231384,-0.1301703602075576,-0.5216343402862549,0.702717125415802,0.010096956975758,0.0,0.0,-0.9906943440437316,0.2192181348800659
-0.0974488258361816,0.9832276105880736,-0.1303294450044632,-0.5356484055519104,0.7036731243133545,0.0191203337162733,0.0,0.0,-0.9970407485961914,0.1937564611434936
-0.0987431555986404,0.9708741307258606,-0.1305228173732757,-0.5496624708175659,0.7050783038139343,0.0281041320413351,0.0,0.0,-0.961311936378479,0.7067890167236328
-0.1000034362077713,0.9582566022872924,-0.1264429986476898,-0.5610172748565674,0.7056222558021545,0.0108786532655358,0.0,0.0,-0.9886269569396972,0.6195871829986572
-0.1012183204293251,0.9453831315040588,-0.1209841817617416,-0.5718696713447571,0.7049635052680969,-0.0131749119609594,0.0,0.0,-0.9900580048561096,-0.0678468346595764
-0.1024329215288162,0.932198703289032,-0.121292844414711,-0.5858832597732544,0.704746663570404,-0.0043371967040002,0.0,0.0,-0.9614614248275756,0.2507802248001098
-0.1036476120352745,0.9187030792236328,-0.1216437816619873,-0.5998966097831726,0.7049688100814819,0.0044427956454455,0.0,0.0,-0.9730923771858216,0.8576276302337646
-0.1048231124877929,0.9049481749534608,-0.1168923750519752,-0.610962450504303,0.704120397567749,-0.0169683415442705,0.0,0.0,-0.9717974662780762,0.4214794635772705
-0.1059995666146278,0.8908820748329163,-0.1173331886529922,-0.6249754428863525,0.7037042379379272,-0.0083236861974,0.0,0.0,-0.9198272824287416,0.5008828639984131
-0.1071414947509765,0.8765430450439453,-0.1132434234023094,-0.6367470026016235,0.7024698853492737,-0.024686636403203,0.0,0.0,-0.9306199550628662,0.5526354312896729
-0.1082544326782226,0.8619410991668701,-0.1096665412187576,-0.6480653285980225,0.7003730535507202,-0.0419372022151947,0.0,0.0,-0.9510475993156432,0.4480677843093872
-0.1093699485063552,0.8470278978347778,-0.1102543324232101,-0.6620779037475586,0.6986956596374512,-0.0335481539368629,0.0,0.0,-0.9578571319580078,0.754807710647583
-0.1104522719979286,0.8318535685539246,-0.106151558458805,-0.6732509732246399,0.6960155963897705,-0.0536029860377311,0.0,0.0,-0.9601704478263856,0.5123574733734131
-0.1115069389343261,0.8164089322090149,-0.1027704700827598,-0.6849380135536194,0.6925550103187561,-0.0692115873098373,0.0,0.0,-0.9239234328269958,0.5256397724151611
-0.1125439628958702,0.8006880283355713,-0.1006004586815834,-0.6969967484474182,0.6885762214660645,-0.0795761346817016,0.0,0.0,-0.9382744431495668,0.6373646259307861
-0.1135434135794639,0.7847084999084473,-0.0959048494696617,-0.7079920172691345,0.6834192276000977,-0.1031394451856613,0.0,0.0,-0.8996636271476746,0.4869389533996582
-0.1145485863089561,0.7684178352355957,-0.0967630073428154,-0.7220039367675781,0.6786507964134216,-0.09536724537611,0.0,0.0,-0.8555771112442017,0.6730448007583618
-0.1155119910836219,0.7518649697303772,-0.0915771946310997,-0.7331410050392151,0.6726308465003967,-0.1203993707895279,0.0,0.0,-0.925812005996704,0.6461336612701416
-0.1164425835013389,0.7350401282310486,-0.0875161215662956,-0.7448452711105347,0.6656517386436462,-0.1395821720361709,0.0,0.0,-0.922102153301239,0.727618932723999
-0.1173401847481727,0.7179607152938843,-0.0831984728574752,-0.7556852698326111,0.6574527621269226,-0.1639787256717682,0.0,0.0,-0.8947921395301819,0.4131785631179809
-0.1182460784912109,0.7005699872970581,-0.0842871516942977,-0.7696972489356995,0.6496062874794006,-0.1569292992353439,0.0,0.0,-0.8898530602455139,0.6581780910491943
-0.1191308051347732,0.6829107403755188,-0.0814563184976577,-0.7813237905502319,0.6409216523170471,-0.1736930608749389,0.0,0.0,-0.906065046787262,0.8112800121307373
-0.1199825257062912,0.6649778485298157,-0.0772495791316032,-0.7931064963340759,0.6311946511268616,-0.1945405304431915,0.0,0.0,-0.924693763256073,0.8886470794677734
-0.1207889541983604,0.6468053460121155,-0.0712070912122726,-0.8031201958656311,0.6197114586830139,-0.22966368496418,0.0,0.0,-0.8912009000778198,0.8196349143981934
-0.1215638145804405,0.628368079662323,-0.0670042857527732,-0.8145087957382202,0.6070548892021179,-0.2531308233737945,0.0,0.0,-0.9274733066558838,0.812711238861084
-0.1223053932189941,0.6096720695495605,-0.0624761059880256,-0.8256022334098816,0.5930856466293335,-0.2793850302696228,0.0,0.0,-0.8953606486320496,0.9440972805023192
-0.1230024322867393,0.5907299518585205,-0.0564568936824798,-0.8360090851783752,0.5773891806602478,-0.3139297068119049,0.0,0.0,-0.7803576588630676,0.7821098566055298
-0.1236553192138671,0.571535050868988,-0.0504905693233013,-0.84678053855896,0.5600283145904541,-0.3472178280353546,0.0,0.0,-0.2154753804206848,0.8760135173797607
-0.1242603287100792,0.5520802140235901,-0.0440597459673881,-0.8579197525978088,0.5409750938415527,-0.3810643553733825,0.0,0.0,0.1948851346969604,0.91884183883667
-0.1249007210135459,0.5328010320663452,-0.0459034740924835,-0.8497428894042969,0.5202074646949768,-0.4153531193733215,0.0,0.0,-0.0565913915634155,0.8071134090423584
-0.1254900991916656,0.5132720470428467,-0.0388833731412887,-0.8604702353477478,0.4975144863128662,-0.4538593292236328,0.0,0.0,0.7357203960418701,0.8194863796234131
-0.1260954886674881,0.4941378831863403,-0.0390772894024848,-0.8428415060043335,0.4735628366470337,-0.4790330827236175,0.0,0.0,0.8047263622283936,0.743290901184082
-0.1270497292280197,0.4758326113224029,-0.0724334269762039,-0.805928647518158,0.4481912851333618,-0.5074308514595032,0.0,0.0,0.2451344728469848,0.80940842628479
-0.128192514181137,0.4580583572387695,-0.0895628407597541,-0.7822903990745544,0.4212827980518341,-0.5381700396537781,0.0,0.0,-0.2410021424293518,0.8754210472106934
-0.1292813271284103,0.4400332868099212,-0.0819278806447982,-0.7933423519134521,0.3922944962978363,-0.5797663927078247,0.0,0.0,0.6967378854751587,0.8588736057281494
-0.1303489655256271,0.4222657680511474,-0.0780907794833183,-0.7820621728897095,0.3618219792842865,-0.6094505786895752,0.0,0.0,0.919914722442627,0.9585250616073608
-0.1316407173871994,0.4050278663635254,-0.0982398837804794,-0.7586640119552612,0.3293465673923492,-0.6495088338851929,0.0,0.0,0.9112706184387208,0.9424242973327636
-0.1331083327531814,0.3890052139759063,-0.1138242930173873,-0.7049835324287415,0.2951656877994537,-0.6836179494857788,0.0,0.0,0.7783374786376953,0.965245246887207
-0.1347319632768631,0.3735836744308471,-0.1271543502807617,-0.6786823868751526,0.259010761976242,-0.7230993509292603,0.0,0.0,0.5297585725784302,0.8876487016677856
-0.1366279572248459,0.3589180707931518,-0.152103304862976,-0.6456414461135864,0.2208963930606842,-0.7622882127761841,0.0,0.0,0.6593366861343384,0.6119704246520996
-0.1385634392499923,0.3450325727462768,-0.1547249555587768,-0.6117907762527466,0.1817562729120254,-0.782803475856781,0.0,0.0,0.4514390230178833,0.8798699378967285
-0.1406281441450119,0.331836462020874,-0.165479227900505,-0.5819891691207886,0.1407470405101776,-0.820185661315918,0.0,0.0,-0.3164070844650268,0.9521546363830566
-0.1426547020673751,0.3183690011501312,-0.1596997678279876,-0.5950534343719482,0.0980312451720237,-0.8543170094490051,0.0,0.0,0.6127381324768066,0.6373661756515503
-0.1447302848100662,0.3053388297557831,-0.162986159324646,-0.5767921209335327,0.0539030879735946,-0.8825642466545105,0.0,0.0,-0.1710778474807739,0.7117820978164673
-0.1467859297990799,0.2920247614383697,-0.1596247106790542,-0.5907077789306641,0.0085293008014559,-0.9074770212173462,0.0,0.0,-0.2044898867607116,-0.3905574083328247
-0.1488667428493499,0.2784234583377838,-0.1619987189769745,-0.6048699617385864,-0.0369680076837539,-0.9099475145339966,0.0,0.0,0.0883312225341796,-0.8871396780014038
-0.1509429961442947,0.2652480900287628,-0.1632642298936844,-0.5872486233711243,-0.080831229686737,-0.8772649765014648,0.0,0.0,-0.2326843738555908,-0.8806108236312866
-0.1531069725751876,0.2517826855182647,-0.1735990941524505,-0.6013187766075134,-0.1232844963669776,-0.8490662574768066,0.0,0.0,0.0471336841583251,-0.969828724861145
-0.1552021950483322,0.2387467920780182,-0.168656125664711,-0.5832560062408447,-0.1640218645334243,-0.8147484660148621,0.0,0.0,0.1388740539550781,-0.9816802144050598
-0.1573288887739181,0.2262406200170517,-0.1738428622484207,-0.560579240322113,-0.2029873430728912,-0.779310405254364,0.0,0.0,0.1530147790908813,-0.8397988080978394
-0.1593111008405685,0.2143101543188095,-0.1612051725387573,-0.5357535481452942,-0.2404152601957321,-0.7485588788986206,0.0,0.0,0.4540963172912597,-0.8983877301216125
-0.1611917465925216,0.2028243690729141,-0.1530203372240066,-0.5166076421737671,-0.2761830985546112,-0.7153568267822266,0.0,0.0,0.7677688598632812,-0.9059720039367676
-0.1629348695278167,0.1923425048589706,-0.1411423832178115,-0.4724957644939422,-0.3103683292865753,-0.6837054491043091,0.0,0.0,0.8992972373962402,-0.962177276611328
-0.1644238531589508,0.1828614324331283,-0.1178405508399009,-0.4283556640148163,-0.34272301197052,-0.6470934152603149,0.0,0.0,0.8999879360198975,-0.9882616400718688
-0.1657391488552093,0.1738067269325256,-0.1026147454977035,-0.4096096456050873,-0.3731790482997894,-0.6091205477714539,0.0,0.0,0.933296799659729,-0.9858802556991576
-0.1670369207859039,0.1655908674001693,-0.1025865450501442,-0.372515469789505,-0.4021429419517517,-0.5792781114578247,0.0,0.0,0.9010612964630128,-0.8741428852081299
-0.1683427840471267,0.1580226719379425,-0.1048499196767807,-0.3439131677150726,-0.4299000203609466,-0.5551416873931885,0.0,0.0,0.8035047054290771,-0.9961771965026855
-0.169514462351799,0.1510540843009948,-0.0933299213647842,-0.3172321915626526,-0.4559330344200134,-0.5206602811813354,0.0,0.0,0.7343740463256836,-0.9673312902450562
-0.170508474111557,0.1445624977350235,-0.0774223655462265,-0.2958985567092895,-0.4802302718162536,-0.4859451353549957,0.0,0.0,0.2940330505371094,-0.9998544454574584
-0.1713670790195465,0.1381028741598129,-0.0657311528921127,-0.294257640838623,-0.5027554035186768,-0.4505021572113037,0.0,0.0,0.3953489065170288,-0.99686598777771
-0.1719595938920974,0.1320867091417312,-0.0409629270434379,-0.2742414474487304,-0.5234706401824951,-0.4143058359622955,0.0,0.0,0.1670641899108886,-0.9993712306022644
-0.1723424941301345,0.126553788781166,-0.0217552687972784,-0.2523951530456543,-0.5424076914787292,-0.3787411153316498,0.0,0.0,-0.2274782657623291,-0.9998958110809326
-0.1728184670209884,0.1207567751407623,-0.0325710102915763,-0.2637893855571747,-0.559815526008606,-0.3481568694114685,0.0,0.0,-0.1951587200164795,-0.9999589920043944
