x_pos,y_pos,x_vel,y_vel,angle,ang_vel,leg_1,leg_2,main_booster,lat_booster
-0.0015561103355139,1.403029441833496,-0.1575479209423065,-0.3506973385810852,0.0017338261241093,0.0341993048787117,0.0,0.0,-0.8669487885039342,0.5458500513829811
-0.00309629435651,1.3945642709732056,-0.1544904112815857,-0.3762282133102417,0.0021943957544863,0.0092129679396748,0.0,0.0,-0.2870353871379534,-0.7058405203842291
-0.0047080041840672,1.385498285293579,-0.1626847833395004,-0.4029342234134674,0.0036873877979815,0.0298626609146595,0.0,0.0,-0.754596880492975,0.656729535586924
-0.0063043595291674,1.375835418701172,-0.1600321829319,-0.4294668734073639,0.0040843556635081,0.0079402057453989,0.0,0.0,-0.9646590635968906,0.753498585413553
-0.0078522684052586,1.3655800819396973,-0.1533164530992508,-0.4557844996452331,0.0026226791087538,-0.0292362906038761,0.0,0.0,0.2321744854208278,-0.8914310574083456
-0.0093741416931152,1.3553364276885986,-0.1525317728519439,-0.4552799165248871,0.0029665553011,0.0068782507441937,0.0,0.0,-0.9998603820875398,-0.9181665321906856
-0.010989380069077,1.3444970846176147,-0.163737952709198,-0.4817505180835724,0.0051488941535353,0.0436509624123573,0.0,0.0,-0.1927300448879949,0.9596994764482498
-0.0125263212248682,1.333066463470459,-0.153455451130867,-0.5080306529998779,0.0049162022769451,-0.0046540927141904,0.0,0.0,-0.4562451942884749,0.7102776277601142
-0.0140213966369628,1.3210487365722656,-0.1478390544652938,-0.5341120958328247,0.0032644642051309,-0.0330377742648124,0.0,0.0,-0.0502875926801849,0.933535723434266
-0.015453147701919,1.3084423542022705,-0.1395979225635528,-0.5602806210517883,-0.0002739872143138,-0.0707757622003555,0.0,0.0,-0.2009332631331191,0.7168096462970318
-0.016827393323183,1.2952415943145752,-0.1321729570627212,-0.5867075324058533,-0.005473154131323,-0.1039927154779434,0.0,0.0,-0.2074278336389317,0.9626617977217682
-0.0181210525333881,1.28144371509552,-0.1219085454940795,-0.6132837533950806,-0.0128399208188056,-0.1473489701747894,0.0,0.0,0.1295363121892168,-0.6692100014128943
-0.0193616859614849,1.2677712440490725,-0.1180536299943924,-0.6077324151992798,-0.018779344856739,-0.118799552321434,0.0,0.0,-0.1374589354445461,0.5335409514007363
-0.0205533020198345,1.253497838973999,-0.1119266524910926,-0.6344825625419617,-0.0259332172572612,-0.1430902779102325,0.0,0.0,-0.1800523653297747,0.5254918248904721
-0.0216881744563579,1.238633632659912,-0.1049278154969215,-0.6608002781867981,-0.0344044975936412,-0.1694409996271133,0.0,0.0,0.6834909643211271,-0.8273743928057631
-0.0227458961308002,1.223616600036621,-0.0990697294473648,-0.667593777179718,-0.0410392545163631,-0.1327074021100998,0.0,0.0,0.9985287494375724,0.9297152950495168
-0.0234923362731933,1.2095509767532349,-0.0664007291197776,-0.6253820657730103,-0.0491897128522396,-0.1630244851112365,0.0,0.0,-0.3524446215892181,-0.8790587119351659
-0.0242766384035348,1.194887399673462,-0.0715069621801376,-0.6519591808319092,-0.0560376234352588,-0.1369701921939849,0.0,0.0,-0.849076935189387,-0.9806773651676456
-0.0251067169010639,1.1796441078186035,-0.0777194499969482,-0.6776897311210632,-0.061279933899641,-0.1048556938767433,0.0,0.0,-0.6418162609177276,-0.726252836535898
-0.0259798057377338,1.163811445236206,-0.0836440175771713,-0.7038242220878601,-0.0649160668253898,-0.0727293565869331,0.0,0.0,-0.3903695584170978,-0.5819272504674002
-0.0268637649714946,1.14739191532135,-0.0856074914336204,-0.7298879623413086,-0.0676698312163353,-0.0550802648067474,0.0,0.0,-0.7124521933246721,-0.7198897741558965
-0.0277749057859182,1.1303788423538208,-0.0897182747721672,-0.7562015056610107,-0.0690511465072631,-0.02762914262712,0.0,0.0,-0.0912012777597965,-0.7442432366057249
-0.0287002567201852,1.1127746105194092,-0.0922762751579284,-0.7824287414550781,-0.0693025365471839,-0.0050284666940569,0.0,0.0,-0.2099876314438085,0.6293681576191484
-0.0295351985841989,1.094562292098999,-0.0817971974611282,-0.8095084428787231,-0.0709856301546096,-0.0336648039519786,0.0,0.0,-0.3869438813163499,-0.5474463088446857
-0.0303848274052143,1.075762391090393,-0.0845936685800552,-0.8355717062950134,-0.0713527500629425,-0.0073430673219263,0.0,0.0,0.0888123656393848,0.5205380406218297
-0.0312251094728708,1.0570499897003174,-0.0823768302798271,-0.8317437767982483,-0.0729828551411628,-0.0326020531356334,0.0,0.0,-0.4040355728892106,-0.7349853947685985
-0.0320775993168354,1.037753343582153,-0.0850419849157333,-0.8576335310935974,-0.0731911584734916,-0.0041659502312541,0.0,0.0,0.2881877892524156,0.8917730221507709
-0.0328807830810546,1.0188390016555786,-0.0781947523355484,-0.8407488465309143,-0.0752931907773017,-0.0420404970645904,0.0,0.0,0.7527561996683525,0.7341039653582255
-0.033662986010313,1.0005754232406616,-0.0742650628089904,-0.8119211196899414,-0.079214222729206,-0.0784205943346023,0.0,0.0,-0.1149125663744958,-0.8133499889246463
-0.0344573035836219,0.9817216992378236,-0.0771254673600196,-0.8380628824234009,-0.0814953297376632,-0.0456218607723712,0.0,0.0,0.2518994393481675,-0.8231912269722395
-0.0351900085806846,0.9632474780082704,-0.0726094841957092,-0.821114182472229,-0.0821558982133865,-0.0132115874439477,0.0,0.0,0.9017529487609864,-0.8463355302810669
-0.0359858497977256,0.9449478387832642,-0.0803779289126396,-0.8132759928703308,-0.0813659057021141,0.0157998763024806,0.0,0.0,0.8041622638702393,-0.7392639517784119
-0.0368029586970806,0.9273880124092102,-0.0837418735027313,-0.7803300619125366,-0.0793549567461013,0.0402187705039978,0.0,0.0,0.7794475555419922,-0.1937106847763061
-0.0375916473567485,0.909822165966034,-0.0805424153804779,-0.780613899230957,-0.0777011141180992,0.0330769903957843,0.0,0.0,0.7591261863708496,-0.3815595507621765
-0.0382425300776958,0.8926581740379333,-0.0668009519577026,-0.7627567052841187,-0.0760077536106109,0.0338670834898948,0.0,0.0,0.1945422887802124,0.1696962118148803
-0.0387675277888774,0.8757157921791077,-0.0542296357452869,-0.7529141902923584,-0.0742953494191169,0.0342481844127178,0.0,0.0,0.1280874013900756,0.1062102317810058
-0.0392135605216026,0.8586452007293701,-0.0462082996964454,-0.758607029914856,-0.0727088376879692,0.0317303724586963,0.0,0.0,-0.3259662985801697,-0.3350535631179809
-0.0395835861563682,0.8409799933433533,-0.0385536067187786,-0.7850528359413147,-0.0711665973067283,0.0308447666466236,0.0,0.0,-0.2633067965507507,0.0408765077590942
-0.0398751273751258,0.8227195143699646,-0.0306698884814977,-0.8114985227584839,-0.069669984281063,0.0299320816993713,0.0,0.0,-0.2177509665489196,-0.0801286697387695
-0.0400860793888568,0.8038643598556519,-0.0225669145584106,-0.8379442095756531,-0.0682204142212867,0.0289912279695272,0.0,0.0,0.3826487064361572,0.2641593217849731
-0.040259264409542,0.7853984236717224,-0.018307751044631,-0.820662796497345,-0.0672327131032943,0.019753934815526,0.0,0.0,0.087221622467041,-0.5079567432403564
-0.0402753837406635,0.7668470144271851,-0.0037619706708937,-0.824411928653717,-0.0651156455278396,0.0423416942358017,0.0,0.0,-0.2580913305282593,0.8354799747467041
-0.0401288978755474,0.7476838827133179,0.0145150888711214,-0.8516854643821716,-0.0649839416146278,0.0026339178439229,0.0,0.0,-0.5880634784698486,-0.430194079875946
-0.0398941040039062,0.7279257774353027,0.0233985744416713,-0.8781310319900513,-0.0649054870009422,0.0015691589796915,0.0,0.0,0.0930244922637939,0.202994704246521
-0.0395835861563682,0.7078670263290405,0.0311604533344507,-0.8915044665336609,-0.0650063455104827,-0.0020171557553112,0.0,0.0,-0.0051799416542053,0.1559374332427978
-0.0391813293099403,0.6872133016586304,0.0403783395886421,-0.9179499745368958,-0.0651638507843017,-0.0031503238715231,0.0,0.0,0.0903017520904541,-0.6325567960739136
-0.0386717803776264,0.66640305519104,0.0498530603945255,-0.9248512983322144,-0.0640627443790435,0.022022072225809,0.0,0.0,0.6215591430664062,-0.3144436478614807
-0.0381251350045204,0.6462334394454956,0.0541191212832927,-0.8964036703109741,-0.0635323151946067,0.0106089394539594,0.0,0.0,0.4524455070495605,-0.8817199468612671
-0.0376397147774696,0.6265331506729126,0.0464509986340999,-0.8754824995994568,-0.0614600554108619,0.0414451770484447,0.0,0.0,0.5520014762878418,0.0524988174438476
-0.0370475761592388,0.6069551706314087,0.0572803318500518,-0.870057225227356,-0.0595439784228801,0.0383215360343456,0.0,0.0,0.0616105794906616,-0.5480175018310547
-0.0362760536372661,0.5873262286186218,0.0740026906132698,-0.8722745180130005,-0.0564368702471256,0.0621421411633491,0.0,0.0,0.6226205825805664,-0.6527659893035889
-0.0354769714176654,0.5682000517845154,0.075652077794075,-0.8498990535736084,-0.0522354952991008,0.0840274021029472,0.0,0.0,0.5165483951568604,-0.5944957733154297
-0.034494400024414,0.5490823984146118,0.0926281735301017,-0.8494892120361328,-0.0466727763414382,0.1112545579671859,0.0,0.0,0.6959612369537354,-0.3109332323074341
-0.0333687774837017,0.5305967926979065,0.1069933325052261,-0.8214166760444641,-0.0411675423383712,0.1101047620177269,0.0,0.0,0.2708123922348022,-0.6416832804679871
-0.0320488922297954,0.5120718479156494,0.124980092048645,-0.8231590390205383,-0.0342467129230499,0.1384165287017822,0.0,0.0,0.6451438665390015,-0.7442402243614197
-0.0307729728519916,0.4936610758304596,0.1193728595972061,-0.8180914521217346,-0.0261283945292234,0.1623663157224655,0.0,0.0,0.5888694524765015,-0.3107953071594238
-0.0292824748903512,0.4758020043373108,0.1404890865087509,-0.7936118245124817,-0.0176713969558477,0.1691398918628692,0.0,0.0,0.7416362762451172,-0.1242333650588989
-0.027528952807188,0.4584113359451294,0.1661859452724456,-0.7728354334831238,-0.0086234267801046,0.1809593439102172,0.0,0.0,0.0143760442733764,-0.403464674949646
-0.0256195068359375,0.4411844909191131,0.1816422045230865,-0.7656133770942688,0.0005523092695511,0.1835150569677353,0.0,0.0,0.3941715955734253,-0.5808494091033936
-0.0237202644348144,0.4243633151054382,0.1796987354755401,-0.7476385831832886,0.0106449229642748,0.2018520832061767,0.0,0.0,0.1650938987731933,-0.3769475817680359
-0.0216808319091796,0.407340794801712,0.1936390399932861,-0.7566590905189514,0.0208150930702686,0.2034036368131637,0.0,0.0,0.3809964656829834,-0.3258214592933655
-0.0196300502866506,0.390601247549057,0.1952682733535766,-0.7441445589065552,0.0305055808275938,0.1938094794750213,0.0,0.0,0.621314525604248,-0.1131154894828796
-0.0173656456172466,0.3740344047546386,0.2161585539579391,-0.7365432381629944,0.0406622067093849,0.2031323462724685,0.0,0.0,0.5844607353210449,-0.4272570610046386
-0.0149941444396972,0.3577563464641571,0.2268627136945724,-0.7237815260887146,0.0508262477815151,0.2032806575298309,0.0,0.0,0.8785409927368164,-0.0543599724769592
-0.0125281335785985,0.3415680229663849,0.2363810539245605,-0.7198598980903625,0.0609317049384117,0.2021090984344482,0.0,0.0,0.9789793491363524,-0.4689209461212158
-0.0101440427824854,0.325832188129425,0.2289938032627105,-0.6997780203819275,0.0702488794922828,0.1863435208797454,0.0,0.0,0.9256503582000732,-0.5650581121444702
-0.0077386857010424,0.3109997808933258,0.2300146520137787,-0.6597442626953125,0.0806600376963615,0.2082231938838958,0.0,0.0,0.9886833429336548,-0.1098572611808776
-0.0051533700898289,0.2961120307445526,0.2476706057786941,-0.6623004078865051,0.0914206132292747,0.2152115851640701,0.0,0.0,0.9390137195587158,-0.1898494362831115
-0.0025177001953125,0.2821314930915832,0.2526752352714538,-0.6220548748970032,0.1022176444530487,0.2159404307603836,0.0,0.0,0.7647838592529297,-0.1529228687286377
7.677078247070312e-05,0.2682964503765106,0.2491527795791626,-0.6156277060508728,0.1124367415904998,0.2043822258710861,0.0,0.0,0.8788363933563232,-0.0990506410598754
0.0025918006431311,0.2549977004528045,0.2418186366558075,-0.5918135046958923,0.1220572218298912,0.1924098879098892,0.0,0.0,0.8645484447479248,-0.5936153531074524
0.0051222802139818,0.2421501278877258,0.2422105818986892,-0.571925163269043,0.1328441202640533,0.2157380282878875,0.0,0.0,0.7997279167175293,-0.7753417491912842
0.007428360171616,0.2300428450107574,0.218669980764389,-0.5392111539840698,0.1447371393442154,0.2378605157136917,0.0,0.0,0.7675940990447998,0.2643817663192749
0.0098341945558786,0.218276247382164,0.2284343242645263,-0.5241879820823669,0.1568704098463058,0.242665410041809,0.0,0.0,0.663425087928772,0.4131795167922973
0.0122562404721975,0.2064916938543319,0.2303632944822311,-0.5250521302223206,0.1687207221984863,0.2370060980319976,0.0,0.0,0.8120265007019043,0.1916730403900146
0.0148033145815134,0.1946597248315811,0.2426745891571045,-0.5272803902626038,0.1807875782251358,0.2413372099399566,0.0,0.0,0.8864302635192871,0.1152026653289794
0.0173567775636911,0.1827964186668396,0.2436249256134033,-0.528731107711792,0.192556619644165,0.2353809177875518,0.0,0.0,0.7715518474578857,0.412103533744812
0.0198500640690326,0.1715891510248184,0.2378214299678802,-0.4996406137943268,0.2041508704423904,0.2318845689296722,0.0,0.0,0.9778084754943848,0.0436387062072753
0.0223508831113576,0.1612519174814224,0.2382851839065551,-0.4611064195632934,0.2160525918006897,0.2380342036485672,0.0,0.0,0.6303560733795166,0.0676338672637939
0.0246821399778127,0.1514670699834823,0.2220082730054855,-0.4365483820438385,0.2273040413856506,0.2250289171934127,0.0,0.0,-0.1191864013671875,0.3763208389282226
0.0271248817443847,0.1410884261131286,0.2333306074142456,-0.4630013406276703,0.2384152263402938,0.2222233265638351,0.0,0.0,0.5658475160598755,0.4377474784851074
0.0295394901186227,0.1312214732170105,0.2305025160312652,-0.4403451085090637,0.2495607435703277,0.2229103744029998,0.0,0.0,0.6040449142456055,0.1208018064498901
0.031832218170166,0.121536336839199,0.2189369648694992,-0.4322445094585418,0.2601065337657928,0.2109160423278808,0.0,0.0,0.5446317195892334,-0.2849953770637512
0.0340239517390728,0.1121558248996734,0.2092337906360626,-0.4187064468860626,0.2702685296535492,0.2032397240400314,0.0,0.0,0.6178884506225586,-0.4097920060157776
0.0361329093575477,0.1031662821769714,0.2011828124523162,-0.4013605415821075,0.2802275717258453,0.1991810649633407,0.0,0.0,0.4947832822799682,-0.2655202150344848
0.0382832512259483,0.0943739265203476,0.2051474750041961,-0.3926996290683746,0.290400892496109,0.2034664154052734,0.0,0.0,0.0762866735458374,-0.5711316466331482
0.0404552444815635,0.085290677845478,0.2063399255275726,-0.4059049785137176,0.3016133904457092,0.2242491692304611,0.0,0.0,0.744565486907959,-0.6039077043533325
0.042667768895626,0.0762441232800483,0.2091346681118011,-0.4046350121498108,0.314168781042099,0.2511077523231506,0.0,0.0,0.7547907829284668,-0.0748672485351562
0.0449520125985145,0.0675416812300682,0.2158096134662628,-0.3895636796951294,0.3272910118103027,0.2624443769454956,0.0,0.0,0.8534481525421143,0.1059026718139648
0.047352410852909,0.0589496716856956,0.226932018995285,-0.3848925828933716,0.3409790694713592,0.2737612128257751,0.0,0.0,0.8695663213729858,0.0665489435195922
0.0495722778141498,0.0509628392755985,0.2091354876756668,-0.3580711483955383,0.3544785380363464,0.2699889540672302,0.0,0.0,0.9249656200408936,0.3607839345932007
0.0516288764774799,0.0436446294188499,0.1928621232509613,-0.3284724056720733,0.3679844737052917,0.2701188325881958,0.0,0.0,0.9526554346084596,0.4589722156524658
0.0536484718322753,0.0369158610701561,0.1887409389019012,-0.3025199472904205,0.3820097744464874,0.2805061340332031,0.0,1.0,0.9971352815628052,0.9954124689102172
0.0557474121451377,0.0314047448337078,0.2128613889217376,-0.244624525308609,0.3771324753761291,-0.1000411733984947,0.0,1.0,0.9995907545089722,0.9345642328262328
0.0575037971138954,0.0270035602152347,0.1995656788349151,-0.1895098686218261,0.3518444895744324,-0.505761444568634,0.0,1.0,0.993295431137085,-0.8029338717460632
0.0588490478694438,0.0242312997579574,0.1723025143146515,-0.1144982725381851,0.312283843755722,-0.7913340330123901,0.0,1.0,0.9539021253585817,-0.9571366906166076
0.0598350539803504,0.0221760850399732,0.143541157245636,-0.0823800712823867,0.2659006118774414,-0.927782654762268,0.0,1.0,0.9367048740386964,-0.9417802691459656
0.060352899134159,0.0208093021064996,0.0952245593070983,-0.0534933879971504,0.2216119617223739,-0.8858727216720581,0.0,1.0,0.8456319570541382,-0.8714286088943481
0.0607505813241004,0.0200113635510206,0.0808532163500785,-0.0298384837806224,0.1801769733428955,-0.8287338018417358,0.0,0.0,-0.9958731532096864,-0.7775464057922363
0.0611891746520996,0.0186275579035282,0.0837189927697181,-0.0571564435958862,0.1402815580368042,-0.7979403734207153,0.0,0.0,-0.9684802293777466,-0.684529721736908
0.0616739280521869,0.0166613906621933,0.0871656090021133,-0.0842072665691375,0.1017752811312675,-0.7701571583747864,0.0,0.0,0.4961280822753906,-0.9854339361190796
0.0621177665889263,0.014772973023355,0.0814333632588386,-0.081824280321598,0.0650505051016807,-0.7345255613327026,0.0,0.0,0.4253195524215698,-0.936619222164154
0.0624469742178916,0.0130660869181156,0.068448856472969,-0.0747021287679672,0.0299220532178878,-0.7025980949401855,0.0,0.0,-0.1701891422271728,-0.9552397727966307
0.0627896338701248,0.0107733346521854,0.0675863847136497,-0.1015674844384193,-0.0029977820813655,-0.6584235429763794,0.0,0.0,0.7994391918182373,-0.9273324608802797
0.0632968917489051,0.0090788574889302,0.0821470022201538,-0.0756715834140777,-0.0340327881276607,-0.6207253932952881,0.0,0.0,0.6980030536651611,-0.943106770515442
0.0639200210571289,0.007362101227045,0.0918677747249603,-0.0772345811128616,-0.0632601454854011,-0.5845705270767212,0.0,0.0,0.4765124320983886,-0.9343869686126708
0.0648613944649696,0.0068128919228911,0.1019861549139022,-0.0247621275484561,-0.071025475859642,-0.1553027331829071,1.0,0.0,-0.3852616548538208,-0.9186292886734008
0.0658368095755577,0.0063465810380876,0.0854220241308212,-0.0201929304748773,-0.059039931744337,0.2397139817476272,1.0,0.0,-0.8357314467430115,-0.9190362095832824
0.0668270140886306,0.0057399366050958,0.0736642107367515,-0.0261520314961671,-0.0339782908558845,0.5012375116348267,1.0,0.0,-0.788160502910614,-0.233122169971466
0.0677943229675293,0.004512021318078,0.0727095603942871,-0.0541999340057373,-0.0102574974298477,0.4744162559509277,1.0,0.0,-0.618829071521759,-0.3229415416717529
0.0687617287039756,0.0026965595316141,0.0727075412869453,-0.0806931182742118,0.0134623227640986,0.4743968546390533,0.0,0.0,-0.5401731133460999,-0.0091582536697387
0.0698338523507118,0.0002934789517894,0.0833727642893791,-0.1071862056851387,0.0370047353208065,0.4708483219146728,0.0,1.0,0.7293171882629395,0.9232226610183716
0.0709033980965614,-0.001546194544062,0.0986499190330505,-0.0822071656584739,0.0441578179597854,0.1417097747325897,0.0,1.0,0.163001537322998,0.2497721910476684
0.0716471672058105,-0.0028473876882344,0.085264965891838,-0.0575524643063545,0.0333613082766532,-0.2159691601991653,0.0,1.0,0.1367803812026977,-0.5249799489974976
0.0721439346671104,-0.0031018042936921,0.057805486023426,-0.0111555280163884,0.0253141932189464,-0.1609677523374557,1.0,1.0,-0.2798275947570801,-0.8636908531188965
0.0724906921386718,-0.0028604411054402,0.038861233741045,0.0107900910079479,0.0211628023535013,-0.0830490291118621,1.0,1.0,-0.9035502076148988,-0.6377293467521667
0.0727145224809646,-0.0023160243872553,0.0265105571597814,0.0242493022233247,0.0170718077570199,-0.0818480402231216,1.0,1.0,-0.8725271821022034,-0.619112491607666
0.0728786438703537,-0.0016640329267829,0.0213834568858146,0.0290233008563518,0.012153866700828,-0.0983721166849136,1.0,1.0,-0.9779273867607116,-0.7499248385429382
0.0729763954877853,-0.0009930873056873,0.0149115845561027,0.0298538450151681,0.007078752387315,-0.1015125066041946,1.0,1.0,-0.964262068271637,-0.56647127866745
0.0730227455496788,-0.000372138019884,0.0094229653477668,0.0276126060634851,0.0023548195604234,-0.0944874584674835,1.0,1.0,-0.9805415868759156,-0.5699297785758972
0.0730648040771484,-0.0002948188921436,0.0048115598037838,0.0034358496777713,0.0017493896884843,-0.012106797657907,1.0,1.0,-0.9044031500816344,-0.0141804814338684
