x_pos,y_pos,x_vel,y_vel,angle,ang_vel,leg_1,leg_2,main_booster,lat_booster
-0.0015232085715979,1.4032573699951172,-0.1543192416429519,-0.3405652046203613,0.0017955062212422,0.035420224070549,0.0,0.0,0.2334595918655395,0.9639862775802612
-0.0029255866538733,1.395762920379639,-0.1401246339082718,-0.3330853283405304,0.0016881678020581,-0.0021461769938468,0.0,0.0,-0.4458823800086975,0.0792762041091919
-0.0043272972106933,1.3879008293151855,-0.1400922834873199,-0.349427729845047,0.0016090145800262,-0.0015834581572562,0.0,0.0,-0.4200161695480346,-0.369892954826355
-0.0057284357026219,1.379671573638916,-0.1400617808103561,-0.3657445907592773,0.001559866592288,-0.0009832211071625,0.0,0.0,-0.5060456395149231,0.8028318881988525
-0.0070523261092603,1.3710778951644895,-0.1304194629192352,-0.3819378316402435,-0.0003843769954983,-0.0388883017003536,0.0,0.0,0.066421627998352,0.4720456600189209
-0.0082867620512843,1.3626430034637451,-0.1219405904412269,-0.3748842179775238,-0.0018690263386815,-0.0296956337988376,0.0,0.0,-0.2369974255561828,0.3226219415664673
-0.0095204357057809,1.353840947151184,-0.1219106167554855,-0.3912034630775451,-0.0033168434165418,-0.0289591941982507,0.0,0.0,-0.408970832824707,0.6161971092224121
-0.0106929782778024,1.34467351436615,-0.1142895221710205,-0.4074533581733703,-0.006246730685234,-0.0586033836007118,0.0,0.0,-0.0854256153106689,0.361095666885376
-0.0118646621704101,1.3351390361785889,-0.1142577156424522,-0.4237689971923828,-0.0091335475444793,-0.0577415637671947,0.0,0.0,0.1138731241226196,0.6778813600540161
-0.0129783628508448,1.3259756565093994,-0.1071381568908691,-0.4072895050048828,-0.0133196283131837,-0.0837290734052658,0.0,0.0,-0.7907020449638367,-0.1619561910629272
-0.0140912057831883,1.3164454698562622,-0.1071060746908187,-0.4236114919185638,-0.017457915470004,-0.0827732682228088,0.0,0.0,-0.1514104008674621,0.4474676847457886
-0.0152033809572458,1.3065483570098877,-0.1070759668946266,-0.4399254620075226,-0.0215470809489488,-0.081790953874588,0.0,0.0,-0.181888461112976,0.1842932701110839
-0.0163146965205669,1.2962844371795654,-0.1070475205779075,-0.4562409818172455,-0.0255846474319696,-0.0807586386799812,0.0,0.0,-0.5133529305458069,0.7675076723098755
-0.0173578262329101,1.2856440544128418,-0.0985723584890365,-0.4730195999145508,-0.0312656126916408,-0.1136295795440673,0.0,0.0,-0.6134324669837952,-0.7274394035339355
-0.0184437744319438,1.2746464014053345,-0.1040389686822891,-0.4888879060745239,-0.0357832871377468,-0.0903616026043891,0.0,0.0,0.2604713439941406,-0.289644718170166
-0.0194373130798339,1.2636172771453855,-0.0952411219477653,-0.4902849197387695,-0.0398503355681896,-0.0813483148813247,0.0,0.0,-0.6376936435699463,-0.911024570465088
-0.0204852111637592,1.252234935760498,-0.1021451205015182,-0.5059479475021362,-0.0424607545137405,-0.0522130727767944,0.0,0.0,-0.1882967352867126,-0.7766091823577881
-0.0215792655944824,1.240482211112976,-0.1080173477530479,-0.5223895311355591,-0.0438330322504043,-0.0274479277431964,0.0,0.0,-0.3404241800308227,-0.3832788467407226
-0.0226725582033395,1.228362202644348,-0.1080063134431839,-0.5387048721313477,-0.0451419651508331,-0.0261809919029474,0.0,0.0,-0.2455744743347168,-0.7963533401489258
-0.023836325854063,1.2158795595169067,-0.1169381365180015,-0.5547682046890259,-0.0445912703871727,0.0110147837549448,0.0,0.0,0.0558199882507324,0.3817262649536133
-0.0248965267091989,1.203744411468506,-0.1070312410593032,-0.5393126010894775,-0.0435940474271774,0.0199464187026023,0.0,0.0,-0.7316495776176453,-0.4071004390716553
-0.0259560588747262,1.1912418603897097,-0.1070314049720764,-0.5556333661079407,-0.042528185993433,0.021319318562746,0.0,0.0,-0.3582502603530884,0.0701057910919189
-0.027014922350645,1.1783723831176758,-0.1070326343178749,-0.5719470381736755,-0.0413919053971767,0.0227277763187885,0.0,0.0,-0.0784188508987426,-0.109843909740448
-0.0280731208622455,1.1651357412338257,-0.1070356369018554,-0.5882605910301208,-0.0401837639510631,0.0241648387163877,0.0,0.0,-0.810461699962616,-0.4258955121040344
-0.0291304588317871,1.1515319347381592,-0.107040025293827,-0.6045758128166199,-0.0389022976160049,0.0256315115839242,0.0,0.0,-0.0087329745292663,0.4944753646850586
-0.030187701806426,1.1375397443771362,-0.1071010828018188,-0.6218439936637878,-0.0375458933413028,0.0271281339228153,0.0,0.0,-0.6981664299964905,0.3427369594573974
-0.0312442779541015,1.1231803894042969,-0.1071043983101844,-0.6381570100784302,-0.0361131057143211,0.0286556147038936,0.0,0.0,0.4701350927352905,0.5044469833374023
-0.032358456403017,1.1095646619796753,-0.1115992218255996,-0.6051386594772339,-0.0359256565570831,0.0037489540409296,0.0,0.0,-0.8834173679351807,0.8503859043121338
-0.0334189422428607,1.0955859422683716,-0.1049776524305343,-0.6212980151176453,-0.0369834974408149,-0.0211567915976047,0.0,0.0,-0.9248823523521424,-0.4773292541503906
-0.0344786643981933,1.081240177154541,-0.1049840226769447,-0.6376110315322876,-0.0379613190889358,-0.0195563472807407,0.0,0.0,-0.8536466956138611,0.6001219749450684
-0.0354885086417198,1.0665314197540283,-0.0988343805074691,-0.6537788510322571,-0.0400880724191665,-0.0425353683531284,0.0,0.0,-0.9795680046081544,-0.8172030448913574
-0.0365708358585834,1.05145525932312,-0.108010396361351,-0.6700591444969177,-0.0402977988123893,-0.0041945078410208,0.0,0.0,-0.2122461795806884,-0.6443297863006592
-0.0377099998295307,1.0360214710235596,-0.1152721643447876,-0.6859080195426941,-0.038966204971075,0.0266315676271915,0.0,0.0,-0.4598427414894104,-0.0755432248115539
-0.0388484969735145,1.0202207565307615,-0.1152818948030471,-0.7022210359573364,-0.0375509411096572,0.0283054113388061,0.0,0.0,-0.7171891331672668,0.2116353511810302
-0.0399862304329872,1.0040528774261477,-0.1152923256158828,-0.7185341715812683,-0.0360512994229793,0.0299929566681385,0.0,0.0,0.1126682758331298,-0.5437920093536377
-0.0411341674625873,0.9882871508598328,-0.1175225004553794,-0.7006322145462036,-0.0333605371415615,0.0538154542446136,0.0,0.0,-0.0720527172088623,0.3400087356567383
-0.0422813408076763,0.972154438495636,-0.1175342202186584,-0.7169457674026489,-0.0305842906236648,0.0555248484015464,0.0,0.0,-0.6685701608657837,-0.1205162405967712
-0.0434279441833496,0.9556549191474916,-0.1175464615225792,-0.733259379863739,-0.0277221761643886,0.0572422221302986,0.0,0.0,-0.3183071613311767,-0.2451273202896118
-0.0445735938847065,0.9387881755828856,-0.1175591796636581,-0.7495729923248291,-0.0247738976031541,0.0589656420052051,0.0,0.0,-0.3250120878219604,0.2755992412567138
-0.0457185730338096,0.921554684638977,-0.1175723224878311,-0.7658867239952087,-0.0217392407357692,0.0606931075453758,0.0,0.0,0.5722156763076782,0.7886755466461182
-0.0468968376517295,0.905073583126068,-0.1192043423652648,-0.7324726581573486,-0.0203781053423881,0.0272228177636861,0.0,0.0,-0.5965021848678589,-0.0776121020317077
-0.0480743423104286,0.8882254958152771,-0.1192181259393692,-0.7487857937812805,-0.0189305003732442,0.0289522670209407,0.0,0.0,-0.0319859981536865,0.4647825956344604
-0.0492510795593261,0.8710102438926697,-0.119232140481472,-0.7650989294052124,-0.0173965487629175,0.030679453164339,0.0,0.0,-0.0656517148017883,0.0422350168228149
-0.0504271499812603,0.8534280061721802,-0.1192463263869285,-0.7814121842384338,-0.0157764311879873,0.0324023440480232,0.0,0.0,-0.3351479768753052,0.0074533224105834
-0.0516024604439735,0.8354787826538086,-0.1192606464028358,-0.7977254986763,-0.0140704996883869,0.0341187492012977,0.0,0.0,0.4118859767913818,0.3201409578323364
-0.0527337081730365,0.8175899386405945,-0.1151305809617042,-0.7950384616851807,-0.0120975822210311,0.0394582822918891,0.0,0.0,0.5687136650085449,0.5228590965270996
-0.053755760192871,0.7999659180641174,-0.1033946722745895,-0.7832834124565125,-0.0109171280637383,0.0236088745296001,0.0,0.0,0.1892441511154174,0.1976206302642822
-0.0548513419926166,0.7828763127326965,-0.1104627028107643,-0.7595313787460327,-0.0100268134847283,0.0178063139319419,0.0,0.0,0.2094646692276001,0.6149903535842896
-0.0559996590018272,0.7662915587425232,-0.1143886446952819,-0.7371105551719666,-0.0104558002203702,-0.0085797877982258,0.0,0.0,-0.2047787308692932,-0.1680688858032226
-0.0571471229195594,0.7493395209312439,-0.1144026517868042,-0.7534236907958984,-0.0108023025095462,-0.0069302036426961,0.0,0.0,-0.5072153806686401,-0.2208902835845947
-0.0582940094172954,0.7320204973220825,-0.1144164353609085,-0.7697368264198303,-0.0110673792660236,-0.0053011239506304,0.0,0.0,0.4692970514297485,0.7841739654541016
-0.0594279281795024,0.7153224349021912,-0.1115374714136123,-0.7421581149101257,-0.0128992032259702,-0.0366366282105445,0.0,0.0,0.3385632038116455,0.4345477819442749
-0.0604680068790912,0.6987955570220947,-0.1026433259248733,-0.7345332503318787,-0.0142423072829842,-0.0268618557602167,0.0,0.0,-0.1173731088638305,0.0112237930297851
-0.0615073218941688,0.6819018125534058,-0.1026560217142105,-0.7508465051651001,-0.015507785603404,-0.0253095030784606,0.0,0.0,0.1571457386016845,0.4892455339431762
-0.0624363906681537,0.6651508212089539,-0.0921916216611862,-0.7444992661476135,-0.0162144228816032,-0.0141330389305949,0.0,0.0,0.4874553680419922,0.325812816619873
-0.0634440407156944,0.64867103099823,-0.0997127145528793,-0.7324454188346863,-0.0172446500509977,-0.0206045322120189,0.0,0.0,0.296605110168457,0.6330966949462891
-0.0643083602190017,0.6327647566795349,-0.0843378156423568,-0.7069714665412903,-0.0193163007497787,-0.0414328575134277,0.0,0.0,0.397286057472229,-0.0478319525718688
-0.0650444030761718,0.617343544960022,-0.0721218138933181,-0.6854080557823181,-0.0207774154841899,-0.029222210869193,0.0,0.0,-0.3113065958023071,0.8658449649810791
-0.0657026320695877,0.6015617847442627,-0.0624568574130535,-0.701458752155304,-0.0241050012409687,-0.0665517300367355,0.0,0.0,-0.7884254455566406,0.6882559061050415
-0.0663126930594444,0.5854175090789795,-0.0564880073070526,-0.7176017165184021,-0.0285615436732769,-0.0891306549310684,0.0,0.0,0.0795587301254272,-0.5316202640533447
-0.0669202804565429,0.569264829158783,-0.057453978806734,-0.7179651260375977,-0.0318324528634548,-0.0654183477163314,0.0,0.0,0.6187138557434082,0.3561139106750488
-0.0676036849617958,0.553780198097229,-0.0646313726902008,-0.6882876753807068,-0.0354965105652809,-0.0732812136411666,0.0,0.0,-0.2832176685333252,0.1046957969665527
-0.0682866126298904,0.5379287004470825,-0.0646378248929977,-0.7046018242835999,-0.0391018986701965,-0.0721075907349586,0.0,0.0,0.53741455078125,-0.3222708702087402
-0.0689247101545333,0.5225639343261719,-0.0603230707347393,-0.6829738616943359,-0.0425500459969043,-0.0689627081155777,0.0,0.0,0.8948254585266113,0.175703763961792
-0.0695338249206543,0.5075206160545349,-0.0575161874294281,-0.6686909198760986,-0.0459038838744163,-0.0670767500996589,0.0,0.0,-0.4667145013809204,0.4397963285446167
-0.0701423659920692,0.492110401391983,-0.0575195774435997,-0.6850048303604126,-0.0492080450057983,-0.0660829469561576,0.0,0.0,0.4663518667221069,0.4702562093734741
-0.0706940665841102,0.4774697721004486,-0.0519692413508892,-0.6508017778396606,-0.0523776933550834,-0.0633927807211875,0.0,0.0,-0.6871732473373413,-0.2159528136253357
-0.0712453871965408,0.4624622762203216,-0.051970325410366,-0.6671155095100403,-0.0555044077336788,-0.0625342726707458,0.0,0.0,0.3107004165649414,0.6981770992279053
-0.0716793984174728,0.448103666305542,-0.0389072857797145,-0.6383333206176758,-0.0599429160356521,-0.0887701883912086,0.0,0.0,0.9737546443939208,0.2712745666503906
-0.072191335260868,0.4342350661754608,-0.0462131388485431,-0.6165874600410461,-0.0648659914731979,-0.0984615087509155,0.0,0.0,0.3639445304870605,-0.3759177923202514
-0.0727421790361404,0.4208438992500305,-0.0497957319021225,-0.5954014658927917,-0.0701081454753875,-0.1048428788781166,0.0,0.0,0.8740084171295166,-0.6293068528175354
-0.0732556357979774,0.4081446826457977,-0.0474360696971416,-0.5645962953567505,-0.0739720538258552,-0.0772780999541282,0.0,0.0,-0.9435241222381592,-0.0038599967956542
-0.073768712580204,0.3950785994529724,-0.0474307239055633,-0.5809105634689331,-0.0778126120567321,-0.0768108814954757,0.0,0.0,0.2545325756072998,0.417779803276062
-0.0741917639970779,0.3822948932647705,-0.0387119054794311,-0.5683557391166687,-0.0813760906457901,-0.0712692290544509,0.0,0.0,-0.8145902156829834,0.5478708744049072
-0.074574090540409,0.3691352009773254,-0.0336078815162181,-0.5851377844810486,-0.0859565585851669,-0.0916092842817306,0.0,0.0,0.9474353790283204,-0.5221413373947144
-0.0748803168535232,0.356170117855072,-0.0273093078285455,-0.5764211416244507,-0.0892352014780044,-0.065572865307331,0.0,0.0,0.0589505434036254,-0.2557142972946167
-0.0751871094107627,0.3431658446788788,-0.0272814035415649,-0.5781742334365845,-0.0926023498177528,-0.0673429146409034,0.0,0.0,0.6724100112915039,-0.8472446799278259
-0.0754950493574142,0.3310120105743408,-0.0290915369987487,-0.5402748584747314,-0.0942938104271888,-0.0338290147483348,0.0,0.0,0.4700372219085693,-0.5867012739181519
-0.0757033377885818,0.3195765614509582,-0.0204749833792448,-0.5082627534866333,-0.0946445167064666,-0.0070142922922968,0.0,0.0,0.3348715305328369,-0.4070333242416382
-0.0759393721818924,0.3087731301784515,-0.02281941100955,-0.4802034795284271,-0.0954242721199989,-0.0155952367931604,0.0,0.0,-0.3720042705535888,-0.6913998126983643
-0.0762420669198036,0.297605037689209,-0.0311496257781982,-0.4963027238845825,-0.0945469513535499,0.0175465680658817,0.0,0.0,-0.0994704365730285,0.4946620464324951
-0.076544664800167,0.2860699892044067,-0.0311305429786443,-0.5126160979270935,-0.0936895087361335,0.0171487368643283,0.0,0.0,0.5760905742645264,-0.0017332434654235
-0.0768921822309494,0.2750014066696167,-0.0351448915898799,-0.4919142425060272,-0.0933043882250785,0.0077025503851473,0.0,0.0,0.0903669595718383,0.4920686483383178
-0.0772341713309288,0.2642388641834259,-0.0343866869807243,-0.4783204793930053,-0.0931170433759689,0.0037469523958861,0.0,0.0,-0.2119537591934204,0.4770348072052002
-0.0775762572884559,0.2531094253063202,-0.0343628227710723,-0.4946339428424835,-0.0929654017090797,0.0030327788554131,0.0,0.0,0.7264626026153564,-0.1921353936195373
-0.0777713805437088,0.2425082474946975,-0.020043708384037,-0.4711282849311828,-0.0924332812428474,0.0106422929093241,0.0,0.0,0.5586495399475098,-0.3208150267601013
-0.0779146179556846,0.2320193797349929,-0.0149126248434185,-0.4661360085010528,-0.0918440893292427,0.0117837386205792,0.0,0.0,0.5480645895004272,0.4178590774536133
-0.0779368430376052,0.2217151224613189,-0.0031724348664283,-0.4579101502895355,-0.0909045115113258,0.018791664391756,0.0,0.0,-0.0490269660949707,-0.5316595435142517
-0.0779910087585449,0.2110480219125747,-0.0071160844527184,-0.473988801240921,-0.0892213061451911,0.0336641408503055,0.0,0.0,0.0509325265884399,0.0100233554840087
-0.0779348388314247,0.2003769725561142,0.0035701063461601,-0.4741463363170624,-0.0871900916099548,0.0406238511204719,0.0,0.0,0.5427292585372925,-0.2933981418609619
-0.0778231620788574,0.1903880685567855,0.0092117311432957,-0.4438410997390747,-0.0852507874369621,0.0387858971953392,0.0,0.0,-0.1453175544738769,0.1100550889968872
-0.0777117758989334,0.1800322383642196,0.0092463474720716,-0.4601551294326782,-0.083384022116661,0.0373354069888591,0.0,0.0,0.7836291790008545,-0.5252586007118225
-0.0774396881461143,0.1703752130270004,0.0239418894052505,-0.4290198981761932,-0.0801423192024231,0.0648342296481132,0.0,0.0,0.0144174098968505,-0.0923059582710266
-0.0770901665091514,0.1606437265872955,0.0314679853618145,-0.4323301911354065,-0.0766966715455055,0.0689127370715141,0.0,0.0,0.508771538734436,-0.2545623183250427
-0.0767534226179122,0.1512464135885238,0.0305112488567829,-0.4174992442131042,-0.0735604017972946,0.0627254471182823,0.0,0.0,-0.0501024723052978,-0.434783935546875
-0.0764171630144119,0.1414822489023208,0.0305514335632324,-0.4338137805461883,-0.0705162435770034,0.0608831569552421,0.0,0.0,0.8076837062835693,-0.4338566064834595
-0.0760629624128341,0.1322857737541198,0.0325569622218608,-0.408602774143219,-0.067686878144741,0.0565874762833118,0.0,0.0,0.257715106010437,-0.6726974248886108
-0.0758267417550087,0.1236509904265403,0.0196754280477762,-0.3835938274860382,-0.0637794733047485,0.0781482011079788,0.0,0.0,0.3970457315444946,-0.6879621744155884
-0.0755263343453407,0.1155337691307067,0.0246663764119148,-0.3605448007583618,-0.0584648735821247,0.1062916964292526,0.0,0.0,0.2570775747299194,-0.1847491264343261
-0.0752338394522667,0.1079084277153015,0.0241730660200119,-0.3387169241905212,-0.0534485466778278,0.1003265976905822,0.0,0.0,-0.066986083984375,0.7605082988739014
-0.0748899430036544,0.0999175906181335,0.0307438168674707,-0.3550224304199219,-0.0498506128787994,0.0719588547945022,0.0,0.0,0.5733089447021484,-0.7825282216072083
-0.0746113806962966,0.092274509370327,0.0228114258497953,-0.3395342230796814,-0.0448591224849224,0.0998297110199928,0.0,0.0,0.4633965492248535,0.8968427181243896
-0.0743556022644043,0.0850668773055076,0.0225867833942174,-0.3202527165412903,-0.0419057980179786,0.0590664856135845,0.0,0.0,0.3299276828765869,0.63789963722229
-0.0741662010550499,0.0781279653310775,0.017611863091588,-0.3083586096763611,-0.0405901707708835,0.0263125710189342,0.0,0.0,0.3025832176208496,0.7897487878799438
-0.0737975090742111,0.071666419506073,0.0371434241533279,-0.2871893346309662,-0.0408637002110481,-0.0054704425856471,0.0,0.0,-0.0376303791999816,0.9429184198379515
-0.0733476653695106,0.064824640750885,0.0474807098507881,-0.3041497468948364,-0.0433373302221298,-0.0494724959135055,0.0,0.0,0.3837399482727051,-0.3855360746383667
-0.0727496147155761,0.058565579354763,0.0618721134960651,-0.2782396078109741,-0.0453840568661689,-0.0409345105290412,0.0,0.0,0.4169775247573852,-0.4979200363159179
-0.0721419304609298,0.052938375622034,0.0630785375833511,-0.2501716315746307,-0.047659620642662,-0.0455114506185054,0.0,0.0,-0.1975722312927246,-0.6763612031936646
-0.0715755447745323,0.0469549745321273,0.0580384656786918,-0.2659745216369629,-0.0490479283034801,-0.0277659352868795,0.0,0.0,0.4371161460876465,-0.4407488107681274
-0.0709191337227821,0.0413550958037376,0.0668843016028404,-0.2489238232374191,-0.0502728782594203,-0.0244990121573209,0.0,0.0,-0.1621738672256469,0.2781814336776733
-0.0702636688947677,0.0353882871568203,0.0669393464922905,-0.2652377188205719,-0.0516440086066722,-0.0274227820336818,0.0,0.0,0.5870240926742554,-0.5196426510810852
-0.0695486068725586,0.0301907397806644,0.0718317776918411,-0.2310120016336441,-0.0519635751843452,-0.0063913119956851,0.0,0.0,0.077126145362854,0.4701640605926513
-0.0687664970755577,0.025070009753108,0.078441746532917,-0.2275986820459365,-0.0521910674870014,-0.0045498930849134,0.0,0.0,0.3672363758087158,0.5900967121124268
-0.068022534251213,0.0203548297286033,0.0762011855840683,-0.2096286863088607,-0.0539755225181579,-0.0356889814138412,0.0,0.0,0.0157639980316162,0.1037114858627319
-0.0673412308096885,0.0157531592994928,0.0704552829265594,-0.2046040147542953,-0.0562801882624626,-0.0460932962596416,0.0,0.0,0.2171053886413574,-0.1758018732070922
-0.0666534453630447,0.0114079089835286,0.0713402479887008,-0.1932196319103241,-0.0588153041899204,-0.0507021658122539,0.0,0.0,0.295083999633789,0.4624371528625488
-0.0659217834472656,0.0073202229104936,0.0757941082119941,-0.1817809641361236,-0.0614151321351528,-0.0519964806735515,0.0,0.0,0.4799120426177978,0.2084571123123169
-0.0650546103715896,0.0033371425233781,0.0889592468738555,-0.1771181970834732,-0.0636343955993652,-0.0443852171301841,1.0,0.0,0.7456973791122437,-0.2270990014076233
-0.0639542564749717,0.0008058524108491,0.0938245505094528,-0.112332634627819,-0.0463167130947113,0.3480346202850342,1.0,0.0,0.6039016246795654,-0.4835647940635681
-0.0626921653747558,-0.0004654788936022,0.0954138785600662,-0.0558436997234821,-0.0158432982861995,0.6095394492149353,1.0,0.0,-0.0465772747993469,-0.2921838760375976
