x_pos,y_pos,x_vel,y_vel,angle,ang_vel,leg_1,leg_2,main_booster,lat_booster
-0.0015550613170489,1.4030377864837646,-0.1570052355527877,-0.3503260016441345,0.001332415617071,0.0262513756752014,0.0,0.0,0.8218905765135311,0.7816339098115689
-0.0030199051834642,1.3953514099121094,-0.1459074020385742,-0.3416187167167663,0.0007702640723437,-0.0112438220530748,0.0,0.0,0.8160698787309877,-0.5484459412253737
-0.0044055939652025,1.387739896774292,-0.1391003280878067,-0.3382901549339294,0.0013034555595368,0.0106649091467261,0.0,0.0,-0.0658210826665568,0.6557544552404778
-0.005784607026726,1.3795394897460938,-0.1369272321462631,-0.3644620776176452,0.000341834325809,-0.0192340277135372,0.0,0.0,-0.055218768502969,0.7664782221307631
-0.0071260454133152,1.3707548379898071,-0.1308632493019104,-0.3904258608818054,-0.0029089415911585,-0.0650216788053512,0.0,0.0,-0.4036113497126399,-0.5670483187893505
-0.0085386279970407,1.3613831996917725,-0.1383927315473556,-0.4165298044681549,-0.0057385410182178,-0.0565971955657005,0.0,0.0,0.9145990883945552,-0.5168600580314066
-0.010053252801299,1.3524292707443235,-0.1490931808948516,-0.3979623019695282,-0.0080760903656482,-0.0467553250491619,0.0,0.0,-0.6054155441789708,0.5208628580755221
-0.0115550039336085,1.342889666557312,-0.1460688710212707,-0.4240137934684753,-0.0121409744024276,-0.081305094063282,0.0,0.0,-0.1021216322739639,-0.9273811980962704
-0.0131704332306981,1.3327748775482178,-0.1588819473981857,-0.4495633244514465,-0.0147681580856442,-0.0525484271347522,0.0,0.0,-0.9523335399546956,0.54299083617049
-0.014783096499741,1.322076439857483,-0.1570877730846405,-0.4755420088768005,-0.018904173746705,-0.0827282145619392,0.0,0.0,-0.1331390795517884,-0.873011470226934
-0.0164954178035259,1.3107935190200806,-0.168127104640007,-0.501498818397522,-0.0219860486686229,-0.0616428852081298,0.0,0.0,0.919973660065684,-0.8394288814474007
-0.0182123184204101,1.299842357635498,-0.1700076162815094,-0.4867442846298218,-0.0236366912722587,-0.0330159068107605,0.0,0.0,0.2676005404822281,-0.6786846859179574
-0.0199007038027048,1.2891108989715576,-0.1682834178209304,-0.4769729971885681,-0.0241819340735673,-0.0109057882800698,0.0,0.0,-0.9729165161411832,0.7094811761778302
-0.0215698238462209,1.277783751487732,-0.1643547713756561,-0.5034723877906799,-0.02671380341053,-0.0506422445178031,0.0,0.0,0.1126846169103616,0.9055633934695204
-0.0230844505131244,1.266704797744751,-0.1466958969831466,-0.4924870729446411,-0.0314254015684127,-0.0942406132817268,0.0,0.0,0.5163815305991755,0.9511297299142693
-0.024445628747344,1.2554287910461426,-0.1291612833738327,-0.501322329044342,-0.0383027456700801,-0.137559488415718,0.0,0.0,0.6777498874471142,-0.7063690237520839
-0.0257209781557321,1.2448713779449463,-0.1219392567873001,-0.4693686068058014,-0.0438417680561542,-0.1107903569936752,0.0,0.0,-0.8452956803490812,0.6427149571622702
-0.0269789695739746,1.2337183952331543,-0.1182091683149337,-0.495930016040802,-0.0513576678931713,-0.1503316462039947,0.0,0.0,-0.9806547508193528,0.8679621420676222
-0.028202723711729,1.2219821214675903,-0.1123703494668006,-0.5219854712486267,-0.0612642206251621,-0.1981490105390548,0.0,0.0,0.6583611337737971,0.9458984553304074
-0.0294537544250488,1.210512638092041,-0.112691082060337,-0.5103057026863098,-0.0735621228814125,-0.2459805309772491,0.0,0.0,-0.9192284775216666,0.8289899949073307
-0.030671501532197,1.1984565258026123,-0.1069719791412353,-0.5366240739822388,-0.0882343277335167,-0.2934707701206207,0.0,0.0,0.8726649889022802,0.7014254951271826
-0.0318220146000385,1.1865534782409668,-0.0985258370637893,-0.5300804376602173,-0.1046410128474235,-0.3281633257865906,0.0,0.0,0.9608838363280324,0.8947692215604189
-0.0327127464115619,1.1749930381774902,-0.0707589536905288,-0.51517254114151,-0.122864119708538,-0.3644952178001404,0.0,0.0,-0.4095119423715661,-0.8989757122267064
-0.0337133407592773,1.1628522872924805,-0.0830051302909851,-0.5410844683647156,-0.1398635357618332,-0.3400189280509949,0.0,0.0,0.3793080615321627,0.8164687033194837
-0.0347539894282817,1.1509445905685425,-0.0849181562662124,-0.5311434864997864,-0.159010425209999,-0.3829726576805115,0.0,0.0,0.889588301430698,-0.9252256907342912
-0.0359702110290527,1.1396929025650024,-0.1036830320954322,-0.502099335193634,-0.1769700199365615,-0.3591915965080261,0.0,0.0,-0.1264679341818582,0.6367695184899316
-0.0371835716068744,1.1278501749038696,-0.1018290072679519,-0.5287778973579407,-0.1965515315532684,-0.391630083322525,0.0,0.0,-0.6146798588732625,-0.8924149614539751
-0.0385270118713378,1.1154606342315674,-0.1167609244585037,-0.5530805587768555,-0.2142775952816009,-0.3545213937759399,0.0,0.0,0.6608171224986608,0.9490295355777858
-0.0398218147456646,1.1036620140075684,-0.109573520720005,,-0.2344257682561874,-0.4029638171195984,0.0,0.0,-0.091982396241929,0.8962145675231266
-0.0410977378487587,1.091256618499756,-0.1057562232017517,-0.5549858808517456,-0.2566387951374054,-0.4442611336708069,0.0,0.0,0.4754215519267033,-0.8760107948636031
-0.0422753319144248,1.079397201538086,-0.0975013077259063,-0.5307703614234924,-0.2773587703704834,-0.4143992364406585,0.0,0.0,-0.9497466683387756,-0.9713466167449952
-0.043583869934082,1.066986918449402,-0.1125672832131385,-0.5551391839981079,-0.2961615622043609,-0.3760558068752289,0.0,0.0,-0.9107632637023926,-0.9844694137573242
-0.0450212471187114,1.054042935371399,-0.1274962723255157,-0.5786914825439453,-0.3129726350307464,-0.3362217247486114,0.0,0.0,-0.9954246878623962,-0.9634818434715272
-0.0465869903564453,1.0405468940734863,-0.142198771238327,-0.6029927730560303,-0.3279067575931549,-0.2986822128295898,0.0,0.0,-0.8578879237174988,-0.958846926689148
-0.048267938196659,1.0265052318572998,-0.155360460281372,-0.6270173788070679,-0.3412097096443176,-0.2660594582557678,0.0,0.0,-0.7821208238601685,-0.9884082674980164
-0.0500641837716102,1.0119247436523438,-0.1685715615749359,-0.650677502155304,-0.3528101742267608,-0.2320092618465423,0.0,0.0,-0.8294029235839844,-0.973988950252533
-0.0519824028015136,0.996797263622284,-0.1825294941663742,-0.6746509075164795,-0.3625911474227905,-0.1956194639205932,0.0,0.0,-0.9294413328170776,-0.9240769743919371
-0.0540078170597553,0.9811280369758606,-0.1947308182716369,-0.6984097361564636,-0.3708356320858001,-0.1648894846439361,0.0,0.0,-0.28388112783432,-0.9697836637496948
-0.0561508163809776,0.9649279117584229,-0.2083214819431305,-0.7215689420700073,-0.3771826922893524,-0.1269412338733673,0.0,0.0,0.4235942363739013,-0.8806468844413757
-0.0581836700439453,0.9488970637321472,-0.1988272368907928,-0.7136646509170532,-0.381919115781784,-0.0947285518050193,0.0,0.0,0.2085218429565429,-0.9863842725753784
-0.0602029785513877,0.9331759810447692,-0.1991822868585586,-0.6994524598121643,-0.3848352134227752,-0.0583222098648548,0.0,0.0,0.3054804801940918,-0.9494752287864684
-0.0620749481022357,0.9174209237098694,-0.1861522495746612,-0.7005112171173096,-0.3859592974185943,-0.0224815569818019,0.0,0.0,0.0626970529556274,-0.981542944908142
-0.0639182105660438,0.9013516902923584,-0.1849294751882553,-0.7140216827392578,-0.3853135704994201,0.0129147274419665,0.0,0.0,0.4295324087142944,-0.949569284915924
-0.0656094551086425,0.8853176832199097,-0.1714653670787811,-0.7120016813278198,-0.3828313052654266,0.0496455915272235,0.0,0.0,0.4344775676727295,-0.9854596853256226
-0.0673581138253212,0.8691088557243347,-0.178904190659523,-0.7193105816841125,-0.3785423934459686,0.085778422653675,0.0,0.0,0.1992717981338501,-0.7836540937423706
-0.0690805464982986,0.8526583909988403,-0.177661657333374,-0.7297067046165466,-0.3727926611900329,0.1149953156709671,0.0,0.0,-0.3326290845870971,-0.903096616268158
-0.0709019675850868,0.8356528878211975,-0.1889935433864593,-0.7540343999862671,-0.3655437231063843,0.1449786722660064,0.0,0.0,-0.0533859133720397,-0.0943813323974609
-0.0727606788277626,0.8180620074272156,-0.1925928294658661,-0.7801170349121094,-0.3584505319595337,0.1418643295764923,0.0,0.0,0.4568939208984375,-0.1444279551506042
-0.0745212584733963,0.8009236454963684,-0.1821404844522476,-0.7602027654647827,-0.3520446419715881,0.1281175315380096,0.0,0.0,0.535789966583252,-0.4591562151908874
-0.0761721581220626,0.7838755249977112,-0.17096808552742,-0.7562653422355652,-0.3458665609359741,0.1235613971948623,0.0,0.0,0.2142239809036255,-0.4807535409927368
-0.0776151642203331,0.7667806148529053,-0.1505338698625564,-0.7582947611808777,-0.339328408241272,0.1307628154754638,0.0,0.0,0.1601818799972534,-0.6288836598396301
-0.0790061950683593,0.7498831152915955,-0.146427184343338,-0.7493031620979309,-0.3316807448863983,0.152953416109085,0.0,0.0,0.0007902383804321,-0.3052469491958618
-0.0802776366472244,0.7327496409416199,-0.1346674263477325,-0.7597801685333252,-0.3238362967967987,0.1568890810012817,0.0,0.0,-0.1702815890312194,-0.4259098172187805
-0.081578254699707,0.71503084897995,-0.1374989002943039,-0.785861611366272,-0.3160926103591919,0.1548739373683929,0.0,0.0,0.2467530965805053,-0.7534882426261902
-0.0827280059456825,0.6972168684005737,-0.1239639297127723,-0.7898023724555969,-0.3067676723003387,0.1864982992410659,0.0,0.0,0.7223770618438721,0.1649527549743652
-0.0838501006364822,0.6795650720596313,-0.1206949800252914,-0.7827542424201965,-0.2979874610900879,0.1756041944026947,0.0,0.0,0.490050196647644,-0.3789418935775757
-0.0847040191292762,0.6623213887214661,-0.0942077338695526,-0.7646104097366333,-0.2888908982276916,0.1819311529397964,0.0,0.0,0.2179857492446899,-0.189892292022705
-0.0853407829999923,0.6451638340950012,-0.0729124397039413,-0.7607607245445251,-0.2793918251991272,0.1899814158678054,0.0,0.0,0.2748962640762329,-0.4931609630584717
-0.0857669860124588,0.6283131241798401,-0.0520883090794086,-0.7471405267715454,-0.2696866691112518,0.194103330373764,0.0,0.0,0.177815556526184,0.2260890007019043
-0.0861145034432411,0.6117088794708252,-0.0439374111592769,-0.7363079190254211,-0.2602860331535339,0.1880125999450683,0.0,0.0,0.0494455099105834,0.2972415685653686
-0.0863861069083213,0.5948474407196045,-0.0364747531712055,-0.7477684617042542,-0.2507815062999725,0.1900903135538101,0.0,0.0,0.3197507858276367,-0.5482180714607239
-0.0866584777832031,0.5782663822174072,-0.0374496541917324,-0.7352284789085388,-0.2403926104307174,0.2077778577804565,0.0,0.0,0.3791182041168213,-0.0320823788642883
-0.0867396369576454,0.5616923570632935,-0.0187892075628042,-0.7349186539649963,-0.2295605838298797,0.2166405618190765,0.0,0.0,0.5471701622009277,-0.0179142951965332
-0.0866781249642372,0.5453641414642334,-0.0046192044392228,-0.7240589261054993,-0.2186544090509414,0.2181239426136016,0.0,0.0,0.2504584789276123,-0.1172114014625549
-0.086552046239376,0.5288931727409363,0.001801025122404,-0.730479896068573,-0.2077432423830032,0.2182233780622482,0.0,0.0,0.6449427604675293,0.2480597496032714
-0.086429975926876,0.5127388834953308,0.0019670301117002,-0.7165622711181641,-0.1974194198846817,0.2064763307571411,0.0,0.0,0.865778923034668,-0.3703259229660034
-0.0860967636108398,0.4974138140678406,0.0229561291635036,-0.6797677278518677,-0.1869959384202957,0.2084696590900421,0.0,0.0,0.189144492149353,-0.2363612651824951
-0.0856660827994346,0.4817972779273987,0.0324131101369857,-0.6927604675292969,-0.1763072609901428,0.2137734442949295,0.0,0.0,0.6573808193206787,-0.3533562421798706
-0.0850557312369346,0.4668531417846679,0.0502420477569103,-0.66293865442276,-0.1654972285032272,0.2162006795406341,0.0,0.0,0.4979599714279175,-0.1821478009223938
-0.0844534859061241,0.4519799053668976,0.0498085282742977,-0.6599077582359314,-0.1550822854042053,0.2082989662885666,0.0,0.0,0.7437504529953003,-0.2722725868225097
-0.0838286429643631,0.4376029074192047,0.0524983778595924,-0.6379668116569519,-0.1451127678155899,0.1993903368711471,0.0,0.0,0.7048001289367676,-0.2025838494300842
-0.08306884765625,0.423586905002594,0.0658184811472892,-0.6219778656959534,-0.134990707039833,0.2024412155151367,0.0,0.0,0.3561979532241821,-0.140018343925476
-0.0823074355721473,0.4100372493267059,0.0664655864238739,-0.601359486579895,-0.1253495216369629,0.1928235590457916,0.0,0.0,0.5363469123840332,-0.191471517086029
-0.0813950523734092,0.3966885805130005,0.0812112912535667,-0.5924647450447083,-0.1153819635510444,0.1993513256311416,0.0,0.0,0.1588226556777954,0.1094194650650024
-0.0804559737443924,0.3831672966480255,0.0839669182896614,-0.6002078652381897,-0.1055116951465606,0.1974055022001266,0.0,0.0,0.3511668443679809,-0.1531418561935424
-0.0794122666120529,0.3694484233856201,0.0941421836614608,-0.6090372204780579,-0.0953707098960876,0.2028197795152664,0.0,0.0,0.7357454299926758,-0.1565967202186584
-0.0783437713980674,0.3556813895702362,0.0967593565583229,-0.6112529039382935,-0.085368774831295,0.2000387609004974,0.0,0.0,0.756218433380127,0.3015608787536621
-0.077185533940792,0.34259033203125,0.1057425364851951,-0.5812807083129883,-0.075392797589302,0.1995196640491485,0.0,0.0,0.4558300971984863,0.6404299736022949
-0.0758160576224327,0.3299808800220489,0.127978891134262,-0.5599920749664307,-0.0665183141827583,0.1774896383285522,0.0,0.0,-0.1337113380432129,0.1992517709732055
-0.0744147300720214,0.3167859315872192,0.1311398595571518,-0.5860723853111267,-0.0576283559203147,0.1777992397546768,0.0,0.0,0.3435982465744018,-0.3707616329193115
-0.073068618774414,0.3034177124500274,0.1260982751846313,-0.5938395857810974,-0.0492099709808826,0.1683677583932876,0.0,0.0,0.8457940816879272,0.161285400390625
-0.0715970993041992,0.2907835841178894,0.1384086608886718,-0.5612543225288391,-0.0405686870217323,0.172825425863266,0.0,0.0,0.5484359264373779,0.1843857765197754
-0.0701591521501541,0.2783779799938202,0.1354754716157913,-0.5511601567268372,-0.0323532782495021,0.1643085777759552,0.0,0.0,0.4675029516220093,-0.0584104657173156
-0.0687087029218673,0.2662914395332336,0.1369521021842956,-0.5370226502418518,-0.0243509802967309,0.1600458174943924,0.0,0.0,0.5763506889343262,0.0007786750793457
-0.0672090500593185,0.2546201050281524,0.1418954581022262,-0.5186178684234619,-0.0163911059498786,0.1591973751783371,0.0,0.0,0.3457385301589966,0.4858527183532715
-0.0655842795968055,0.2430719435214996,0.1540790349245071,-0.5131815671920776,-0.0080942753702402,0.1659364998340606,0.0,0.0,0.6138365268707275,-0.4104083776473999
-0.0638848319649696,0.2314393073320388,0.16141939163208,-0.5169826149940491,0.0003157882892992,0.1682015508413314,0.0,0.0,0.780970573425293,-0.3032381534576416
-0.0620347969233989,0.2198721915483474,0.1760192066431045,-0.5141240954399109,0.0091920159757137,0.1775242686271667,0.0,0.0,0.6353042125701904,-0.7353232502937317
-0.0600353255867958,0.208568587899208,0.1891565024852752,-0.5024817585945129,0.0198475234210491,0.2131100445985794,0.0,0.0,0.6143894195556641,-0.4868583679199219
-0.0578523650765419,0.1972618848085403,0.2068701535463333,-0.5027062892913818,0.0311306603252887,0.2256627827882766,0.0,0.0,0.8200507164001465,-0.8657777309417725
-0.0557137504220008,0.1866141706705093,0.200708657503128,-0.47355517745018,0.0441166274249553,0.2597194314002991,0.0,0.0,0.4551701545715332,-0.2881741523742676
-0.0535187721252441,0.1763850748538971,0.2062414437532425,-0.4550687968730926,0.0572191402316093,0.262050598859787,0.0,0.0,0.4517331123352051,-0.4118226766586303
-0.0511877052485942,0.1664589047431945,0.2193680703639984,-0.4417462050914764,0.0708144083619117,0.2719053030014038,0.0,0.0,0.5039932727813721,0.0905450582504272
-0.0487239845097065,0.15640290081501,0.2322322130203247,-0.4476611316204071,0.0848167240619659,0.2800461649894714,0.0,0.0,0.8345236778259277,-0.7488685250282288
-0.0463665947318077,0.146590456366539,0.2202610969543457,-0.4370552003383636,0.100149966776371,0.3066648840904236,0.0,0.0,0.5737987756729126,0.2159088850021362
-0.0439461693167686,0.1374332457780838,0.2262535840272903,-0.4081189930438995,0.1158294454216957,0.3135894238948822,0.0,0.0,0.8300647735595703,0.4439250230789184
-0.0415576919913291,0.1286273747682571,0.2232360541820526,-0.3926555216312408,0.1313579529523849,0.3105701506137848,0.0,0.0,0.3250894546508789,-0.2898156642913818
-0.0392837524414062,0.1201670467853546,0.2123046666383743,-0.377410352230072,0.1463882625102996,0.3006068468093872,0.0,0.0,0.226073145866394,0.1448122262954712
-0.0369523055851459,0.1119056344032287,0.2178328782320022,-0.3687473237514496,0.1616755723953247,0.3057461678981781,0.0,0.0,0.3633064031600952,-0.0272942781448364
-0.0346938148140907,0.1039663627743721,0.2108316421508789,-0.354555994272232,0.176711305975914,0.3007145822048187,0.0,0.0,0.3651372194290161,-0.5069890022277832
-0.0325852409005165,0.0963306501507759,0.1951026916503906,-0.341317355632782,0.1925317049026489,0.3164079487323761,0.0,0.0,0.0269378423690795,-0.0149800181388854
-0.0304783824831247,0.0885626152157783,0.1950896680355072,-0.3473446071147918,0.2082218527793884,0.3138030171394348,0.0,0.0,0.0990325212478637,0.4380009174346924
-0.0284567829221487,0.0807739794254303,0.1870469450950622,-0.3483619391918182,0.2234883606433868,0.3053303062915802,0.0,0.0,0.7526304721832275,0.695327877998352
-0.0265992172062397,0.0731729567050933,0.1725381910800933,-0.3398842513561249,0.2368962466716766,0.2681579291820526,0.0,0.0,0.7024344205856323,0.6588268280029297
-0.0246749874204397,0.0661306232213974,0.1803552508354187,-0.3149830996990204,0.2491655945777893,0.2453870773315429,0.0,0.0,0.4892530441284179,0.3379571437835693
-0.0227028839290142,0.0590073205530643,0.1850117146968841,-0.3187122642993927,0.2616071701049804,0.2488321959972381,0.0,0.0,0.7675352096557617,0.4273334741592407
-0.0207149498164653,0.0525419823825359,0.1860263794660568,-0.2896832525730133,0.2746764123439789,0.2613851130008697,0.0,0.0,0.5006116628646851,-0.2011999487876892
-0.0188604351133108,0.0465010032057762,0.1729181259870529,-0.2708978652954101,0.2875527739524841,0.2575269639492035,0.0,0.0,0.5466979742050171,-0.3406209945678711
-0.0170263294130563,0.0410826541483402,0.1704308241605758,-0.2434332370758056,0.3009433448314667,0.2678114771842956,0.0,0.0,0.3700642585754394,-0.2823857069015503
-0.0151952747255563,0.0357961989939212,0.1700026094913482,-0.2377232760190963,0.314516007900238,0.271452933549881,0.0,0.0,0.2046657800674438,0.1758687496185302
-0.0134737966582179,0.0307716708630323,0.1592348515987396,-0.2261694073677063,0.3279468417167663,0.2686164081096649,0.0,1.0,0.9909782409667968,0.9995481967926024
-0.0119050983339548,0.02740896679461,0.1562271416187286,-0.1505544632673263,0.3260117769241333,-0.0425522923469543,0.0,1.0,0.960302710533142,0.9667191505432128
-0.0104633327573537,0.0251112803816795,0.1653952151536941,-0.0975399240851402,0.3038447201251983,-0.4435208439826965,0.0,1.0,0.4555959701538086,-0.7900522351264954
-0.0094312671571969,0.0235325675457716,0.1363043040037155,-0.063651867210865,0.2696610689163208,-0.6838235259056091,0.0,1.0,0.5968263149261475,-0.6640097498893738
-0.0087450984865427,0.022280154749751,0.1066931709647178,-0.0491496697068214,0.2307438850402832,-0.7784734964370728,0.0,1.0,0.2089314460754394,-0.8478366732597351
-0.0082202907651662,0.0210124347358942,0.0883513838052749,-0.0511472672224044,0.1944796741008758,-0.7253390550613403,0.0,1.0,0.4829421043395996,-0.7330271601676941
-0.0078127859160304,0.0198599435389041,0.0749530121684074,-0.0470990389585495,0.1601559072732925,-0.6865037083625793,0.0,1.0,0.125555157661438,-0.6904430389404297
-0.0073990821838378,0.018503675237298,0.0742516964673996,-0.0570747517049312,0.1273352056741714,-0.6564405560493469,0.0,0.0,-0.9648476839065552,-0.2958040237426758
-0.0069057466462254,0.0165751315653324,0.0824879333376884,-0.0832196176052093,0.0943904221057891,-0.6589230298995972,0.0,0.0,-0.6467427015304565,-0.8960458040237427
-0.0063929557800292,0.0140627957880496,0.082543283700943,-0.1099820509552955,0.0634243562817573,-0.6193221807479858,0.0,0.0,0.5599100589752197,-0.9424805045127868
-0.0058240890502929,0.011405405588448,0.0863848030567169,-0.1171148642897605,0.0342761203646659,-0.5829648971557617,0.0,0.0,0.6335089206695557,-0.964807391166687
