x_pos,y_pos,x_vel,y_vel,angle,ang_vel,leg_1,leg_2,main_booster,lat_booster
-0.0014882087707519,1.4029333591461182,-0.1511588394641876,-0.3549708127975464,0.0020940876565873,0.0413326993584632,0.0,0.0,-0.0853454602323318,0.8602911408419849
-0.0028675079811364,1.3942744731903076,-0.1384811550378799,-0.3848371803760528,0.0026326552033424,0.0107731083407998,0.0,0.0,0.8951267183041876,0.7333430132620128
-0.0039890287443995,1.3856146335601809,-0.1119899973273277,-0.3848825097084045,0.002479484770447,-0.0030636496376246,0.0,0.0,0.8120272048324368,-0.8896929062970378
-0.005290794186294,1.3770817518234253,-0.1318755596876144,-0.3792466819286346,0.0041493792086839,0.0334010981023311,0.0,0.0,0.1727206711136173,-0.9682087519201292
-0.0065279006958007,1.3685550689697266,-0.1277019083499908,-0.3789750933647156,0.0081059159711003,0.0791375786066055,0.0,0.0,0.5411049546220521,0.8074126432932689
-0.007528209593147,1.3600986003875732,-0.1030105948448181,-0.3758594095706939,0.0110541190952062,0.0589695051312446,0.0,0.0,-0.6066079640738646,-0.7951645063870602
-0.0085588451474905,1.350950002670288,-0.1080415248870849,-0.4066442549228668,0.0159776657819747,0.0984800606966018,0.0,0.0,-0.8606401758956264,0.8367450859062686
-0.0094731329008936,1.341115117073059,-0.0946601554751396,-0.4371456205844879,0.0191739574074745,0.0639314353466034,0.0,0.0,0.1365987088953719,0.7509390254829938
-0.0103150364011526,1.3314621448516846,-0.0862471759319305,-0.4290488362312317,0.0212143957614898,0.0408121831715106,0.0,0.0,-0.2891954868681807,-0.9362657617612152
-0.0111972810700535,1.3211214542388916,-0.0925042629241943,-0.4596488177776336,0.0254525411874055,0.0847706869244575,0.0,0.0,-0.4189778811003128,0.7540655150800863
-0.011978531256318,1.3100930452346802,-0.0810236036777496,-0.4901993870735168,0.0283213201910257,0.0573806166648864,0.0,0.0,-0.8206902189347904,-0.7260742350683262
-0.0127775194123387,1.2983702421188354,-0.0844299420714378,-0.52110755443573,0.0328015908598899,0.0896137952804565,0.0,0.0,-0.604197485036081,-0.9657707514201608
-0.0136041641235351,1.285958766937256,-0.0890522748231887,-0.5517751574516296,0.0391207337379455,0.1263943165540695,0.0,0.0,0.0883492441621056,-0.7944268683055079
-0.0144182201474905,1.2731995582580566,-0.0897555947303772,-0.5673120617866516,0.0473888367414474,0.1653772294521331,0.0,0.0,0.7303720179526982,0.97288853271217
-0.0150002483278512,1.2610710859298706,-0.0651914477348327,-0.5392779111862183,0.0543054975569248,0.1383460313081741,0.0,0.0,0.8689319384638821,0.7776550174816018
-0.0153734209015965,1.2487627267837524,-0.0433956086635589,-0.5472766757011414,0.0603202804923057,0.1203067302703857,0.0,0.0,-0.2676894150712647,-0.7477963725258231
-0.0157626159489154,1.2357683181762695,-0.0464830584824085,-0.5778440833091736,0.0678156465291976,0.1499209105968475,0.0,0.0,0.8513252395434969,-0.9976724876920522
-0.0160513874143362,1.2227141857147217,-0.0390654094517231,-0.5806740522384644,0.0779106542468071,0.2019184529781341,0.0,0.0,-0.3967807660249822,-0.7330948111154107
-0.0163606647402048,1.2089718580245972,-0.0426646135747432,-0.6114203929901123,0.089560218155384,0.2330119311809539,0.0,0.0,0.6144320337775919,-0.8508818347968834
-0.0168460849672555,1.195346117019653,-0.0621714107692241,-0.6064662933349609,0.1030952408909797,0.2707251906394958,0.0,0.0,0.7811814440811651,-0.6732028790805185
-0.0172933582216501,1.1822612285614014,-0.0603753700852394,-0.5827029347419739,0.1186594441533088,0.3113123178482055,0.0,0.0,-0.280013613270881,0.8881178554424245
-0.0176430698484182,1.168496012687683,-0.0491292886435985,-0.6129682064056396,0.1327508389949798,0.281853049993515,0.0,0.0,0.2817481946518632,-0.6572047159301257
-0.0179640762507915,1.1546823978424072,-0.0480499975383281,-0.61543869972229,0.148672267794609,0.3184577822685241,0.0,0.0,-0.642528889132417,-0.8636559542680871
-0.0183194167912006,1.1401588916778564,-0.0533107295632362,-0.6473634243011475,0.1664534956216812,0.3556564450263977,0.0,0.0,-0.053073808727865,0.8192701952536663
-0.0186029430478811,1.1249630451202393,-0.0451496616005897,-0.6773313283920288,0.1833072751760482,0.3371059596538543,0.0,0.0,-0.823062662162116,-0.7739822686311333
-0.0189363472163677,1.1090434789657593,-0.052345335483551,-0.7100045680999756,0.2024158686399459,0.382171630859375,0.0,0.0,-0.6089299569318984,0.8668944409387896
-0.0191810615360736,1.0924639701843262,-0.0419821366667747,-0.7393617630004883,0.2200953215360641,0.3535895049571991,0.0,0.0,0.3288448439581615,-0.7607272243882024
-0.0197245590388774,1.0761196613311768,-0.0734733045101165,-0.7293798923492432,0.2394735217094421,0.3875643312931061,0.0,0.0,-0.630593713265712,-0.6843832439960653
-0.0203127861022949,1.0590728521347046,-0.0798153951764106,-0.7611995935440063,0.2608528435230255,0.4275864958763122,0.0,0.0,0.8404316804830207,-0.9764380596072096
-0.0211212150752544,1.0420862436294556,-0.1039122492074966,-0.7592445611953735,0.2844955623149872,0.4728541374206543,0.0,0.0,0.9056188987884756,-0.8226236849260249
-0.022227382287383,1.0258148908615112,-0.1354981660842895,-0.7282310128211975,0.3101683855056762,0.5134564638137817,0.0,0.0,0.9767862796271408,-0.9616408630658748
-0.0236461646854877,1.0095245838165283,-0.1685739010572433,-0.729960024356842,0.3379481732845306,0.555596113204956,0.0,0.0,0.0821527450567594,0.6692844069793473
-0.0252336505800485,0.9932985305786132,-0.1841129660606384,-0.7273311614990234,0.3646053075790405,0.5331434607505798,0.0,0.0,-0.8892846786985422,-0.8818932475431369
-0.0268768314272165,0.9763439893722534,-0.1916117370128631,-0.7607523202896118,0.393590897321701,0.5797116756439209,0.0,0.0,-0.5979781105682693,-0.9086708415978206
-0.0285722725093364,0.9586727023124696,-0.1984886825084686,-0.7937154173851013,0.4247114956378937,0.622411847114563,0.0,0.0,-0.4047735025139229,0.8721425390130739
-0.0301943775266408,0.94037264585495,-0.1893211901187896,-0.8218005895614624,0.4542635381221771,0.5910407304763794,0.0,0.0,-0.4267610170537566,0.8792452468536469
-0.031745720654726,0.9214326739311218,-0.1805594265460968,-0.8503309488296509,0.4823686182498932,0.5621016621589661,0.0,0.0,-0.4609432311896548,-0.7112777264720254
-0.0333358757197856,0.901781439781189,-0.1855693161487579,-0.8829535245895386,0.5121663212776184,0.5959539413452148,0.0,0.0,-0.0155469247333841,0.7673031544191675
-0.0348723419010639,0.8814994692802429,-0.178679421544075,-0.9110887050628662,0.5407297015190125,0.5712676048278809,0.0,0.0,0.2746196911796308,0.9611040064109062
-0.0365575775504112,0.8612186908721924,-0.1916367262601852,-0.9108794331550598,0.5675417184829712,0.5362409353256226,0.0,0.0,-0.1084123034843775,0.9528855680613052
-0.0381878837943077,0.8403120636940002,-0.1845746785402298,-0.9385656118392944,0.5929484367370605,0.5081340074539185,0.0,0.0,0.2518850564956665,0.9985063076019288
-0.0398780815303325,0.8193715214729309,-0.1886514574289322,-0.9397141337394714,0.6164815425872803,0.4706618785858154,0.0,0.0,0.2646719217300415,0.9998538494110109
-0.0415634140372276,0.798175036907196,-0.1862976849079132,-0.9506412148475648,0.6381383538246155,0.4331361651420593,0.0,0.0,0.2309205532073974,0.9995460510253906
-0.0433457382023334,0.7769136428833008,-0.1941958516836166,-0.95298570394516,0.6578753590583801,0.3947396874427795,0.0,0.0,0.3207994699478149,0.9992510080337524
-0.0452317222952842,0.7552735805511475,-0.2027953565120697,-0.969222903251648,0.6757064461708069,0.3566214442253113,0.0,0.0,-0.1545935869216919,0.9747133255004884
-0.0470464713871479,0.7330158352851868,-0.1938911378383636,-0.9959664940834044,0.691504716873169,0.3159654140472412,0.0,0.0,-0.0918222665786743,0.9981251955032348
-0.0487903580069541,0.710148274898529,-0.1849677115678787,-1.0222489833831787,0.7051344513893127,0.2725946307182312,0.0,0.0,0.1142371892929077,0.9950332641601562
-0.0509108528494834,0.6872304677963257,-0.2210538834333419,-1.023720145225525,0.7168394327163696,0.2340995073318481,0.0,0.0,-0.0377861261367797,0.9972636699676514
-0.0529882423579692,0.6636902689933777,-0.2154924124479293,-1.0507723093032837,0.7270287275314331,0.2037859410047531,0.0,0.0,-0.4777073860168457,0.9971559047698976
-0.055007554590702,0.6395336389541626,-0.2081698477268219,-1.0773595571517944,0.7352982759475708,0.1653907895088195,0.0,0.0,-0.1287736892700195,0.9883987903594972
-0.0569560043513774,0.6147827506065369,-0.1991506665945053,-1.1026513576507568,0.7410449981689453,0.1149342656135559,0.0,0.0,-0.2434289455413818,0.9992804527282716
-0.0588559135794639,0.5894178748130798,-0.1929072737693786,-1.1291124820709229,0.744953453540802,0.0781693682074546,0.0,0.0,0.3921322822570801,0.9982681274414062
-0.0608731284737587,0.5639586448669434,-0.2031218558549881,-1.1323868036270142,0.7468416690826416,0.037764485925436,0.0,0.0,0.0256633758544921,0.9959502220153807
-0.0631739646196365,0.5384419560432434,-0.2299374788999557,-1.133984088897705,0.7466487288475037,-0.003858373966068,0.0,0.0,-0.0217713117599487,0.9967148303985596
-0.0654043182730674,0.5123304128646851,-0.2209510803222656,-1.159226655960083,0.7438341975212097,-0.0562889501452446,0.0,0.0,0.1026444435119628,0.9869047403335572
-0.0678479224443435,0.4858731031417846,-0.2407560050487518,-1.1736795902252195,0.7390121221542358,-0.0964429005980491,0.0,0.0,0.3783531188964844,0.9532437324523926
-0.0706257820129394,0.4596345126628876,-0.2726616263389587,-1.163066029548645,0.7321972846984863,-0.136296346783638,0.0,0.0,0.3986463546752929,0.8809707164764404
-0.0736416801810264,0.4335466921329498,-0.295095294713974,-1.1555956602096558,0.7236071825027466,-0.1718024462461471,0.0,0.0,0.4429214000701904,0.8467276096343994
-0.0770380049943924,0.4077218174934387,-0.3317680358886719,-1.143175482749939,0.7132731080055237,-0.2066819369792938,0.0,0.0,0.2624757289886474,0.1924854516983032
-0.080876350402832,0.381831407546997,-0.3757302761077881,-1.146051287651062,0.7027351260185242,-0.2107597887516021,0.0,0.0,0.1896159648895263,0.248968243598938
-0.0848643332719802,0.3555923998355865,-0.3907936215400696,-1.161700963973999,0.6924156546592712,-0.2063895910978317,0.0,0.0,-0.1241416335105896,-0.5455474853515625
-0.088897131383419,0.3286184072494507,-0.3963307738304138,-1.1950277090072632,0.6835236549377441,-0.1778400242328643,0.0,0.0,0.2342253923416137,-0.4733905792236328
-0.0931084603071212,0.3014909029006958,-0.4144766330718994,-1.202078342437744,0.6750714182853699,-0.1690447628498077,0.0,0.0,-0.0240616202354431,-0.7828229665756226
-0.0973720550537109,0.2736190855503082,-0.4209574162960052,-1.235881209373474,0.6682629585266113,-0.1361690610647201,0.0,0.0,0.0290323495864868,-0.8918129205703735
-0.1018436402082443,0.2452864497900009,-0.4432730674743652,-1.2571958303451538,0.6633949279785156,-0.0973603501915931,0.0,0.0,0.0797882080078125,-0.9264172911643982
-0.1066916435956955,0.2165648490190506,-0.4825335144996643,-1.2753353118896484,0.6605563163757324,-0.0567706115543842,0.0,0.0,0.0122046470642089,-0.9058181643486024
-0.1119154915213584,0.1877308934926986,-0.5216344594955444,-1.281121015548706,0.6596139669418335,-0.0188472289592027,0.0,0.0,0.390943169593811,-0.6828715205192566
-0.1172751411795616,0.1585121899843216,-0.5364536046981812,-1.2988598346710205,0.6602222323417664,0.0121651161462068,0.0,0.0,0.5915549993515015,-0.3672292232513428
-0.1231255531311035,0.1295999139547348,-0.5855547189712524,-1.2852540016174316,0.6608620285987854,0.0127954585477709,0.0,0.0,0.7366695404052734,0.2486639022827148
-0.1293665915727615,0.1004937961697578,-0.62416011095047,-1.2936370372772217,0.6609396934509277,0.0015531214885413,0.0,0.0,0.8414509296417236,0.166045069694519
-0.1361586600542068,0.0714950412511825,-0.6787993311882019,-1.2886221408843994,0.6604241728782654,-0.0103104673326015,0.0,0.0,0.8884971141815186,-0.1323180198669433
-0.1433664262294769,0.0426791049540042,-0.7203876972198486,-1.2805083990097046,0.6599368453025818,-0.0097460467368364,0.0,1.0,0.9988524913787842,0.9950520992279052
-0.1494619399309158,0.0279718022793531,-0.6139025092124939,-0.6570080518722534,0.6706665754318237,0.2200057804584503,0.0,0.0,0.9777393341064452,0.9686036109924316
-0.1541980803012848,0.019446525722742,-0.4661440253257751,-0.3790940642356872,0.6788700222969055,0.181423157453537,0.0,0.0,0.9835634231567384,0.9988640546798706
-0.1597051620483398,0.0113087035715579,-0.523322582244873,-0.3664969503879547,0.6550401449203491,-0.2165723145008087,0.0,1.0,0.9972107410430908,0.9999849796295166
-0.1644114553928375,0.0065521453507244,-0.414393275976181,-0.2078665941953659,0.563484787940979,-1.5026237964630127,0.0,1.0,0.999941110610962,0.921483278274536
-0.1693362295627594,0.0020829415880143,-0.4141855239868164,-0.1872076839208603,0.4599672853946686,-1.793113112449646,0.0,1.0,0.9999979734420776,0.5699365139007568
-0.1747144758701324,-0.0017197871347889,-0.4496728777885437,-0.1539644747972488,0.3576935529708862,-1.8739912509918213,0.0,1.0,0.9999785423278807,-0.3933383226394653
-0.1803674697875976,-0.0048439525999128,-0.474334567785263,-0.123857669532299,0.2627333104610443,-1.8237237930297847,0.0,1.0,0.9997105598449708,-0.740291178226471
-0.1864950209856033,-0.0071913860738277,-0.5206618905067444,-0.0947139784693718,0.1694778800010681,-1.798972725868225,0.0,0.0,0.8959267139434814,-0.9996157884597778
-0.1929073333740234,-0.0097003960981965,-0.5524507164955139,-0.1040151268243789,0.0809822678565979,-1.7688459157943726,0.0,0.0,0.89564049243927,-0.99937641620636
-0.1994284689426422,-0.0114314220845699,-0.5647433996200562,-0.0746232494711875,-0.0054778377525508,-1.7293741703033447,1.0,0.0,0.9831163883209229,-0.9996905326843262
-0.2059637606143951,-0.0122029324993491,-0.585632860660553,-0.0358036868274211,-0.070362389087677,-1.2949470281600952,1.0,0.0,0.9768929481506348,-0.893801212310791
-0.2123103588819503,-0.01184684317559,-0.5911198854446411,0.0131424255669116,-0.1134254410862922,-0.8611302375793457,1.0,0.0,0.9708640575408936,0.3746298551559448
-0.2183246165513992,-0.0103972340002655,-0.5781038999557495,0.0624710135161876,-0.1365984827280044,-0.4634236693382263,1.0,0.0,0.93976092338562,0.5091679096221924
-0.2238771915435791,-0.0081946039572358,-0.5489677786827087,0.0973043516278266,-0.1428736597299575,-0.1255079358816146,1.0,0.0,0.4800870418548584,0.3827381134033203
-0.2292429506778717,-0.0059785270132124,-0.5400787591934204,0.0988227799534797,-0.1393874734640121,0.0697130113840103,1.0,0.0,-0.0804159045219421,0.5422203540802002
-0.2345217764377594,-0.0043828273192048,-0.5333815813064575,0.071422554552555,-0.1339114606380462,0.1095214635133743,1.0,0.0,-0.3124870061874389,0.3840012550354004
-0.2398025542497635,-0.0034793519880622,-0.5335412621498108,0.0406374372541904,-0.1284606158733368,0.1090274900197982,1.0,0.0,-0.0573801398277282,0.5156161785125732
-0.2450364530086517,-0.0032800817862153,-0.5276265740394592,0.0092150857672095,-0.1242348998785018,0.0845310539007186,1.0,0.0,0.2835109233856201,0.6568834781646729
-0.2499946057796478,-0.0018024706514552,-0.4846097826957702,0.0646960958838462,-0.1353876143693924,-0.2230488061904907,1.0,0.0,0.2835109233856201,0.6568834781646729
