x_pos,y_pos,x_vel,y_vel,angle,ang_vel,leg_1,leg_2,main_booster,lat_booster
-0.001495361328125,1.4034284353256226,-0.1513271182775497,-0.3329619169235229,0.001603900687769,0.0316266678273677,0.0,0.0,0.6501452721531893,0.9083476868738104
-0.0028345107566565,1.3964509963989258,-0.1336176097393036,-0.3101117312908172,0.0013085266109555,-0.0059073623269796,0.0,0.0,-0.1938125568844748,-0.8311770504924771
-0.004197692964226,1.3892706632614136,-0.1371440440416336,-0.3191263973712921,0.0021275903563946,0.0163830183446407,0.0,0.0,-0.2604478074670859,0.945186429137674
-0.005475235171616,1.3818914890289309,-0.1268856972455978,-0.3279648721218109,0.0012702165404334,-0.0171490833163261,0.0,0.0,-0.3218494484431098,-0.9169763957736
-0.006784439086914,1.374319076538086,-0.13130784034729,-0.3365548551082611,0.0016575979534536,0.0077480599284172,0.0,0.0,-0.33452858959672,-0.8819848216405763
-0.0081232069060206,1.3665491342544556,-0.1354361623525619,-0.3453301787376404,0.0032011596485972,0.0308741964399814,0.0,0.0,0.36562096136704,-0.9908539295721026
-0.0095401760190725,1.3592989444732666,-0.1450144946575164,-0.3222450911998749,0.0064899898134171,0.0657824203372001,0.0,0.0,-0.8283340887514075,-0.9880040679122416
-0.0109937665984034,1.351854920387268,-0.1499658077955246,-0.3308671414852142,0.0110416747629642,0.0910419672727584,0.0,0.0,0.0801621127663856,-0.7405641938808181
-0.0125002861022949,1.3450429439544678,-0.156507059931755,-0.3028077483177185,0.0168344005942344,0.1158651933073997,0.0,0.0,-0.3216165814032061,0.7100981982123153
-0.013931656256318,1.3380409479141235,-0.1473398208618164,-0.3112523853778839,0.0209965910762548,0.0832511037588119,0.0,0.0,-0.4989946831931744,0.6790210278202988
-0.0152835845947265,1.330845594406128,-0.137619137763977,-0.3198328018188476,0.0233891997486352,0.0478569790720939,0.0,0.0,-0.92951768856576,-0.6647666837833575
-0.0166648868471384,1.323451280593872,-0.1414845883846283,-0.3286958634853363,0.0267058014869689,0.0663379654288292,0.0,0.0,-0.7116085636746414,-0.8414482988475211
-0.0180829055607318,1.3158631324768066,-0.1462127268314361,-0.3373329937458038,0.0310819298028945,0.0875302404165268,0.0,0.0,-0.632878823955239,0.82732998428613
-0.0194137580692768,1.3080748319625854,-0.1354124397039413,-0.3461992442607879,0.0333751216530799,0.0458679124712944,0.0,0.0,0.8371718494941776,0.6477045194429875
-0.020542811602354,1.301482319831848,-0.1141107305884361,-0.2930234968662262,0.0345606245100498,0.0237124767154455,0.0,0.0,0.4581953862285524,-0.6245351361125167
-0.0216132160276174,1.2950825691223145,-0.1094489470124244,-0.2844951450824737,0.0369482226669788,0.0477561391890049,0.0,0.0,0.5940472774999037,-0.6945903713170349
-0.0226140022277832,1.289737105369568,-0.1039154902100563,-0.2376765310764312,0.0407474972307682,0.0759926438331604,0.0,0.0,-0.9790522647886296,-0.6944309827658064
-0.0236482620239257,1.284187078475952,-0.1080546975135803,-0.2468016892671585,0.045319527387619,0.0914488136768341,0.0,0.0,0.7402464163864733,0.8395028895337246
-0.0245356559753417,1.2797282934188845,-0.0915803387761116,-0.198259174823761,0.0481459535658359,0.0565337352454662,0.0,0.0,0.5826060817904373,-0.6127790104959971
-0.0255759246647357,1.2758755683898926,-0.1076263412833213,-0.1713487952947616,0.0517004951834678,0.0710972920060157,0.0,0.0,0.7056975589280166,-0.7892960351467974
-0.0265708919614553,1.2730019092559814,-0.1046471148729324,-0.1279046088457107,0.0568071827292442,0.1021430641412735,0.0,0.0,0.2286993919456978,0.6584098799527917
-0.0275210384279489,1.2704263925552368,-0.0985506698489189,-0.1146030724048614,0.0603167079389095,0.0701964944601059,0.0,0.0,0.3145494098244963,-0.9925310450712156
-0.028455352410674,1.268306016921997,-0.0987173989415168,-0.0944610461592674,0.0655493438243866,0.1046622544527053,0.0,0.0,0.5970588059198247,0.7979390217764847
-0.0292729381471872,1.2664459943771362,-0.0852518826723098,-0.0828296318650245,0.0690120607614517,0.0692604631185531,0.0,0.0,-0.1836243433961415,0.7549273293570704
-0.0300480835139751,1.2643963098526,-0.0795348808169364,-0.0911861583590507,0.0710107162594795,0.0399767085909843,0.0,0.0,-0.7065997200358143,0.8878450374128266
-0.030773926526308,1.2621395587921145,-0.0729256719350814,-0.1003214046359062,0.071348637342453,0.0067585660144686,0.0,0.0,0.6296011521811593,0.6024926615206965
-0.0315054878592491,1.2607678174972534,-0.0719680041074752,-0.060911051928997,0.0701725780963897,-0.0235212221741676,0.0,0.0,-0.4501601696909236,-0.6712269991167515
-0.0323094353079795,1.2591999769210815,-0.0805225744843483,-0.0696890875697135,0.0702947154641151,0.0024430116172879,0.0,0.0,-0.8126322211989869,-0.7350695211158469
-0.0331933982670307,1.2574344873428345,-0.0899859592318534,-0.078543521463871,0.071866475045681,0.0314349234104156,0.0,0.0,-0.3553609853809434,0.9416278552416464
-0.0340160354971885,1.255476951599121,-0.0816867128014564,-0.0869766473770141,0.0712970718741417,-0.0113876638934016,0.0,0.0,0.8154169835593876,0.9513866425909396
-0.0348194129765033,1.2547361850738523,-0.0775474458932876,-0.0327898785471916,0.0685317069292068,-0.0553071424365043,0.0,0.0,0.9687780152062916,0.8626746487463045
-0.0357048027217388,1.2545726299285889,-0.083462968468666,-0.0070508322678506,0.0635058209300041,-0.1005177125334739,0.0,0.0,-0.8960781639371269,-0.9937176108019083
-0.0366945266723632,1.254213571548462,-0.0958191305398941,-0.0158215817064046,0.0603879354894161,-0.0623575821518898,0.0,0.0,0.9690856420063978,-0.9692073496620616
-0.0378862395882606,1.2542787790298462,-0.117472767829895,0.0029649364296346,0.0587130598723888,-0.0334976837038993,0.0,0.0,0.9354570414120668,0.9817981805356032
-0.039039421826601,1.2552587985992432,-0.1113457679748535,0.0437116213142871,0.0547767393290996,-0.0787264034152031,0.0,0.0,-0.937992487691685,0.8086141165784467
-0.0401453971862793,1.256054401397705,-0.1045869141817092,0.0355731360614299,0.0488381087779998,-0.1187725439667701,0.0,0.0,-0.0506351720529889,-0.901500052388112
-0.0413449294865131,1.256644368171692,-0.1154906004667282,0.0263529513031244,0.0444282330572605,-0.0881974548101425,0.0,0.0,-0.0061294208624016,-0.7353175195357822
-0.04261951521039,1.25704026222229,-0.1240330785512924,0.0176917240023612,0.0410434640944004,-0.0676957815885543,0.0,0.0,0.4363882548682216,-0.7363657630744274
-0.0440420135855674,1.2583401203155518,-0.1398922353982925,0.0578400380909442,0.0387152209877967,-0.0465649291872978,0.0,0.0,0.3148775150733367,-0.7933016771858912
-0.0455429069697856,1.2601680755615234,-0.1490122824907302,0.0812655463814735,0.0376504957675933,-0.0212944857776165,0.0,0.0,-0.8957715317818762,-0.7238527567560944
-0.0471346862614154,1.2618019580841064,-0.1594597697257995,0.0726154372096061,0.0379362627863884,0.0057151061482727,0.0,0.0,-0.1595402956008911,-0.0106698274612426
-0.0487504974007606,1.263239860534668,-0.161521166563034,0.0639068558812141,0.0378789864480495,-0.0011455034837126,0.0,0.0,-0.1265214085578918,-0.2123372554779052
-0.0503911972045898,1.264481544494629,-0.1636626124382019,0.0551982559263706,0.0374798737466335,-0.0079823303967714,0.0,0.0,-0.0911549925804138,0.3033162355422973
-0.0520574562251567,1.2655271291732788,-0.1658795475959777,0.046489629894495,0.0367404446005821,-0.0147884460166096,0.0,0.0,-0.0364329814910888,0.1502801179885864
-0.0537500381469726,1.2663766145706177,-0.1681675612926483,0.0377809442579746,0.035662617534399,-0.0215567126870155,0.0,0.0,-0.1350137591361999,0.2406407594680786
-0.0554697029292583,1.2670300006866455,-0.1705224215984344,0.0290721729397773,0.0342486388981342,-0.0282798260450363,0.0,0.0,0.1723670959472656,-0.4080300331115722
-0.0571843162178993,1.2679650783538818,-0.1699012219905853,0.0415861383080482,0.0327013581991195,-0.0309454500675201,0.0,0.0,-0.2662732601165771,-0.1184099316596984
-0.0589270591735839,1.2687036991119385,-0.1723776757717132,0.0328771620988845,0.0308235846459865,-0.0375555157661438,0.0,0.0,-0.1914438605308532,-0.2263314723968505
-0.0606985092163085,1.2692464590072632,-0.1749092191457748,0.0241680350154638,0.0286187343299388,-0.0440973006188869,0.0,0.0,-0.0271400213241577,-0.0287612080574035
-0.0624990463256835,1.2695932388305664,-0.1774923354387283,0.0154587244614958,0.0260905995965003,-0.050562709569931,0.0,0.0,0.1130334138870239,-0.0167498588562011
-0.0642425566911697,1.27032470703125,-0.1719180941581726,0.0325481779873371,0.0236904453486204,-0.0480029881000518,0.0,0.0,0.0571098327636718,-0.1077968478202819
-0.0660639777779579,1.2715656757354736,-0.1792198419570922,0.0551991574466228,0.0208054929971694,-0.0576992146670818,0.0,0.0,0.2137434482574463,-0.2958495616912842
-0.0678422003984451,1.2731029987335205,-0.1749629378318786,0.0683644711971283,0.0179827753454446,-0.0564542412757873,0.0,0.0,-0.2796677947044372,-0.3349367976188659
-0.0696510300040245,1.274444341659546,-0.1777198612689972,0.0596545822918415,0.0148563515394926,-0.062528446316719,0.0,0.0,0.0109883546829223,-0.3034517765045166
-0.0714040771126747,1.2760396003723145,-0.1722653806209564,0.070918895304203,0.0118540059775114,-0.0600467808544635,0.0,0.0,-0.2889994382858276,-0.0592085719108581
-0.0731884017586708,1.2774388790130615,-0.1750919818878173,0.0622087493538856,0.008560474961996,-0.0658706650137901,0.0,0.0,0.0883798599243164,-0.3600079417228699
-0.0749465972185134,1.2794303894042969,-0.1724940985441208,0.0885330885648727,0.005269213579595,-0.065824955701828,0.0,0.0,-0.1902172565460205,-0.7139299511909485
-0.0767801254987716,1.28122878074646,-0.1808453649282455,0.0799323245882988,0.0027954650577157,-0.0494749881327152,0.0,0.0,-0.3293664455413818,-0.1788325905799865
-0.0786454230546951,1.2828311920166016,-0.1837579756975174,0.0712221935391426,5.298896212480031e-05,-0.054849486798048,0.0,0.0,0.075427770614624,-0.4584303498268127
-0.0805924385786056,1.28500497341156,-0.1914211362600326,0.0966114178299903,-0.0031790102366358,-0.0646400451660156,0.0,0.0,-0.2187297344207763,-0.5679879784584045
-0.0826126113533973,1.286978244781494,-0.1995414048433303,0.0876925662159919,-0.0056287925690412,-0.0489954203367233,0.0,0.0,0.0141561031341552,-0.2591735124588012
-0.0847241431474685,1.2894021272659302,-0.2081436812877655,0.1077084243297576,-0.0086048496887087,-0.0595211014151573,0.0,0.0,-0.3774516582489013,0.0804899930953979
-0.0868680924177169,1.2916300296783447,-0.2111411988735199,0.098997838795185,-0.011812251061201,-0.064148262143135,0.0,0.0,-0.2369720935821533,-0.0111680626869201
-0.089044377207756,1.293662190437317,-0.2141552865505218,0.0902870893478393,-0.0152402818202972,-0.0685607120394706,0.0,0.0,0.1377260684967041,-0.0800120830535888
-0.0912434607744216,1.295912504196167,-0.2162493020296096,0.0999716371297836,-0.0188527312129735,-0.0722488090395927,0.0,0.0,0.1119211912155151,-0.2466353774070739
-0.0935506820678711,1.2985659837722778,-0.2264799773693084,0.1178736314177513,-0.0230480153113603,-0.0839055180549621,0.0,0.0,-0.2562175989151001,-0.3006535172462463
-0.0958903282880783,1.3010238409042358,-0.2295337468385696,0.1091621145606041,-0.0274282284080982,-0.087604284286499,0.0,0.0,0.0206625461578369,0.202933669090271
-0.098206803202629,1.3035547733306885,-0.2272698134183883,0.1124020591378212,-0.0317457318305969,-0.0863500833511352,0.0,0.0,-0.0133925676345825,-0.4000478982925415
-0.1005555167794227,1.3058900833129885,-0.230342224240303,0.103690393269062,-0.0362214520573616,-0.0895143970847129,0.0,0.0,0.1544713973999023,-0.0286136865615844
-0.1029902473092079,1.3085293769836426,-0.238486647605896,0.1171667724847793,-0.0411453694105148,-0.0984781831502914,0.0,0.0,0.1442779302597046,-0.143194317817688
-0.1055012717843055,1.3116796016693115,-0.2456981688737869,0.1398594975471496,-0.0464926548302173,-0.1069458127021789,0.0,0.0,0.2120215892791748,0.3772486448287964
-0.108000561594963,1.315316915512085,-0.2445156872272491,0.161484956741333,-0.0518493168056011,-0.1071331650018692,0.0,0.0,0.0133056640625,0.5088536739349365
-0.110552117228508,1.3195443153381348,-0.2484564781188964,0.1876335591077804,-0.0584642067551612,-0.1322981417179107,0.0,0.0,-0.1472668647766113,0.7782260179519653
-0.1130663901567459,1.3235704898834229,-0.2428950071334839,0.1785820871591568,-0.0668983608484268,-0.1686831265687942,0.0,0.0,-0.3554996252059936,0.5750398635864258
-0.115569494664669,1.3273930549621582,-0.2406314611434936,0.1694266945123672,-0.0764785930514335,-0.1916048228740692,0.0,0.0,-0.2008668184280395,0.6767286062240601
-0.1180448532104492,1.3310072422027588,-0.2363049536943435,0.1600109040737152,-0.0876074954867363,-0.2225778549909591,0.0,0.0,-0.3087178468704223,0.7537550926208496
-0.1204955130815506,1.3344123363494873,-0.232375830411911,0.1505441069602966,-0.1001905277371406,-0.2516607642173767,0.0,0.0,-0.3702043294906616,-0.2091504335403442
-0.1229769736528396,1.3376235961914062,-0.2354650795459747,0.1418211311101913,-0.112783744931221,-0.2518641352653503,0.0,0.0,-0.2405053377151489,0.7120513916015625
-0.1254251450300216,1.340637445449829,-0.2305365055799484,0.1328112781047821,-0.1269749402999878,-0.28382408618927,0.0,0.0,-0.2299971580505371,0.0744626522064209
-0.1279034614562988,1.3434579372406006,-0.2336156666278839,0.1240851506590843,-0.1411381810903549,-0.2832646667957306,0.0,0.0,-0.1528809070587158,0.2956393957138061
-0.1304117143154144,1.3460849523544312,-0.2366875410079956,0.1153593584895134,-0.1552538871765136,-0.2823142409324646,0.0,0.0,-0.482598066329956,0.794137716293335
-0.132882684469223,1.348510503768921,-0.2313640862703323,0.1060778573155403,-0.1709940135478973,-0.3148024678230285,0.0,0.0,-0.5769047737121582,-0.3030494451522827
-0.1353829354047775,1.3507431745529177,-0.2344183474779129,0.097348928451538,-0.1866466403007507,-0.3130527138710022,0.0,0.0,-0.5759059190750122,-0.0443528890609741
-0.1379121840000152,1.3527826070785522,-0.2374612540006637,0.0886207073926925,-0.2021915465593338,-0.3108982443809509,0.0,0.0,-0.3978625535964966,-0.0674964189529419
-0.1404699385166168,1.3546288013458252,-0.2404913604259491,0.0798933133482933,-0.2176083624362945,-0.3083365261554718,0.0,0.0,-0.694884717464447,-0.699692964553833
-0.1431019753217697,1.3562970161437988,-0.2493084967136383,0.0720276981592178,-0.2316720485687255,-0.2812737226486206,0.0,0.0,-0.4242472648620605,-0.4436351060867309
-0.1457617729902267,1.3577711582183838,-0.2523075938224792,0.0633050948381424,-0.2455668300390243,-0.2778955101966858,0.0,0.0,-0.6274212002754211,-0.5562306046485901
-0.1484857499599456,1.3590604066848757,-0.2598887085914612,0.055165272206068,-0.258325457572937,-0.2551727592945099,0.0,0.0,-0.839954137802124,-0.6464118361473083
-0.1512742936611175,1.3601696491241455,-0.2675449848175049,0.0472657158970832,-0.2698865532875061,-0.2312221825122833,0.0,0.0,-0.7201665043830872,-0.7486414909362793
-0.1541344672441482,1.3610963821411133,-0.2760955691337585,0.0393200553953647,-0.2800577282905578,-0.2034235298633575,0.0,0.0,-0.7707642912864685,-0.680007815361023
-0.1570721566677093,1.3618543148040771,-0.2854756712913513,0.0320759303867816,-0.2885820269584656,-0.1704860776662826,0.0,0.0,-0.6176533102989197,-0.6220159530639648
-0.1600795686244964,1.362440586090088,-0.2938989400863647,0.024680146947503,-0.2956339418888092,-0.1410382390022277,0.0,0.0,-0.8863836526870728,-0.5157596468925476
-0.1631431579589843,1.3628461360931396,-0.3006159961223602,0.016845254227519,-0.3015635013580322,-0.1185914725065231,0.0,0.0,-0.87696373462677,-0.2865948677062988
-0.1662321090698242,1.363054871559143,-0.3034549355506897,0.0081404028460383,-0.307185411453247,-0.1124384626746177,0.0,0.0,-0.5105730295181274,-0.423205018043518
-0.1693458557128906,1.3630666732788086,-0.3062649369239807,-0.000563548237551,-0.3124810755252838,-0.1059134602546691,0.0,0.0,-0.7883052825927734,-0.2006344199180603
-0.1724840104579925,1.362881422042847,-0.3090443909168243,-0.0092666046693921,-0.3174323439598083,-0.0990255326032638,0.0,0.0,-0.4374492764472961,-0.7444620132446289
-0.1757040023803711,1.3625271320343018,-0.3190961480140686,-0.0163810793310403,-0.3204445540904999,-0.0602440722286701,0.0,0.0,-0.7026681900024414,0.2464873790740966
-0.1789473593235016,1.3619755506515503,-0.321808785200119,-0.0250814836472272,-0.3230775594711303,-0.0526602491736412,0.0,0.0,-0.6112656593322754,-0.4527031183242798
-0.182213693857193,1.361226201057434,-0.3244856297969818,-0.0337811931967735,-0.3253147900104522,-0.0447445027530193,0.0,0.0,-0.378447949886322,-0.2982449531555176
-0.1855025291442871,1.3602793216705322,-0.3271249830722809,-0.0424802526831626,-0.327140212059021,-0.0365083590149879,0.0,0.0,-0.6134454011917114,0.0309937000274658
-0.1888132095336914,1.359134554862976,-0.329725056886673,-0.0511787049472332,-0.3285383880138397,-0.0279636234045028,0.0,0.0,-0.5231209397315979,-0.2599844932556152
-0.1921452581882476,1.3577920198440552,-0.3322840929031372,-0.0598766058683395,-0.3294945061206817,-0.0191224049776792,0.0,0.0,-0.03669935464859,0.5129539966583252
-0.1954670846462249,1.356236219406128,-0.3309007287025451,-0.0694388598203659,-0.3308390378952026,-0.0268903858959674,0.0,0.0,-0.6029418110847473,-0.4536733031272888
-0.1988092362880706,1.3544825315475464,-0.3333726525306701,-0.0781359001994133,-0.3317137062549591,-0.0174932889640331,0.0,0.0,-0.5235651731491089,-0.1580292582511901
-0.2021709382534027,1.352530598640442,-0.3357983529567718,-0.0868324860930442,-0.3321055471897125,-0.0078367944806814,0.0,0.0,-0.7387503981590271,-0.7229357957839966
-0.2056014090776443,1.3503997325897217,-0.3444116711616516,-0.0943919867277145,-0.3306818604469299,0.0284738093614578,0.0,0.0,-0.2642597556114197,0.1215449571609497
-0.2090503275394439,1.3480708599090576,-0.3467400372028351,-0.1030880510807037,-0.3287512362003326,0.0386118330061435,0.0,0.0,0.191724419593811,-0.2667690515518188
-0.2123518884181976,1.346346378326416,-0.3324317038059234,-0.0761267393827438,-0.3263789713382721,0.0474454499781131,0.0,0.0,-0.6419061422348022,0.4617321491241455
-0.2156706303358078,1.344423770904541,-0.3346563577651977,-0.0848226770758628,-0.3234781324863434,0.0580169558525085,0.0,0.0,0.2126482725143432,0.1096986532211303
-0.2188174724578857,1.3428813219070437,-0.318242073059082,-0.0677591413259506,-0.3197797238826751,0.0739680975675582,0.0,0.0,-0.4778317213058471,0.4495232105255127
-0.2219801843166351,1.3411409854888916,-0.3203572630882263,-0.0764554888010025,-0.3155333995819092,0.0849267244338989,0.0,0.0,-0.3161995410919189,0.6396853923797607
-0.2251041829586029,1.3391820192337036,-0.3156487345695495,-0.0863614827394485,-0.3121601939201355,0.0674642547965049,0.0,0.0,-0.1749588251113891,-0.3117176294326782
-0.2282426804304123,1.337025165557861,-0.3176484405994415,-0.0950575321912765,-0.3082218766212463,0.0787661671638488,0.0,0.0,-0.4924008250236511,0.4650337696075439
-0.2313950061798095,1.3346699476242063,-0.3195887207984924,-0.1037538945674896,-0.3037106692790985,0.0902241319417953,0.0,0.0,-0.6804880499839783,0.5000932216644287
-0.2345311641693115,1.3321017026901243,-0.3177637755870819,-0.113285943865776,-0.2994216084480285,0.0857806950807571,0.0,0.0,-0.3831166625022888,0.5329129695892334
-0.2376411408185959,1.3293172121047974,-0.3147095143795013,-0.1229996010661125,-0.2955912053585052,0.0766079947352409,0.0,0.0,-0.2552230954170227,0.71541428565979
-0.2407069206237793,1.3263075351715088,-0.3093973398208618,-0.1331920325756073,-0.2926860153675079,0.058103509247303,0.0,0.0,-0.2545990943908691,0.5414443016052246
-0.2437350749969482,1.3230726718902588,-0.3049158155918121,-0.143357515335083,-0.2905254364013672,0.0432116016745567,0.0,0.0,-0.0017384886741638,0.362720251083374
-0.246773675084114,1.3196395635604858,-0.3065431416034698,-0.1520530581474304,-0.2877599000930786,0.0553107745945453,0.0,0.0,-0.463970422744751,0.2663688659667969
-0.2498219013214111,1.3160080909729004,-0.3081058859825134,-0.1607488542795181,-0.2843842506408691,0.0675132125616073,0.0,0.0,-0.3803595304489136,0.7951853275299072
