x_pos,y_pos,x_vel,y_vel,angle,ang_vel,leg_1,leg_2,main_booster,lat_booster
-0.0014933586353436,1.4034532308578491,-0.1506087481975555,-0.3318618237972259,0.0011408495483919,0.0224577318876981,0.0,0.0,0.9133139411452031,-0.6218994321827531
-0.0029411315917968,1.3966363668441772,-0.1467231512069702,-0.3029666244983673,0.0030566621571779,0.0383207462728023,0.0,0.0,-0.4809325670637951,0.7502879664788235
-0.00428609829396,1.389642596244812,-0.1339795887470245,-0.3108322322368622,0.0025532657746225,-0.010069029405713,0.0,0.0,-0.6676050900050559,-0.9023656635683306
-0.0056845666840672,1.3824743032455444,-0.1408977508544922,-0.3185928165912628,0.0035839157644659,0.0206149350851774,0.0,0.0,0.6574846077546193,0.9347325398697656
-0.0068354606628417,1.3761203289031982,-0.1138720512390136,-0.2824036478996277,0.0023858153726905,-0.0239642113447189,0.0,0.0,0.3967141054061589,0.8684602873235656
-0.0077556609176099,1.3702828884124756,-0.0886388644576072,-0.2594349086284637,-0.0009660142241045,-0.0670426934957504,0.0,0.0,-0.2750928087420516,-0.6354549062633963
-0.0086957933381199,1.364274501800537,-0.0913453549146652,-0.2670445740222931,-0.0036097820848226,-0.0528798699378967,0.0,0.0,0.649407441454309,-0.6344344680055238
-0.0094900131225585,1.3590651750564575,-0.0778098851442337,-0.2315345853567123,-0.0051926709711551,-0.0316610783338546,0.0,0.0,0.7859258745843594,-0.6635079752368129
-0.0103134158998727,1.3550490140914917,-0.0814379826188087,-0.1785010397434234,-0.0060894200578331,-0.0179365091025829,0.0,0.0,-0.792653004800131,-0.9772661748166336
-0.0111815454438328,1.3508682250976562,-0.0872676447033882,-0.1858097910881042,-0.0056358049623668,0.0090730814263224,0.0,0.0,-0.366257998334639,-0.7892437020346696
-0.0120703699067235,1.3465174436569214,-0.0901087969541549,-0.1933659762144088,-0.0044271540828049,0.0241751223802566,0.0,0.0,-0.4025348888311191,0.9664012337089948
-0.0128415105864405,1.3419928550720217,-0.075578898191452,-0.2010977864265442,-0.0059396661818027,-0.0302529893815517,0.0,0.0,0.3738208328534975,0.6783430260339474
-0.0134027479216456,1.338171362876892,-0.0528811290860176,-0.1698527783155441,-0.0091504110023379,-0.0642210990190506,0.0,0.0,0.2593980256789552,0.9861967990573036
-0.0137891769409179,1.3345739841461182,-0.0328646712005138,-0.1599302440881729,-0.0148643050342798,-0.1142881512641906,0.0,0.0,0.3491524042938663,-0.9003484712211187
-0.0140713695436716,1.3318233489990234,-0.0238052643835544,-0.1222960948944091,-0.019232528284192,-0.0873725563287735,0.0,0.0,0.94275190664328,0.9582270306155164
-0.0140954013913869,1.3294087648391724,0.0042435927316546,-0.1074185296893119,-0.0258047766983509,-0.131457045674324,0.0,0.0,-0.4066564354937365,-0.8023501414077339
-0.0141345020383596,1.3268346786499023,0.0020510251633822,-0.1145142465829849,-0.0317022204399108,-0.1179594621062278,0.0,0.0,0.5249434079084432,0.7636057122170523
-0.013923168182373,1.3245925903320312,0.0289222039282321,-0.0998343303799629,-0.0394088365137577,-0.1541462391614914,0.0,0.0,0.9342547591325464,-0.8284829931923893
-0.01358203869313,1.323593020439148,0.0405250899493694,-0.044607289135456,-0.0457445085048675,-0.1267251670360565,0.0,0.0,0.8314325694617704,0.7303349733821398
-0.0132176401093602,1.3233654499053955,0.045080043375492,-0.0103976475074887,-0.0542932339012622,-0.1709897667169571,0.0,0.0,-0.8586514890292316,-0.8847159884476772
-0.0128738405182957,1.3229787349700928,0.0421427153050899,-0.0174830928444862,-0.0619829036295414,-0.1538074910640716,0.0,0.0,0.6503726232289544,-0.6220580946985217
-0.0125050544738769,1.3230836391448977,0.043886162340641,0.0043580741621553,-0.0689297616481781,-0.1389496624469757,0.0,0.0,0.6060072175808728,-0.7643520731921452
-0.0119871143251657,1.323801040649414,0.0575340390205383,0.031608723104,-0.074612833559513,-0.1136715859174728,0.0,0.0,-0.6100219926663037,-0.7106285653059461
-0.0114847179502248,1.324345588684082,0.0552204363048076,0.023946302011609,-0.0795563161373138,-0.0988787338137626,0.0,0.0,-0.15279299404653,0.6033045266181353
-0.0109115596860647,1.3247172832489014,0.0637340992689132,0.016163008287549,-0.0859177187085151,-0.1272390335798263,0.0,0.0,0.7315122390681936,-0.7545930703544667
-0.0104676242917776,1.3260332345962524,0.0501376092433929,0.0581482797861099,-0.0916089192032814,-0.1138241440057754,0.0,0.0,-0.4111435505581731,-0.7383306585979618
-0.0100466730073094,1.3271914720535278,0.0468406975269317,0.0511804893612861,-0.0963201522827148,-0.0942244753241539,0.0,0.0,-0.7346188250402474,-0.7506162570549867
-0.0096627231687307,1.3281975984573364,0.041790522634983,0.0444915555417537,-0.0996821224689483,-0.0672392323613166,0.0,0.0,-0.3449368403562125,-0.8032034742702551
-0.0093205450102686,1.3290512561798096,0.0361064597964286,0.0378142930567264,-0.1015581861138343,-0.0375211127102375,0.0,0.0,0.4936563901210882,-0.8453826046767532
-0.0089869499206542,1.330402374267578,0.0340388901531696,0.060004886239767,-0.1022337824106216,-0.0135119538754224,0.0,0.0,-0.683640635405242,-0.8362016527262955
-0.0086817741394042,1.3316022157669067,0.0300238281488418,0.0533557496964931,-0.1017352193593978,0.0099713038653135,0.0,0.0,0.8918078923720758,0.875894475228814
-0.0083195688202977,1.3333795070648191,0.0380975306034088,0.0788593739271164,-0.1036058887839317,-0.0374133847653865,0.0,0.0,0.5220711023693454,0.6987325260948991
-0.0078738210722804,1.3360990285873413,0.0484452210366725,0.1205931454896926,-0.1074520573019981,-0.0769233107566833,0.0,0.0,-0.6666728690950334,0.9606365410354634
-0.0073262215591967,1.3386285305023191,0.0607787556946277,0.1119830533862114,-0.1134276166558265,-0.1195113807916641,0.0,0.0,0.3090308992570458,-0.8673790167664951
-0.0067406655289232,1.341739535331726,0.0632231757044792,0.1379041522741317,-0.1180604994297027,-0.0926576182246208,0.0,0.0,-0.217677578971734,0.7544864767279195
-0.0060584070160984,1.3446751832962036,0.0748383775353431,0.1299323737621307,-0.1246324777603149,-0.1314396411180496,0.0,0.0,-0.525387023594402,0.6960336881949449
-0.0052889822982251,1.3474276065826416,0.085268959403038,0.1216101795434951,-0.1329137533903122,-0.1656256318092346,0.0,0.0,-0.8092983745522904,-0.7272254847788457
-0.0045370100997388,1.3500264883041382,0.0825066268444061,0.1148350983858108,-0.1401980817317962,-0.1456865221261978,0.0,0.0,-0.4942957153648857,0.6597084224561572
-0.0037006377242505,1.3524527549743652,0.0925254970788955,0.1069690212607383,-0.1490658968687057,-0.1773564517498016,0.0,0.0,-0.5366301876637687,0.6428751565339932
-0.0027760504744946,1.354698657989502,0.1030233278870582,0.0987228006124496,-0.1596219688653946,-0.2111215889453888,0.0,0.0,-0.5515190682161561,-0.6081673744591592
-0.0018712996970862,1.3567938804626465,0.0999282673001289,0.0920779407024383,-0.1690720319747924,-0.1890011131763458,0.0,0.0,-0.7955887913703918,-0.8984723687171936
-0.0009866714244708,1.358731985092163,0.0967753827571868,0.0851631462574005,-0.1774100214242935,-0.1667597591876983,0.0,0.0,-0.4614468216896057,-0.9978308081626892
-0.0001330375671386,1.3605067729949951,0.0923193171620369,0.078038290143013,-0.1843824833631515,-0.1394492983818054,0.0,0.0,-0.6171766519546509,-0.9842973351478576
0.0006921768072061,1.3621275424957275,0.088112935423851,0.0713298618793487,-0.1899999678134918,-0.1123498454689979,0.0,0.0,-0.6237989068031311,-0.9563361406326294
0.001472282456234,1.3635900020599363,0.0818469375371933,0.0644946470856666,-0.1938561499118805,-0.077123537659645,0.0,0.0,-0.7570344805717468,-0.8341130018234253
0.0022271156776696,1.3648911714553833,0.0780500993132591,0.0574911944568157,-0.1964386850595474,-0.0516510605812072,0.0,0.0,-0.4326765537261963,-0.8824092745780945
0.0029554367065429,1.3660354614257812,0.0740704238414764,0.0506910867989063,-0.1976869404315948,-0.0249652303755283,0.0,0.0,-0.4611529111862182,-0.9354091882705688
0.0036346435081213,1.3670446872711182,0.067184641957283,0.0449586361646652,-0.1969411820173263,0.0149154085665941,0.0,0.0,-0.6088647842407227,-0.7479216456413269
0.004279613494873,1.3679111003875732,0.0621578767895698,0.0388154350221157,-0.194587841629982,0.0470668487250804,0.0,0.0,0.0863192081451416,-0.5762015581130981
0.0049646375700831,1.3691152334213257,0.0652509480714798,0.0539389327168464,-0.1913201808929443,0.0653528869152069,0.0,0.0,0.1455315351486206,-0.3082536458969116
0.0058580399490892,1.3707033395767212,0.0858290493488311,0.0710379183292388,-0.1877982467412948,0.0704390257596969,0.0,0.0,0.1413335800170898,0.2757086753845215
0.0068426132202148,1.37288236618042,0.0953278839588165,0.0972278639674186,-0.1846540123224258,0.0628850907087326,0.0,0.0,-0.2621241807937622,0.702120304107666
0.0079262731596827,1.374868392944336,0.107077732682228,0.0884352177381515,-0.1833585798740387,0.0259086303412914,0.0,0.0,-0.4117832779884338,-0.0558547377586364
0.0090450290590524,1.3766839504241943,0.1107517927885055,0.0808228477835655,-0.1822333186864853,0.0225051455199718,0.0,0.0,-0.16821950674057,0.1656373739242553
0.010198688134551,1.3783284425735474,0.1143994331359863,0.0732106938958168,-0.1812667548656463,0.0193312503397464,0.0,0.0,-0.4700304269790649,-0.5423750281333923
0.0113378521054983,1.379813313484192,0.1118504554033279,0.0662432014942169,-0.1791888177394867,0.0415588282048702,0.0,0.0,-0.5044391751289368,-0.1242114305496215
0.0125116351991891,1.3811272382736206,0.1154378056526184,0.058631170541048,-0.1772473156452179,0.038829781115055,0.0,0.0,-0.7629402875900269,-0.4250407218933105
0.0137196537107229,0.0,0.1189909428358078,0.0510193593800067,-0.1754315495491027,0.0363151840865612,0.0,0.0,-0.559443473815918,-0.2382819652557373
0.0149617195129394,1.3832424879074097,0.1225067749619484,0.0434077605605125,-0.1737310737371444,0.0340092740952968,0.0,0.0,-0.5972809195518494,-0.6406365633010864
0.0161819458007812,1.3840640783309937,0.1189869418740272,0.036867082118988,-0.1706859916448593,0.0609015710651874,0.0,0.0,-0.2229214310646057,-0.2877648472785949
0.0174355506896972,1.3847148418426514,0.1224175095558166,0.0292553212493658,-0.1677362769842147,0.0589943714439868,0.0,0.0,-0.6690905690193176,-0.4517956972122192
0.0187221523374319,1.3851944208145142,0.1257997453212738,0.0216437596827745,-0.1648724377155304,0.0572766847908496,0.0,0.0,-0.791476845741272,-0.5906428694725037
0.0200045593082904,1.385511040687561,0.1245136484503746,0.0144770853221416,-0.1611460000276565,0.0745288282632827,0.0,0.0,-0.5947681069374084,-0.3374903798103332
0.0213189125061035,1.3856565952301023,0.1277855932712555,0.0068653826601803,-0.157487541437149,0.0731691196560859,0.0,0.0,-0.541161298751831,-0.3654530048370361
0.0226649288088083,1.385631442070007,0.1309950500726699,-0.000746147648897,-0.1538886576890945,0.0719775408506393,0.0,0.0,-0.7233890891075134,-0.2842565774917602
0.0240418426692485,1.3854352235794067,0.1341365426778793,-0.0083575211465358,-0.1503413021564483,0.0709466785192489,0.0,0.0,-0.5423349738121033,-0.2394523620605468
0.025448989123106,1.3850679397583008,0.1372041702270507,-0.0159687548875808,-0.1468378752470016,0.0700689554214477,0.0,0.0,-0.6930957436561584,-0.6684805750846863
0.0268396381288766,1.3845319747924805,0.1344424039125442,-0.0233717206865549,-0.1422206610441208,0.0923444181680679,0.0,0.0,-0.7768856883049011,-0.08759605884552
0.0282590873539447,1.383825182914734,0.1373429745435714,-0.0309834796935319,-0.137633204460144,0.0917495042085647,0.0,0.0,-0.1208153367042541,-0.4957724809646606
0.0297063831239938,1.382947564125061,0.140149638056755,-0.0385951399803161,-0.1330689787864685,0.0912842452526092,0.0,0.0,-0.983064353466034,0.1487632989883422
0.0311805717647075,1.3818988800048828,0.1428550034761428,-0.0462067052721977,-0.1285219639539718,0.0909406766295433,0.0,0.0,-0.8932440280914307,0.0874905586242675
0.0326807014644146,1.3806791305541992,0.1454512625932693,-0.053818192332983,-0.1239864379167556,0.090710811316967,0.0,0.0,-0.8589214086532593,0.8438352346420288
0.0342583656311035,1.3792883157730105,0.1545446217060089,-0.0615562126040458,-0.1207773610949516,0.0641814023256301,0.0,0.0,-0.5774750709533691,-0.610285222530365
0.0358175262808799,1.3777339458465576,0.1516163498163223,-0.0687393769621849,-0.1165000572800636,0.0855459719896316,0.0,0.0,-0.7233936190605164,0.6099191904067993
0.0374439246952533,1.3759958744049072,0.1594782471656799,-0.0770038738846778,-0.1133706793189048,0.062588021159172,0.0,0.0,-0.7396446466445923,-0.1810548305511474
0.0390910133719444,1.3740864992141724,0.1615553647279739,-0.0846142694354057,-0.1102340370416641,0.0627326667308807,0.0,0.0,-0.892940878868103,0.221676230430603
0.0407574661076068,1.3720062971115112,0.1634812951087951,-0.0922246351838111,-0.10708649456501,0.0629506632685661,0.0,0.0,-0.9214471578598022,0.9160503149032592
0.0425134673714637,1.3697516918182373,0.1742254793643951,-0.100108228623867,-0.1057234182953834,0.0272617302834987,0.0,0.0,-0.8070749044418335,0.5942049026489258
0.0443389900028705,1.3673231601715088,0.1825134605169296,-0.1079259067773819,-0.1056837067008018,0.0007942757802084,0.0,0.0,-0.8973341584205627,-0.5155498385429382
0.0461313240230083,1.3647364377975464,0.1779335141181945,-0.1148792654275894,-0.1044028103351593,0.0256180204451084,0.0,0.0,-0.9798056483268738,0.3050391674041748
0.0479361526668071,1.3619784116744995,0.1791739910840988,-0.1224888563156127,-0.1031004339456558,0.0260478593409061,0.0,0.0,-0.9367719292640686,-0.5742348432540894
0.0497099868953228,1.359060764312744,0.174968346953392,-0.1295068264007568,-0.1007047146558761,0.0479144975543022,0.0,0.0,-0.967314064502716,0.3360871076583862
0.051492691040039,1.3559718132019043,0.1758244931697845,-0.1371167600154876,-0.0982846915721893,0.0484006032347679,0.0,0.0,-0.9335808753967284,0.196851372718811
0.0532821640372276,1.352711796760559,0.1764808893203735,-0.1447267085313797,-0.0958395600318908,0.0489022582769393,0.0,0.0,-0.947565734386444,-0.5787338614463806
0.0550301559269428,1.3492904901504517,0.1711185872554779,-0.151832103729248,-0.0921915099024772,0.0729610174894332,0.0,0.0,-0.9368079304695128,0.3977879285812378
0.0567808151245117,1.345697999000549,0.1713653355836868,-0.1594426482915878,-0.0885180979967117,0.0734681636095047,0.0,0.0,-0.9633863568305968,0.0708110332489013
0.0585322380065918,1.3419344425201416,0.1714046895503997,-0.16705322265625,-0.0848198384046554,0.073965199291706,0.0,0.0,-0.8410142660140991,-0.4022324085235595
0.0602821335196495,1.3379998207092283,0.1712365299463272,-0.1746638268232345,-0.0810976549983024,0.0744435116648674,0.0,0.0,-0.8479627966880798,0.5105633735656738
0.0620785728096962,1.333887815475464,0.1771491467952728,-0.1826212555170059,-0.078618511557579,0.049582727253437,0.0,0.0,-0.7935987710952759,-0.6856738328933716
0.063827708363533,1.3296045064926147,0.1713270246982574,-0.1901904046535492,-0.0750706046819686,0.0709583684802055,0.0,0.0,-0.8596601486206055,0.3781358003616333
0.065569207072258,1.3251500129699707,0.1705479174852371,-0.1978010088205337,-0.0715041831135749,0.0713281631469726,0.0,0.0,-0.7705771327018738,0.4391825199127197
0.0673010796308517,1.3205245733261108,0.1695729196071624,-0.2054116129875183,-0.0679219737648963,0.0716442763805389,0.0,0.0,-0.8547923564910889,0.3242826461791992
0.0690215080976486,1.3157278299331665,0.1684075891971588,-0.2130222469568252,-0.0643270611763,0.0718980804085731,0.0,0.0,-0.8675768375396729,-0.2301679253578186
0.0707284957170486,1.3107600212097168,0.1670583337545395,-0.2206329256296157,-0.0607230141758918,0.072080910205841,0.0,0.0,-0.8976491093635559,-0.1357194185256958
0.0724203139543533,1.3056213855743408,0.1655323207378387,-0.2282436043024063,-0.0571137927472591,0.0721842721104621,0.0,0.0,-0.9213165640830994,0.2639843225479126
0.0740952491760253,1.30031156539917,0.1638372242450714,-0.2358543425798416,-0.0535038113594055,0.0721997693181037,0.0,0.0,-0.898307204246521,0.5802901983261108
0.0757956504821777,1.2948269844055176,0.1675117313861847,-0.2436715811491012,-0.0510080158710479,0.0499159172177314,0.0,0.0,-0.8129925727844238,-0.2580546736717224
0.07747583091259,1.28917133808136,0.1655032485723495,-0.2512817978858948,-0.0485214591026306,0.0497313067317009,0.0,0.0,-0.8914604187011719,-0.2532612085342407
0.0791343674063682,1.2833445072174072,0.1633508652448654,-0.2588919997215271,-0.0460497140884399,0.0494348667562007,0.0,0.0,-0.6798020601272583,-0.6201199293136597
0.0807166099548339,1.2773549556732178,0.1543793082237243,-0.2660971283912658,-0.0422545783221721,0.0759030282497406,0.0,0.0,-0.4219652414321899,0.2625191211700439
0.0822744369506836,1.2711939811706543,0.1519649475812912,-0.2737080454826355,-0.0384865328669548,0.0753609612584114,0.0,0.0,-0.9306730628013612,-0.137225329875946
0.0838065147399902,1.264862298965454,0.1494323462247848,-0.2813190221786499,-0.0347522646188735,0.0746853798627853,0.0,0.0,-0.8180893063545227,-0.876338005065918
0.0852291136980056,1.2583646774291992,0.1364108920097351,-0.2886504232883453,-0.0289778504520654,0.1154883876442909,0.0,0.0,-0.8992270827293396,-0.5548669099807739
0.0865689292550087,1.2516977787017822,0.1267804354429245,-0.2961854934692383,-0.0218723118305206,0.1421107947826385,0.0,0.0,-0.3786060214042663,-0.7508269548416138
0.087830826640129,1.2448667287826538,0.1178053244948387,-0.3035126030445099,-0.0135916201397776,0.1656141132116317,0.0,0.0,-0.9356241226196288,-0.5045677423477173
0.0890270248055458,1.2378615140914917,0.1103755608201026,-0.3112832307815552,-0.0044735395349562,0.1823614835739135,0.0,0.0,-0.855226457118988,0.1304285526275634
0.0901923179626464,1.2306861877441406,0.107368603348732,-0.3188998997211456,0.0045728334225714,0.1809275448322296,0.0,0.0,-0.7932901978492737,0.2506889104843139
0.0913259536027908,1.223340630531311,0.1042877286672592,-0.3265164196491241,0.0135391810908913,0.1793269366025924,0.0,0.0,-0.8934527635574341,0.3965294361114502
0.0924272537231445,1.215825080871582,0.1011390313506126,-0.3341327309608459,0.0224169697612524,0.177555575966835,0.0,0.0,-0.6061160564422607,-0.4614964723587036
0.093495562672615,1.2081393003463743,0.0979280844330787,-0.3417488038539886,0.0311974547803401,0.1756098717451095,0.0,0.0,-0.1932461857795715,0.14821457862854
0.0945299118757247,1.200283408164978,0.094660148024559,-0.3493646681308746,0.0398717746138572,0.1734865605831146,0.0,0.0,-0.7570552825927734,0.4820898771286011
0.0955300331115722,1.192257046699524,0.0913400873541832,-0.3569802343845367,0.0484309010207653,0.1711829900741577,0.0,0.0,-0.511444091796875,0.1246242523193359
0.0964950546622276,1.1840603351593018,0.08797238022089,-0.3645955324172973,0.0568657368421554,0.1686968803405761,0.0,0.0,-0.503642737865448,-0.3528866171836853
0.0974247008562088,1.1756932735443115,0.0845611616969108,-0.3722105026245117,0.0651670768857002,0.1660265028476715,0.0,0.0,-0.7150288224220276,-0.0148488283157348
0.0983181968331337,1.1671558618545532,0.0811102539300918,-0.3798251152038574,0.0733255892992019,0.1631704419851303,0.0,0.0,-0.2586600184440613,0.6057782173156738
0.0992214232683181,1.1584525108337402,0.0834096223115921,-0.3871715664863586,0.0801688581705093,0.1368653327226638,0.0,0.0,-0.5043642520904541,-0.1454547643661499
0.1000877395272255,1.149578332901001,0.0798893496394157,-0.3947840631008148,0.0868506804108619,0.1336362063884735,0.0,0.0,-0.2634183168411255,0.1672472953796386
0.1009168624877929,1.1405333280563354,0.0763390213251113,-0.4023962020874023,0.0933616831898689,0.1302202641963958,0.0,0.0,-0.2792335748672485,-0.0253258347511291
0.1017084121704101,1.131317377090454,0.0727613344788551,-0.4100080132484436,0.0996925830841064,0.1266179978847503,0.0,0.0,-0.5028621554374695,0.3641905784606933
0.1024619117379188,1.1219305992126465,0.0691587328910827,-0.4176194369792938,0.1058340966701507,0.1228303089737892,0.0,0.0,-0.4138355851173401,-0.0737510919570922
0.1031770706176757,1.1123727560043335,0.0655334964394569,-0.4252305030822754,0.1117770001292228,0.118858478963375,0.0,0.0,-0.2605775594711303,0.3612315654754638
