x_pos,y_pos,x_vel,y_vel,angle,ang_vel,leg_1,leg_2,main_booster,lat_booster
-0.0015034675598144,1.40313720703125,-0.1531987786293029,-0.3459185361862182,0.0025470287073403,0.0503012239933013,0.0,0.0,0.0802383422851562,0.9559566974639891
-0.0028687478043138,1.3953380584716797,-0.1379247605800628,-0.3466362655162811,0.0039227833040058,0.0275187343358993,0.0,0.0,-0.2421589493751526,0.7101743221282959
-0.004139041993767,1.387045979499817,-0.1274636834859848,-0.3685385882854461,0.0043582399375736,0.0087100137025117,0.0,0.0,0.0269817113876342,0.6395701169967651
-0.0054142950102686,1.3787299394607544,-0.1273512691259384,-0.3696016371250152,0.0041927099227905,-0.0033110040239989,0.0,0.0,-0.3788115978240967,0.7871570587158203
-0.0065812109969556,1.3699291944503784,-0.1153856739401817,-0.391137957572937,0.0029013701714575,-0.0258291624486446,0.0,0.0,0.0140291452407836,0.3357291221618652
-0.0076288222335278,1.3611414432525637,-0.1046238541603088,-0.3905659019947052,0.0027714949101209,-0.0025980635546147,0.0,0.0,-0.3798626661300659,0.4820219278335571
-0.008637523278594,1.3518661260604858,-0.1015008464455604,-0.4122378528118133,0.0033930030185729,0.0124313924461603,0.0,0.0,-0.7561966180801392,0.4533272981643677
-0.0096046449616551,1.3421034812927246,-0.0981051623821258,-0.4339046478271484,0.004760306328535,0.0273485872894525,0.0,0.0,-0.6897943019866943,0.2844612598419189
-0.010527896694839,1.331853270530701,-0.0944486707448959,-0.455572247505188,0.0068664355203509,0.0421265289187431,0.0,0.0,-0.654817521572113,0.0253942012786865
-0.0114046093076467,1.3211158514022827,-0.0905428305268287,-0.4772408604621887,0.0097042750567197,0.0567618124186992,0.0,0.0,-0.4338207244873047,0.3936308622360229
-0.0122326854616403,1.309890866279602,-0.0863992273807525,-0.4989099502563476,0.0132662812247872,0.0712463408708572,0.0,0.0,-0.3105055093765259,0.7058786153793335
-0.0129474643617868,1.2981785535812378,-0.0742305219173431,-0.5205754637718201,0.0159815102815628,0.0543093159794807,0.0,0.0,-0.7577708959579468,0.197910189628601
-0.0136093143373727,1.2859790325164795,-0.0696407705545425,-0.5422449707984924,0.0194056630134582,0.0684892758727073,0.0,0.0,-0.5532679557800293,-0.366767942905426
-0.0142161371186375,1.2732923030853271,-0.0648476257920265,-0.5639150142669678,0.0235290396958589,0.0824749916791915,0.0,0.0,-0.7412154078483582,-0.1528762578964233
-0.0147661212831735,1.2601183652877808,-0.0598619766533374,-0.5855857133865356,0.0283428821712732,0.0962855517864227,0.0,0.0,-0.6904024481773376,0.1490886211395263
-0.015257453545928,1.246457815170288,-0.0546946600079536,-0.6072572469711304,0.0338376052677631,0.109904445707798,0.0,0.0,-0.857792317867279,0.4471619129180908
-0.0156887061893939,1.23231041431427,-0.0493564009666442,-0.6289296746253967,0.0400031320750713,0.1233218684792518,0.0,0.0,-0.8562270402908325,0.2610803842544555
-0.0160582549870014,1.217676281929016,-0.0438577607274055,-0.650603175163269,0.046828918159008,0.1365279257297516,0.0,0.0,-0.7724999189376831,0.656872034072876
-0.016304874792695,1.2025660276412964,-0.0306784771382808,-0.6717669367790222,0.0527875199913978,0.1191829666495323,0.0,0.0,-0.5432520508766174,0.8199129104614258
-0.0164310447871685,1.1869730949401855,-0.0178541727364063,-0.6932114362716675,0.0579731278121471,0.1037213429808616,0.0,0.0,-0.634863018989563,0.6464570760726929
-0.0164299961179494,1.1709034442901611,-0.0041913874447345,-0.7143757343292236,0.0622262470424175,0.0850702375173568,0.0,0.0,-0.8672751188278198,0.2590169906616211
-0.0163622852414846,1.1543470621109009,0.0018605238292366,-0.7360491156578064,0.0670927613973617,0.0973392352461814,0.0,0.0,-0.7801432609558105,0.8816014528274536
-0.0161423683166503,1.1373112201690674,0.018635556101799,-0.7573022842407227,0.0704267174005508,0.0666847676038742,0.0,0.0,-0.8252235651016235,0.5319451093673706
-0.0158065799623727,1.1197876930236816,0.0308105740696191,-0.778961718082428,0.0731671750545501,0.0548144057393074,0.0,0.0,-0.4847618341445923,0.1726090908050537
-0.0154014583677053,1.1017770767211914,0.0371769592165946,-0.8006347417831421,0.0764788687229156,0.0662394985556602,0.0,0.0,-0.0650416016578674,0.7104325294494629
-0.0148827554658055,1.0832669734954834,0.0490498952567577,-0.822819709777832,0.079272873699665,0.0558799989521503,0.0,0.0,0.002834677696228,0.6130197048187256
-0.0142773631960153,1.064939260482788,0.0584034100174903,-0.8146810531616211,0.0813883244991302,0.0423089154064655,0.0,0.0,-0.0697195529937744,0.0909035205841064
-0.0136005403473973,1.0461246967315674,0.0650096610188484,-0.8363512754440308,0.0840283036231994,0.0527995750308036,0.0,0.0,0.3821108341217041,0.6119966506958008
-0.0129776950925588,1.0277879238128662,0.0605873651802539,-0.8150661587715149,0.0857141986489296,0.0337176844477653,0.0,0.0,0.4630135297775268,0.7078438997268677
-0.0122841838747262,1.0096112489700315,0.0686203762888908,-0.8078894019126892,0.0864436328411102,0.0145886642858386,0.0,0.0,0.4306783676147461,0.0786657333374023
-0.0115653034299612,0.9920455813407898,0.0705966353416442,-0.7807760834693909,0.0877195000648498,0.0255174878984689,0.0,0.0,-0.3761401772499084,0.5339541435241699
-0.0107370372861623,0.9739946722984314,0.0820166766643524,-0.802314043045044,0.0885224342346191,0.0160587094724178,0.0,0.0,0.5473755598068237,0.6209557056427002
-0.0099375722929835,0.9565796256065368,0.0801376178860664,-0.7739891409873962,0.0883307009935379,-0.0038345158100128,0.0,0.0,-0.3924877643585205,0.2541987895965576
-0.00906543713063,0.9386776089668274,0.0869920700788497,-0.7956584692001343,0.088551364839077,0.0044132806360721,0.0,0.0,0.3004230260848999,0.3674769401550293
-0.0081515312194824,0.9210278391838074,0.090712659060955,-0.784471333026886,0.0892224684357643,0.013421875424683,0.0,0.0,0.1296865940093994,0.6230173110961914
-0.0071484567597508,0.903676986694336,0.1004846915602684,-0.771143913269043,0.089039996266365,-0.0036493043880909,0.0,0.0,0.0775531530380249,-0.3894174695014953
-0.0061165811493992,0.8862802386283875,0.1030983552336692,-0.7731906771659851,0.0891255289316177,0.0017108879983425,0.0,0.0,0.1309764385223388,-0.4046630859375
-0.0050332071259617,0.8691784739494324,0.1078080758452415,-0.7601109743118286,0.0896558985114097,0.0106069799512624,0.0,0.0,0.0048060417175292,0.27191162109375
-0.0039478302933275,0.85235196352005,0.1078087538480758,-0.7478889226913452,0.0903763845562934,0.0144097134470939,0.0,0.0,-0.0028851628303527,0.7089400291442871
-0.002732849214226,0.83504718542099,0.1219834238290786,-0.7690738439559937,0.0898945480585098,-0.0096367755904793,0.0,0.0,0.1764297485351562,0.4685091972351074
-0.0015726089477539,0.8180732131004333,0.1166038662195205,-0.7543628215789795,0.089313730597496,-0.0116160865873098,0.0,0.0,-0.4898388385772705,0.716160774230957
-0.0002741813659667,0.8006196618080139,0.1319292485713958,-0.7755928635597229,0.0872420743107795,-0.0414331741631031,0.0,0.0,-0.2519843578338623,-0.557192862033844
0.0010572433238849,0.7826677560806274,0.1340839266777038,-0.7978033423423767,0.0863068178296089,-0.0187051501125097,0.0,0.0,-0.0658769607543945,0.1468315124511718
0.0024574280250817,0.7642285823822021,0.1407799571752548,-0.8194710612297058,0.0855498611927032,-0.0151390563696622,0.0,0.0,-0.6438537240028381,0.0046106576919555
0.0039256094023585,0.7453022003173828,0.1474241316318512,-0.841138482093811,0.0849459990859031,-0.0120771368965506,0.0,0.0,-0.4486091136932373,-0.6213306188583374
0.0054160119034349,0.7258764505386353,0.1483674347400665,-0.863408625125885,0.0856153443455696,0.0133867263793945,0.0,0.0,-0.031710147857666,-0.7996827960014343
0.0069162370637059,0.7059515714645386,0.1478041112422943,-0.885676383972168,0.0878204330801963,0.0441018007695674,0.0,0.0,0.4526373147964477,-0.7746620774269104
0.008246230892837,0.6866206526756287,0.1293046772480011,-0.8593748211860657,0.09147460013628,0.0730835646390914,0.0,0.0,0.2034491300582885,0.3392281532287597
0.0094917295500636,0.667646586894989,0.121265135705471,-0.8434902429580688,0.0947340503334999,0.0651891604065895,0.0,0.0,-0.1532255411148071,0.9368389844894408
0.0108718872070312,0.648192822933197,0.1365116685628891,-0.8647111058235168,0.096220314502716,0.0297249518334865,0.0,0.0,0.4785968065261841,-0.2054926753044128
0.0123927118256688,0.629033088684082,0.1499887853860855,-0.851680338382721,0.0983034968376159,0.0416637174785137,0.0,0.0,0.8342995643615723,-0.6495078206062317
0.013774299994111,0.6105933785438538,0.1349523365497589,-0.8197508454322815,0.1014869287610054,0.0636688619852066,0.0,0.0,0.6008954048156738,0.0821290016174316
0.0152773857116699,0.5923253893852234,0.1466475129127502,-0.8121644258499146,0.1051156446337699,0.0725742504000663,0.0,0.0,0.7965830564498901,0.3026602268218994
0.0167511943727731,0.5748645067214966,0.1437875628471374,-0.7762982249259949,0.108692392706871,0.0715349689126014,0.0,0.0,0.2461870908737182,0.6909787654876709
0.0184220317751169,0.5574912428855896,0.1647756546735763,-0.7723125219345093,0.1109800189733505,0.0457528010010719,0.0,0.0,0.3801972866058349,-0.5826461911201477
0.019972801208496,0.5401926040649414,0.1518965512514114,-0.7690683007240295,0.1141334176063537,0.0630683153867721,0.0,0.0,0.4363809823989868,0.036321997642517
0.0215800292789936,0.5234529972076416,0.1573123484849929,-0.7442489266395569,0.1175306513905525,0.0679443627595901,0.0,0.0,0.5256519317626953,-0.5499745607376099
0.0232603065669536,0.5071724057197571,0.1633163392543792,-0.7239611744880676,0.122207298874855,0.0935329049825668,0.0,0.0,-0.1059179902076721,0.339479923248291
0.0249917991459369,0.4904043078422546,0.1686269789934158,-0.7456275224685669,0.1267087161540985,0.0900283828377723,0.0,0.0,0.6461424827575684,-0.0964282155036926
0.0265989303588867,0.4742991924285888,0.1567373573780059,-0.7161250710487366,0.1306643038988113,0.0791118368506431,0.0,0.0,0.3544961214065552,0.6394710540771484
0.0283112525939941,0.4581713676452636,0.168667122721672,-0.7170215845108032,0.1332172751426696,0.0510592870414257,0.0,0.0,0.2217586040496826,-0.3518126010894775
0.0299278255552053,0.4423120021820068,0.1596703231334686,-0.7050372362136841,0.1351957619190216,0.0395696014165878,0.0,0.0,0.6006491184234619,-0.2603464722633362
0.0316404327750206,0.4267337322235107,0.1689705401659011,-0.6925771236419678,0.1374791115522384,0.0456667281687259,0.0,0.0,0.447650671005249,0.1762228012084961
0.0333433151245117,0.41146981716156,0.1681625992059707,-0.678593099117279,0.1395928114652633,0.042274035513401,0.0,0.0,0.450629711151123,-0.7777640223503113
0.0349860191345214,0.3962239325046539,0.1608672440052032,-0.6779205203056335,0.1429946422576904,0.0680366978049278,0.0,0.0,0.3260470628738403,0.3601899147033691
0.0365029349923133,0.38117316365242,0.1490279734134674,-0.6691819429397583,0.1456410735845565,0.0529287084937095,0.0,0.0,0.4283055067062378,0.4369947910308838
0.037968922406435,0.3667364418506622,0.1441779285669326,-0.6418718099594116,0.1480634063482284,0.0484467409551143,0.0,0.0,0.6641907691955566,0.1394979953765869
0.0395098701119422,0.3522669672966003,0.1516018211841583,-0.6433357000350952,0.1505449116230011,0.0496304668486118,0.0,0.0,0.725175142288208,-0.0297561883926391
0.040979765355587,0.3386377692222595,0.1447064578533172,-0.6059730052947998,0.1528209596872329,0.0455205217003822,0.0,0.0,0.4805253744125366,-0.2248633503913879
0.0423346534371376,0.3251301050186157,0.1339526176452636,-0.6005011200904846,0.1543589681386947,0.0307602528482675,0.0,0.0,0.4670064449310303,-0.068718135356903
0.0435478202998638,0.3120065927505493,0.1205119118094444,-0.58335280418396,0.1551606506109237,0.0160340946167707,0.0,0.0,0.4789432287216186,0.4083231687545776
0.0447315201163291,0.2992267608642578,0.1178110465407371,-0.5680491328239441,0.1557201147079467,0.0111892810091376,0.0,0.0,0.6679160594940186,-0.0069031119346618
0.0456822402775287,0.2871918678283691,0.0954908952116966,-0.5348395109176636,0.1552985310554504,-0.0084315771237015,0.0,0.0,0.9259541034698486,0.572796106338501
0.0466895103454589,0.2756980657577514,0.1024306043982505,-0.510661780834198,0.1535985469818115,-0.0339997373521328,0.0,0.0,0.911780595779419,-0.6522918939590454
0.0475599281489849,0.264360249042511,0.0879350379109382,-0.503808856010437,0.152702122926712,-0.0179285071790218,0.0,0.0,0.946967840194702,-0.182149589061737
0.0484736450016498,0.2531203627586365,0.0923012495040893,-0.4994541108608246,0.151771679520607,-0.0186090040951967,0.0,0.0,0.8358907699584961,-0.3630308508872986
0.0493162162601947,0.2419434934854507,0.0857672095298767,-0.4965960085391998,0.1502669304609298,-0.0300954096019268,0.0,0.0,0.9872400760650636,-0.2292684316635131
0.0500249862670898,0.2316910177469253,0.0728492587804794,-0.4554641544818878,0.1482970714569091,-0.0393972471356391,0.0,0.0,0.961150884628296,-0.6061393618583679
0.0506601333618164,0.2224047780036926,0.0644261613488197,-0.4126327633857727,0.1473900973796844,-0.0181396231055259,0.0,0.0,0.9594708681106568,-0.3592403531074524
0.0510368347167968,0.214039146900177,0.0396291092038154,-0.3716110289096832,0.1454375386238098,-0.0390511080622673,0.0,0.0,0.9485199451446532,-0.1157353520393371
0.0512198433279991,0.2057319432497024,0.0214016567915678,-0.3689093291759491,0.1423444300889969,-0.0618619844317436,0.0,0.0,0.7388582229614258,0.7418351173400879
0.0514003746211528,0.1982009559869766,0.0229933857917785,-0.3342480957508087,0.13742296397686,-0.0984295159578323,0.0,0.0,0.8390605449676514,-0.2776616811752319
0.0513921752572059,0.191110759973526,0.0050829099491238,-0.3145873248577118,0.1315369606018066,-0.1177197843790054,0.0,0.0,0.5672883987426758,-0.4253397583961487
0.0512570366263389,0.1844787001609802,-0.0069005461409688,-0.2941879034042358,0.1249644607305526,-0.1314501464366912,0.0,0.0,0.1524515151977539,-0.2001513242721557
0.0510605797171592,0.178083449602127,-0.0125530436635017,-0.2836540341377258,0.1179046183824539,-0.14119653403759,0.0,0.0,0.1364197731018066,-0.5182939767837524
0.0508478172123432,0.171801283955574,-0.0148823615163564,-0.27871835231781,0.1115558370947837,-0.1269755959510803,0.0,0.0,0.4302690029144287,-0.7867669463157654
0.0505683906376361,0.1654588282108307,-0.0227061063051223,-0.281505137681961,0.1063601672649383,-0.1039135307073593,0.0,0.0,0.0232179164886474,-0.2306149005889892
0.0503230094909668,0.1590097248554229,-0.0191102661192417,-0.2862512171268463,0.1009761691093444,-0.107680045068264,0.0,0.0,0.673956036567688,-0.721358060836792
0.05012683942914,0.1529520153999328,-0.0155211184173822,-0.2689573168754577,0.0969135910272598,-0.0812517255544662,0.0,0.0,0.5446603298187256,-0.5576285719871521
0.0499920845031738,0.1469666808843612,-0.0103886630386114,-0.2658165693283081,0.0938541889190673,-0.0611879415810108,0.0,0.0,-0.0192070603370666,-0.8341377377510071
0.0497902855277061,0.1404901146888733,-0.0183266662061214,-0.2877336144447326,0.0920154154300689,-0.0367755033075809,0.0,0.0,0.2213863134384155,-0.1467697620391845
0.0495581626892089,0.1343663036823272,-0.0209965109825134,-0.2720358669757843,0.089827261865139,-0.0437633320689201,0.0,0.0,0.3524608612060547,-0.6647161245346069
0.0493345260620117,0.1285808831453323,-0.0212417282164096,-0.2570624947547912,0.0887060835957527,-0.0224230978637933,0.0,0.0,0.5279768705368042,-0.6589482426643372
0.049130629748106,0.1227582097053527,-0.0203440561890602,-0.2587811052799225,0.0886585637927055,-0.0009505187044851,0.0,0.0,0.7603510618209839,-0.8383398056030273
0.0487467758357524,0.1172388643026351,-0.0394573099911212,-0.2453685253858566,0.0897173658013343,0.0211759805679321,0.0,0.0,0.3219397068023681,-0.4925928711891174
0.0483631119132041,0.1122719869017601,-0.0392939858138561,-0.2208077162504196,0.0906396508216857,0.0184457227587699,0.0,0.0,0.2168289422988891,-0.5235123038291931
0.0478755012154579,0.1074348539113998,-0.0502575747668743,-0.2150727659463882,0.0921187400817871,0.0295820329338312,0.0,0.0,-0.3066574335098266,0.5288534164428711
0.0474137291312217,0.1021191477775573,-0.0463772192597389,-0.2362663447856903,0.0923153087496757,0.0039312024600803,0.0,0.0,0.3433668613433838,0.2377320528030395
0.0469625480473041,0.0971727222204208,-0.0451959930360317,-0.2198471128940582,0.092397503554821,0.0016438519814983,0.0,0.0,0.2440443038940429,0.6755943298339844
0.0464592948555946,0.0925880745053291,-0.0485434345901012,-0.2036511152982711,0.0906263515353202,-0.0354228504002094,0.0,0.0,0.0574086904525756,-0.5486698746681213
0.0458019264042377,0.088221438229084,-0.0645205155014991,-0.19399955868721,0.0894179195165634,-0.0241688080132007,0.0,0.0,-0.2517462968826294,0.8863414525985718
0.0452027320861816,0.0833729356527328,-0.0565648600459098,-0.2152910232543945,0.086086556315422,-0.0666268244385719,0.0,0.0,0.2373859882354736,-0.8023257851600647
0.0443927757441997,0.0786895155906677,-0.0787171944975853,-0.2080246955156326,0.0838327780365943,-0.045075450092554,0.0,0.0,0.2049586772918701,0.9053218364715576
0.0434855446219444,0.074080117046833,-0.0861415117979049,-0.2046094536781311,0.0792974978685379,-0.0907059088349342,0.0,0.0,0.1922398805618286,0.8650610446929932
0.0426836013793945,0.0697825029492378,-0.0734986886382103,-0.1906663477420807,0.0726716741919517,-0.1325165182352066,0.0,0.0,-0.0447611808776855,0.5827385187149048
0.0419227592647075,0.0649982318282127,-0.0676858276128768,-0.212250754237175,0.0643575116991996,-0.1662830859422683,0.0,0.0,-0.0617579817771911,-0.598045825958252
0.0411158576607704,0.0597281567752361,-0.0727812349796295,-0.2339077591896057,0.0565406531095504,-0.1563373357057571,0.0,0.0,0.3429272174835205,-0.2010268568992614
0.0402449592947959,0.0549142695963382,-0.0786891132593154,-0.213658720254898,0.0482382625341415,-0.1660477668046951,0.0,0.0,-0.0134029388427734,-0.06965172290802
0.0393645279109478,0.0496135801076889,-0.079255074262619,-0.2353291064500808,0.0395427234470844,-0.1739106774330139,0.0,0.0,0.1626244783401489,-0.3966675400733948
0.0385121330618858,0.04444070905447,-0.0763009637594223,-0.2296948134899139,0.0307088606059551,-0.1766773611307144,0.0,0.0,0.3212510347366333,-0.7290032505989075
0.0375662818551063,0.039764367043972,-0.0867113843560218,-0.2076937407255172,0.022934902459383,-0.1554788798093795,0.0,0.0,0.5386958122253418,-0.4972507953643799
0.0366515144705772,0.0357032157480716,-0.0834949612617492,-0.180395171046257,0.0150494640693068,-0.1577087938785553,0.0,0.0,-0.1410066485404968,-0.2667624950408935
0.0357284545898437,0.0311553329229354,-0.0839401334524154,-0.2020661383867263,0.0067986245267093,-0.1650168299674987,0.0,0.0,0.4949034452438354,-0.4803656339645386
0.0346834175288677,0.0269590709358453,-0.0952615812420845,-0.1864888668060302,-0.0023220882285386,-0.1824144572019577,0.0,0.0,0.3545370101928711,-0.7093909382820129
0.0334590896964073,0.0229080766439437,-0.1140738725662231,-0.1800804883241653,-0.0105684231966733,-0.1649267673492431,0.0,0.0,0.6390354633331299,-0.3208196759223938
0.032213307917118,0.0192097760736942,-0.1157850474119186,-0.164456769824028,-0.0192556530237197,-0.1737444251775741,0.0,0.0,0.2079964876174926,-0.3015434145927429
0.0309886932373046,0.015609536319971,-0.1134155392646789,-0.1601550877094268,-0.0281887836754322,-0.1786626428365707,0.0,0.0,0.3213834762573242,-0.6705260872840881
0.0298305507749319,0.0119452094659209,-0.1079838424921035,-0.1630237847566604,-0.0359202437102794,-0.1546291559934616,0.0,0.0,0.7258341312408447,-0.2201681733131408
0.0287965778261423,0.0088596316054463,-0.0957343503832817,-0.1373405903577804,-0.0434974282979965,-0.1515436470508575,0.0,0.0,0.0906907320022583,-0.5660949945449829
0.0277572628110647,0.0060925935395061,-0.0971239954233169,-0.1231934577226638,-0.0502257533371448,-0.1345664411783218,0.0,0.0,0.0910879373550415,-0.0444549918174743
0.0267691612243652,0.0031443452462553,-0.0918943434953689,-0.1312809884548187,-0.0570584088563919,-0.1366531103849411,1.0,0.0,0.5421197414398193,0.6607935428619385
0.026006793603301,0.0009322738624177,-0.0771869346499443,-0.0985251367092132,-0.0551808513700962,0.0387542769312858,1.0,0.0,0.4913487434387207,0.5828306674957275
