x_pos,y_pos,x_vel,y_vel,angle,ang_vel,leg_1,leg_2,main_booster,lat_booster
-0.0015733719337731,1.4029481410980225,-0.1600021570920944,-0.3543110489845276,0.0023823967203497,0.0470411404967308,0.0,0.0,-0.5134356617927551,0.9754886627197266
-0.0031136511825025,1.3943185806274414,-0.1548512428998947,-0.3835389912128448,0.0031938010361045,0.0162303633987903,0.0,0.0,0.5755733251571655,0.8444540500640869
-0.0044965744018554,1.385584831237793,-0.138261005282402,-0.3881633877754211,0.0031668217852711,-0.0005398233770392,0.0,0.0,0.0888082981109619,0.8916828632354736
-0.0059524537064135,1.3766655921936035,-0.1443441361188888,-0.3964108824729919,0.0019430660177022,-0.0244773775339126,0.0,0.0,-0.2556143999099731,0.4482958316802978
-0.0074578286148607,1.367069959640503,-0.1499044001102447,-0.4264731109142303,0.0013224312569946,-0.0124142821878194,0.0,0.0,0.7796745300292969,0.9658921957015992
-0.008772182278335,1.3576747179031372,-0.1297668218612671,-0.4175688326358795,-0.0003296647046227,-0.0330449976027011,0.0,0.0,0.2315282821655273,0.7022716999053955
-0.0100993160158395,1.3482484817504885,-0.1302264481782913,-0.4189400374889374,-0.0027854659128934,-0.0491206310689449,0.0,0.0,-0.0207536816596984,0.8393282890319824
-0.0113929752260446,1.3381482362747192,-0.1254213452339172,-0.4489131867885589,-0.0066940966062247,-0.0781798362731933,0.0,0.0,0.6037970781326294,0.8838117122650146
-0.012673663906753,1.328599452972412,-0.1229539662599563,-0.424423485994339,-0.0117478361353278,-0.1010841727256774,0.0,0.0,0.3093767166137695,0.4553778171539306
-0.0139968870207667,1.3192377090454102,-0.1278457641601562,-0.4161182343959808,-0.0161738228052854,-0.0885278731584549,0.0,0.0,0.2686210870742798,0.2618163824081421
-0.0152950286865234,1.309882640838623,-0.1263043731451034,-0.4158223271369934,-0.019651498645544,-0.0695596486330032,0.0,0.0,0.1545330286026001,0.8918993473052979
-0.0165064819157123,1.3003993034362793,-0.1165137067437172,-0.4215521812438965,-0.0242318604141473,-0.0916154533624649,0.0,0.0,-0.2092553377151489,0.5625064373016357
-0.017712116241455,1.2902405261993408,-0.1152165085077285,-0.4515970647335052,-0.0295244231820106,-0.1058604940772056,0.0,0.0,0.4975508451461792,0.1036853790283203
-0.0188937187194824,1.2798855304718018,-0.1137599498033523,-0.4603219926357269,-0.0338746048510074,-0.0870116800069809,0.0,0.0,-0.4027585387229919,0.3157476186752319
-0.0201230999082326,1.268853783607483,-0.1191985830664634,-0.4903866946697235,-0.0375753566622734,-0.0740217044949531,0.0,0.0,-0.2453527450561523,0.5755176544189453
-0.0213465690612792,1.2571357488632202,-0.1179072633385658,-0.5209140181541443,-0.0419739335775375,-0.0879793167114257,0.0,0.0,0.22587251663208,0.5062108039855957
-0.0224393848329782,1.2456889152526855,-0.1047379523515701,-0.5088789463043213,-0.0464700236916542,-0.0899301022291183,0.0,0.0,-0.8492396473884583,-0.4542634487152099
-0.0235792156308889,1.2335655689239502,-0.1101125106215477,-0.5389477014541626,-0.0503080859780311,-0.0767680928111076,0.0,0.0,0.3781943321228027,-0.3308310508728027
-0.0246513374149799,1.2217625379562378,-0.1043841391801834,-0.5246766209602356,-0.0531068406999111,-0.0559797585010528,0.0,0.0,-0.8418099284172058,0.2239894866943359
-0.0257699973881244,1.209282636642456,-0.1097111329436302,-0.5547436475753784,-0.0552439242601394,-0.0427453704178333,0.0,0.0,-0.3313801288604736,0.1595767736434936
-0.0269351005554199,1.196125864982605,-0.1150094643235206,-0.5847999453544617,-0.0567173771560192,-0.0294720735400915,0.0,0.0,-0.1941003799438476,-0.8034278750419617
-0.0282083507627248,1.182292938232422,-0.1280956864356994,-0.6147648692131042,-0.055960576981306,0.0151373744010925,0.0,0.0,-0.0998662710189819,-0.1648723483085632
-0.0295273773372173,1.167783260345459,-0.1333366483449936,-0.6448231935501099,-0.0545390583574771,0.028432872146368,0.0,0.0,0.0318468809127807,0.4584261178970337
-0.0308374408632516,1.1528851985931396,-0.1333262026309967,-0.662053644657135,-0.0522486940026283,0.0458115339279174,0.0,0.0,0.0036779642105102,0.346074104309082
-0.0322582237422466,1.1379027366638184,-0.1446649134159088,-0.665797770023346,-0.0496922470629215,0.0511337108910083,0.0,0.0,-0.6215987205505371,0.737849235534668
-0.0336798653006553,1.1222227811813354,-0.1443016529083252,-0.6968202590942383,-0.0475809350609779,0.0422264374792575,0.0,0.0,0.5806868076324463,0.3879507780075073
-0.0351087562739849,1.1069071292877195,-0.1457176506519317,-0.6806046962738037,-0.0447864234447479,0.0558903999626636,0.0,0.0,-0.6825697422027588,0.6724405288696289
-0.0365392677485942,1.0909192562103271,-0.1454954445362091,-0.7105076909065247,-0.042372703552246,0.0482742749154567,0.0,0.0,-0.553584098815918,0.7379257678985596
-0.0379668250679969,1.074257731437683,-0.1447118073701858,-0.740456223487854,-0.0404434315860271,0.0385853052139282,0.0,0.0,0.6009352207183838,-0.4157620072364807
-0.0394380576908588,1.057628870010376,-0.149649292230606,-0.7389887571334839,-0.0379450805485248,0.0499669425189495,0.0,0.0,-0.1614645719528198,-0.4537948369979858
-0.0409509651362896,1.0403236150741575,-0.1544993817806244,-0.7690462470054626,-0.0347851440310478,0.0631991252303123,0.0,0.0,0.874142050743103,0.8638930320739746
-0.0425167083740234,1.0230834484100342,-0.1585066765546798,-0.7661847472190857,-0.0328709930181503,0.0382830798625946,0.0,0.0,0.6682271957397461,-0.0836278796195983
-0.0441796295344829,1.0063843727111816,-0.168502539396286,-0.7421351671218872,-0.0306853167712688,0.0437134094536304,0.0,0.0,0.35601806640625,0.6167397499084473
-0.0458820350468158,0.989447295665741,-0.171759232878685,-0.7527257800102234,-0.0291846450418233,0.0300136413425207,0.0,0.0,0.1856716871261596,0.1604175567626953
-0.0475986488163471,0.9725080728530884,-0.1738976687192917,-0.7528088092803955,-0.0269785113632679,0.0441226065158844,0.0,0.0,-0.5510020852088928,0.4051382541656494
-0.049353502690792,0.9548925757408142,-0.1783810406923294,-0.7828667163848877,-0.0241242852061986,0.0570845790207386,0.0,0.0,0.1721189022064209,-0.5150556564331055
-0.0511993393301963,0.9370846152305604,-0.1891109645366668,-0.7913996577262878,-0.0196431800723075,0.0896217972040176,0.0,0.0,0.0743556022644043,0.8546931743621826
-0.0529750809073448,0.9193465113639832,-0.1810526251792907,-0.7883225083351135,-0.0162144042551517,0.068575695157051,0.0,0.0,-0.5070765614509583,0.8192226886749268
-0.0547258369624614,0.9009395837783812,-0.1776485592126846,-0.8180591464042664,-0.0136724393814802,0.0508391261100769,0.0,0.0,-0.0480107069015502,0.9387571811676024
-0.0564334876835346,0.881855845451355,-0.171995460987091,-0.8481537103652954,-0.0124546028673648,0.0243567340075969,0.0,0.0,0.5390355587005615,0.6105995178222656
-0.0582253448665142,0.8631898164749146,-0.1795767694711685,-0.829595148563385,-0.0120709612965583,0.0076729604043066,0.0,0.0,0.7454942464828491,0.235303521156311
-0.0599127784371376,0.844674825668335,-0.1703668087720871,-0.8228841423988342,-0.0104654626920819,0.0321102701127529,0.0,0.0,0.7751666307449341,0.8345088958740234
-0.0614471435546875,0.8259766101837158,-0.1542170792818069,-0.831026017665863,-0.0096924994140863,0.0154590234160423,0.0,0.0,0.4707642793655395,0.8633748292922974
-0.0628392249345779,0.8073036074638367,-0.1389976888895034,-0.8299106359481812,-0.0099057108163833,-0.004264113958925,0.0,0.0,0.5542211532592773,0.559971809387207
-0.0642547607421875,0.7883630394935608,-0.1407059133052826,-0.8418058156967163,-0.0107370000332593,-0.0166256483644247,0.0,0.0,0.924163818359375,0.306746244430542
-0.0656404495239257,0.7693289518356323,-0.1385741978883743,-0.8459575176239014,-0.0107315862551331,0.0001082292510545,0.0,0.0,0.9559158086776732,0.9631049633026124
-0.0668909102678299,0.7504041194915771,-0.1238428950309753,-0.8411060571670532,-0.0119212307035923,-0.0237931422889232,0.0,0.0,0.8673152923583984,0.7950365543365479
-0.0682312026619911,0.7322264909744263,-0.1315027922391891,-0.807919442653656,-0.0144133595749735,-0.049842394888401,0.0,0.0,0.957892894744873,0.4338768720626831
-0.0697390586137771,0.7147766947746277,-0.1480975747108459,-0.77557373046875,-0.0170721523463726,-0.0531757771968841,0.0,0.0,0.5633527040481567,0.908013105392456
-0.0712120085954666,0.6973686218261719,-0.1432954668998718,-0.7737440466880798,-0.0210162047296762,-0.0788814648985862,0.0,0.0,0.8905396461486816,0.5222282409667969
-0.0724769607186317,0.680257260799408,-0.1225114613771438,-0.7605648636817932,-0.0249487645924091,-0.0786510109901428,0.0,0.0,0.8765392303466797,0.2632608413696289
-0.0738060027360916,0.6637267470359802,-0.1291456669569015,-0.7347537279129028,-0.0286580398678779,-0.0741854831576347,0.0,0.0,0.3092918395996094,0.3011093139648437
-0.0750564560294151,0.6470443606376648,-0.1222105771303176,-0.7414922714233398,-0.0314538404345512,-0.0559164173901081,0.0,0.0,0.4326701164245605,-0.1629435420036316
-0.0762989073991775,0.6307225227355957,-0.1219325214624404,-0.7254639267921448,-0.0337381958961486,-0.0456871539354324,0.0,0.0,-0.2374292016029358,0.6471574306488037
-0.0774926170706749,0.6137186288833618,-0.1159211993217468,-0.7558104395866394,-0.0371448546648025,-0.0681330114603042,0.0,0.0,0.5784868001937866,0.7108819484710693
-0.078727051615715,0.5967125296592712,-0.1188400536775589,-0.7559489011764526,-0.0416960529983043,-0.0910238772630691,0.0,0.0,0.8991930484771729,0.274869441986084
-0.0798272117972374,0.5803963541984558,-0.1063765659928321,-0.7252693772315979,-0.0452961288392543,-0.0720013231039047,0.0,0.0,0.1467010974884033,0.6688508987426758
-0.0807558074593544,0.5640970468521118,-0.0884479433298111,-0.7245537638664246,-0.0496548675000667,-0.0871747285127639,0.0,0.0,0.7134442329406738,-0.3380205631256103
-0.0815733894705772,0.5483947992324829,-0.0781311616301536,-0.698001503944397,-0.053240317851305,-0.0717092007398605,0.0,0.0,0.6684645414352417,-0.5142427086830139
-0.0824784263968467,0.533219039440155,-0.0880798548460006,-0.6745676398277283,-0.0556328520178794,-0.0478505119681358,0.0,0.0,0.5665411949157715,0.8783168792724609
-0.083246037364006,0.5178747177124023,-0.0730366483330726,-0.6821137070655823,-0.0593245178461074,-0.0738331973552703,0.0,0.0,0.9766136407852172,0.5027633905410767
-0.0840546637773513,0.5031208992004395,-0.0760841816663742,-0.6559212803840637,-0.064052015542984,-0.0945500284433364,0.0,0.0,-0.3846584558486938,-0.7159600853919983
-0.0849110633134841,0.4876932799816131,-0.0823327079415321,-0.6858195066452026,-0.0673170685768127,-0.0653011128306388,0.0,0.0,0.2233834266662597,-0.1472808718681335
-0.0857206359505653,0.4722666442394256,-0.0780476108193397,-0.6857621669769287,-0.0701953470706939,-0.057565726339817,0.0,0.0,0.8639256954193115,-0.0934743881225586
-0.0864892974495887,0.4568392038345337,-0.0742937177419662,-0.6857845783233643,-0.0727516338229179,-0.0511256344616413,0.0,0.0,0.8987194299697876,0.2846021652221679
-0.0873489379882812,0.4417670667171478,-0.0829690992832183,-0.6700230240821838,-0.0757107436656951,-0.0591821298003196,0.0,0.0,0.957878351211548,0.5243079662322998
-0.0880601853132247,0.427533745765686,-0.0673943981528282,-0.6327863335609436,-0.0794035941362381,-0.0738570317625999,0.0,0.0,0.8086826801300049,0.3053736686706543
-0.0886520370841026,0.4130920171737671,-0.0560783855617046,-0.6420215368270874,-0.0824801251292228,-0.0615306869149208,0.0,0.0,0.8879437446594238,-0.1065796613693237
-0.0891269668936729,0.3994284272193908,-0.0447079166769981,-0.6074279546737671,-0.0852419584989547,-0.0552366003394126,0.0,0.0,-0.0413768887519836,-0.0956412553787231
-0.0895949378609657,0.3850884139537811,-0.0441567189991474,-0.6374865770339966,-0.0878614112734794,-0.0523890629410743,0.0,0.0,0.8847324848175049,-0.350611925125122
-0.0900913253426551,0.3712400496006012,-0.0466198995709419,-0.6156633496284485,-0.0908534526824951,-0.0598408989608287,0.0,0.0,0.9286047220230104,0.3444962501525879
-0.090476706624031,0.3577956855297088,-0.0357682332396507,-0.5976961851119995,-0.0935984104871749,-0.0548994541168212,0.0,0.0,0.8668340444564819,-0.5753462314605713
-0.0909619331359863,0.3451347947120666,-0.046532891690731,-0.5628337264060974,-0.095573179423809,-0.039495438337326,0.0,0.0,0.8989601135253906,-0.3452439308166504
-0.0912882834672927,0.3327765464782715,-0.0310541354119777,-0.5493574142456055,-0.0971399247646331,-0.0313350297510623,0.0,0.0,0.3907673358917236,-0.9099666476249696
-0.0916746109724044,0.3202416002750397,-0.0388324856758117,-0.5570948123931885,-0.0969399809837341,0.003998827189207,0.0,0.0,0.8835859298706055,-0.6266534328460693
-0.0919786468148231,0.3075722754001617,-0.0320350788533687,-0.562977135181427,-0.0953233316540718,0.0323330871760845,0.0,0.0,0.6847953796386719,0.7600775957107544
-0.0922112464904785,0.2947325110435486,-0.0232114549726247,-0.5706600546836853,-0.0953744426369667,-0.0010222719283774,0.0,0.0,0.964146614074707,-0.5250483751296997
-0.0923903435468673,0.2826367616653442,-0.0187718905508518,-0.5375340580940247,-0.0945222526788711,0.0170439351350069,0.0,0.0,0.7346352338790894,0.0483523607254028
-0.0923889130353927,0.2711319923400879,-0.0009655583417043,-0.5112527012825012,-0.093427300453186,0.0218992121517658,0.0,0.0,0.8371117115020752,0.3564639091491699
-0.0924101844429969,0.2603259086608886,-0.0024718979839235,-0.4802482724189758,-0.0930878743529319,0.0067883157171308,0.0,0.0,0.6000289916992188,-0.1974655389785766
-0.0925089865922927,0.2493403702974319,-0.0094242049381136,-0.4882760345935821,-0.0935383439064025,-0.0090092914178967,0.0,0.0,0.6336853504180908,-0.1289193630218505
-0.0924769416451454,0.238840565085411,0.0037195987533777,-0.4666902422904968,-0.0940459743142128,-0.0101529443636536,0.0,0.0,0.4150502681732178,-0.741940438747406
-0.0925344452261924,0.2284227162599563,-0.0063069323077797,-0.4629812836647033,-0.093500018119812,0.0109192319214344,0.0,0.0,0.057386040687561,-0.0026230812072753
-0.0925670638680458,0.2179817706346511,-0.0033489461056888,-0.4640401303768158,-0.0934188961982727,0.0016225768486037,0.0,0.0,0.5640004873275757,-0.0029752254486083
-0.0925293937325477,0.2078550457954406,0.0040726708248257,-0.4500960111618042,-0.0937219187617302,-0.0060605062171816,0.0,0.0,-0.5748552083969116,-0.1248650550842285
-0.0924714058637619,0.197052389383316,0.0064699621871113,-0.4801577925682068,-0.0943849310278892,-0.013260249979794,0.0,0.0,0.8708438873291016,-0.5876761078834534
-0.0923742279410362,0.1861495375633239,0.0095250327140092,-0.4845585227012634,-0.0941878333687782,0.0039417678490281,0.0,0.0,0.8632827997207642,-0.3178411722183227
-0.0921088233590126,0.1752343028783798,0.0262649599462747,-0.4851065576076507,-0.0939203798770904,0.0053490111604332,0.0,0.0,0.9295942783355712,-0.7405753135681152
-0.0916322693228721,0.1646210551261901,0.045898575335741,-0.4715872704982757,-0.092181459069252,0.0347784832119941,0.0,0.0,0.8701043128967285,-0.594201922416687
-0.0909718498587608,0.1539776921272277,0.0631066113710403,-0.4728613495826721,-0.0892667919397354,0.0582935810089111,0.0,0.0,0.9161252975463868,-0.8300074934959412
-0.090283490717411,0.1439762711524963,0.0647218823432922,-0.4442697167396545,-0.0851968079805374,0.0813998728990554,0.0,0.0,0.7895572185516357,-0.3524373769760132
-0.0894693359732627,0.134522944688797,0.0776696875691413,-0.4199373126029968,-0.0814791396260261,0.0743534415960311,0.0,0.0,0.7532858848571777,-0.562192976474762
-0.0884778946638107,0.1254428476095199,0.0944048091769218,-0.4033135175704956,-0.0767891034483909,0.0938007533550262,0.0,0.0,0.376550555229187,-0.6703913807868958
-0.0874032005667686,0.1160823702812194,0.101776897907257,-0.4157376587390899,-0.071147970855236,0.1128225475549697,0.0,0.0,0.9229828119277954,-0.7111892104148865
-0.0863850563764572,0.1069444715976715,0.0954086333513259,-0.4058379828929901,-0.0648161619901657,0.1266360431909561,0.0,0.0,0.8605905771255493,-0.4966537952423095
-0.0851854309439659,0.0985763370990753,0.1137052029371261,-0.3716556131839752,-0.0586261376738548,0.1238007321953773,0.0,0.0,0.6691031455993652,-0.6662988662719727
-0.0840066894888877,0.09040068089962,0.1109387055039405,-0.3631088137626648,-0.0517663471400737,0.1371958702802658,0.0,0.0,0.8655716180801392,-0.7886152863502502
-0.0829729065299034,0.0829193219542503,0.0957960039377212,-0.3322618305683136,-0.0442754551768302,0.1498178392648697,0.0,0.0,0.3049236536026001,0.1500120162963867
-0.0818222016096115,0.0755841583013534,0.1078000515699386,-0.3258112668991089,-0.0370942614972591,0.1436237841844558,0.0,0.0,0.2803795337677002,0.4069056510925293
-0.080667495727539,0.0684474110603332,0.109043076634407,-0.317042201757431,-0.0307457894086837,0.1269694864749908,0.0,0.0,0.643515944480896,-0.0409595966339111
-0.0795481652021408,0.0617556199431419,0.1065481901168823,-0.2973097562789917,-0.0254309326410293,0.106296882033348,0.0,0.0,-0.0640265941619873,0.5407731533050537
-0.0783639922738075,0.0543846935033798,0.114758089184761,-0.327539712190628,-0.0218114610761404,0.072389431297779,0.0,0.0,0.8165111541748047,0.0283917188644409
-0.0772695541381836,0.0473335608839988,0.1070558205246925,-0.3133511543273926,-0.0194599647074937,0.0470302328467369,0.0,0.0,0.9196760654449464,0.3794009685516357
-0.0763142555952072,0.0405240394175052,0.0946629494428634,-0.3026320040225982,-0.018601469695568,0.0171697419136762,0.0,0.0,0.9114484786987304,0.6193952560424805
-0.0751393288373947,0.0342839322984218,0.1182132512331008,-0.2773462533950805,-0.0193175859749317,-0.0143219782039523,0.0,0.0,0.6984717845916748,-0.8325054049491882
-0.0739295929670333,0.0279292445629835,0.1206121444702148,-0.2824279069900512,-0.0189569033682346,0.0072134174406528,0.0,0.0,0.9172189235687256,-0.4014331102371216
-0.072511002421379,0.0222212895750999,0.1414182186126709,-0.2536792457103729,-0.0185266397893428,0.008605420589447,0.0,0.0,0.8234720230102539,-0.5994226932525635
-0.0711274147033691,0.0171288102865219,0.1375086307525634,-0.2263214290142059,-0.0176915656775236,0.016701390966773,0.0,0.0,0.8303146362304688,-0.449628472328186
-0.0695457458496093,0.0127757648006081,0.1573200225830078,-0.1934584677219391,-0.0168477296829223,0.0168768484145402,0.0,0.0,0.1191880702972412,-0.8267434239387512
-0.0679395645856857,0.0083356359973549,0.1587974280118942,-0.1973178088665008,-0.015057380311191,0.0358069874346256,0.0,0.0,0.5304534435272217,-0.936942994594574
-0.0663806945085525,0.004365072119981,0.1529404073953628,-0.1764431744813919,-0.0121457446366548,0.0582327954471111,0.0,0.0,0.3667072057723999,-0.9163245558738708
-0.064806081354618,0.0007040000054985,0.1533667147159576,-0.1626869738101959,-0.0081017985939979,0.0808788686990737,0.0,0.0,0.609566330909729,-0.991151750087738
-0.0631947517395019,-0.0029681588057428,0.155688852071762,-0.1631849259138107,-0.0027309970464557,0.1074161306023597,1.0,0.0,0.9655532836914062,-0.8081979155540466
-0.0619841590523719,-0.0052579785697162,0.1238230019807815,-0.1020178124308586,-0.0048707290552556,-0.0420439466834068,1.0,1.0,0.4329149723052978,-0.9881962537765504
-0.06107759475708,-0.006401028484106,0.0910837426781654,-0.050915703177452,-0.0056545166298747,-0.0161369238048791,1.0,1.0,0.1385340690612793,-0.986017405986786
-0.0603769309818744,-0.0064884331077337,0.0693389549851417,-0.0038878091145306,-0.0049374443478882,0.0143434796482324,1.0,1.0,-0.594402015209198,-0.9213064312934875
-0.059854794293642,-0.0061172866262495,0.0501758456230163,0.0164950918406248,-0.0029173917137086,0.0404023751616478,1.0,1.0,-0.490525484085083,-0.9553409814834596
-0.0595083236694335,-0.0053252126090228,0.0326121114194393,0.035204641520977,-0.0009223000379279,0.0398988276720047,1.0,1.0,-0.7876911163330078,-0.5726814866065979
-0.0592125877737998,-0.0042201066389679,0.0276880413293838,0.0491142645478248,0.0009380806586705,0.0372042767703533,1.0,1.0,-0.6444444060325623,-0.0141077041625976
-0.0589361190795898,-0.0029014612082391,0.0273681841790676,0.05860610678792,0.0012108389055356,0.0054550278000533,1.0,1.0,-0.6509261131286621,-0.5746769905090332
