x_pos,y_pos,x_vel,y_vel,angle,ang_vel,leg_1,leg_2,main_booster,lat_booster
-0.0015479087596759,1.4032812118530271,-0.1569125205278396,-0.3395084142684936,0.0018893902888521,0.0372795946896076,0.0,0.0,0.0470177262928519,-0.8192228760395549
-0.0031470297835767,1.3957566022872925,-0.1635336577892303,-0.334432989358902,0.0054751555435359,0.0717227384448051,0.0,0.0,-0.0801365558437861,0.9812542970343364
-0.0046762465499341,1.3878819942474363,-0.1542583853006363,-0.3499917387962341,0.0067988634109497,0.0264766663312912,0.0,0.0,0.8470887271077636,-0.5659634614481759
-0.0064196586608886,1.3804980516433716,-0.1765190064907074,-0.3281825184822082,0.008938655257225,0.0428000874817371,0.0,0.0,-0.9368019612349738,-0.5745296699446869
-0.0082227708771824,1.372772216796875,-0.1834880262613296,-0.3433942198753357,0.0120885539799928,0.0630036443471908,0.0,0.0,-0.9719031998541714,0.9398441386183138
-0.0099587440490722,1.3647035360336304,-0.1745965480804443,-0.3586179912090301,0.0130753135308623,0.0197370667010545,0.0,0.0,-0.9309115259226546,-0.6739548416468081
-0.0117731094360351,1.356290578842163,-0.1839630007743835,-0.3739362955093384,0.015570942312479,0.049917098134756,0.0,0.0,-0.6110054140629899,-0.5838107435825914
-0.0136452671140432,1.347535252571106,-0.1907462477684021,-0.3891643285751343,0.019061554223299,0.0698187276721,0.0,0.0,0.9027962038033834,0.9890117363383806
-0.0154963489621877,1.3398947715759275,-0.1867607980966568,-0.3396000564098358,0.0206941701471805,0.0326551981270313,0.0,0.0,0.2827808792287343,0.9568175956546134
-0.0173069946467876,1.332764744758606,-0.1809281855821609,-0.3168837428092956,0.0205628555268049,-0.0026265536434948,0.0,0.0,-0.6550497087229614,0.7309811763493057
-0.0190737731754779,1.3252942562103271,-0.175006166100502,-0.3320068120956421,0.0189104657620191,-0.0330510959029197,0.0,0.0,-0.0192723879663534,-0.5862875093564939
-0.0209028236567974,1.317478060722351,-0.1824096590280532,-0.3473799526691437,0.0184207614511251,-0.0097948862239718,0.0,0.0,-0.9032402047852928,0.5136315178633225
-0.022703742608428,1.3093225955963137,-0.1784829199314117,-0.3624455332756042,0.0168298799544572,-0.0318207032978534,0.0,0.0,0.8719128803417857,0.6530340522350657
-0.0243962295353412,1.3014247417449951,-0.1666955202817917,-0.350987434387207,0.0143059287220239,-0.0504837222397327,0.0,0.0,0.8002258724594278,-0.8931710039879284
-0.0260218624025583,1.2945420742034912,-0.1622563749551773,-0.3058855235576629,0.0140044605359435,-0.0060302107594907,0.0,0.0,0.1543679050055524,0.9570183919059332
-0.0275038722902536,1.2876198291778564,-0.1461322456598281,-0.3076337277889251,0.01196108199656,-0.0408711843192577,0.0,0.0,0.9528689650640656,0.9487979384738396
-0.028761863708496,1.2818869352340698,-0.1223089694976806,-0.2547763288021087,0.0085139879956841,-0.0689484626054763,0.0,0.0,0.2771229271420004,0.6337403270108256
-0.0298682209104299,1.2762417793273926,-0.1062508374452591,-0.2508735954761505,0.0041733086109161,-0.0868214219808578,0.0,0.0,-0.926175313565093,0.5274150746913471
-0.030943488702178,1.270259141921997,-0.1020602732896804,-0.2658925950527191,-0.001237083110027,-0.1082173213362693,0.0,0.0,0.0566775116269864,0.7312662010305936
-0.0320364944636821,1.264476299285889,-0.1024497151374816,-0.2570355534553528,-0.0079988706856966,-0.1352481395006179,0.0,0.0,0.1378361628294406,-0.7785986370507765
-0.0331014618277549,1.2591325044631958,-0.1014582067728042,-0.2375402897596359,-0.0129830511286854,-0.0996928811073303,0.0,0.0,0.6409412189240649,-0.8389220519533669
-0.0342290885746479,1.2541007995605469,-0.1095760017633438,-0.2236590683460235,-0.0161319244652986,-0.062983214855194,0.0,0.0,0.6711420728695427,0.7255140558724543
-0.035160731524229,1.2495460510253906,-0.0889810770750045,-0.2024822980165481,-0.0202750712633132,-0.0828699916601181,0.0,0.0,0.0644607036289988,0.5986318545926403
-0.0360035896301269,1.2449400424957275,-0.0791209489107132,-0.2047835886478424,-0.0253887176513671,-0.1022817492485046,0.0,0.0,-0.8384181687547889,-0.8205774246021755
-0.0369386672973632,1.2399964332580566,-0.0905361771583557,-0.2197719663381576,-0.0283363405615091,-0.0589579045772552,0.0,0.0,-0.2384543103994054,0.5687941425922982
-0.0378511436283588,1.2346895933151243,-0.0875514671206474,-0.235929936170578,-0.0319934152066707,-0.0731410980224609,0.0,0.0,-0.0782347070091296,-0.9143133135396336
-0.0388455390930175,1.2290488481521606,-0.0977167189121246,-0.25074103474617,-0.0336947552859783,-0.0340268239378929,0.0,0.0,-0.7259870334831473,0.5352125136815609
-0.0398156158626079,1.2230685949325562,-0.094594694674015,-0.2658436596393585,-0.0360812693834304,-0.0477300584316253,0.0,0.0,0.3057253370298582,0.8849584737788984
-0.0408195480704307,1.2176727056503296,-0.0962450876832008,-0.2399187535047531,-0.0401754342019557,-0.0818836241960525,0.0,0.0,0.2691835614465057,-0.8631488791875197
-0.0419018752872943,1.2124971151351929,-0.105959877371788,-0.2300910651683807,-0.0424207188189029,-0.0449057333171367,0.0,0.0,-0.0289380593145154,-0.9497357624184288
-0.0430620200932025,1.2069934606552124,-0.1157466769218444,-0.2446132749319076,-0.0426870733499527,-0.0053272396326065,0.0,0.0,-0.9667277932167052,0.4220006465911865
-0.0442263595759868,1.2011466026306152,-0.1163058504462242,-0.2598690092563629,-0.0428073480725288,-0.00240592751652,0.0,0.0,-0.9971245527267456,0.5919449329376221
-0.0453528389334678,1.194959282875061,-0.1116490140557289,-0.2750225067138672,-0.0437975823879241,-0.019804572686553,0.0,0.0,-0.9778472185134888,0.8660945892333984
-0.0464197173714637,1.1884167194366455,-0.1042792946100235,-0.2908521592617035,-0.0461850315332412,-0.0477487631142139,0.0,0.0,-0.9911784529685974,0.6459097862243652
-0.0474342331290245,1.1815286874771118,-0.09784497320652,-0.3062512278556824,-0.0497480630874633,-0.0712606161832809,0.0,0.0,-0.9869880676269532,0.7233048677444458
-0.0483882911503315,1.1742984056472778,-0.0904435366392135,-0.3215125501155853,-0.0546495914459228,-0.0980306044220924,0.0,0.0,-0.9839771389961244,0.8248226642608643
-0.0492773056030273,1.1667159795761108,-0.0824973285198211,-0.3372427523136139,-0.0609794817864894,-0.1265977174043655,0.0,0.0,-0.9803608059883118,0.5587466955184937
-0.0501148216426372,1.158790946006775,-0.0763032510876655,-0.3525504469871521,-0.0683493316173553,-0.1473973542451858,0.0,0.0,-0.8562065362930298,-0.2252047657966613
-0.0509465225040912,1.150523066520691,-0.0758634358644485,-0.3678104281425476,-0.0755785331130027,-0.1445838212966919,0.0,0.0,-0.9531360864639282,-0.3803764581680298
-0.0517708770930767,1.1419123411178589,-0.0752702429890632,-0.383070170879364,-0.0826680213212966,-0.1417897343635559,0.0,0.0,-0.943726360797882,0.0301589965820312
-0.0525861755013465,1.1329591274261477,-0.074521966278553,-0.3983296751976013,-0.0896188020706176,-0.1390158087015152,0.0,0.0,-0.9934516549110411,-0.2628130912780761
-0.0533910766243934,1.1236629486083984,-0.0736173614859581,-0.4135889410972595,-0.0964319482445716,-0.1362627744674682,0.0,0.0,-0.975779950618744,-0.5363240242004395
-0.0542197227478027,1.1140230894088743,-0.0770390182733535,-0.4288236200809479,-0.1022139638662338,-0.1156403571367263,0.0,0.0,-0.9461035132408142,-0.0542697310447692
-0.0550348274409771,1.104040265083313,-0.0758193656802177,-0.4440814554691314,-0.1078605279326438,-0.1129311323165893,0.0,0.0,-0.9944660663604736,-0.3537949323654175
-0.0558347702026367,1.093714475631714,-0.0744419768452644,-0.4593391418457031,-0.1133727505803108,-0.1102445870637893,0.0,0.0,-0.9007168412208557,-0.2330086231231689
-0.0566179268062114,1.0830453634262085,-0.0729072168469429,-0.4745966494083404,-0.1187517940998077,-0.1075811609625816,0.0,0.0,-0.9348406195640564,-0.4825104475021362
-0.057382870465517,1.0720332860946655,-0.0712158754467964,-0.4898539781570434,-0.1239988431334495,-0.1049413457512855,0.0,0.0,-0.7774935960769653,-0.7030976414680481
-0.0581928268074989,1.0606977939605713,-0.0775285884737968,-0.5040950179100037,-0.1274460554122924,-0.0689439103007316,0.0,0.0,-0.9644325971603394,-0.4153264760971069
-0.0589814186096191,1.0490189790725708,-0.0755278617143631,-0.5193508863449097,-0.1307636797428131,-0.0663524940609932,0.0,0.0,-0.552494466304779,-0.7611748576164246
-0.059809111058712,1.0370064973831177,-0.0811518207192421,-0.5340232253074646,-0.1323802024126052,-0.0323300585150718,0.0,0.0,-0.9080137610435486,-0.8119714856147766
-0.0606611259281635,1.0246602296829224,-0.0849403068423271,-0.5487474799156189,-0.1326340734958648,-0.0050776074640452,0.0,0.0,-0.944460391998291,-0.2130407691001892
-0.0614873878657817,1.0119704008102417,-0.082491397857666,-0.5640023350715637,-0.1327621191740036,-0.0025612544268369,0.0,0.0,-0.7451580166816711,-0.6524196863174438
-0.0623285286128521,0.9989418983459472,-0.0851865634322166,-0.5789492726325989,-0.1317006349563598,0.0212296415120363,0.0,0.0,-0.9862872958183287,-0.2730487585067749
-0.0631411522626876,0.9855698943138124,-0.0824535191059112,-0.5942043662071228,-0.1305158883333206,0.0236945338547229,0.0,0.0,-0.9638749361038208,0.4932594299316406
-0.0639239326119422,0.9718544483184814,-0.0795836225152015,-0.6094594597816467,-0.1292092055082321,0.0261332597583532,0.0,0.0,-0.997431457042694,0.3164645433425903
-0.0646753311157226,0.9577956795692444,-0.076580673456192,-0.6247145533561707,-0.1277819275856018,0.0285455882549285,0.0,0.0,-0.8667241930961609,0.0933120250701904
-0.0653943046927452,0.9433932900428772,-0.0734486728906631,-0.6399697065353394,-0.1262353509664535,0.0309312399476766,0.0,0.0,-0.988005518913269,-0.2165751457214355
-0.0660795196890831,0.9286475777626038,-0.0701918005943298,-0.6552249193191528,-0.1245708614587783,0.0332899689674377,0.0,0.0,-0.925720751285553,0.0934274196624755
-0.0667297393083572,0.913558542728424,-0.0668143332004547,-0.6704801917076111,-0.1227897852659225,0.0356214568018913,0.0,0.0,-0.9474380016326904,-0.0811554193496704
-0.0673439055681228,0.8981258869171143,-0.0633206814527511,-0.6857355833053589,-0.1208935156464576,0.0379253551363945,0.0,0.0,-0.8374143838882446,-0.6515796780586243
-0.0679681748151779,0.8823529481887817,-0.0656375661492347,-0.7007645964622498,-0.1176958233118057,0.0639537125825882,0.0,0.0,-0.4468061923980713,0.3328728675842285
-0.0685541182756424,0.8662366271018982,-0.0619250908493995,-0.7160205841064453,-0.1143857613205909,0.0662011951208114,0.0,0.0,0.1978867053985595,-0.3619668483734131
-0.0689689666032791,0.8503205180168152,-0.045349009335041,-0.7070910334587097,-0.1105505600571632,0.0767042189836502,0.0,0.0,-0.5045474767684937,0.3665565252304077
-0.0693435668945312,0.834061324596405,-0.0414357706904411,-0.7223474383354187,-0.1066058874130249,0.0788932368159294,0.0,0.0,-0.4446496367454529,0.282539963722229
-0.0696770697832107,0.8174588084220886,-0.0374288782477378,-0.7376040816307068,-0.1025532856583595,0.081052079796791,0.0,0.0,-0.7481507658958435,0.2766470909118652
-0.0699684172868728,0.8005130887031555,-0.0333327576518058,-0.7528607845306396,-0.0983942821621894,0.0831801444292068,0.0,0.0,-0.4803216457366943,0.574660062789917
-0.0701696425676345,0.7832238078117371,-0.023226611316204,-0.7682082056999207,-0.0953146293759346,0.0615932643413543,0.0,0.0,-0.2010030150413513,0.2586475610733032
-0.0703271850943565,0.7655913233757019,-0.018964922055602,-0.7834643721580505,-0.0921317562460899,0.0636574625968933,0.0,0.0,0.2601805925369262,0.0536874532699584
-0.0703599005937576,0.7485854029655457,-0.0066771120764315,-0.7556152939796448,-0.0887519940733909,0.0675954297184944,0.0,0.0,-0.3513599634170532,0.6970540285110474
-0.0703013390302658,0.7312268614768982,0.0035327866207808,-0.7713514566421509,-0.0864453241229057,0.0461331903934478,0.0,0.0,-0.5536273717880249,0.4050793647766113
-0.0701969116926193,0.713525116443634,0.0080117899924516,-0.7866073846817017,-0.0840406119823455,0.0480943918228149,0.0,0.0,-0.1648550033569336,0.4053746461868286
-0.0700460448861122,0.6954800486564636,0.012555438093841,-0.801863431930542,-0.0815396755933761,0.0500189363956451,0.0,0.0,0.0471829175949096,0.4689812660217285
-0.0698860138654708,0.6779019236564636,0.0137650817632675,-0.7811292409896851,-0.0793221369385719,0.0443507768213748,0.0,0.0,-0.2754373550415039,0.3327792882919311
-0.0696785002946853,0.6599804759025574,0.0184271931648254,-0.7963853478431702,-0.0770122408866882,0.0461978875100612,0.0,0.0,0.2505474090576172,0.2991633415222168
-0.0694254860281944,0.6421613097190857,0.0229965541511774,-0.7918400168418884,-0.074730098247528,0.045642539858818,0.0,0.0,-0.0070219635963439,0.1899664402008056
-0.0691239386796951,0.6239991188049316,0.0277635995298624,-0.8070962429046631,-0.0723597854375839,0.0474060997366905,0.0,0.0,-0.0153411626815795,0.1688416004180908
-0.068773366510868,0.6054934859275818,0.0325783900916576,-0.822352409362793,-0.0699035227298736,0.0491252392530441,0.0,0.0,0.5777307748794556,0.353839635848999
-0.068328283727169,0.5877789258956909,0.0419713743031024,-0.7871984839439392,-0.0674006193876266,0.0500578880310058,0.0,0.0,0.4831122159957886,-0.4900070428848266
-0.0677124038338661,0.5708098411560059,0.0586404092609882,-0.7540523409843445,-0.0644841268658638,0.0583296827971935,0.0,0.0,-0.1993580460548401,-0.2477097511291504
-0.0670463591814041,0.5534974932670593,0.0635812655091285,-0.7693089842796326,-0.0614889189600944,0.0599040761590004,0.0,0.0,0.007434606552124,0.0244555473327636
-0.0663960427045822,0.536151647567749,0.0622948221862316,-0.7708179354667664,-0.0587826073169708,0.0541264712810516,0.0,0.0,0.3631584644317627,-0.559715986251831
-0.0656642913818359,0.5194448828697205,0.0691509395837783,-0.7423670887947083,-0.0548085607588291,0.0794808343052864,0.0,0.0,0.387059211730957,-0.2958496809005737
-0.0649398788809776,0.503125786781311,0.0687470585107803,-0.7251652479171753,-0.051157534122467,0.0730204731225967,0.0,0.0,0.0195951461791992,-0.5368367433547974
-0.0642226189374923,0.4870986044406891,0.0669404938817024,-0.7121633887290955,-0.0464295744895935,0.0945589989423751,0.0,0.0,0.2060557603836059,-0.6530459523200989
-0.0634912475943565,0.4715010225772857,0.0669858306646347,-0.6930486559867859,-0.0403518974781036,0.1215534657239914,0.0,0.0,-0.043441891670227,0.1031665802001953
-0.0627079978585243,0.4555606842041015,0.0721130147576332,-0.708307683467865,-0.0342129617929458,0.122778870165348,0.0,0.0,0.5279757976531982,0.0934141874313354
-0.0618398673832416,0.4397509694099426,0.0804362520575523,-0.7025216817855835,-0.0279146768152713,0.1259655952453613,0.0,0.0,0.5865840911865234,0.0317494869232177
-0.0608196258544921,0.4241746366024017,0.0951778888702392,-0.6921712160110474,-0.0211498048156499,0.1352973133325576,0.0,0.0,0.7320957183837891,0.1549082994461059
-0.0595799461007118,0.4091486036777496,0.1163384318351745,-0.6677350997924805,-0.0136204799637198,0.15058633685112,0.0,0.0,-0.0570079088211059,0.4949127435684204
-0.0582876205444335,0.3937800526618957,0.1215508803725242,-0.6829960346221924,-0.0060438904911279,0.1515320092439651,0.0,0.0,0.4327294826507568,0.0623784065246582
-0.0569436065852642,0.3790463507175445,0.1267080157995224,-0.6548230051994324,0.001553455251269,0.1519468873739242,0.0,0.0,-0.3198940753936767,0.2875685691833496
-0.055546760559082,0.3639700412750244,0.1319535970687866,-0.6700841188430786,0.0091904299333691,0.1527394354343414,0.0,0.0,0.1828272342681884,0.2311303615570068
-0.0540121085941791,0.3492689728736877,0.1452744156122207,-0.6534557938575745,0.0172754544764757,0.1617005765438079,0.0,0.0,0.1521062850952148,0.1484819650650024
-0.0523579604923725,0.3345687389373779,0.1568574160337448,-0.6534666419029236,0.0257173683494329,0.1688382774591446,0.0,0.0,0.123782992362976,0.2789543867111206
-0.0506955161690712,0.3200441300868988,0.1578470319509506,-0.6457027196884155,0.0340213365852832,0.1660792678594589,0.0,0.0,0.7428057193756104,0.2095378637313842
-0.0489213950932025,0.3065463304519653,0.1685544550418853,-0.6001313328742981,0.04276143014431,0.1748016327619552,0.0,0.0,0.2985495328903198,0.1660242080688476
-0.0471315383911132,0.2933753728866577,0.1702029705047607,-0.5856490731239319,0.0514355637133121,0.1734830141067505,0.0,0.0,0.0566930770874023,0.518280029296875
-0.0453618057072162,0.2806253731250763,0.1693868786096573,-0.5669463276863098,0.0589368715882301,0.1500263959169387,0.0,0.0,0.1010820865631103,0.2041966915130615
-0.0435082428157329,0.2682344317436218,0.1774876564741134,-0.5510381460189819,0.0667166262865066,0.1555948257446289,0.0,0.0,0.2064276933670044,-0.1886930465698242
-0.0416769012808799,0.256317138671875,0.1754440814256668,-0.5300219655036926,0.0743211880326271,0.1520911902189254,0.0,0.0,0.4165326356887817,0.0941091775894165
-0.0399107933044433,0.245009645819664,0.1692662835121154,-0.5029348731040955,0.0815988332033157,0.1455530077219009,0.0,0.0,-0.2770469784736633,0.1532959938049316
-0.0380913726985454,0.2333597093820572,0.1745990663766861,-0.5181955695152283,0.0888732373714447,0.1454880684614181,0.0,0.0,0.1407504081726074,-0.1644175052642822
-0.0363357551395893,0.2219767719507217,0.1686023324728012,-0.5063362717628479,0.0957672819495201,0.1378805935382843,0.0,0.0,0.0593254566192626,0.1093913316726684
-0.0346551910042762,0.2107387334108352,0.1615741550922393,-0.4998969435691833,0.102202795445919,0.1287105232477188,0.0,0.0,0.392038345336914,0.1449673175811767
-0.0328943245112896,0.2000751346349716,0.1691971123218536,-0.474422812461853,0.1090345084667205,0.1366345286369323,0.0,0.0,0.0734151601791381,-0.2670731544494629
-0.03106689453125,0.1894328445196151,0.1757006347179412,-0.4735201299190521,0.1160296201705932,0.1399020254611969,0.0,0.0,0.3260376453399658,-0.218683660030365
-0.0291417129337787,0.1793805658817291,0.1849683821201324,-0.447375625371933,0.1235378831624984,0.1501652598381042,0.0,0.0,-0.0896736979484558,-0.5784188508987427
-0.0272109992802143,0.1689817458391189,0.1843417882919311,-0.4629137814044952,0.1322130411863327,0.1735031753778457,0.0,0.0,0.4851524829864502,0.054656982421875
-0.0252017024904489,0.1594081223011016,0.1916617453098297,-0.4263389706611633,0.1414476484060287,0.1846920996904373,0.0,0.0,-0.1284793615341186,0.0116779804229736
-0.023139763623476,0.149492397904396,0.1969806402921676,-0.4416018426418304,0.150644302368164,0.1839330792427063,0.0,0.0,0.3712995052337646,-0.5570023655891418
-0.0211774818599224,0.1402336210012436,0.1859704554080963,-0.4125688374042511,0.1608957797288894,0.2050295770168304,0.0,0.0,0.0583093166351318,-0.3809823989868164
-0.0192051883786916,0.1313892751932144,0.1868494153022766,-0.3942387998104095,0.1712810844182968,0.2077061682939529,0.0,0.0,-0.0218638181686401,-0.454131007194519
-0.0171806327998638,0.122202955186367,0.1921426951885223,-0.4095032513141632,0.1816167086362838,0.2067123651504516,0.0,0.0,0.4687825441360473,-0.2822862267494201
-0.0153101924806833,0.113456018269062,0.1773035526275634,-0.3899720311164856,0.1913959383964538,0.195584625005722,0.0,0.0,0.3202685117721557,-0.6335018277168274
-0.0136261936277151,0.104924663901329,0.1576764285564422,-0.3805923759937286,0.2021877318620681,0.2158358991146087,0.0,0.0,0.0022751092910766,-0.1759100556373596
-0.0119719505310058,0.0965500175952911,0.1548439115285873,-0.37368905544281,0.2128587216138839,0.213419884443283,0.0,0.0,0.1703190803527832,0.221860647201538
-0.0103281019255518,0.0883932411670684,0.1538130939006805,-0.3640831708908081,0.2235511392354965,0.2138484716415405,0.0,0.0,0.5534288883209229,0.4145083427429199
-0.0085881231352686,0.0804299414157867,0.1629498451948166,-0.3556375801563263,0.2347447872161865,0.2238728255033493,0.0,0.0,0.8454047441482544,0.1327120065689087
-0.0068689347244799,0.0732771009206771,0.1604781597852707,-0.3197720646858215,0.2463722229003906,0.2325483858585357,0.0,0.0,0.4772589206695556,0.4420740604400635
-0.0052532195113599,0.0668399408459663,0.1501372456550598,-0.2880584299564361,0.2580306231975555,0.2331680357456207,0.0,0.0,0.1925212144851684,0.1507999897003173
-0.0036000250838696,0.0604052171111106,0.1537781655788421,-0.2880637049674988,0.2698262631893158,0.235912799835205,0.0,0.0,-0.0272451639175415,-0.3473020195960998
