x_pos,y_pos,x_vel,y_vel,angle,ang_vel,leg_1,leg_2,main_booster,lat_booster
-0.001509666442871,1.403467893600464,-0.1520014703273773,-0.3312061131000519,0.0009335567010566,0.0183531735092401,0.0,0.0,0.7302126308194663,-0.9350832155173388
-0.0030182837508618,1.3966025114059448,-0.1529132425785064,-0.3051327168941498,0.0029642712324857,0.0406188443303108,0.0,0.0,-0.387596080085941,-0.7723689610193656
-0.0045596123673021,1.3895740509033203,-0.1565581560134887,-0.3123788833618164,0.0053528919816017,0.0477769263088703,0.0,0.0,0.8314181365270479,0.5928911525511509
-0.0061840056441724,1.3832173347473145,-0.1624206006526947,-0.2825258672237396,0.0053340820595622,-0.0003763181739486,0.0,0.0,0.2264183496709044,0.9864844592569256
-0.0076061249710619,1.3774346113204956,-0.1394217014312744,-0.2570051848888397,0.0025721343699842,-0.0552441775798797,0.0,0.0,0.9800701770017002,-0.8889504340947169
-0.0089043620973825,1.3724708557128906,-0.1283536851406097,-0.2206116318702697,0.0011208746582269,-0.0290276445448398,0.0,0.0,0.9446754069574268,-0.8402009607088472
-0.0102832792326807,1.3683699369430542,-0.1371929943561554,-0.1822652369737625,0.0004296684637665,-0.0138254510238766,0.0,0.0,-0.6551440234194692,-0.9321866587249672
-0.0117020606994628,1.3641149997711182,-0.1417349278926849,-0.1891067177057266,0.0002887957380153,-0.0028175155166536,0.0,0.0,0.1095135263151947,-0.682751925256968
-0.0131684299558401,1.3605539798736572,-0.1470032781362533,-0.1582646518945694,0.00064850714989,0.0071951462887227,0.0,0.0,0.7612323332762607,0.64149576542412
-0.014570141211152,1.358001947402954,-0.138390302658081,-0.1134228408336639,-0.0011061772238463,-0.0350968316197395,0.0,0.0,0.9662563769136644,0.7737926404699762
-0.0157828330993652,1.3563549518585205,-0.1173689216375351,-0.0732076987624168,-0.0049674799665808,-0.0772332176566124,0.0,0.0,0.8087059835987336,0.6101041983739247
-0.0168455131351947,1.3554168939590454,-0.100519873201847,-0.041717704385519,-0.0106553416699171,-0.113767609000206,0.0,0.0,0.6930596948057084,0.7559130813112425
-0.0176784507930278,1.3553988933563232,-0.0754804089665412,-0.0008777630282565,-0.0183768030256032,-0.1544432491064071,0.0,0.0,0.3158269428704476,-0.8554088843882914
-0.0184947960078716,1.3556413650512695,-0.0747445002198219,0.0106827970594167,-0.0251798201352357,-0.136073037981987,0.0,0.0,-0.4200052685414599,-0.875542844589291
-0.0193473808467388,1.3557393550872805,-0.0788775235414505,0.0042365053668618,-0.0314960144460201,-0.1263354420661926,0.0,0.0,0.8443934331790732,0.5129030587328824
-0.0200031287968158,1.3561655282974243,-0.0576994717121124,0.0187513884156942,-0.0392842963337898,-0.1557797938585281,0.0,0.0,-0.2972314732233643,-0.7826101489986468
-0.0206896774470806,1.3564481735229492,-0.0611417219042778,0.0123453261330723,-0.0467165224254131,-0.148657888174057,0.0,0.0,0.9211532130461686,-0.9351029587811924
-0.0212303157895803,1.3572126626968384,-0.047920536249876,0.0337743014097213,-0.05280002951622,-0.1216811537742614,0.0,0.0,-0.1398957807925183,0.7681135390493832
-0.0216837879270315,1.3578234910964966,-0.0365530513226985,0.0268171820789575,-0.0614998303353786,-0.1740117818117141,0.0,0.0,0.0806803925403849,-0.8341313502780263
-0.0222248081117868,1.3588448762893677,-0.046120598912239,0.0450591668486595,-0.0694089606404304,-0.1581971347332,0.0,0.0,-0.6771310904453598,0.8929853533855443
-0.0226633064448833,1.3597095012664795,-0.0328543707728385,0.0378815606236457,-0.0803135633468627,-0.2181117981672287,0.0,0.0,-0.2424408879989483,0.9282162165374176
-0.0230105407536029,1.3604062795639038,-0.0209793504327535,0.0301764011383056,-0.0939451679587364,-0.2726563215255737,0.0,0.0,0.2693434456224881,0.5256591704480698
-0.0231515876948833,1.361553430557251,0.0012737095821648,0.0499389581382274,-0.1092280223965644,-0.3056845366954803,0.0,0.0,0.6490565729579378,-0.5917018193505437
-0.0232135765254497,1.3630013465881348,0.008635114878416,0.0632004514336586,-0.1239885315299034,-0.2952367961406708,0.0,0.0,0.8802974257149925,0.5654427616296591
-0.0232938770204782,1.365412950515747,0.009242077358067,0.1056557074189186,-0.1412020474672317,-0.3443010449409485,0.0,0.0,0.8928952770496494,0.5876422432741217
-0.023375129327178,1.3688815832138062,0.0116207990795373,0.1521735787391662,-0.1609173119068145,-0.3943053185939789,0.0,0.0,-0.2595427856025176,0.5950237376234784
-0.0233917236328125,1.3721935749053955,0.0200558044016361,0.1447038948535919,-0.1826705038547516,-0.4350644946098327,0.0,0.0,-0.2754215517701712,0.6936236056287728
-0.0233474727720022,1.375353217124939,0.0279699973762035,0.1373596936464309,-0.2063484042882919,-0.4735579490661621,0.0,0.0,-0.4225874593583296,0.6975864170522221
-0.0232419967651367,1.378359079360962,0.0358799323439598,0.1298546344041824,-0.2319591045379638,-0.5122144222259521,0.0,0.0,-0.8280654891649151,0.584507143205433
-0.0230751037597656,1.3812026977539062,0.0438141748309135,0.1218768432736396,-0.2595456838607788,-0.5517317056655884,0.0,0.0,0.8865956021440626,0.7498415710711743
-0.0225598327815532,1.3852814435958862,0.0806716233491897,0.175836905837059,-0.2894247174263,-0.5975810289382935,0.0,0.0,-0.9588324427604676,-0.9992316365242004
-0.0221116058528423,1.3892502784729004,0.0723162144422531,0.1706752777099609,-0.3178498446941376,-0.5685027837753296,0.0,0.0,-0.964641273021698,-0.9997844099998474
-0.0217268951237201,1.3931264877319336,0.0642764195799827,0.1663849949836731,-0.3447763323783874,-0.5385295748710632,0.0,0.0,-0.98137229681015,-0.9988027215003968
-0.0214066505432128,1.3968942165374756,0.0562362968921661,0.1614432781934738,-0.370278924703598,-0.5100520253181458,0.0,0.0,-0.8861932754516602,-0.9988870024681092
-0.0211377143859863,1.4005603790283203,0.0497721545398235,0.1568296551704406,-0.3946054577827453,-0.4865310788154602,0.0,0.0,-0.936512053012848,-0.9907582998275756
-0.0209169387817382,1.4041314125061035,0.0436319150030612,0.1525556296110153,-0.4177605509757995,-0.4631024897098541,0.0,0.0,-0.9258445501327516,-0.9964770674705504
-0.0207529067993164,1.4076015949249268,0.0365292057394981,0.1481208205223083,-0.4395851492881775,-0.4364917874336242,0.0,0.0,-0.8816480040550232,-0.9919059872627258
-0.0206332206726074,1.4109786748886108,0.0308638922870159,0.1440295726060867,-0.4602801501750946,-0.413900226354599,0.0,0.0,-0.813994824886322,-0.99587482213974
-0.0205652229487895,1.414273977279663,0.0242127738893032,0.1405777484178543,-0.4795531332492828,-0.38546022772789,0.0,0.0,-0.956930696964264,-0.963451087474823
-0.0205414779484272,1.4174726009368896,0.0186185333877801,0.1364215016365051,-0.4977054595947265,-0.3630464673042297,0.0,0.0,-0.9485217928886414,-0.960848331451416
-0.0205737110227346,1.4205938577651978,0.0114530948922038,0.1333079636096954,-0.5142660140991211,-0.331211119890213,0.0,0.0,-0.7478249669075012,-0.9535642862319946
-0.020639419555664,1.423608660697937,0.0072749755345284,0.1286897659301757,-0.5300268530845642,-0.3152156174182892,0.0,0.0,-0.8280165791511536,-0.9585658311843872
-0.0207442287355661,1.426513433456421,0.0024692662991583,0.1239718273282051,-0.5448934435844421,-0.2973315715789795,0.0,0.0,-0.9156363606452942,-0.9298604726791382
-0.0208827015012502,1.4293150901794434,-0.0017622420564293,0.1195642948150634,-0.5588992238044739,-0.2801160812377929,0.0,0.0,-0.6789143681526184,-0.9805537462234496
-0.0210760124027729,1.4320229291915894,-0.0085699800401926,0.1158035025000572,-0.571471631526947,-0.2514470219612121,0.0,0.0,-0.9535334706306458,-0.9837279915809632
-0.0213140491396188,1.4346305131912231,-0.0141137335449457,0.1116871386766433,-0.5828909277915955,-0.2283855229616165,0.0,0.0,-0.7402731776237488,-0.936000406742096
-0.0215906146913766,1.4371381998062134,-0.0188795607537031,0.1075692176818847,-0.5932817459106445,-0.2078163623809814,0.0,0.0,-0.933771312236786,-0.918163001537323
-0.0219154357910156,1.4395751953125,-0.0251063052564859,0.1049767583608627,-0.6020720601081848,-0.1758061349391937,0.0,0.0,-0.9362815618515016,-0.845730721950531
-0.022285271435976,1.4419363737106323,-0.0309073273092508,0.1021331697702407,-0.6093761920928955,-0.1460843384265899,0.0,0.0,-0.8697752356529236,-0.9386751055717468
-0.0227004047483205,1.4442099332809448,-0.0365718975663185,0.0987303778529167,-0.6153286695480347,-0.1190503686666488,0.0,0.0,-0.9480066299438475,-0.876993715763092
-0.0231403354555368,1.4463773965835571,-0.0396599397063255,0.0942883491516113,-0.6205688118934631,-0.1048028096556663,0.0,0.0,-0.9265427589416504,-0.8833005428314209
-0.0236213691532611,1.4484646320343018,-0.0449369214475154,0.0912444218993187,-0.6244236826896667,-0.077097438275814,0.0,0.0,-0.969208300113678,-0.9071690440177916
-0.0241338722407817,1.4504473209381104,-0.0488176979124546,0.0869520679116249,-0.6273861527442932,-0.0592498257756233,0.0,0.0,-0.9853024482727052,-0.968755304813385
-0.0246861465275287,1.4523520469665527,-0.0539458468556404,0.0840387120842933,-0.6289377212524414,-0.0310312565416097,0.0,0.0,-0.9064652919769288,-0.8628082275390625
-0.0252633094787597,1.4541475772857666,-0.057036031037569,0.0794683247804641,-0.6297659873962402,-0.0165653843432664,0.0,0.0,-0.8877958655357361,-0.8101549744606018
-0.0258837696164846,1.4558531045913696,-0.0624921433627605,0.076019749045372,-0.6292269825935364,0.0107805356383323,0.0,0.0,-0.9614773988723756,-0.656780481338501
-0.026519775390625,1.4574501514434814,-0.0645102486014366,0.0714155659079551,-0.6281214356422424,0.0221110116690397,0.0,0.0,-0.9129541516304016,-0.7272843718528748
-0.0271732322871685,1.458936333656311,-0.0667362958192825,0.0667227655649185,-0.6264222264289856,0.0339836627244949,0.0,0.0,-0.9682528376579284,-0.837109386920929
-0.0278528220951557,1.4603277444839478,-0.070174440741539,0.0629019513726234,-0.6237251162528992,0.0539404936134815,0.0,0.0,-0.9240972399711608,-0.7895089387893677
-0.0285693164914846,1.4616332054138184,-0.0749917849898338,0.0596142932772636,-0.6196736693382263,0.0810286626219749,0.0,0.0,-0.9336274862289428,-0.8123511672019958
-0.0293195731937885,1.4628314971923828,-0.0792271494865417,0.0552401095628738,-0.6145861148834229,0.1017510741949081,0.0,0.0,-0.9490311145782472,-0.620140016078949
-0.030098533257842,1.4639288187026978,-0.0829721838235855,0.0511430017650127,-0.608464241027832,0.1224370822310447,0.0,0.0,-0.8282002806663513,-0.6597703099250793
-0.0308958999812603,1.46490740776062,-0.0853529721498489,0.0460898764431476,-0.6017211079597473,0.1348632127046585,0.0,0.0,-0.85809725522995,-0.4896250963211059
-0.0316778197884559,1.4657336473464966,-0.0834404677152633,0.0391100235283374,-0.5954576134681702,0.1252694875001907,0.0,0.0,-0.9024609327316284,0.1141999959945678
-0.0324448570609092,1.466407299041748,-0.0815831199288368,0.0321322605013847,-0.5896427631378174,0.1162975057959556,0.0,0.0,-0.8506019115447998,-0.4234113693237304
-0.0331971161067485,1.466928005218506,-0.0797852575778961,0.0251565780490636,-0.5842435359954834,0.1079847663640976,0.0,0.0,-0.9676473736763,-0.6537401676177979
-0.0339731201529502,1.4673421382904053,-0.0830044001340866,0.0207726489752531,-0.5778579115867615,0.1277124732732772,0.0,0.0,-0.8727278113365173,-0.4961861371994018
-0.0347352027893066,1.4676027297973633,-0.0813402608036995,0.0138000734150409,-0.5718165636062622,0.1208271831274032,0.0,0.0,-0.7730587124824524,-0.485408067703247
-0.0354836471378803,1.4677093029022217,-0.0797495320439338,0.0068296706303954,-0.566081166267395,0.1147074475884437,0.0,0.0,-0.9172245860099792,-0.5955370664596558
-0.0362653732299804,1.467702865600586,-0.0841116458177566,0.0022131879813969,-0.5591426491737366,0.1387700140476226,0.0,0.0,-0.6397209167480469,-0.6205008029937744
-0.0370805747807025,0.0,-0.088623471558094,-0.0021406104788184,-0.5508968830108643,0.1649149060249328,0.0,0.0,-0.8316671848297119,-0.7526300549507141
-0.0379305854439735,1.467365026473999,-0.0932900309562683,-0.0065745641477406,-0.5413081049919128,0.1917758882045745,0.0,0.0,-0.8523428440093994,-0.5623499751091003
-0.0388120636343956,1.4670333862304688,-0.097652181982994,-0.0109685128554701,-0.5303952693939209,0.2182570248842239,0.0,0.0,-0.9015990495681764,-0.8122090697288513
-0.0397301688790321,1.4665896892547607,-0.1026288270950317,-0.015543058514595,-0.5180628299713135,0.2466486692428589,0.0,0.0,-0.471798300743103,-0.2645159959793091
-0.0406376831233501,1.4659916162490845,-0.1015930622816085,-0.0225101020187139,-0.5057799220085144,0.245658129453659,0.0,0.0,-0.7328420281410217,-0.4809952974319458
-0.0415351875126361,1.4652388095855713,-0.100665770471096,-0.0294752512127161,-0.4935012757778168,0.2455730885267257,0.0,0.0,-0.4444355964660644,-0.403020977973938
-0.0424233451485633,1.4643311500549316,-0.0998516306281089,-0.036438662558794,-0.4811815619468689,0.2463942468166351,0.0,0.0,-0.5454349517822266,-0.7812150716781616
-0.0433557517826557,1.46331787109375,-0.1059199124574661,-0.0406917929649353,-0.4671009182929992,0.2816128134727478,0.0,0.0,-0.4679052233695984,-0.4583274722099304
-0.0442801490426063,1.4621495008468628,-0.1053472161293029,-0.0476555973291397,-0.4528895914554596,0.2842263281345367,0.0,0.0,-0.457562506198883,-0.6919489502906799
-0.0452532768249511,1.4608750343322754,-0.1120361909270286,-0.0519593022763729,-0.4367788136005401,0.3222156167030334,0.0,0.0,-0.8642781972885132,-0.2703711986541748
-0.0462201125919818,1.4594459533691406,-0.111718975007534,-0.0589251853525638,-0.4204506874084472,0.3265617489814758,0.0,0.0,-0.8152804374694824,-0.0109257698059082
-0.0471816062927246,1.4578622579574585,-0.1115318089723587,-0.0658905953168869,-0.4038636386394501,0.331741452217102,0.0,0.0,-0.8788393139839172,-0.1405141353607177
-0.0481386184692382,1.4561240673065186,-0.1114763841032981,-0.0728558227419853,-0.3869772851467132,0.337727278470993,0.0,0.0,-0.9315593838691713,0.4965459108352661
-0.049091912806034,1.4542312622070312,-0.111553706228733,-0.0798211470246315,-0.3697528541088104,0.3444885909557342,0.0,0.0,-0.7922512292861938,0.0538800954818725
-0.0500427260994911,1.4521838426589966,-0.1117640733718872,-0.0867868512868881,-0.3521532416343689,0.3519923686981201,0.0,0.0,-0.8798227310180664,0.8218814134597778
-0.0509227737784385,1.4499435424804688,-0.1033269390463829,-0.0958971157670021,-0.3360729217529297,0.3216072022914886,0.0,0.0,-0.9386661052703856,0.5709331035614014
-0.051759622991085,1.4475196599960327,-0.0983545705676078,-0.1043918803334236,-0.3207686841487884,0.3060845136642456,0.0,0.0,-0.9158481359481812,0.0098726749420166
-0.0525971427559852,1.4449403285980225,-0.0989542156457901,-0.1113518327474594,-0.3049884736537933,0.3156043589115143,0.0,0.0,-0.9377985000610352,0.2001250982284546
-0.0534361824393272,1.442205786705017,-0.0996810421347618,-0.1183129176497459,-0.2887023985385895,0.325720876455307,0.0,0.0,-0.97125643491745,0.8514940738677979
-0.0542000755667686,1.4392741918563845,-0.09066803753376,-0.1275313198566436,-0.2740190327167511,0.2936677932739258,0.0,0.0,-0.9210534691810608,0.5027201175689697
-0.0549290664494037,1.436174392700195,-0.0868083238601684,-0.1352257579565048,-0.2597816586494446,0.2847476899623871,0.0,0.0,-0.9882139563560486,0.5719051361083984
-0.0556159988045692,1.432904601097107,-0.0820455551147461,-0.1430200040340423,-0.2461725324392318,0.2721824049949646,0.0,0.0,-0.953217387199402,0.4746096134185791
-0.0563084594905376,1.429478883743286,-0.0832404643297195,-0.1499765813350677,-0.2319562584161758,0.2843257784843445,0.0,0.0,-0.8552850484848022,0.7046265602111816
-0.0569453239440918,1.4258675575256348,-0.0767024010419845,-0.1585079878568649,-0.218776598572731,0.2635932862758636,0.0,0.0,-0.9633421897888184,0.0938754081726074
-0.0575894340872764,1.422100305557251,-0.0781047940254211,-0.1654643565416336,-0.2049493044614792,0.2765461206436157,0.0,0.0,-0.9904268980026244,0.8270062208175659
-0.0581672675907611,1.4181640148162842,-0.070297434926033,-0.1732634752988815,-0.1923456341028213,0.2520731985569,0.0,0.0,-0.8979759812355042,0.6760478019714355
-0.0587035194039344,1.414056420326233,-0.0655535608530044,-0.18105249106884,-0.1803648620843887,0.2396155148744583,0.0,0.0,-0.8904585838317871,0.7372779846191406
-0.0592030510306358,1.409786820411682,-0.0614321418106555,-0.1884080320596695,-0.1688555479049682,0.2301861941814422,0.0,0.0,-0.8627693057060242,0.8266711235046387
-0.0596385970711708,1.4053459167480469,-0.0538762994110584,-0.1962330192327499,-0.1585280299186706,0.2065507620573043,0.0,0.0,-0.9493017196655272,0.9621853828430176
-0.0600157752633094,1.4007388353347778,-0.0470345169305801,-0.2037967145442962,-0.1492272019386291,0.1860166192054748,0.0,0.0,-0.8318584561347961,0.7275912761688232
-0.0603549964725971,1.395969033241272,-0.0427171438932418,-0.211136907339096,-0.1404430717229843,0.1756829470396042,0.0,0.0,-0.7262797951698303,0.6919612884521484
-0.0606544502079486,1.391028881072998,-0.0381783470511436,-0.2188047915697097,-0.1322393715381622,0.1640739738941192,0.0,0.0,-0.9507954716682434,0.0394973754882812
-0.0609663948416709,1.385932207107544,-0.0402018949389457,-0.2257559597492218,-0.1232790350914001,0.1792067587375641,0.0,0.0,-0.8039848208427429,0.8654351234436035
-0.0612405762076377,1.380667209625244,-0.0358991995453834,-0.233323186635971,-0.1148500964045524,0.168578952550888,0.0,0.0,-0.8167622685432434,0.5781592130661011
-0.0614745132625103,1.3752394914627075,-0.0312972478568553,-0.2406404465436935,-0.1070025488734245,0.1569509655237198,0.0,0.0,-0.865700900554657,0.5077335834503174
-0.0616785995662212,1.3696436882019043,-0.0279832631349563,-0.2481841444969177,-0.0994911938905716,0.1502271294593811,0.0,0.0,-0.6229057908058167,0.6841325759887695
-0.0618298538029193,1.3638862371444702,-0.021782012656331,-0.2554593682289123,-0.0928822457790374,0.1321788728237152,0.0,0.0,-0.882327675819397,0.8446776866912842
-0.0619310364127159,1.3579697608947754,-0.0159666370600461,-0.2625987231731415,-0.0870960056781768,0.1157244443893432,0.0,0.0,-0.9217880964279176,0.7197284698486328
-0.0619766227900981,1.3518955707550049,-0.009410691447556,-0.2696923911571502,-0.0822808220982551,0.0963037312030792,0.0,0.0,-0.9484545588493348,0.7290027141571045
-0.0619725212454795,1.3456562757492063,-0.0036148640792816,-0.2770867645740509,-0.0782963931560516,0.0796883851289749,0.0,0.0,-0.8948261141777039,0.8129258155822754
-0.0619200691580772,1.339260458946228,0.0020145387388765,-0.2840919196605682,-0.0750992447137832,0.0639431104063987,0.0,0.0,-0.9549341797828674,-0.5698384046554565
-0.0619235038757324,1.3327171802520752,-0.0054276413284242,-0.2905647158622741,-0.0700655728578567,0.1006733998656272,0.0,0.0,-0.8619770407676697,0.4728695154190063
-0.0619428642094135,1.326017141342163,-0.0078470204025506,-0.2975159883499145,-0.0642132759094238,0.1170458644628524,0.0,0.0,-0.9617531895637512,0.6143319606781006
-0.0619395263493061,1.3191577196121216,-0.0054343724623322,-0.3046297430992126,-0.0585131235420703,0.1140027865767479,0.0,0.0,-0.9496400952339172,0.7815897464752197
-0.0619040504097938,1.3121352195739746,-0.0018108409130945,-0.3119115829467773,-0.0532120168209075,0.1060221046209335,0.0,0.0,-0.9535364508628844,0.9545183181762696
-0.0618123039603233,1.3049496412277222,0.0048289475962519,-0.3192126452922821,-0.0489141903817653,0.0859562307596206,0.0,0.0,-0.945574939250946,0.8661489486694336
-0.0616658218204975,1.2976003885269165,0.0112817985936999,-0.3265281617641449,-0.0455833077430725,0.0666175857186317,0.0,0.0,-0.9794442057609558,0.7632155418395996
-0.0614627823233604,1.2900822162628174,0.0179537795484066,-0.3340694010257721,-0.043267797678709,0.0463103428483009,0.0,0.0,-0.9719269275665284,0.1899574995040893
-0.061276625841856,1.2824071645736694,0.0154187409207224,-0.341020792722702,-0.0401163585484027,0.0630290061235427,0.0,0.0,-0.984538435935974,0.8204377889633179
-0.0610397346317768,1.2745792865753174,0.0213702302426099,-0.3478498160839081,-0.0378260165452957,0.0458067804574966,0.0,0.0,-0.9917781352996826,0.7698216438293457
