x_pos,y_pos,x_vel,y_vel,angle,ang_vel,leg_1,leg_2,main_booster,lat_booster
-0.0015055655967444,1.4029483795166016,-0.1528071463108062,-0.3542972505092621,0.0020106313750147,0.0396798774600029,0.0,0.0,-0.3168073892593384,0.964658260345459
-0.0029109001625329,1.3943194150924685,-0.1406680643558502,-0.3835114240646362,0.0021459611598402,0.0027075165417045,0.0,0.0,0.3666058778762817,0.3577051162719726
-0.0041881562210619,1.3855154514312744,-0.1286523640155792,-0.3912879824638366,0.0030547485221177,0.0181774925440549,0.0,0.0,0.0988755226135253,0.9446265697479248
-0.0054679871536791,1.376530647277832,-0.1272380650043487,-0.3993249535560608,0.002321662614122,-0.0146629381924867,0.0,0.0,-0.2459661960601806,0.6384749412536621
-0.0066686631180346,1.3668720722198486,-0.118009053170681,-0.4292731285095215,0.0002921742561738,-0.0405935645103454,0.0,0.0,-0.3407580256462097,0.7014284133911133
-0.0077833174727857,1.3565363883972168,-0.1079231649637222,-0.4593612253665924,-0.0032090267632156,-0.0700310170650482,0.0,0.0,0.430462121963501,0.547804594039917
-0.0088561056181788,1.346274971961975,-0.1028212532401084,-0.456082820892334,-0.0076192482374608,-0.0882125049829483,0.0,0.0,0.3375861644744873,0.2804611921310425
-0.0097856521606445,1.3361215591430664,-0.0893064364790916,-0.4512771666049957,-0.0112292766571044,-0.0722070336341857,0.0,0.0,-0.6207624077796936,0.7083415985107422
-0.0106422426179051,1.3252992630004885,-0.0808452814817428,-0.4810372591018677,-0.0159957539290189,-0.0953381210565567,0.0,0.0,-0.5474313497543335,0.3264776468276977
-0.011480713263154,1.3138011693954468,-0.0792422220110893,-0.5110823512077332,-0.0205472148954868,-0.0910374447703361,0.0,0.0,0.4159926176071167,-0.7919266223907471
-0.0122701646760106,1.3023911714553833,-0.0762654617428779,-0.5071502327919006,-0.0231944229453802,-0.0529488809406757,0.0,0.0,-0.5294318795204163,-0.6616296768188477
-0.0130875585600733,1.2903053760528564,-0.0804435536265373,-0.5371751189231873,-0.0244813859462738,-0.0257415976375341,0.0,0.0,0.0216448307037353,-0.693754255771637
-0.013838768005371,1.2781940698623655,-0.0754902958869934,-0.5382714867591858,-0.0241112578660249,0.0074028884992003,0.0,0.0,-0.7133203744888306,-0.3870750069618225
-0.0145720485597848,1.265406370162964,-0.0739001110196113,-0.5683231353759766,-0.0235501434653997,0.0112234577536582,0.0,0.0,-0.5151475667953491,-0.6290137767791748
-0.0153255462646484,1.251950740814209,-0.0770667418837547,-0.5980027914047241,-0.0218468233942985,0.0340692810714244,0.0,0.0,-0.8434733152389526,-0.915434181690216
-0.0161206237971782,1.2378102540969849,-0.0829082727432251,-0.6284192800521851,-0.0184797663241624,0.0673472881317138,0.0,0.0,-0.2739315032958984,-0.1649464964866638
-0.0168981552124023,1.2229938507080078,-0.081325776875019,-0.6584671139717102,-0.0149411261081695,0.0707789212465286,0.0,0.0,-0.749052107334137,-0.4710583686828613
-999.0,1.2075014114379885,-0.0797436311841011,-0.6885148882865906,-0.0112370485439896,0.0740880742669105,0.0,0.0,-0.4255790710449219,-0.6206713318824768
-0.018441867083311,1.1913399696350098,-0.083316259086132,-0.7182640433311462,-0.0063410550355911,0.0979288220405578,0.0,0.0,0.0627270936965942,0.4650049209594726
-0.0192577354609966,1.1750491857528689,-0.0864503234624862,-0.7240216135978699,-0.0015375049551948,0.0960796624422073,0.0,0.0,-0.5074920058250427,0.6017324924468994
-0.019998837262392,1.1580867767333984,-0.0776428505778312,-0.753886342048645,0.001961083849892,0.0699782595038414,0.0,0.0,-0.3407273292541504,0.2829865217208862
-0.020722771063447,1.1404483318328855,-0.0760620310902595,-0.7839324474334717,0.0055955634452402,0.0726958364248275,0.0,0.0,0.3548687696456909,0.7716628313064575
-0.0212512966245412,1.1228044033050537,-0.0552813895046711,-0.7841892838478088,0.0079880934208631,0.0478550978004932,0.0,0.0,0.4986090660095215,0.4777848720550537
-0.0217018127441406,1.104909896850586,-0.0478852465748786,-0.7953342199325562,0.0107946004718542,0.0561351403594017,0.0,0.0,0.2809942960739136,0.4117443561553955
-0.0222509391605854,1.0870859622955322,-0.0573398657143116,-0.7921927571296692,0.0132012348622083,0.0481366887688636,0.0,0.0,0.4966198205947876,0.4682285785675049
-0.0229233745485544,1.0695185661315918,-0.0691652372479438,-0.7807892560958862,0.0151002993807196,0.0379813611507415,0.0,0.0,0.4907689094543457,0.670032262802124
-0.0235321037471294,1.0522639751434326,-0.0615500435233116,-0.7668830752372742,0.0157686360180377,0.0133667513728141,0.0,0.0,0.8334319591522217,-0.6692706346511841
-0.0243480689823627,1.0357089042663574,-0.0833236798644065,-0.7358004450798035,0.0174713861197233,0.0340550802648067,0.0,0.0,-0.046294629573822,0.1479994058609008
-0.0251474380493164,1.0184777975082395,-0.0817440003156662,-0.7658458352088928,0.0192514881491661,0.0356024429202079,0.0,0.0,0.7539314031600952,0.6362743377685547
-0.0259140022099018,1.00134539604187,-0.0771870613098144,-0.7614449858665466,0.019775990396738,0.0104898810386657,0.0,0.0,0.0873758792877197,-0.4530518054962158
-0.0266629215329885,0.9843732714653016,-0.0755398049950599,-0.7543335556983948,0.0204173326492309,0.0128267388790845,0.0,0.0,0.027193546295166,-0.2694404125213623
-0.0274495128542184,0.967132031917572,-0.0791341587901115,-0.7662807703018188,0.0208860449492931,0.0093740886077284,0.0,0.0,0.5703897476196289,-0.6675786972045898
-0.0283744819462299,0.950359582901001,-0.0941799134016037,-0.7454701066017151,0.0225431863218545,0.033142801374197,0.0,0.0,-0.2428306341171264,0.3916343450546264
-0.0292836185544729,0.9329110980033876,-0.0926180779933929,-0.7755154371261597,0.024233991280198,0.0338160283863544,0.0,0.0,0.2330265045166015,0.4141435623168945
-0.0301760677248239,0.9154890179634094,-0.0910374000668525,-0.7743436694145203,0.0260059237480163,0.0354385375976562,0.0,0.0,0.9231343269348145,0.4119014739990234
-0.0310544967651367,0.8987119793891907,-0.0897560119628906,-0.7456800937652588,0.0278920754790306,0.0377231128513813,0.0,0.0,-0.5763264298439026,0.7591301202774048
-0.0318599715828895,0.8812574744224548,-0.0809974446892738,-0.7757641077041626,0.0283424630761146,0.0090074967592954,0.0,0.0,0.789680004119873,0.0681411027908325
-0.0326321609318256,0.8643651008605957,-0.07786525785923,-0.7507854700088501,0.028983099386096,0.0128125129267573,0.0,0.0,-0.6148778796195984,-0.163428246974945
-0.0333890914916992,0.8467966914176941,-0.0763356238603591,-0.780830442905426,0.0296150725334882,0.012639582157135,0.0,0.0,0.5396006107330322,0.1021816730499267
-0.034121323376894,0.8294028639793396,-0.0739812776446342,-0.7730780839920044,0.0303521063178777,0.0147408749908208,0.0,0.0,-0.1653236150741577,0.204398512840271
-0.0348388664424419,0.8113328814506531,-0.0724702328443527,-0.8031230568885803,0.0310645680874586,0.0142493294551968,0.0,0.0,0.6634039878845215,0.1268560886383056
-0.0354337692260742,0.793383002281189,-0.0607669577002525,-0.7978017330169678,0.0323195494711399,0.0250994525849819,0.0,0.0,0.6327207088470459,0.9065394401550292
-0.0358448028564453,0.775220513343811,-0.0406624339520931,-0.8072184324264526,0.0318859741091728,-0.0086715510115027,0.0,0.0,0.5969401597976685,0.878899097442627
-0.0360808372497558,0.7571545839309692,-0.0215073116123676,,0.0298130605369806,-0.0414579547941684,0.0,0.0,-0.0684489011764526,0.1788818836212158
-0.0363028533756732,0.7384125590324402,-0.0200469344854354,-0.8329311609268188,0.0276861619204282,-0.0425378158688545,0.0,0.0,0.9084619283676147,-0.2892315983772278
-0.0364686958491802,0.7195757627487183,-0.01461364608258,-0.8371598720550537,0.0257439464330673,-0.0388439074158668,0.0,0.0,0.7944425344467163,0.0828931331634521
-0.0365671142935752,0.7007931470870972,-0.0081216702237725,-0.8347485065460205,0.0240409150719642,-0.0340608842670917,0.0,0.0,0.8057265281677246,0.3628308773040771
-0.0367969498038291,0.6826968789100647,-0.0206076465547084,-0.8042460083961487,0.0216959957033395,-0.0468985214829444,0.0,0.0,-0.23401939868927,0.2763558626174927
-0.0370138175785541,0.6639243960380554,-0.0192220248281955,-0.8342914581298828,0.0192715134471654,-0.0484897270798683,0.0,0.0,0.6247173547744751,0.1056166887283325
-0.0372483246028423,0.6452257633209229,-0.0208053719252347,-0.8310222029685974,0.016665419563651,-0.0521220192313194,0.0,0.0,0.5373066663742065,-0.0100647807121276
-0.0373456962406635,0.6266514658927917,-0.0076323724351823,-0.8255072236061096,0.0145859066396951,-0.0415898598730564,0.0,0.0,0.9479086399078368,-0.2318753600120544
-0.0375114455819129,0.6087023019790649,-0.0140578988939523,-0.7977158427238464,0.0120963510125875,-0.0497912652790546,0.0,0.0,0.701252818107605,-0.1092824935913086
-0.0375584587454795,0.5907658934593201,-0.0026035227347165,-0.7971575856208801,0.0100266085937619,-0.041394867002964,0.0,0.0,0.833152174949646,0.1444127559661865
-0.0375993736088275,0.5734812021255493,-0.0019056322053074,-0.7681976556777954,0.007867669686675,-0.0431788638234138,0.0,0.0,0.5142987966537476,-0.4825435876846313
-0.0374962799251079,0.5561924576759338,0.0119693093001842,-0.7683826684951782,0.0062305564060807,-0.0327422767877578,0.0,0.0,0.5153237581253052,0.4451297521591186
-0.037472914904356,0.5388751029968262,0.0045171165838837,-0.7696511149406433,0.0040739811956882,-0.0431316085159778,0.0,0.0,0.787655234336853,-0.416587769985199
-0.0373413078486919,0.5221760272979736,0.0149911465123295,-0.7421795725822449,0.0022700380068272,-0.0360786989331245,0.0,0.0,0.3216840028762817,0.1913677453994751
-0.0370908752083778,0.5056105852127075,0.0264738611876964,-0.7362393736839294,0.0008553289808332,-0.0282943733036518,0.0,0.0,-0.0676559209823608,-0.1939221620559692
-0.0368314757943153,0.4883691966533661,0.0275049861520528,-0.7662845849990845,-0.000684130762238,-0.0307892467826604,0.0,0.0,0.8712279796600342,-0.5261284112930298
-0.0366960540413856,0.4717915654182434,0.0144406501203775,-0.736786425113678,-0.0015719986986368,-0.0177571792155504,0.0,0.0,0.8187841176986694,-0.0111461281776428
-0.0364956855773925,0.4551492035388946,0.0207994990050792,-0.7396594882011414,-0.002329776994884,-0.0151555659249424,0.0,0.0,0.7176862955093384,-0.2360949516296386
-0.0363906845450401,0.4389251470565796,0.0118966139853,-0.7210720777511597,-0.003702976508066,-0.0274641271680593,0.0,0.0,0.8345102071762085,-0.0743868947029113
-0.0361397750675678,0.4228857457637787,0.0259809456765651,-0.7128655314445496,-0.0045772166922688,-0.0174848735332489,0.0,0.0,0.945709228515625,0.0809125900268554
-0.0358518585562706,0.4072529077529907,0.0296897385269403,-0.6947949528694153,-0.0054605887271463,-0.0176676325500011,0.0,0.0,0.9902998208999634,-0.736984372138977
-0.0356041900813579,0.3916633129119873,0.0242886431515216,-0.6928667426109314,-0.0049933660775423,0.0093443533405661,0.0,0.0,0.9853518009185792,-0.44841468334198
-0.0354973785579204,0.3764642179012298,0.0110529735684394,-0.6755169630050659,-0.005355202127248,-0.0072366804815828,0.0,0.0,0.9838557243347168,-0.2177605032920837
-0.0353555679321289,0.362130343914032,0.0145730199292302,-0.6370627284049988,-0.0057401042431592,-0.0076981196179986,0.0,0.0,0.945060968399048,0.0176010131835937
-0.03511219099164,0.3476360440254211,0.0244125239551067,-0.6441903710365295,-0.0058214175514876,-0.0016260534757748,0.0,0.0,0.8752706050872803,0.3427376747131347
-0.0348305702209472,0.3339189291000366,0.0282520856708288,-0.6096493005752563,-0.0059051518328487,-0.0016748942434787,0.0,0.0,0.7463986873626709,0.2233607769012451
-0.0346442237496376,0.3202773034572601,0.0193319153040647,-0.6062999963760376,-0.0065941396169364,-0.0137799279764294,0.0,0.0,0.9269391298294068,0.0438497066497802
-0.0345595367252826,0.3071452677249908,0.0098262708634138,-0.5836514830589294,-0.0079242037609219,-0.0266013648360967,0.0,0.0,0.9425561428070068,0.1656467914581298
-0.0344332680106163,0.2944343984127044,0.0139489071443676,-0.5649330019950867,-0.0092329811304807,-0.0261751860380172,0.0,0.0,0.9219374656677246,-0.0669914484024047
-0.0344491973519325,0.2825233042240143,0.0005825019907206,-0.5293965935707092,-0.0113811185583472,-0.0429630316793918,0.0,0.0,0.5445871353149414,0.5293705463409424
-0.0343455299735069,0.270744115114212,0.0135632511228322,-0.5235468149185181,-0.0145388236269354,-0.0631539598107338,0.0,0.0,0.7569079399108887,-0.3583765029907226
-0.0342748649418354,0.2589136362075805,0.0105859767645597,-0.5258365273475647,-0.0180082917213439,-0.0693896189332008,0.0,0.0,0.5518863201141357,-0.8957085609436035
-0.0342018119990825,0.2468557208776474,0.0090736839920282,-0.5359293222427368,-0.0197483748197555,-0.0348015129566192,0.0,0.0,0.9684221744537354,0.2501857280731201
-0.0341630950570106,0.2347294837236404,0.0059516024775803,-0.5389721989631653,-0.0218076985329389,-0.0411864295601844,0.0,0.0,0.9585483074188232,-0.4688539505004883
-0.0341194160282611,0.2233378291130066,0.0066444613039493,-0.5063321590423584,-0.0240573734045028,-0.0449933595955371,0.0,0.0,0.9551453590393066,-0.6484848856925964
-0.0340085998177528,0.2127224951982498,0.0119301564991474,-0.4718049168586731,-0.0248936880379915,-0.0167264305055141,0.0,0.0,0.4798762798309326,-0.3651943802833557
-0.0339871421456337,0.2025328278541565,0.0036067902110517,-0.4528988301753998,-0.0263376794755458,-0.0288798715919256,0.0,0.0,0.2422658205032348,-0.4121645092964172
-0.0340642929077148,0.1920445263385772,-0.0056496104225516,-0.4661837220191955,-0.0283732991665601,-0.0407122522592544,0.0,0.0,0.8062061071395874,-0.315081238746643
-0.0340812690556049,0.1821742206811905,0.0002938496181741,-0.4387178122997284,-0.0303453560918569,-0.0394409857690334,0.0,0.0,0.8325554132461548,-0.6509765386581421
-0.0342606529593467,0.1725929379463195,-0.016802467405796,-0.4258590638637543,-0.031463760882616,-0.0223681721836328,0.0,0.0,0.2636162042617798,-0.152816891670227
-0.0344754233956337,0.1631149351596832,-0.0200066231191158,-0.4212765097618103,-0.0329137295484542,-0.0289991740137338,0.0,0.0,0.5777096748352051,-0.0265119671821594
-0.0346900001168251,0.1539625972509384,-0.0197968240827322,-0.406804472208023,-0.0345525555312633,-0.0327764749526977,0.0,0.0,0.4378354549407959,-0.1881186366081237
-0.0348221771419048,0.1448895782232284,-0.0117745595052838,-0.4032811820507049,-0.0359746403992176,-0.0284418072551488,0.0,0.0,0.1145498752593994,-0.4795868396759033
-0.0349414832890033,0.135485827922821,-0.0104298833757638,-0.4179785549640655,-0.0374552272260189,-0.0296117849647998,0.0,0.0,0.2393882274627685,-0.350005567073822
-0.0349918380379676,0.1258551180362701,-0.0037279005628079,-0.4280670285224914,-0.0387444272637367,-0.025784108787775,0.0,0.0,0.7849054336547852,-0.4770746231079101
-0.0348716750741004,0.1164639592170715,0.012698913924396,-0.4174055755138397,-0.0394268780946731,-0.0136487055569887,0.0,0.0,0.6538863182067871,-0.3921375274658203
-0.034609317779541,0.1069802343845367,0.0264011919498443,-0.421500414609909,-0.0395900756120681,-0.003264105413109,0.0,0.0,0.947953462600708,-0.8050130605697632
-0.0343957915902137,0.0981583446264267,0.0200417265295982,-0.3920502364635467,-0.0382909514009952,0.0259825699031353,0.0,0.0,0.8361889123916626,-0.6482704281806946
-0.0341774933040142,0.0899299681186676,0.0192368943244218,-0.3656427562236786,-0.0357304885983467,0.0512093678116798,0.0,0.0,0.7946245670318604,-0.6430618166923523
-0.0338521003723144,0.0821092948317527,0.0284035708755254,-0.3474921882152557,-0.0316485129296779,0.0816395133733749,0.0,0.0,0.6888518333435059,-0.3576558232307434
-0.0334272384643554,0.0741083025932312,0.037996768951416,-0.3555113077163696,-0.0272061433643102,0.0888472348451614,0.0,0.0,0.7968403100967407,-0.3553824424743652
-0.0330585464835166,0.0662643760442733,0.03274642303586,-0.3485504388809204,-0.0231419969350099,0.0812830552458763,0.0,0.0,0.7313821315765381,-0.6676636338233948
-0.0326400771737098,0.059107169508934,0.036270048469305,-0.3180233240127563,-0.0176367666572332,0.1101044416427612,0.0,0.0,0.8502883911132812,0.2317889928817749
-0.0322512611746788,0.0522310584783554,0.033544048666954,-0.3055553734302521,-0.0123604526743292,0.105526253581047,0.0,0.0,0.7444074153900146,0.7397973537445068
-0.0319517143070697,0.0459472499787807,0.0265104733407497,-0.2792558372020721,-0.0089639984071254,0.0679289847612381,0.0,0.0,0.325860857963562,0.2585899829864502
-0.0315924659371376,0.0398266650736331,0.032266229391098,-0.2720076441764831,-0.005346440244466,0.0723510310053825,0.0,0.0,0.5037376880645752,-0.1458407640457153
-0.0312933921813964,0.0340549796819686,0.0265650786459445,-0.2565125823020935,-0.0020531381014734,0.065866008400917,0.0,0.0,0.6392803192138672,0.5056185722351074
-0.0310558322817087,0.0287255384027957,0.0217864830046892,-0.2368613183498382,-0.0001024522644001,0.03901357203722,0.0,0.0,0.5975804328918457,0.6833044290542603
-0.0308058746159076,0.0234401561319828,0.0245486181229352,-0.2349061369895935,0.0003420263528823,0.0088898204267025,0.0,0.0,0.6500697135925293,0.4669613838195801
-0.0306881908327341,0.0183796510100364,0.0119533548131585,-0.2249103188514709,0.0001587059523444,-0.0036665990483015,0.0,0.0,0.4342601299285888,0.7553403377532959
-0.0306720733642578,0.013323507271707,0.0036386183928698,-0.2247194647789001,-0.0018409637268632,-0.0399932637810707,0.0,0.0,0.92487370967865,0.7491284608840942
-0.0304769519716501,0.0088511565700173,0.0228102691471576,-0.1987767368555069,-0.0051032807677984,-0.0652462393045425,0.0,0.0,0.7060806751251221,0.5182912349700928
-0.0301872249692678,0.0042691919952631,0.0332063995301723,-0.203662559390068,-0.0092864232137799,-0.0836628526449203,0.0,0.0,0.8670933246612549,-0.0646520853042602
-0.0297415740787982,0.0003024196485057,0.0481168068945407,-0.1763293594121933,-0.0127857634797692,-0.0699870139360427,0.0,0.0,0.6297545433044434,-0.4182484149932861
-0.0292252544313669,-0.0024815702345222,0.0358784534037113,-0.1236687824130058,0.0027546766214072,0.3107957541942596,1.0,1.0,0.9465324878692628,0.4990485906600952
-0.0286184307187795,-0.0034184122923761,0.0443656407296657,-0.0418836995959281,0.0183193795382976,0.3106070756912231,1.0,1.0,0.5102702379226685,0.434717059135437
-0.028169821947813,-0.0035251642111688,0.0440259650349617,-0.0047588017769157,0.0191273167729377,0.016140054911375,1.0,1.0,-0.6383245587348938,-0.7863108515739441
-0.0279213897883892,-0.0032736444845795,0.0267814062535762,0.011199434287846,0.0172010250389575,-0.0385425314307212,1.0,1.0,-0.065926194190979,-0.2782058119773865
-0.0277249328792095,-0.0027415656950324,0.0236548725515604,0.0236910264939069,0.0132179539650678,-0.0796946063637733,1.0,1.0,-0.4548504948616028,-0.4660736322402954
-0.0275433547794818,-0.0020531679037958,0.0234129652380943,0.0306295324116945,0.008030654862523,-0.1037564054131507,1.0,1.0,-0.5171822309494019,-0.5622894763946533
-0.0274332053959369,-0.0013416671426966,0.0164545141160488,0.031644057482481,0.0026535005308687,-0.1075520142912864,1.0,1.0,-0.7151985764503479,-0.3954872488975525
-0.0273200031369924,-0.0006681108498014,0.0165045112371444,0.02993437461555,-0.0024631305132061,-0.1023391634225845,1.0,1.0,-0.6427350044250488,-0.5839088559150696
-0.0272292140871286,-0.0005929017206653,0.0096661588177084,0.0033406838774681,-0.0030487235635519,-0.0117117892950773,1.0,1.0,-0.5044065117835999,-0.0702734589576721
-0.0271896366029977,-0.0005964779993519,0.0039623761549592,-0.0001602104748599,-0.0030508080963045,-4.0503713535144925e-05,1.0,1.0,-0.7159513235092163,0.0316091775894165
-0.027195643633604,-0.0005970501806586,-0.0006150673725642,-2.6225397959933616e-05,-0.0030412792693823,0.0001857870229287,1.0,1.0,-0.8112815618515015,0.0369380712509155
-0.0272121429443359,-0.0005970501806586,-0.0016957983607426,-5.120654122947599e-07,-0.0030153531115502,0.0005046087317168,1.0,1.0,-0.7291522026062012,-0.195785641670227
-0.0272211078554391,-0.0005970501806586,-0.0009055822156369,-5.003720957574842e-07,-0.0030015232041478,0.0002694785944186,1.0,1.0,-0.7896590828895569,0.1143186092376709
-0.0272214896976947,-0.0005970501806586,-3.76515272364486e-05,-3.2366724411758696e-08,-0.0030009467154741,1.121685272664763e-05,1.0,1.0,-0.6975710391998291,0.0929454565048217
