x_pos,y_pos,x_vel,y_vel,angle,ang_vel,leg_1,leg_2,main_booster,lat_booster
-0.0015252113807946,1.4033188819885254,-0.1545321196317672,-0.3378286361694336,0.0018073235405609,0.0356541238725185,0.0,0.0,-0.0360312461853027,0.938042163848877
-0.0029719353187829,1.3954310417175293,-0.1444544494152069,-0.3505700528621673,0.00158822897356,-0.0043813758529722,0.0,0.0,0.0400798320770263,0.7692151069641113
-0.0042626382783055,1.3876134157180786,-0.127411738038063,-0.3474463522434234,-5.144405804458074e-05,-0.0327966995537281,0.0,0.0,-0.129980206489563,-0.2835290431976318
-0.0055548669770359,1.3794902563095093,-0.1275879740715026,-0.3610314726829529,-0.001658588531427,-0.0321459136903286,0.0,0.0,-0.0388908386230468,0.1450786590576172
-0.006848526187241,1.3710615634918213,-0.1277658343315124,-0.3746088445186615,-0.0032342267222702,-0.0315157026052475,0.0,0.0,0.2133620977401733,0.7755550146102905
-0.0079665184020996,1.3629239797592163,-0.1088278442621231,-0.3616866171360016,-0.0061807120218873,-0.0589353218674659,0.0,0.0,-0.4855280518531799,0.2019762992858886
-0.0090859411284327,1.3544806241989136,-0.1090038418769836,-0.3752703368663788,-0.0090961195528507,-0.0583134815096855,0.0,0.0,0.1680960655212402,0.3144564628601074
-0.0100971218198537,1.346416711807251,-0.0987081974744796,-0.3584141135215759,-0.0114785060286521,-0.0476516596972942,0.0,0.0,-0.5773382186889648,0.2195391654968261
-0.0111098289489746,1.3380472660064695,-0.0988883227109909,-0.3719981908798218,-0.0138322096318006,-0.0470783151686191,0.0,0.0,-0.8235120177268982,-0.1954072713851928
-0.0121240615844726,1.3293722867965698,-0.0990690514445304,-0.3855747878551483,-0.0161574501544237,-0.0465092435479164,0.0,0.0,-0.5236064791679382,-0.361695647239685
-0.0131398197263479,1.3203920125961304,-0.0992508009076118,-0.3991527855396271,-0.0184552669525146,-0.0459606908261776,0.0,0.0,-0.5062726140022278,0.3196117877960205
-0.0141572002321481,1.3111062049865725,-0.0994334295392036,-0.4127314984798431,-0.0207265336066484,-0.0454292856156826,0.0,0.0,-0.4793758988380432,0.2009574174880981
-0.015176105313003,1.301514983177185,-0.0996168181300163,-0.426310271024704,-0.0229721050709486,-0.0449155829846859,0.0,0.0,-0.8259825110435486,0.4579806327819824
-0.0161966327577829,1.2916181087493896,-0.0998009070754051,-0.4398890733718872,-0.0251929182559251,-0.0444206036627292,0.0,0.0,-0.8613847494125366,-0.4377530217170715
-0.0172186847776174,1.2814161777496338,-0.0999856144189834,-0.4534679055213928,-0.0273899678140878,-0.0439449995756149,0.0,0.0,-0.8904345035552979,0.2411617040634155
-0.0182424541562795,1.2709084749221802,-0.1001709103584289,-0.4670467674732208,-0.0295642092823982,-0.0434892401099205,0.0,0.0,-0.8031860589981079,-0.3593426942825317
-0.0192678458988666,1.2600953578948977,-0.100356712937355,-0.4806256890296936,-0.0317167043685913,-0.0430539846420288,0.0,0.0,-0.9377949237823486,-0.0627477765083313
-0.0202948562800884,1.2489768266677856,-0.1005429625511169,-0.4942046403884887,-0.0338484905660152,-0.042639572173357,0.0,0.0,0.3484489917755127,-0.3085380792617798
-0.0212221145629882,1.2385309934616089,-0.0909620374441146,-0.4643000066280365,-0.0355896353721618,-0.0348263196647167,0.0,0.0,-0.9916940331459044,0.0308594703674316
-0.0221510883420705,1.227779507637024,-0.091150589287281,-0.4778866767883301,-0.0373126417398452,-0.0344631597399711,0.0,0.0,-0.9422995448112488,-0.8604459762573242
-0.0231351852416992,1.2167317867279053,-0.0980429276823997,-0.4910154044628143,-0.0376695916056633,-0.0071399263106286,0.0,0.0,-0.8799565434455872,-0.4237861633300781
-0.0241209976375103,1.205378532409668,-0.0982355922460556,-0.5045941472053528,-0.038011111319065,-0.0068310089409351,0.0,0.0,-0.6460400819778442,0.2138656377792358
-0.0251086242496967,1.1937198638916016,-0.0984280854463577,-0.5181728601455688,-0.0383374840021133,-0.006528106983751,0.0,0.0,-0.5512747168540955,-0.2359182238578796
-0.0260979644954204,1.1817556619644165,-0.0986206606030464,-0.5317515730857849,-0.0386502109467983,-0.0062550837174057,0.0,0.0,-0.7454304099082947,-0.1867377758026123
-0.0270891189575195,1.1694859266281128,-0.0988134890794754,-0.5453303456306458,-0.0389504060149192,-0.0060043786652386,0.0,0.0,-0.4902087450027466,-0.4420489072799682
-0.0280825607478618,1.1568890810012815,-0.099061369895935,-0.5598621368408203,-0.0392392575740814,-0.0057768626138567,0.0,0.0,-0.3215078115463257,0.0566792488098144
-0.0290780067443847,1.143987059593201,-0.0992547273635864,-0.5734387636184692,-0.0395180061459541,-0.0055750170722603,0.0,0.0,0.0753523111343383,-0.4281211495399475
-0.0301389694213867,1.131589412689209,-0.1054249852895736,-0.551018476486206,-0.0401813350617885,-0.0132667627185583,0.0,0.0,-0.918399691581726,-0.5668790340423584
-0.0312561988830566,1.118894338607788,-0.11244847625494,-0.5642036199569702,-0.0394642055034637,0.0143423480913043,0.0,0.0,-0.8546600937843323,-0.5988954305648804
-0.0324243530631065,1.1058945655822754,-0.1187964901328086,-0.5777186155319214,-0.0375079363584518,0.0391251482069492,0.0,0.0,-0.9879427552223206,0.3786699771881103
-0.0335944183170795,1.0925893783569336,-0.1189891844987869,-0.5912954807281494,-0.0355463251471519,0.0392322763800621,0.0,0.0,-0.9470604062080384,0.8480758666992188
-0.0347081199288368,1.0789705514907837,-0.1118645220994949,-0.6052659153938293,-0.0350502394139766,0.0099216001108288,0.0,0.0,-0.6021465063095093,-0.4695330858230591
-0.0358236320316791,1.065046310424805,-0.112056590616703,-0.6188424825668335,-0.0345511026680469,0.0099826892837882,0.0,0.0,-0.9291579723358154,0.3254597187042236
-0.0369409546256065,1.050816535949707,-0.1122483015060424,-0.6324191689491272,-0.0340500473976135,0.0100212190300226,0.0,0.0,-0.94120055437088,-0.0714216232299804
-0.0380602851510047,1.0362813472747805,-0.1124396100640297,-0.6459957361221313,-0.0335481613874435,0.0100377891212701,0.0,0.0,-0.963481605052948,0.1198101043701171
-0.0391815192997455,1.021440863609314,-0.112630471587181,-0.6595723628997803,-0.0330465212464332,0.0100326407700777,0.0,0.0,-0.6502983570098877,-0.7052774429321289
-0.0403629317879676,1.006294012069702,-0.1201328486204147,-0.6731483340263367,-0.0310826618224382,0.0392770208418369,0.0,0.0,-0.83805912733078,-0.3009036779403686
-0.04154634475708,0.990841805934906,-0.1203227192163467,-0.6867253184318542,-0.0291211549192667,0.0392300933599472,0.0,0.0,-0.7056143879890442,0.557127833366394
-0.0426902770996093,0.9750884175300598,-0.1153314560651779,-0.7001275420188904,-0.0281981062144041,0.0184610374271869,0.0,0.0,-0.4185055494308471,0.0961446762084961
-0.0438361167907714,0.9590296149253844,-0.1155200600624084,-0.7137042284011841,-0.0272793751209974,0.0183746125549078,0.0,0.0,0.2787094116210937,-0.5769481062889099
-0.0451038368046283,0.9435795545578004,-0.1286692321300506,-0.6866385340690613,-0.0253968406468629,0.0376508459448814,0.0,0.0,-0.9165109395980836,0.290172815322876
-0.0463733673095703,0.9278240203857422,-0.1288563907146453,-0.7002153396606445,-0.0235204584896564,0.0375273823738098,0.0,0.0,-0.4313704967498779,-0.252418041229248
-0.0476449020206928,0.9117631316184998,-0.1290427297353744,-0.7137922048568726,-0.0216511394828557,0.0373863391578197,0.0,0.0,-0.8294654488563538,0.0062804222106933
-0.0489183440804481,0.8953967690467834,-0.1292281597852707,-0.7273690700531006,-0.0197897125035524,0.0372284278273582,0.0,0.0,-0.7299049496650696,0.5156722068786621
-0.0501557365059852,0.8787177205085754,-0.1246467232704162,-0.7412806153297424,-0.0188937745988369,0.01791887357831,0.0,0.0,-0.519437849521637,0.5517358779907227
-0.0513481125235557,0.8617261052131653,-0.1189417243003845,-0.7551815509796143,-0.0191886685788631,-0.0058979680761694,0.0,0.0,-0.6201872825622559,0.1171059608459472
-0.0525424964725971,0.8444291949272156,-0.1191239953041076,-0.7687581181526184,-0.0194937940686941,-0.0061024636961519,0.0,0.0,-0.7039204835891724,0.2340590953826904
-0.0537386909127235,0.8268267512321472,-0.1193050593137741,-0.7823348641395569,-0.0198098439723253,-0.0063210874795913,0.0,0.0,0.5793371200561523,-0.6929177641868591
-0.0551156029105186,0.8100606203079224,-0.1384621560573578,-0.7451512217521667,-0.0190422050654888,0.0153525294736027,0.0,0.0,-0.521576464176178,0.7019827365875244
-0.0564408302307128,0.7929854393005371,-0.1319186389446258,-0.7589031457901001,-0.0196339953690767,-0.0118358293548226,0.0,0.0,-0.485279381275177,-0.1421590447425842
-0.0577678680419921,0.7756047248840332,-0.1320953667163849,-0.772479772567749,-0.0202386584132909,-0.0120930261909961,0.0,0.0,-0.0087532997131347,0.5372451543807983
-0.0590582862496376,0.7579211592674255,-0.1274418532848358,-0.7859621644020081,-0.021822802722454,-0.0316829644143581,0.0,0.0,0.8393677473068237,0.2326552867889404
-0.0602181442081928,0.740670382976532,-0.1149354353547096,-0.7667187452316284,-0.0228579584509134,-0.0207029040902853,0.0,0.0,0.1774947643280029,0.4099383354187011
-0.0613645538687706,0.7239665389060974,-0.1135883331298828,-0.7424071431159973,-0.0238970648497343,-0.0207823477685451,0.0,0.0,-0.2941681742668152,-0.0657093524932861
-0.0625127777457237,0.7069573402404785,-0.1137574464082717,-0.7559839487075806,-0.0249511674046516,-0.0210817791521549,0.0,0.0,0.0923362970352172,0.2326481342315673
-0.0637182220816612,0.6901120543479919,-0.1191656962037086,-0.7486975789070129,-0.0263129398226737,-0.0272352844476699,0.0,0.0,0.4599392414093017,0.323946475982666
-0.0648238211870193,0.6740142703056335,-0.1095587611198425,-0.7154778838157654,-0.0273062717169523,-0.0198665373027324,0.0,0.0,-0.4839116930961609,0.517491340637207
-0.0658809691667556,0.6576110124588013,-0.1034027338027954,-0.729076087474823,-0.0295807663351297,-0.0454902313649654,0.0,0.0,-0.0164210796356201,0.2636507749557495
-0.0669397339224815,0.6409024596214294,-0.1035614609718322,-0.7426530122756958,-0.0318718776106834,-0.0458220914006233,0.0,0.0,0.3013151884078979,0.7277758121490479
-0.0679901093244552,0.6248230934143066,-0.1011345833539962,-0.7147192358970642,-0.0357212945818901,-0.0769883468747139,0.0,0.0,-0.4096753597259521,-0.4166993498802185
-0.0690421089529991,0.6084387302398682,-0.101286806166172,-0.7282971739768982,-0.0395879410207271,-0.0773330479860305,0.0,0.0,-0.012288749217987,0.3193992376327514
-0.0700958222150802,0.5917489528656006,-0.1014353781938552,-0.7418750524520874,-0.0434721186757087,-0.0776834115386009,0.0,0.0,0.2258138656616211,0.1198687553405761
-0.0710428208112716,0.5753230452537537,-0.0911847725510597,-0.7301489114761353,-0.0469501726329326,-0.06956098228693,0.0,0.0,0.7795858383178711,0.8250195980072021
-0.0718672722578048,0.5595757365226746,-0.0773000866174697,-0.7000472545623779,-0.0520344711840152,-0.1016860753297805,0.0,0.0,0.1305030584335327,-0.2724791765213012
-0.0726737007498741,0.5439339280128479,-0.0754990354180336,-0.6953824758529663,-0.0571122244000434,-0.1015553101897239,0.0,0.0,0.7856733798980713,0.1871837377548217
-0.0735786408185958,0.5289550423622131,-0.0847138017416,-0.6659594178199768,-0.0628273710608482,-0.1143027544021606,0.0,0.0,-0.3461120128631592,0.0921950340270996
-0.0744849219918251,0.5136711597442627,-0.0848396569490432,-0.6795387268066406,-0.0685610473155975,-0.1146737113595008,0.0,0.0,0.8729650974273682,-0.263664960861206
-0.0752771347761154,0.4985687434673309,-0.0738387480378151,-0.6714728474617004,-0.0738829523324966,-0.1064381599426269,0.0,0.0,0.9115030765533448,-0.1262264847755432
-0.0759665518999099,0.4846352636814117,-0.0636862367391586,-0.6195316314697266,-0.0790790170431137,-0.1039212495088577,0.0,0.0,-0.6920783519744873,-0.2583132982254028
-0.0766571015119552,0.4703968167304992,-0.0637941733002662,-0.633110761642456,-0.0842939838767051,-0.1042993441224098,0.0,0.0,-0.8087887167930603,-0.8733333349227905
-0.0774279609322547,0.4558667540550232,-0.0738337635993957,-0.6459673643112183,-0.0875216647982597,-0.0645538493990898,0.0,0.0,0.4974778890609741,0.1410213708877563
-0.0781228989362716,0.441870629787445,-0.0663475766777992,-0.6222375631332397,-0.0906394273042678,-0.0623552426695823,0.0,0.0,0.6315256357192993,0.0111051797866821
-0.0788700133562088,0.4288322925567627,-0.0709578245878219,-0.5797119140625,-0.0943647772073745,-0.0745068043470382,0.0,0.0,-0.151476502418518,-0.3963513374328613
-0.0796181708574295,0.4154887199401855,-0.0710363760590553,-0.5932897925376892,-0.0981091931462287,-0.0748884826898574,0.0,0.0,0.502255916595459,0.3745218515396118
-0.080362893640995,0.4023752808570862,-0.070530317723751,-0.5830835103988647,-0.1020145118236541,-0.0781065672636032,0.0,0.0,0.4882129430770874,0.3017829656600952
-0.0810175910592079,0.3893841505050659,-0.0618009865283966,-0.577638566493988,-0.105655550956726,-0.0728208571672439,0.0,0.0,0.1507048606872558,-0.983918070793152
-0.0817520171403884,0.3764470517635345,-0.0717400833964347,-0.5751070380210876,-0.1073559299111366,-0.0340073928236961,0.0,0.0,0.8031504154205322,0.3967956304550171
-0.0824034661054611,0.3644969761371612,-0.0633701384067535,-0.5312411785125732,-0.1091175079345703,-0.0352316573262214,0.0,0.0,-0.375461220741272,-0.5815747380256653
-0.0830946937203407,0.352253794670105,-0.0683396756649017,-0.5441980361938477,-0.1098898276686668,-0.0154463052749633,0.0,0.0,0.2553367614746094,-0.0723305344581604
-0.0838028937578201,0.3406451940536499,-0.0696290284395217,-0.5160283446311951,-0.1110753864049911,-0.0237111113965511,0.0,0.0,-0.204927384853363,-0.1978922486305236
-0.0845114737749099,0.3287311196327209,-0.0696432441473007,-0.5296052098274231,-0.1122795864939689,-0.0240841843187809,0.0,0.0,0.2856546640396118,0.7443926334381104
-0.0850571617484092,0.3174193501472473,-0.0518925003707408,-0.5029498338699341,-0.1149391308426857,-0.0531910955905914,0.0,0.0,0.3134369850158691,-0.8489319682121277
-0.0857084244489669,0.3065111935138702,-0.0640492811799049,-0.4848898947238922,-0.1160107478499412,-0.0214321482926607,0.0,0.0,-0.6675822138786316,0.7688822746276855
-0.0863045677542686,0.2952912747859955,-0.0571145638823509,-0.49885955452919,-0.1184939220547676,-0.0496637150645256,0.0,0.0,-0.1751824021339416,0.4318355321884155
-0.0869006142020225,0.2837660014629364,-0.0570885017514228,-0.5124368071556091,-0.1209950968623161,-0.0500233359634876,0.0,0.0,0.288080096244812,-0.8261643052101135
-0.0874296203255653,0.2726086378097534,-0.0521069392561912,-0.4959456026554107,-0.1217891797423362,-0.015881584957242,0.0,0.0,-0.4602190256118774,0.1506540775299072
-0.0879584327340126,0.2611458897590637,-0.0520609244704246,-0.5095223784446716,-0.1226007938385009,-0.016232306137681,0.0,0.0,-0.0457106232643127,-0.9422497749328612
-0.0885499939322471,0.2493823617696762,-0.0599170923233032,-0.522758424282074,-0.1218414455652237,0.015186958014965,0.0,0.0,0.2766227722167969,-0.7243736982345581
-0.0890175849199295,0.2379574328660965,-0.0491287857294082,-0.5075826048851013,-0.1194805800914764,0.0472170487046241,0.0,0.0,0.8824900388717651,-0.1364867687225341
-0.0892732590436935,0.2268680483102798,-0.0286649223417043,-0.4926178753376007,-0.1164017021656036,0.0615773499011993,0.0,0.0,0.4171986579895019,-0.0597165822982788
-0.0894581824541091,0.2164342552423477,-0.0215557720512151,-0.4634881317615509,-0.1133617535233497,0.060798842459917,0.0,0.0,0.0149933099746704,0.0641648769378662
-0.0895708054304122,0.2063864022493362,-0.0143910096958279,-0.4463338851928711,-0.1102499812841415,0.0622354745864868,0.0,0.0,-0.1811593770980835,0.2062925100326538
-0.0896825790405273,0.1960332989692688,-0.0142914373427629,-0.4599114060401916,-0.1071539744734764,0.0619202777743339,0.0,0.0,0.3445392847061157,-0.3299534916877746
-0.0896833389997482,0.1857579350471496,-0.0035637617111206,-0.4564375877380371,-0.1036936789751052,0.0692056268453598,0.0,0.0,0.7091836929321289,0.469356894493103
-0.0896826758980751,0.175971582531929,-0.0031479191966354,-0.4347250163555145,-0.1004999056458473,0.063875712454319,0.0,0.0,-0.0815880298614502,0.3505779504776001
-0.08968086540699,0.1658800393342971,-0.003026372520253,-0.4483025372028351,-0.0973207652568817,0.0635828748345375,0.0,0.0,0.5552706718444824,0.6446117162704468
-0.0895989388227462,0.1562787443399429,0.0063500166870653,-0.4266044199466705,-0.09549281001091,0.0365591794252395,0.0,0.0,0.6836133003234863,-0.5446224212646484
-0.0896161049604415,0.1476131230592727,-0.004279542248696,-0.3849802613258362,-0.0929537340998649,0.0507815666496753,0.0,0.0,-0.6437660455703735,0.0668288469314575
-0.0896320343017578,0.1386420279741287,-0.0041396361775696,-0.3985574841499328,-0.0904280468821525,0.0505137033760547,0.0,0.0,0.0267554521560668,0.5502727031707764
-0.0895978957414627,0.1300652623176574,0.0020417049527168,-0.381109356880188,-0.0890671014785766,0.0272189229726791,0.0,0.0,0.4266986846923828,0.4351270198822021
-0.0895759612321853,0.1221585348248481,0.0011632803361862,-0.3513453602790832,-0.0880491584539413,0.020359007641673,0.0,0.0,-0.5653624534606934,-0.7440590858459473
-0.0896138176321983,0.1139521896839141,-0.0063600316643714,-0.3645808398723602,-0.0855002254247665,0.0509786717593669,0.0,0.0,0.615131139755249,0.334897518157959
-0.0897136703133583,0.1063335761427879,-0.0120093971490859,-0.3384868800640106,-0.0834904387593269,0.0401957929134368,0.0,0.0,0.3638402223587036,0.6524720191955566
-0.0898611098527908,0.0990651473402977,-0.0152030810713768,-0.3230174779891968,-0.0830419063568115,0.008970970287919,0.0,0.0,0.3111692667007446,0.8534486293792725
-0.0897965431213378,0.0923283696174621,0.0076398896053433,-0.2994751930236816,-0.0842129066586494,-0.0234201420098543,0.0,0.0,-0.1077990531921386,0.2618615627288818
-0.0897303596138954,0.0852862447500228,0.0078096813522279,-0.3130519688129425,-0.0853940248489379,-0.0236221738159656,0.0,0.0,0.4078881740570068,-0.6443182826042175
-0.0895221680402755,0.0789043754339218,0.0204577501863241,-0.2836166024208069,-0.0850369781255722,0.0071409801021218,0.0,0.0,-0.2028096914291381,-0.1569364070892334
-0.0893123596906662,0.0722170919179916,0.0206333603709936,-0.2971931993961334,-0.0846890360116958,0.0069588469341397,0.0,0.0,0.5459069013595581,0.4209506511688232
-0.088900089263916,0.0664024204015731,0.0402576439082622,-0.2583746016025543,-0.0837321206927299,0.0191382896155118,0.0,0.0,-0.1180125474929809,0.5400564670562744
-0.0884381309151649,0.0602762550115585,0.0464595183730125,-0.2722860276699066,-0.0839955508708953,-0.0052684396505355,0.0,0.0,0.4376313686370849,-0.3163481950759887
-0.0879210457205772,0.0549074746668338,0.0520091541111469,-0.2386317402124405,-0.0842956230044364,-0.006001257803291,0.0,0.0,-0.2701296806335449,0.2184439897537231
-0.0874021500349044,0.0492331348359584,0.0521936900913715,-0.2522083520889282,-0.0846027880907058,-0.0061434032395482,0.0,0.0,0.1979694366455078,0.6148953437805176
-0.086740493774414,0.0437328182160854,0.0676202550530433,-0.2445406168699264,-0.0860362276434898,-0.0286689512431621,0.0,0.0,0.0978416204452514,-0.0276392698287963
-0.0861226096749305,0.0385515801608562,0.0636217147111892,-0.2303839474916458,-0.0878517925739288,-0.0363113656640052,0.0,0.0,0.3527717590332031,0.2222745418548584
-0.0855705291032791,0.0337085090577602,0.0575310960412025,-0.2153840661048889,-0.0901592224836349,-0.0461485646665096,0.0,0.0,-0.0963536500930786,0.0250802040100097
-0.085016630589962,0.0285601001232862,0.0577217638492584,-0.22896109521389,-0.0924718230962753,-0.0462517216801643,0.0,0.0,0.5384373664855957,-0.1340754032135009
-0.0843909233808517,0.0238448474556207,0.0647969916462898,-0.2097057998180389,-0.0946772620081901,-0.0441090427339077,0.0,0.0,0.3358345031738281,0.1690510511398315
-0.083630658686161,0.0192433930933475,0.0777591317892074,-0.2046205103397369,-0.0963984876871109,-0.0344245769083499,0.0,0.0,0.549376368522644,0.5179190635681152
-0.0826683044433593,0.0152761554345488,0.0987615585327148,-0.1764865666627884,-0.0988994389772415,-0.0500189661979675,0.0,0.0,0.2581757307052612,-0.2817963361740112
-0.0816243141889572,0.0119176004081964,0.1068340167403221,-0.1494309604167938,-0.1013154610991478,-0.0483206585049629,0.0,0.0,0.3737905025482178,-0.6903613805770874
