x_pos,y_pos,x_vel,y_vel,angle,ang_vel,leg_1,leg_2,main_booster,lat_booster
-0.0015027045737951,1.402929663658142,-0.1522563397884369,-0.3551352620124817,0.001783275976777,0.0351785309612751,0.0,0.0,-0.6689583659172058,0.7645976543426514
-0.0029199600685387,1.394263744354248,-0.141861230134964,-0.3851482570171356,0.0019084439845755,0.0025042835623025,0.0,0.0,0.303263783454895,0.7483909130096436
-0.0041415216401219,1.3853754997253418,-0.1209885329008102,-0.3950280249118805,0.0007647307356819,-0.0228764675557613,0.0,0.0,-0.5507663488388062,0.0999954938888549
-0.0053445817902684,1.375792384147644,-0.1191931515932083,-0.4259203970432281,-0.0003431797667872,-0.0221604276448488,0.0,0.0,0.5667176246643066,-0.054233968257904
-0.006408023647964,1.36644184589386,-0.1058476939797401,-0.4155795872211456,-0.000826958566904,-0.0096764219924807,0.0,0.0,-0.4485564231872558,0.2763466835021972
-0.0074553489685058,1.356396198272705,-0.1042827367782592,-0.4464719891548157,-0.0012697185156866,-0.0088560534641146,0.0,0.0,-0.1198073029518127,0.8252744674682617
-0.008425235748291,1.3456556797027588,-0.0949960723519325,-0.4773596823215484,-0.0032408700790256,-0.0394266359508037,0.0,0.0,-0.5871440768241882,0.2137560844421386
-0.0093815801665186,1.334220290184021,-0.0936753526329994,-0.5082446336746216,-0.005164795089513,-0.0384824946522712,0.0,0.0,0.8404710292816162,0.0130350589752197
-0.0103341098874807,1.323488473892212,-0.0932847261428833,-0.4769782721996307,-0.0071046091616153,-0.0388001278042793,0.0,0.0,-0.18980073928833,0.1473195552825927
-0.0112754823639988,1.3120615482330322,-0.0922339707612991,-0.5078746676445007,-0.0089940745383501,-0.0377927049994468,0.0,0.0,-0.2715265154838562,-0.5616046786308289
-0.0122452732175588,1.299940824508667,-0.096083365380764,-0.5387080907821655,-0.0098779983818531,-0.0176802538335323,0.0,0.0,0.4304924011230469,-0.6083022952079773
-0.01318359375,1.2878094911575315,-0.0943521335721015,-0.5391616821289062,-0.0093554304912686,0.0104522770270705,0.0,0.0,0.0667198896408081,-0.0742206573486328
-0.0140268327668309,1.275659441947937,-0.0853149518370628,-0.5399946570396423,-0.0083822887390851,0.0194644127041101,0.0,0.0,-0.3846185207366943,-0.2142069339752197
-0.014865112490952,1.2628146409988403,-0.0848695114254951,-0.5708826184272766,-0.0073551521636545,0.0205447059124708,0.0,0.0,0.1623250246047973,-0.8550228476524353
-0.0156481750309467,1.2501530647277832,-0.0811812728643417,-0.5627222061157227,-0.0045066284947097,0.0569756738841533,0.0,0.0,-0.8090589642524719,-0.6518101096153259
-0.0164715759456157,1.2367892265319824,-0.0863475129008293,-0.5939390659332275,-0.0005470843752846,0.0791982859373092,0.0,0.0,-0.7841885685920715,-0.1564425826072693
-0.0172950737178325,1.2227306365966797,-0.0864019840955734,-0.6248222589492798,0.0034660829696804,0.0802705213427543,0.0,0.0,-0.5107967257499695,0.447890043258667
-0.0181202888488769,1.2079776525497437,-0.086627073585987,-0.6557070016860962,0.0075324778445065,0.0813348963856697,0.0,0.0,-0.400369644165039,0.3851211071014404
-0.0189488418400287,1.1925299167633057,-0.087025947868824,-0.6865934133529663,0.011650962755084,0.0823771879076957,0.0,0.0,-0.0510060787200927,0.7095377445220947
-0.0197340957820415,1.1763877868652344,-0.0815091133117675,-0.7174480557441711,0.014599815942347,0.0589823052287101,0.0,0.0,-0.5305023789405823,0.1774051189422607
-0.0205264091491699,1.159551024436951,-0.0822579488158226,-0.7483341097831726,0.0175987053662538,0.0599832832813262,0.0,0.0,0.1934959888458252,0.1731222867965698
-0.0213246345520019,1.1424989700317385,-0.0829417705535888,-0.7579056024551392,0.0206844359636306,0.0617201253771781,0.0,0.0,0.3554067611694336,0.5245398283004761
-0.0219857208430767,1.1254262924194336,-0.0685017704963684,-0.7588270902633667,0.0230436753481626,0.0471891723573207,0.0,0.0,0.4166829586029053,0.6855943202972412
-0.0225449558347463,1.1080564260482788,-0.0570952892303466,-0.7720109820365906,0.0242037866264581,0.0232042707502841,0.0,0.0,0.0519052743911743,0.065529465675354
-0.0232187267392873,1.0906028747558594,-0.0681684166193008,-0.7757254242897034,0.0249854996800422,0.0156359001994133,0.0,0.0,0.8621225357055664,0.0885084867477417
-0.0240922924131155,1.073616862297058,-0.0874110013246536,-0.7549374103546143,0.0250447951257228,0.0011857567587867,0.0,0.0,0.2815732955932617,-0.6724385619163513
-0.0250476840883493,1.0567833185195925,-0.0969998985528945,-0.7481843829154968,0.0264801532030105,0.0287072863429784,0.0,0.0,0.6283237934112549,0.1742441654205322
-0.0261731147766113,1.0404694080352783,-0.1134235113859176,-0.7250769138336182,0.0273496732115745,0.0173904579132795,0.0,0.0,-0.7912091016769409,0.3444567918777466
-0.027320098131895,1.0234607458114624,-0.1156004294753074,-0.75596022605896,0.0282448511570692,0.0179033316671848,0.0,0.0,-0.1808761954307556,0.4817837476730346
-0.0284903533756732,1.0057570934295654,-0.1179513484239578,-0.786843478679657,0.0291609745472669,0.0183226745575666,0.0,0.0,-0.1801701784133911,0.6489126682281494
-0.0296328552067279,0.98736834526062,-0.1138465255498886,-0.8172724843025208,0.0287614371627569,-0.0079907113686203,0.0,0.0,0.981653332710266,0.1731306314468383
-0.0309104919433593,0.969068706035614,-0.1269370019435882,-0.8132978677749634,0.0279407706111669,-0.0164132453501224,0.0,0.0,0.6345877647399902,-0.0189326405525207
-0.032320499420166,0.9512600898742676,-0.1397880613803863,-0.7914727330207825,0.0267469864338636,-0.0238758157938718,0.0,0.0,-0.2665114402770996,-0.0596817731857299
-0.0337606444954872,0.9327566027641296,-0.1428031623363495,-0.8223560452461243,0.0255519226193428,-0.0239011719822883,0.0,0.0,0.5836489200592041,-0.680011510848999
-0.0352847091853618,0.9144598841667176,-0.1525929719209671,-0.8131943941116333,0.0257370416074991,0.0037021799944341,0.0,0.0,-0.5516188144683838,0.4171459674835205
-0.036842156201601,0.8954681754112244,-0.1559162586927414,-0.8440776467323303,0.0259077381342649,0.0034138124901801,0.0,0.0,0.4558231830596924,0.8672645092010498
-0.0384023673832416,0.8763803839683533,-0.1543866842985153,-0.8483158349990845,0.0243006162345409,-0.0321425050497055,0.0,0.0,0.977082133293152,0.6246836185455322
-0.0399230942130088,0.8579721450805664,-0.1492836773395538,-0.8180984854698181,0.0215539205819368,-0.0549339540302753,0.0,0.0,0.5673595666885376,-0.4323290586471557
-0.0415360443294048,0.8400668501853943,-0.1583110094070434,-0.7957547903060913,0.0185979902744293,-0.0591186769306659,0.0,0.0,-0.9570580720901488,-0.4568933248519897
-0.0431883819401264,0.8214668035507202,-0.1621926128864288,-0.8266386389732361,0.0155976181849837,-0.0600073859095573,0.0,0.0,0.993849754333496,0.2919704914093017
-0.0450248718261718,0.8035780787467957,-0.1799440681934356,-0.7950133085250854,0.0119484830647706,-0.072982832789421,0.0,0.0,-0.609062135219574,0.6291481256484985
-0.0468431487679481,0.7849946022033691,-0.1765454411506652,-0.8259007930755615,0.0067307287827134,-0.1043550223112106,0.0,0.0,0.8912016153335571,0.1651293039321899
-0.0485958084464073,0.7662562131881714,-0.1704312562942505,-0.8328060507774353,0.0019576700869947,-0.0954613983631134,0.0,0.0,0.8783445358276367,0.7059392929077148
-0.0502161011099815,0.7477239370346069,-0.1559784114360809,-0.8236639499664307,-0.0040071737021207,-0.1192969307303428,0.0,0.0,-0.1713371872901916,-0.1591358780860901
-0.0518817901611328,0.7284971475601196,-0.1604401469230651,-0.8545501828193665,-0.0100597878918051,-0.1210522800683975,0.0,0.0,0.9275057315826416,-0.1126356124877929
-0.0535365119576454,0.7091599106788635,-0.1595002561807632,-0.8594821691513062,-0.0159615222364664,-0.1180349141359329,0.0,0.0,0.9680740833282472,0.1608095169067382
-0.0551578514277935,0.6899251341819763,-0.1563804447650909,-0.8549568057060242,-0.0216335803270339,-0.1134411543607711,0.0,0.0,0.980648398399353,-0.6320340037345886
-0.0569999702274799,0.671507716178894,-0.1792375743389129,-0.8186264634132385,-0.0265529528260231,-0.098387598991394,0.0,0.0,0.9776039123535156,0.7795333862304688
-0.058977223932743,0.6538220047950745,-0.1906485557556152,-0.7861735224723816,-0.0335409343242645,-0.1397595256567001,0.0,0.0,0.1908425092697143,0.9151732921600342
-0.0609380714595317,0.6359866857528687,-0.1870269626379013,-0.7929145097732544,-0.0424917079508304,-0.179015576839447,0.0,0.0,0.4555559158325195,0.9103264808654784
-0.062713623046875,0.6181976795196533,-0.1666613519191742,-0.7909640073776245,-0.0532457157969474,-0.2150801718235016,0.0,0.0,-0.032832384109497,-0.8218023777008057
-0.0646121054887771,0.5997264981269836,-0.180631011724472,-0.8212970495223999,-0.062362041324377,-0.1823266446590423,0.0,0.0,0.9860397577285768,-0.27253258228302
-0.0663991943001747,0.5813494324684143,-0.1699260771274566,-0.8171497583389282,-0.0710354819893837,-0.1734685897827148,0.0,0.0,0.9580382108688354,-0.221282422542572
-0.0681688338518142,0.5636926889419556,-0.168045088648796,-0.7851905822753906,-0.0798662900924682,-0.1766165792942047,0.0,0.0,0.7780624628067017,-0.0980235338211059
-0.0697911232709884,0.5461077094078064,-0.1538727432489395,-0.7820237874984741,-0.0881400853395462,-0.1654755771160125,0.0,0.0,0.9976156949996948,-0.4733167886734009
-0.071533203125,0.5286955237388611,-0.1651325076818466,-0.7744333744049072,-0.0971428900957107,-0.1800560057163238,0.0,0.0,0.927171230316162,-0.6618292927742004
-0.0731751471757888,0.5119741559028625,-0.156549260020256,-0.7436875104904175,-0.1047272607684135,-0.1516872346401214,0.0,0.0,0.8496717214584351,-0.753386914730072
-0.074686050415039,0.4956713020801544,-0.1451297402381897,-0.7250036597251892,-0.1106516420841217,-0.1184879168868064,0.0,0.0,0.964003562927246,-0.1334909796714782
-0.0760574340820312,0.4801187217235565,-0.1313580274581909,-0.6916642785072327,-0.116388663649559,-0.1147406473755836,0.0,0.0,0.8479418754577637,-0.1873369216918945
-0.077468492090702,0.4651964008808136,-0.1347098350524902,-0.6637258529663086,-0.1227527037262916,-0.1272807270288467,0.0,0.0,-0.1495693922042846,0.0960863828659057
-0.0789373368024826,0.4495802223682403,-0.14024618268013,-0.694614827632904,-0.1293588727712631,-0.1321232616901397,0.0,0.0,0.7898762226104736,-0.8051477670669556
-0.0805474296212196,0.4344398975372314,-0.1554953902959823,-0.6733905076980591,-0.1348410546779632,-0.1096435636281967,0.0,0.0,0.2782021760940552,0.4211724996566772
-0.0820674896240234,0.4191809892654419,-0.1466974765062332,-0.6786629557609558,-0.1401413679122924,-0.1060063987970352,0.0,0.0,0.8766182661056519,-0.5045290589332581
-0.0835608467459678,0.4042653441429138,-0.1448430866003036,-0.6633476614952087,-0.1446174383163452,-0.0895210057497024,0.0,0.0,0.6192562580108643,-0.6429833173751831
-0.0850995033979415,0.3892431855201721,-0.1504077017307281,-0.6679918169975281,-0.1480689793825149,-0.06903076171875,0.0,0.0,0.6960432529449463,-0.7918957471847534
-0.0868086814880371,0.3744722306728363,-0.1685035973787307,-0.6567302346229553,-0.1504845172166824,-0.0483107976615428,0.0,0.0,0.5730996131896973,0.4318878650665283
-0.0884357467293739,0.3602109551429748,-0.160079687833786,-0.6341022253036499,-0.1530992090702057,-0.0522942133247852,0.0,0.0,0.1378995180130005,0.6591182947158813
-0.089978888630867,0.3455199599266052,-0.1501546949148178,-0.6533688306808472,-0.1572567522525787,-0.0831509456038475,0.0,0.0,0.706820011138916,-0.6270231604576111
-0.09146299213171,0.3314531743526459,-0.1452757865190506,-0.6255258321762085,-0.1603916585445404,-0.0626976937055587,0.0,0.0,0.7528053522109985,-0.1069673895835876
-0.0930264443159103,0.3174599111080169,-0.1524337381124496,-0.622350811958313,-0.1643048971891403,-0.0782647207379341,0.0,0.0,0.7689895629882812,-0.174881100654602
-0.0946295708417892,0.3038696944713592,-0.1556216031312942,-0.6045348644256592,-0.1689965426921844,-0.0938328355550766,0.0,0.0,0.7399744987487793,0.2307429313659668
-0.0961519256234169,0.2905466854572296,-0.1473715305328369,-0.5926974415779114,-0.1738687753677368,-0.0974446684122085,0.0,0.0,0.6586027145385742,0.4077298641204834
-0.0977166146039962,0.2778160572052002,-0.1506774127483368,-0.5664957761764526,-0.1796763390302658,-0.1161513328552246,0.0,0.0,0.744773268699646,0.047998309135437
-0.0991578102111816,0.2652710676193237,-0.1383480727672577,-0.5582658648490906,-0.1854683309793472,-0.1158399358391761,0.0,0.0,0.688395619392395,0.1321817636489868
-0.100621223449707,0.252631276845932,-0.1400648802518844,-0.5625656247138977,-0.1917692273855209,-0.126018077135086,0.0,0.0,0.5568974018096924,-0.1903971433639526
-0.1020253151655197,0.2397308498620987,-0.1341006308794021,-0.5741865038871765,-0.1981290876865387,-0.1271968632936477,0.0,0.0,0.9219298362731934,0.2313045263290405
-0.1034502014517784,0.2267285734415054,-0.1356428116559982,-0.5788103938102722,-0.2050199508666992,-0.1378171741962433,0.0,0.0,0.9933207035064696,-0.4362456798553467
-0.1047524437308311,0.2144415527582168,-0.1229872554540634,-0.547109842300415,-0.2123238891363144,-0.1460784971714019,0.0,0.0,0.987572193145752,-0.5541276335716248
-0.1058525070548057,0.2028873711824417,-0.1038141623139381,-0.5144254565238953,-0.2185831367969513,-0.1251854002475738,0.0,0.0,0.8988518714904785,-0.8313045501708984
-0.1070121750235557,0.1920907348394394,-0.1107844710350036,-0.480627566576004,-0.22382353246212,-0.1048076748847961,0.0,0.0,0.9531251192092896,-0.8936066627502441
-0.1083818450570106,0.1812437325716018,-0.1328616142272949,-0.4827136695384979,-0.2279728055000305,-0.0829857662320137,0.0,0.0,0.9727493524551392,-0.0661074519157409
-0.1095540076494216,0.1710662245750427,-0.112961009144783,-0.452999085187912,-0.232284665107727,-0.0862372443079948,0.0,0.0,0.95721435546875,-0.8154582977294922
-0.1108221039175987,0.1612577736377716,-0.1235171407461166,-0.4364551603794098,-0.2356204688549041,-0.0667165145277977,0.0,0.0,0.95023775100708,-0.5223881602287292
-0.1120725646615028,0.1519632488489151,-0.1222140938043594,-0.4135440289974212,-0.238497644662857,-0.0575435943901538,0.0,0.0,0.9186817407608032,-0.8046460151672363
-0.1132698059082031,0.1431906968355178,-0.1180786341428756,-0.3901598751544952,-0.2401769757270813,-0.0335863009095191,0.0,0.0,0.8723710775375366,-0.7623956799507141
-0.1143272370100021,0.1346684247255325,-0.1054389849305152,-0.3788169026374817,-0.240483820438385,-0.0061369179747998,0.0,0.0,0.7647223472595215,-0.3813118934631347
-0.1153359413146972,0.1259762197732925,-0.1002904772758483,-0.3864175379276275,-0.2410774379968643,-0.0118723353371024,0.0,0.0,0.9282937049865724,-0.3766643404960632
-0.1161902397871017,0.1172362193465232,-0.0849481076002121,-0.388527899980545,-0.2415771335363388,-0.0099939908832311,0.0,0.0,0.977059841156006,-0.7300659418106079
-0.1168154701590538,0.1087500676512718,-0.0635229498147964,-0.3769965171813965,-0.2405586987733841,0.0203685201704502,0.0,0.0,0.9610874652862548,0.1729145050048828
-0.1172314658761024,0.1001932471990585,-0.042939219623804,-0.3800823986530304,-0.2391872406005859,0.0274291988462209,0.0,0.0,0.988023281097412,0.0311627388000488
-0.1175025925040245,0.0922626331448555,-0.0280317217111587,-0.3523207008838653,-0.2382621765136718,0.0185014717280864,0.0,0.0,0.875241756439209,-0.7872429490089417
-0.1176555603742599,0.0849077329039573,-0.01744170114398,-0.326536625623703,-0.2360798865556717,0.0436457321047782,0.0,0.0,0.951223611831665,-0.802864670753479
-0.1175923347473144,0.0779774039983749,0.00265424977988,-0.307433158159256,-0.23234923183918,0.0746127814054489,0.0,0.0,0.8341934680938721,-0.4802210330963135
-0.1173992156982421,0.0708439424633979,0.0155372451990842,-0.31645268201828,-0.2285216450691223,0.0765517204999923,0.0,0.0,0.8126633167266846,-0.3597373962402344
-0.1171980872750282,0.0638528913259506,0.0170093365013599,-0.3102359771728515,-0.2253834158182144,0.0627645105123519,0.0,0.0,0.7218244075775146,-0.6313918232917786
-0.116812989115715,0.057475171983242,0.0343413352966308,-0.2828218340873718,-0.2211620956659317,0.0844263210892677,0.0,0.0,0.9139604568481444,-0.0703001022338867
-0.1163717284798622,0.0513778291642665,0.0404933653771877,-0.2704533636569977,-0.2174912691116333,0.0734165087342262,0.0,0.0,0.8745561838150024,0.2164200544357299
-0.1159356087446212,0.0459546893835067,0.0410502068698406,-0.2406538128852844,-0.2149002254009246,0.0518207773566246,0.0,0.0,0.8170950412750244,-0.7510431408882141
-0.1153530105948448,0.0409521199762821,0.0543935224413871,-0.2217796593904495,-0.2109982669353485,0.0780390873551368,0.0,0.0,0.8431695699691772,-0.1543613672256469
-0.1147150993347168,0.0365025140345096,0.0606230422854423,-0.1973130851984024,-0.2078011482954025,0.0639424547553062,0.0,0.0,0.8289929628372192,-0.4176708459854126
-0.1140570640563964,0.0326042994856834,0.0634751394391059,-0.1729296892881393,-0.2054568827152252,0.0468852296471595,0.0,0.0,0.8137011528015137,-0.5612757802009583
-0.113420769572258,0.0288358312100172,0.0606914982199668,-0.1670805811882019,-0.2024950385093689,0.0592373013496398,0.0,0.0,0.3289327621459961,-0.2278451323509216
-0.1128398925065994,0.0251128524541854,0.0560091249644756,-0.165181502699852,-0.2003973424434662,0.0419540330767631,0.0,0.0,0.8210828304290771,-0.3656373023986816
-0.112366959452629,0.0215943679213523,0.0463927797973156,-0.1562572568655014,-0.1994971930980682,0.0180031731724739,0.0,0.0,0.8373253345489502,-0.6647006273269653
-0.1116444617509841,0.0193677768111228,0.0518666692078113,-0.096376433968544,-0.1789361387491226,0.4113236367702484,1.0,0.0,0.1988193988800048,-0.1300421953201294
-0.1108227744698524,0.0169020034372806,0.0599456839263439,-0.1070805341005325,-0.1566294878721237,0.4462141990661621,1.0,0.0,0.4105851650238037,-0.0834244489669799
-0.1097617149353027,0.0147606702521443,0.0812457725405693,-0.0927641689777374,-0.131768450140953,0.4973060190677643,1.0,0.0,0.2414537668228149,-0.3996660709381103
-0.1086472496390342,0.0127933593466877,0.086917407810688,-0.0854521691799163,-0.1073814630508422,0.4877391457557678,1.0,0.0,-0.0403963327407836,-0.0364261865615844
-0.1075322180986404,0.0101389745250344,0.0869083404541015,-0.1163849532604217,-0.0829954668879509,0.4877204298973083,1.0,0.0,0.3785582780838012,-0.1633294820785522
-0.1063132286071777,0.0075127338059246,0.0969587117433548,-0.1155219748616218,-0.0583156421780586,0.4935967326164245,1.0,0.0,0.2348387241363525,-0.2319303154945373
-0.10506372153759,0.0051140165887773,0.0999990552663803,-0.1058221608400344,-0.0336612090468406,0.4930891096591949,0.0,0.0,0.8362685441970825,0.7548794746398926
-0.1037111282348632,0.0033403253182768,0.1120911613106727,-0.0784685164690017,-0.0107768308371305,0.4576880037784576,0.0,0.0,0.3030141592025757,0.3875956535339355
-0.1023502349853515,0.0014200424775481,0.1130433306097984,-0.0853344574570655,0.0119718266651034,0.454973042011261,0.0,0.0,0.3784533739089966,0.212001085281372
-0.1011564284563064,-0.0004165554128121,0.0972555428743362,-0.0819486230611801,0.0338196791708469,0.43695729970932,0.0,1.0,-0.2530360221862793,0.9411053657531738
-0.1000530272722244,-0.0025275612715631,0.1031855195760726,-0.0941904634237289,0.0398403592407703,0.1190787702798843,0.0,1.0,-0.1262086033821106,0.8260945081710815
-0.099058911204338,-0.0047619487158954,0.1131981387734413,-0.0990064144134521,0.0261824894696474,-0.2732110619544983,0.0,1.0,0.1600039005279541,-0.089612066745758
-0.0981905907392501,-0.0059496667236089,0.1012495383620262,-0.0526148341596126,0.0119662592187523,-0.2843040525913238,1.0,1.0,0.0233981609344482,-0.8181490898132324
-0.0973868370056152,-0.00638611568138,0.0921434164047241,-0.0193603746592998,0.0003693298785947,-0.2319197356700897,1.0,1.0,-0.3458800315856933,-0.9598783254623412
-0.0967277511954307,-0.0064313197508454,0.0741702020168304,-0.0020383368246257,-0.0077751711942255,-0.1628749817609787,1.0,1.0,-0.2528092861175537,-0.8527149558067322
-0.0962091460824012,-0.0060934331268072,0.0561734810471534,0.0149825531989336,-0.0120226815342903,-0.0849382206797599,1.0,1.0,-0.5286428928375244,-0.8444628119468689
