x_pos,y_pos,x_vel,y_vel,angle,ang_vel,leg_1,leg_2,main_booster,lat_booster
-0.0015854835510253,1.4031158685684204,-0.1606131941080093,-0.3468586504459381,0.00184739055112,0.0364479012787342,0.0,0.0,0.0013280090185421,0.4889688113584544
-0.0032032965682446,1.3952455520629885,-0.1637900173664093,-0.3497974574565887,0.003834257600829,0.0397417470812797,0.0,0.0,-0.1695211347614167,-0.9116023535016058
-0.0049407957121729,1.3868591785430908,-0.1772157698869705,-0.3727447092533111,0.0072596836835145,0.0685149431228637,0.0,0.0,0.4685190926466318,0.0838781467793656
-0.006852054502815,1.3786289691925049,-0.1941153109073639,-0.3657974600791931,0.0102120069786906,0.0590521208941936,0.0,0.0,-0.9636774971555162,-0.6696794828460543
-0.0088700298219919,1.36989164352417,-0.2058715522289276,-0.3883539736270904,0.0142431044951081,0.0806295499205589,0.0,0.0,0.6682807498682557,0.4389954763011994
-0.0108230588957667,1.3614716529846191,-0.200078085064888,-0.3742777407169342,0.0189724545925855,0.0945954993367195,0.0,0.0,-0.3336340319662179,0.0841004174518965
-0.0128422733396291,1.3525431156158447,-0.2067373991012573,-0.3968940079212188,0.0237382892519235,0.0953254625201225,0.0,0.0,0.454724864655385,-0.1926230400590496
-0.0148099903017282,1.3439652919769287,-0.2022610604763031,-0.3813354074954986,0.0291683711111545,0.1086117178201675,0.0,0.0,-0.8474639282713876,0.4460348058479644
-0.0168444626033306,1.334878921508789,-0.2089817821979522,-0.4039525985717773,0.0346353016793727,0.1093487367033958,0.0,0.0,-0.7748877588048131,-0.8890954780797994
-0.0190162658691406,1.325286626815796,-0.2245243787765503,-0.4265165627002716,0.0419034846127033,0.1453768610954284,0.0,0.0,0.4903642856758505,0.5958700764699919
-0.0211463924497365,1.3159984350204468,-0.2193987816572189,-0.4129960238933563,0.04822688549757,0.1264793127775192,0.0,0.0,-0.7630435850877109,-0.0830164035214828
-0.0233435630798339,1.3062021732330322,-0.2261472940444946,-0.4356140494346618,0.0545885302126407,0.127244621515274,0.0,0.0,0.2092014023783093,-0.4887504622753108
-0.025540541857481,1.2966723442077637,-0.2266134917736053,-0.4238129556179046,0.0614383183419704,0.1370083689689636,0.0,0.0,-0.9513453780126756,-0.5087420138870442
-0.0278396606445312,1.2866264581680298,-0.2377703636884689,-0.4468240737915039,0.0692203864455223,0.1556556522846222,0.0,0.0,-0.6763466681380852,-0.9409584730569504
-0.0302626602351665,1.2760767936706543,-0.2516386806964874,-0.4693322777748108,0.0784683972597122,0.1849770843982696,0.0,0.0,-0.7688058638130357,-0.8077412155331414
-0.032803725451231,1.26500403881073,-0.2647922039031982,-0.4927111566066742,0.0890685021877288,0.2120214700698852,0.0,0.0,0.3506252336805151,-0.5761605189580764
-0.0353962890803813,1.2544862031936646,-0.2713910341262817,-0.4682196378707886,0.101114921271801,0.2409506142139434,0.0,0.0,-0.1972120427912786,0.5739010210374627
-0.0379986763000488,0.0,-0.2709670662879944,-0.4905923306941986,0.1117857322096824,0.2134350538253784,0.0,0.0,0.6342546879003386,-0.3414016704243111
-0.0406593307852745,1.2331366539001465,-0.2772718071937561,-0.459920197725296,0.1229421272873878,0.2231481820344925,0.0,0.0,0.3692906240702438,-0.0155980158036523
-0.0435085296630859,1.2229866981506348,-0.2958289086818695,-0.4520345032215118,0.1338197290897369,0.2175715416669845,0.0,0.0,0.6516333924280726,0.9398592344872804
-0.0463069900870323,1.2134974002838137,-0.2890967428684234,-0.4226053953170776,0.1430502384901046,0.1846270263195037,0.0,0.0,0.1646966898894137,0.7719536933274626
-0.0491429343819618,1.2039740085601809,-0.2913333177566528,-0.4240221083164215,0.1507828831672668,0.1546664983034134,0.0,0.0,0.2955140719499129,0.6968855916253646
-0.0519384369254112,1.1946128606796265,-0.2860892415046692,-0.4167260229587555,0.1573289036750793,0.1309317797422409,0.0,0.0,-0.574636312140063,0.8427042142943112
-0.0547208786010742,1.1847516298294067,-0.2829344868659973,-0.4387797713279724,0.162030428647995,0.0940389186143875,0.0,0.0,0.4018682212621542,-0.3285395469851244
-0.0577706322073936,1.1751614809036257,-0.3091428875923157,-0.4266948401927948,0.1662051081657409,0.0835007652640342,0.0,0.0,0.8156395385835917,-0.7077209678973476
-0.0612322799861431,1.166132926940918,-0.3513720631599426,-0.4018585383892059,0.1714276522397995,0.1044509783387184,0.0,0.0,0.6783784570699705,0.0863077539678136
-0.0648739784955978,1.157688021659851,-0.3694366812705993,-0.3759470283985138,0.1766973882913589,0.1053949818015098,0.0,0.0,0.9646096077986404,0.5766880862903111
-0.0688639655709266,1.1501582860946655,-0.4026485383510589,-0.3350970447063446,0.180366963148117,0.0733913108706474,0.0,0.0,-0.5365166453108372,-0.7657989785597871
-0.0729828849434852,1.1421066522598269,-0.4174366593360901,-0.3585349917411804,0.1859271079301834,0.1112034544348716,0.0,0.0,-0.6136079375777774,-0.2183920683012274
-0.0771564468741417,1.1335467100143433,-0.4229210317134857,-0.3811442255973816,0.19151172041893,0.1116923913359642,0.0,0.0,0.6252734627531216,0.7185911173178618
-0.0814674347639083,1.12573504447937,-0.4352807998657226,-0.3477334976196289,0.1957111358642578,0.0839884430170059,0.0,0.0,-0.8236624598503113,0.9974675178527832
-0.0857624039053917,1.11742901802063,-0.4319617748260498,-0.3694769442081451,0.1981909722089767,0.049596793949604,0.0,0.0,-0.8265936374664307,0.9989347457885742
-0.0900425910949707,1.1086440086364746,-0.4287680983543396,-0.3905512988567352,0.1989517360925674,0.0152152301743626,0.0,0.0,-0.7918537259101868,0.9898624420166016
-0.0943020805716514,1.0993621349334717,-0.4249652326107025,-0.4123915731906891,0.1979579925537109,-0.0198747273534536,0.0,0.0,-0.8448889851570129,0.9865453243255616
-0.0985310524702072,1.089597463607788,-0.4199071824550628,-0.4335891604423523,0.1949429959058761,-0.0603000149130821,0.0,0.0,-0.6681862473487854,0.9886765480041504
-0.1027283668518066,1.079355001449585,-0.4147045612335205,-0.4545668363571167,0.1898911297321319,-0.1010373681783676,0.0,0.0,-0.5625234842300415,0.9994473457336426
-0.1068954467773437,1.0686208009719849,-0.4097852110862732,-0.4762040972709656,0.1829359084367752,-0.1391046196222305,0.0,0.0,-0.4933036565780639,0.9962053298950196
-0.1110242828726768,1.0574092864990234,-0.4038383066654205,-0.4972034394741058,0.1738611608743667,-0.1814952194690704,0.0,0.0,-0.6484848856925964,0.995769500732422
-0.1151234656572341,1.045720458030701,-0.3989989459514618,-0.5182663202285767,0.1629224568605423,-0.2187741249799728,0.0,0.0,-0.409553050994873,0.986453413963318
-0.1191822066903114,1.033545970916748,-0.3928598463535309,-0.5397183299064636,0.1499215513467788,-0.2600178718566894,0.0,0.0,-0.7431149482727051,0.9715492725372314
-0.1232174858450889,1.0208876132965088,-0.388887345790863,-0.561188280582428,0.135322168469429,-0.2919878363609314,0.0,0.0,-0.8112309575080872,0.9806599617004396
-0.1271965056657791,1.007740497589111,-0.3808604776859283,-0.5828545689582825,0.1183657124638557,-0.3391293883323669,0.0,0.0,-0.8670929670333862,0.9825966358184814
-0.1311196386814117,0.9940943121910096,-0.3729658722877502,-0.6050722002983093,0.0991375222802162,-0.3845639228820801,0.0,0.0,-0.8944998383522034,0.9514439105987548
-0.1349885910749435,0.979956328868866,-0.3652653694152832,-0.6270691752433777,0.0776998549699783,-0.4287532269954681,0.0,0.0,-0.8458623290061951,0.9099712371826172
-0.1388213187456131,0.9653131365776062,-0.3598933815956116,-0.6497560143470764,0.0545729845762252,-0.4625377655029297,0.0,0.0,-0.9124945402145386,0.9153695106506348
-0.142605111002922,0.9501660466194152,-0.3529953360557556,-0.6724655032157898,0.0294834151864051,-0.5017914772033691,0.0,0.0,-0.7959660291671753,0.9657509326934814
-0.1463322639465332,0.9345179796218872,-0.3451520800590515,-0.695151686668396,0.0022734617814421,-0.5441997051239014,0.0,0.0,-0.4478331208229065,0.90278959274292
-0.1500269919633865,0.9183816313743592,-0.34040567278862,-0.7173780798912048,-0.0264038629829883,-0.573546826839447,0.0,0.0,-0.1812232732772827,0.919867753982544
-0.1536880433559417,0.9017539620399476,-0.3356369137763977,-0.7398179173469543,-0.0565155632793903,-0.6022346615791321,0.0,0.0,0.1670010089874267,-0.0016028881072998
-0.1573653221130371,0.8851692080497742,-0.3372162878513336,-0.7385329008102417,-0.0867066234350204,-0.6038216352462769,0.0,0.0,0.6643507480621338,0.8774256706237793
-0.1607826203107834,0.86891770362854,-0.309775173664093,-0.7244366407394409,-0.118406169116497,-0.6339911818504333,0.0,0.0,0.9255361557006836,-0.0482638478279113
-0.1641823798418045,0.8534619212150574,-0.307818055152893,-0.6897836923599243,-0.1504296511411667,-0.6404703855514526,0.0,0.0,0.6078230142593384,-0.1934168338775634
-0.1674273461103439,0.8381286859512329,-0.292971521615982,-0.6849712133407593,-0.181976243853569,-0.6309324502944946,0.0,0.0,0.7740284204483032,-0.684128999710083
-0.1705792397260666,0.8235825300216675,-0.2852101325988769,-0.650448739528656,-0.2121551036834716,-0.6035773158073425,0.0,0.0,0.3710601329803467,-0.1424566507339477
-0.1735365837812423,0.8090938925743103,-0.2664899826049804,-0.6484150290489197,-0.241780936717987,-0.5925167798995972,0.0,0.0,0.8794310092926025,-0.9347549676895142
-0.1765647828578949,0.7949535250663757,-0.2753809690475464,-0.6332071423530579,-0.2697472274303436,-0.5593260526657104,0.0,0.0,0.6534028053283691,-0.9959730505943298
-0.1793598234653473,0.7814649939537048,-0.2543555498123169,-0.6043446660041809,-0.2955896854400635,-0.5168489217758179,0.0,0.0,0.929588794708252,-0.965472936630249
-0.1818331778049469,0.7685646414756775,-0.2245344668626785,-0.5781505703926086,-0.3191938996315002,-0.4720845818519592,0.0,0.0,0.9380626678466796,-0.868573784828186
-0.1839802712202072,0.7565333247184753,-0.193949282169342,-0.5394554138183594,-0.3408568203449249,-0.4332583546638489,0.0,0.0,0.9135582447052002,-0.9416303634643556
-0.1859868019819259,0.7453791499137878,-0.1817081868648529,-0.500348687171936,-0.3607742190361023,-0.3983480036258697,0.0,0.0,0.7970616817474365,-0.8473042249679565
-0.1878604888916015,0.7342821359634399,-0.1702632158994674,-0.4976051449775696,-0.3788792192935943,-0.3620997965335846,0.0,0.0,-0.3284097909927368,-0.9803762435913086
-0.1898176223039627,0.7227348685264587,-0.1809123307466507,-0.5172249674797058,-0.3946515321731567,-0.315445989370346,0.0,0.0,0.9557979106903076,-0.9869265556335448
-0.1914620399475097,0.7114783525466919,-0.1518403589725494,-0.5038502216339111,-0.4081611335277557,-0.2701926231384277,0.0,0.0,0.7987527847290039,-0.9513116478919984
-0.1928824484348297,0.7006626725196838,-0.1313447803258896,-0.4838227927684784,-0.4196892976760864,-0.2305629998445511,0.0,0.0,0.864691972732544,-0.98392516374588
-0.1941800117492675,0.689994215965271,-0.120960496366024,-0.476798951625824,-0.4292039275169372,-0.1902925670146942,0.0,0.0,0.975678563117981,-0.99000483751297
-0.1953995674848556,0.6799334287643433,-0.1148352399468422,-0.4493413865566253,-0.4369547665119171,-0.1550170481204986,0.0,0.0,0.899395227432251,-0.968325972557068
-0.1962391883134842,0.670742928981781,-0.0787287279963493,-0.4101143181324005,-0.442666232585907,-0.1142287105321884,0.0,0.0,0.9681565761566162,-0.9387040734291076
-0.1968967467546463,0.6614842414855957,-0.0624457597732543,-0.4125485718250274,-0.4462865591049194,-0.0724065378308296,0.0,0.0,0.9647345542907716,-0.9401128888130188
-0.1971411705017089,0.6531253457069397,-0.0229619294404983,-0.371982991695404,-0.447905957698822,-0.032388798892498,0.0,0.0,0.8033969402313232,-0.9465453624725342
-0.1973259001970291,0.6450751423835754,-0.0186015330255031,-0.3577402234077453,-0.4477590322494507,0.0029383199289441,0.0,0.0,0.9078917503356934,-0.991461992263794
-0.1973391473293304,0.6377045512199402,-0.0031583402305841,-0.3269959986209869,-0.445749431848526,0.0401914976537227,0.0,0.0,0.0127691030502319,-0.8952418565750122
-0.1972216665744781,0.6303743720054626,0.0082373823970556,-0.3246774971485138,-0.441915899515152,0.0766705125570297,0.0,0.0,-0.1457063555717468,-0.938567876815796
-0.1971722543239593,0.6226025223731995,-0.0007368813967332,-0.3436344861984253,-0.4357306659221649,0.1237047165632247,0.0,0.0,-0.0409806370735168,-0.9736224412918092
-0.1971734017133712,0.6143655180931091,-0.0074132359586656,-0.3638539910316467,-0.4278039634227752,0.1585340350866317,0.0,0.0,0.1023540496826171,-0.9281107783317566
-0.1971481293439865,0.6060322523117065,-0.0065212249755859,-0.3676437735557556,-0.4179922342300415,0.1962346881628036,0.0,0.0,0.2853353023529053,-0.8477662205696106
-0.1970167160034179,0.5975341200828552,0.0024049966596066,-0.3745570480823517,-0.4064259827136993,0.2313242256641388,0.0,0.0,-0.5007567405700684,-0.9581873416900636
-0.1969487220048904,0.5885677933692932,-0.0058927806094288,-0.3949237763881683,-0.3928228318691253,0.2720630466938019,0.0,0.0,-0.0538827180862426,-0.4596215486526489
-0.1968684196472168,0.5790953040122986,-0.0047059310600161,-0.4175456762313843,-0.3792584836483001,0.2712878584861755,0.0,0.0,-0.4332971572875976,-0.5576500296592712
-0.1968096792697906,0.5691429972648621,-0.0078260088339447,-0.4387513399124145,-0.3647293448448181,0.2905825972557068,0.0,0.0,0.1399151086807251,0.0846338272094726
-0.1966094076633453,0.5595164895057678,0.0066144270822405,-0.4244984984397888,-0.3505966961383819,0.2826531827449798,0.0,0.0,-0.3328800201416015,-0.583022952079773
-0.1964503228664398,0.5494073033332825,0.0010881876805797,-0.4457613527774811,-0.3350565433502197,0.3108030259609222,0.0,0.0,0.3268306255340576,0.2056387662887573
-0.196039393544197,0.5396760702133179,0.0260950028896331,-0.429095447063446,-0.3194040954113006,0.3130484521389007,0.0,0.0,-0.2841260433197021,0.4743013381958008
-0.1956159621477127,0.529439389705658,0.0272930525243282,-0.4517222344875335,-0.3037885427474975,0.3123105764389038,0.0,0.0,0.0218456983566284,0.3314902782440185
-0.1950873434543609,0.5193125605583191,0.0379253327846527,-0.4470358192920685,-0.2883660495281219,0.308449774980545,0.0,0.0,-0.2986527681350708,0.6328297853469849
-0.1944994926452636,0.508662223815918,0.0450351051986217,-0.4706927835941314,-0.2742356359958648,0.2826085686683655,0.0,0.0,-0.1400811076164245,0.1826462745666504
-0.193900391459465,0.4975059330463409,0.0461344346404075,-0.4933160245418548,-0.2601395845413208,0.2819211781024933,0.0,0.0,0.0472215414047241,0.5507464408874512
-0.1931777000427246,0.4861295223236084,0.0595500394701957,-0.5034149885177612,-0.247170552611351,0.2593806385993957,0.0,0.0,-0.4342652559280395,0.3854833841323852
-0.1924449950456619,0.4742467403411865,0.0605368986725807,-0.5260356664657593,-0.2342336475849151,0.2587383389472961,0.0,0.0,0.3583132028579712,0.4831502437591553
-0.191476434469223,0.4625006020069122,0.0835657119750976,-0.5199958682060242,-0.2207682132720947,0.2693089246749878,0.0,0.0,-0.758208692073822,0.829887866973877
-0.190421774983406,0.4502151608467102,0.0942142829298973,-0.5443757176399231,-0.2093953192234039,0.227458119392395,0.0,0.0,-0.5398297309875488,0.7152156829833984
-0.1893040686845779,0.437410295009613,0.1019172295928001,-0.5677419304847717,-0.1994715183973312,0.1984761357307434,0.0,0.0,0.3645539283752441,0.4785902500152588
-0.1880308091640472,0.4250116944313049,0.1173705607652664,-0.5497395396232605,-0.1894557923078537,0.2003145962953567,0.0,0.0,0.4735857248306274,0.7713159322738647
-0.1864585876464843,0.412932813167572,0.1486327201128006,-0.5357628464698792,-0.1808174103498459,0.1727676540613174,0.0,0.0,-0.750892162322998,-0.1706228256225586
-0.1848821640014648,0.4003463089466095,0.149056851863861,-0.5583757162094116,-0.1722015142440796,0.1723172664642334,0.0,0.0,-0.6846097111701965,-0.4703249931335449
-0.1833028793334961,0.3872521221637726,0.1493543088436126,-0.5809885263442993,-0.1636061668395996,0.1719069182872772,0.0,0.0,-0.1363988518714904,-0.3683218955993652
-0.1817219704389572,0.373650312423706,0.1495160609483719,-0.6036011576652527,-0.1550291925668716,0.1715390533208847,0.0,0.0,0.910391092300415,-0.4572779536247253
-0.1800660192966461,0.360522449016571,0.1571579426527023,-0.582602322101593,-0.1465931832790374,0.1687202900648117,0.0,0.0,0.9020711183547974,-0.0593803524971008
-0.1784193068742752,0.3482773303985595,0.1568937003612518,-0.5434833765029907,-0.1388336271047592,0.1551907211542129,0.0,0.0,0.6097679138183594,-0.2839616537094116
-0.1765974014997482,0.3365168869495392,0.1740127950906753,-0.5219467878341675,-0.1306932717561721,0.1628070175647735,0.0,0.0,-0.6086898446083069,-0.2219917774200439
-0.1747802793979644,0.3242487609386444,0.1735433638095855,-0.5445586442947388,-0.1225616559386253,0.1626322567462921,0.0,0.0,0.4139864444732666,-0.601576566696167
-0.173014834523201,0.3124541938304901,0.1673250347375869,-0.5234730243682861,-0.1133957281708717,0.1833182871341705,0.0,0.0,0.4444707632064819,0.5607130527496338
-0.1711878776550293,0.3007955253124237,0.1746477335691452,-0.5175763964653015,-0.1054070889949798,0.1597730070352554,0.0,0.0,0.734337329864502,0.4724860191345215
-0.1694265305995941,0.2895899713039398,0.1686534434556961,-0.4975146651268005,-0.0979851856827735,0.1484380066394806,0.0,0.0,0.2695436477661133,0.4993658065795898
-0.1677532196044922,0.2784942090511322,0.1603905856609344,-0.4927045702934265,-0.0910953879356384,0.1377959549427032,0.0,0.0,0.5784050226211548,0.398836612701416
-0.165930837392807,0.2679022550582886,0.1748012155294418,-0.4703200757503509,-0.0837318897247314,0.1472697854042053,0.0,0.0,-0.0957230329513549,0.3770465850830078
-0.1641250550746917,0.256802350282669,0.1731416881084442,-0.4929308891296386,-0.0763594061136245,0.1474497318267822,0.0,0.0,0.6605591773986816,0.3621554374694824
-0.162133976817131,0.2463247925043106,0.1909665763378143,-0.4652767181396484,-0.0683005079627037,0.1611778438091278,0.0,0.0,-0.2740093469619751,0.6233696937561035
-0.1601161956787109,0.2353395968675613,0.1948190629482269,-0.4879293739795685,-0.0614187754690647,0.1376346349716186,0.0,0.0,0.8598687648773193,0.4121304750442505
-0.157902330160141,0.2252718806266784,0.2136605530977249,-0.447157472372055,-0.0537752099335193,0.1528711020946502,0.0,0.0,0.0007146596908569,0.2827367782592773
-0.1556489914655685,0.2152183800935745,0.2173589020967483,-0.4465552270412445,-0.0458954535424709,0.1575952321290969,0.0,0.0,-0.0528314113616943,-0.185386061668396
-0.1534236967563629,0.2046571373939514,0.214525431394577,-0.46916663646698,-0.037989605218172,0.1581170707941055,0.0,0.0,0.6390540599822998,0.4257940053939819
-0.1511390656232834,0.1947557777166366,0.2201447188854217,-0.439871996641159,-0.0297758448868989,0.1642753183841705,0.0,0.0,0.5558538436889648,-0.1200534701347351
-0.1487987488508224,0.1849906742572784,0.2253238409757614,-0.4338560700416565,-0.0211779177188873,0.1719582378864288,0.0,0.0,0.5674029588699341,-0.1909517049789428
-0.1465974748134613,0.1756013035774231,0.2119162380695343,-0.4172147214412689,-0.0130797801539301,0.1619630306959152,0.0,0.0,0.1695975065231323,-0.4364981055259704
-0.144520565867424,0.1662523299455642,0.1998797506093979,-0.4154586791992187,-0.005361245945096,0.1543704569339752,0.0,0.0,0.2782198190689087,-0.1916375160217285
-0.14249849319458,0.1570499241352081,0.194411352276802,-0.4089886546134949,0.0023245061747729,0.1537153124809265,0.0,0.0,0.349374771118164,0.8271949291229248
-0.1404313147068023,0.1479917913675308,0.2005222141742706,-0.4026053249835968,0.0084404246881604,0.1223180741071701,0.0,0.0,0.5976266860961914,-0.2138679027557373
-0.138286679983139,0.1389488130807876,0.2076221257448196,-0.4019657075405121,0.0151920476928353,0.1350327581167221,0.0,0.0,0.2780297994613647,-0.2610666155815124
-0.1361232697963714,0.1301927864551544,0.209096148610115,-0.3892443776130676,0.0223477073013782,0.1431132107973098,0.0,0.0,0.1067821979522705,0.7036375999450684
-0.133948415517807,0.1217484101653099,0.2115812748670578,-0.3754066228866577,0.0281817074865102,0.1166801452636718,0.0,0.0,0.1109184026718139,0.2368421554565429
-0.1317904442548751,0.1131121963262558,0.2096295058727264,-0.3839600384235382,0.0342763550579547,0.1218927502632141,0.0,0.0,0.8983824253082275,-0.1892825365066528
