x_pos,y_pos,x_vel,y_vel,angle,ang_vel,leg_1,leg_2,main_booster,lat_booster
-0.0015202522045001,1.403395175933838,-0.1543603092432022,-0.3344497382640838,0.0020922177936881,0.0412953421473503,0.0,0.0,-0.2824164628982544,0.5435618162155151
-0.0029906271956861,1.395661234855652,-0.148252785205841,-0.3437311053276062,0.0032850520219653,0.0238599237054586,0.0,0.0,-0.243846595287323,0.5677025318145752
-0.0044028284028172,1.3876934051513672,-0.1413651406764984,-0.3541224896907806,0.0034250963944941,0.0028013612609356,0.0,0.0,-0.2397284507751464,0.4709575176239013
-0.0058112144470214,1.3794963359832764,-0.1412970274686813,-0.3643251955509186,0.0038825499359518,0.009150106459856,0.0,0.0,-0.1046699285507202,0.5823346376419067
-0.0071599008515477,1.3710715770721436,-0.1342435032129287,-0.3744254112243652,0.0032568115275353,-0.0125157190486788,0.0,0.0,0.1690791845321655,-0.1714246273040771
-0.0084086414426565,1.3629944324493408,-0.1250260323286056,-0.3589840233325958,0.0034098271280527,0.0030603785999119,0.0,0.0,-0.3979637026786804,0.113158106803894
-0.0096529964357614,1.3546879291534424,-0.1249146312475204,-0.3691883087158203,0.003874136833474,0.0092870518565177,0.0,0.0,-0.3941816687583923,0.860731840133667
-0.0108085628598928,1.346154808998108,-0.1141840815544128,-0.3792466223239898,0.0025223123375326,-0.0270387679338455,0.0,0.0,0.2888329029083252,0.373875617980957
-0.0119706150144338,1.3383713960647583,-0.1150964125990867,-0.3459269106388092,0.0014346154639497,-0.021756388247013,0.0,0.0,-0.6842304468154907,0.7064127922058105
-0.0130722997710108,1.3303629159927368,-0.1079622879624366,-0.3559314310550689,-0.0007454262231476,-0.0436050295829772,0.0,0.0,-0.1351526379585266,-0.2747547626495361
-0.014169025234878,1.3221250772476196,-0.1077794209122657,-0.3661271035671234,-0.0026215340476483,-0.0375254452228546,0.0,0.0,-0.1949608325958252,0.5368325710296631
-0.0152134895324707,1.3136565685272217,-0.1016509681940078,-0.3763861954212188,-0.0053859916515648,-0.0552943050861358,0.0,0.0,-0.3650679588317871,0.7839051485061646
-0.0161775592714548,1.304962158203125,-0.0920028015971183,-0.3864418566226959,-0.0097416806966066,-0.0871217027306556,0.0,0.0,-0.5895301699638367,-0.0097790956497192
-0.0171361919492483,1.2960385084152222,-0.0917626023292541,-0.3966426253318786,-0.0138015653938055,-0.0812046825885772,0.0,0.0,-0.7717491984367371,0.2667253017425537
-0.0180892944335937,1.286885380744934,-0.091506153345108,-0.4068430960178375,-0.0175697579979896,-0.0753705874085426,0.0,0.0,-0.5962998867034912,0.2275187969207763
-0.0190367698669433,1.2775030136108398,-0.091232992708683,-0.4170433282852173,-0.0210492815822362,-0.0695963948965072,0.0,0.0,-0.7900004982948303,0.6895925998687744
-0.0199114792048931,1.267897129058838,-0.0825433582067489,-0.4270042181015014,-0.0259245038032531,-0.0975131019949913,0.0,0.0,-0.863253116607666,0.4919553995132446
-0.0207801815122365,1.2580620050430298,-0.0822310671210289,-0.43720543384552,-0.0305173341184854,-0.0918648988008499,0.0,0.0,-0.9045745134353638,-0.3601807355880737
-0.021642779931426,1.247997522354126,-0.0819022133946418,-0.4474063217639923,-0.0348327308893203,-0.086315706372261,0.0,0.0,-0.8966637253761292,-0.3960295915603637
-0.0224992744624614,1.2377036809921265,-0.081556387245655,-0.4576068818569183,-0.0388744249939918,-0.0808412358164787,0.0,0.0,-0.872664213180542,-0.7469282150268555
-0.0233957283198833,1.2271884679794312,-0.0870123282074928,-0.467413991689682,-0.0414759553968906,-0.0520351529121398,0.0,0.0,-0.930909276008606,-0.5480458736419678
-0.0243282318115234,1.2164431810379028,-0.0919695645570755,-0.4776040911674499,-0.0427453853189945,-0.0253911316394805,0.0,0.0,-0.9126386642456056,-0.3686240911483764
-0.0252543445676565,1.2054681777954102,-0.0915793031454086,-0.487803041934967,-0.043754905462265,-0.0201925225555896,0.0,0.0,-0.6109181046485901,-0.8673713207244873
-0.0262345317751169,1.1942580938339231,-0.0988016352057457,-0.4982083737850189,-0.0429854914546012,0.0153896464034914,0.0,0.0,-0.7232440114021301,-0.3329147100448608
-0.0272080413997173,1.1828181743621826,-0.0983825474977493,-0.508407473564148,-0.0419665314257144,0.0203812029212713,0.0,0.0,-0.8038240075111389,-0.4660544395446777
-0.0281753540039062,1.1711273193359375,-0.0980058461427688,-0.5195592641830444,-0.0407020300626754,0.02529002353549,0.0,0.0,-0.7682292461395264,0.224004864692688
-0.0291356090456247,1.1592068672180176,-0.0975496843457222,,-0.0391974411904811,0.0300916079431772,0.0,0.0,-0.7058342695236206,0.1032770872116088
-0.0300887115299701,1.1470569372177124,-0.0970765575766563,-0.5399531722068787,-0.0374581143260002,0.0347864963114261,0.0,0.0,-0.9820665121078492,0.8163490295410156
-0.0309839248657226,1.134681224822998,-0.0902246981859207,-0.5500093102455139,-0.036760713905096,0.0139478538185358,0.0,0.0,-0.8540706634521484,-0.0259105563163757
-0.0318717956542968,1.122076153755188,-0.0897185131907463,-0.5602062344551086,-0.0358397029340267,0.0184202026575803,0.0,0.0,-0.8487081527709961,-0.4163476228713989
-0.032752227038145,1.1092414855957031,-0.0891963168978691,-0.5704032778739929,-0.0347008556127548,0.022776810452342,0.0,0.0,-0.8646424412727356,0.5048995018005371
-0.0335905067622661,1.0961724519729614,-0.0843019783496856,-0.580832302570343,-0.0342250764369964,0.0095154345035552,0.0,0.0,-0.6404824256896973,0.4473147392272949
-0.034421157091856,1.082873821258545,-0.0837488397955894,-0.5910292863845825,-0.0335434563457965,0.0136324260383844,0.0,0.0,-0.8774664998054504,0.3502631187438965
-0.0352439880371093,1.0693458318710327,-0.0831808224320411,-0.6012263894081116,-0.0326621755957603,0.0176256038248538,0.0,0.0,-0.5963510870933533,-0.0233768820762634
-0.0360590927302837,1.0555882453918457,-0.0825983360409736,-0.6114234924316406,-0.0315875299274921,0.0214928872883319,0.0,0.0,-0.6787773370742798,0.1884938478469848
-0.0368663780391216,1.041601300239563,-0.0820017904043197,-0.621620774269104,-0.0303259212523698,0.0252320561558008,0.0,0.0,-0.8214439153671265,-0.003949761390686
-0.0376657471060752,1.0273847579956057,-0.0813916325569152,-0.6318180561065674,-0.0288838446140289,0.0288412775844335,0.0,0.0,-0.8517159223556519,-0.2612680792808532
-0.0384570136666297,1.0129387378692627,-0.0807682797312736,-0.6420153975486755,-0.0272679217159748,0.0323186628520488,0.0,0.0,-0.9415062069892884,0.4003326892852783
-0.039240263402462,0.9982632994651794,-0.0801321938633918,-0.6522127985954285,-0.0254847723990678,0.0356629081070423,0.0,0.0,-0.7463998198509216,0.1288880109786987
-0.040015410631895,0.9833583235740662,-0.0794838070869445,-0.662410318851471,-0.0235411524772644,0.0388726145029068,0.0,0.0,-0.8504025936126709,0.8546085357666016
-0.0407265648245811,0.968229115009308,-0.0718326568603515,-0.6723974347114563,-0.0228415708988904,0.0139917004853487,0.0,0.0,-0.5809376835823059,0.3468852043151855
-0.041429616510868,0.9528704285621644,-0.0711610019207,-0.6825948357582092,-0.0219950638711452,0.0169297661632299,0.0,0.0,0.1277686357498169,-0.7650659084320068
-0.0421042442321777,0.9375944137573242,-0.0700688287615776,-0.6788989305496216,-0.0194263570010662,0.0513741560280323,0.0,0.0,-0.9270828366279602,0.0389063358306884
-0.0427707657217979,0.9220889806747437,-0.0693757459521293,-0.6890968084335327,-0.0167244151234626,0.0540388152003288,0.0,0.0,-0.7330957055091858,0.3500642776489258
-0.0434288010001182,0.9063540697097778,-0.0686726048588752,-0.6992948055267334,-0.0138960788026452,0.0565667934715747,0.0,0.0,-0.792678952217102,0.588134765625
-0.0440285690128803,0.8903828263282776,-0.0616804771125316,-0.70981764793396,-0.0122072789818048,0.0337759330868721,0.0,0.0,-0.5416486859321594,-0.4114525318145752
-0.0446198470890522,0.8741819858551025,-0.0609585456550121,-0.7200153470039368,-0.0104056857526302,0.0360319837927818,0.0,0.0,-0.0530418753623962,0.4942662715911865
-0.0452028289437294,0.8577520251274109,-0.0602278783917427,-0.7302131652832031,-0.0084980074316263,0.0381533876061439,0.0,0.0,-0.4122347831726074,0.5454757213592529
-0.0457436554133892,0.841096818447113,-0.0552631095051765,-0.740220844745636,-0.0073365666903555,0.02322862111032,0.0,0.0,-0.2961887121200561,0.0036913156509399
-0.0462760925292968,0.8242122530937195,-0.0545162558555603,-0.750418484210968,-0.0060823345556855,0.0250846985727548,0.0,0.0,0.0407660007476806,-0.4157266616821289
-0.0467075332999229,0.8076370358467102,-0.0449292212724685,-0.7366693019866943,-0.0043238312937319,0.0351702682673931,0.0,0.0,0.351043701171875,0.3218197822570801
-0.0471750274300575,0.7917363047599792,-0.0483932830393314,-0.7066919803619385,-0.0027032648213207,0.0324113443493843,0.0,0.0,-0.3668429851531982,0.7533061504364014
-0.047563649713993,0.7756017446517944,-0.0387881025671958,-0.7170922160148621,-0.0027790765743702,-0.0015162078198045,0.0,0.0,-0.5859518051147461,-0.5668396949768066
-0.047988511621952,0.7592431306838989,-0.0436111874878406,-0.7270469665527344,-0.0016662533162161,0.0222565196454525,0.0,0.0,-0.5974844098091125,0.0859959125518798
-0.0484048835933208,0.7426550388336182,-0.0428311452269554,-0.7372446656227112,-0.0004919999046251,0.0234849900007247,0.0,0.0,-0.2769367098808288,-0.5342460870742798
-0.0488618835806846,0.7258352637290955,-0.0481920912861824,-0.7475460767745972,0.0019686874002218,0.0492139309644699,0.0,0.0,-0.4722860455513,0.5475822687149048
-0.0492603294551372,0.7087912559509277,-0.0411159172654151,-0.757512092590332,0.0032202587462961,0.0250315107405185,0.0,0.0,-0.4352878928184509,0.2802499532699585
-0.0496503822505474,0.6915180087089539,-0.0403207205235958,-0.7677096724510193,0.0045161466114223,0.0259177777916193,0.0,0.0,0.3833285570144653,0.881528377532959
-0.0498942360281944,0.6750592589378357,-0.0240304507315158,-0.7314983606338501,0.0041696834377944,-0.0069292793050408,0.0,0.0,-0.4835937023162842,-0.3846396207809448
-0.0501297004520893,0.6583710312843323,-0.0232270453125238,-0.7416960000991821,0.0038570379838347,-0.006253289990127,0.0,0.0,-0.2242583036422729,-0.0505796670913696
-0.0503567680716514,0.641453206539154,-0.0224200971424579,-0.7518935799598694,0.0035732176620513,-0.0056764772161841,0.0,0.0,-0.2018542885780334,0.5164034366607666
-0.0505414977669715,0.6243091225624084,-0.0173366386443376,-0.7619616985321045,0.0024575151037424,-0.0223140977323055,0.0,0.0,0.5163364410400391,0.2798982858657837
-0.0506056770682334,0.6076479554176331,-0.0058340607210993,-0.7404975295066833,0.0018857137765735,-0.011436260305345,0.0,0.0,-0.0304849743843078,0.1143126487731933
-0.0506614670157432,0.5907573103904724,-0.0050186826847493,-0.7506951093673706,0.0013291239738464,-0.0111315920948982,0.0,0.0,0.3241661787033081,0.1933956146240234
-0.0507031455636024,0.5741192102432251,-0.003645347431302,-0.7394735813140869,0.0008126430911943,-0.0103293433785438,0.0,0.0,0.0447108745574951,0.0799822807312011
-0.0508151054382324,0.5578120350837708,-0.0103164305910468,-0.724760115146637,-5.867094660061412e-05,-0.0174265000969171,0.0,0.0,0.0308575630187988,0.2941099405288696
-0.050905417650938,0.5420764684677124,-0.0082142669707536,-0.6993589401245117,-0.0008644158369861,-0.0161146968603134,0.0,0.0,-0.1764388680458068,0.5261218547821045
-0.0509402267634868,0.5261051654815674,-0.0014568383339792,-0.7098392844200134,-0.0028587128035724,-0.0398859605193138,0.0,0.0,-0.377098798751831,-0.0806796550750732
-0.0509668365120887,0.5099044442176819,-0.0006347178714349,-0.7200372219085693,-0.0048558544367551,-0.0399429574608802,0.0,0.0,0.8585712909698486,0.6320616006851196
-0.0510462746024131,0.4942708313465118,-0.0043481132015585,-0.6948423385620117,-0.0084090577438473,-0.0710641145706176,0.0,0.0,0.1924315690994262,0.4273730516433716
-0.05117978900671,0.4791418313980102,-0.0094302045181393,-0.6724258661270142,-0.0122772613540291,-0.0773641094565391,0.0,0.0,0.0105408430099487,0.0412392616271972
-0.0512816421687603,0.4643542766571045,-0.0063465861603617,-0.6572635769844055,-0.016069196164608,-0.0758387520909309,0.0,0.0,0.3012950420379638,0.1707727909088134
-0.0514661781489849,0.4503374695777893,-0.0141246169805526,-0.6230183243751526,-0.0203434191644191,-0.0854845345020294,0.0,0.0,-0.918142557144165,-0.1825606226921081
-0.05164260789752,0.4360915720462799,-0.0133052049204707,-0.633217453956604,-0.0246324054896831,-0.0857795923948288,0.0,0.0,-0.2448070049285888,0.4059302806854248
-0.0518111214041709,0.4216164350509643,-0.012487537227571,-0.6434165835380554,-0.0289377477020025,-0.0861068367958068,0.0,0.0,-0.4839239716529846,-0.3569216728210449
-0.0519716255366802,0.4069121479988098,-0.0116720367223024,-0.6536158323287964,-0.0332608185708522,-0.0864614248275756,0.0,0.0,0.9556598663330078,-0.4303199648857116
-0.0521481521427631,0.3925828635692596,-0.0130849629640579,-0.6369649171829224,-0.0377757921814918,-0.0902995020151138,0.0,0.0,0.7878172397613525,-0.7191048860549927
-0.0523509010672569,0.3793211579322815,-0.0171109568327665,-0.5894901156425476,-0.0409012027084827,-0.0625079497694969,0.0,0.0,0.6878499984741211,0.5204379558563232
-0.0523832328617572,0.3670766353607178,0.0007573476759716,-0.5443158745765686,-0.0448409989476203,-0.0787959694862365,0.0,0.0,-0.502526581287384,-0.937602400779724
-0.052495289593935,0.3546180725097656,-0.0094457073137164,-0.5537664294242859,-0.0465869046747684,-0.0349181741476058,0.0,0.0,0.2761867046356201,-0.5866120457649231
-0.0527441017329692,0.3423184156417846,-0.0240584835410118,-0.5466791987419128,-0.0473989583551883,-0.0162411369383335,0.0,0.0,0.556959867477417,0.745598554611206
-0.0528488159179687,0.3309049904346466,-0.0082020480185747,-0.5073372721672058,-0.0496375374495983,-0.0447715409100055,0.0,0.0,-0.6858354806900024,-0.08643239736557
-0.0529457107186317,0.319262146949768,-0.0074147447012364,-0.5175353288650513,-0.0518961995840072,-0.045173279941082,0.0,0.0,-0.4108604192733764,-0.4909058809280395
-0.0530351623892784,0.3073899745941162,-0.0066335862502455,-0.5277334451675415,-0.0541742742061615,-0.0455615296959877,0.0,0.0,0.2340486049652099,-0.4779378175735473
-0.053097628057003,0.2960715293884277,-0.0038795538712292,-0.5031309723854065,-0.0565122216939926,-0.0467590801417827,0.0,0.0,0.4492822885513305,-0.4228106141090393
-0.0530473701655864,0.2852814793586731,0.0070510329678654,-0.4796335101127624,-0.0585137121379375,-0.0400298945605754,0.0,0.0,-0.3822973966598511,-0.7346294522285461
-0.0530457496643066,0.2742597460746765,0.0007866061059758,-0.4898796081542969,-0.0591280683875083,-0.012287413701415,0.0,0.0,0.207912802696228,0.1515552997589111
-0.0529517158865928,0.2634433507919311,0.0097307935357093,-0.4807408154010772,-0.0594429746270179,-0.0062983618117868,0.0,0.0,0.6179955005645752,-0.3083771467208862
-0.0526732429862022,0.2532220780849457,0.027505213394761,-0.4542651772499084,-0.059103824198246,0.0067832386121153,0.0,0.0,-0.0262187719345092,-0.6315891742706299
-0.0524261482059955,0.2427699714899063,0.0234057120978832,-0.4644880890846252,-0.0578099153935909,0.0258781407028436,0.0,0.0,0.1391235589981079,-0.5724591016769409
-0.0521912574768066,0.2328726202249527,0.0210358463227748,-0.4397908747196197,-0.0553911998867988,0.0483744703233242,0.0,0.0,-0.1887765526771545,0.1228574514389038
-0.0519494041800498,0.2227459549903869,0.0217435173690319,-0.4499889612197876,-0.0529778599739074,0.0482667312026023,0.0,0.0,0.1895439624786377,0.0005890130996704
-0.0515855774283409,0.2131021618843078,0.0335181020200252,-0.4285142123699188,-0.0501523651182651,0.0565098114311695,0.0,0.0,-0.1306803226470947,-0.3269631862640381
-0.051215074956417,0.2032289803028106,0.0341992862522602,-0.438712477684021,-0.0473265014588832,0.0565173551440238,0.0,0.0,0.0478831529617309,-0.4205458164215088
-0.0508557334542274,0.1936127990484237,0.0332218036055564,-0.4273020029067993,-0.0446512699127197,0.0535046868026256,0.0,0.0,0.2389329671859741,-0.5094435214996338
-0.0504319183528423,0.1847410500049591,0.0384812094271183,-0.3941901326179504,-0.0408034920692443,0.0769555419683456,0.0,0.0,-0.4850798845291137,-0.1358654499053955
-0.0500017181038856,0.1756400018930435,0.0391151830554008,-0.4043888747692108,-0.0369451753795146,0.0771665871143341,0.0,0.0,-0.2490739822387695,-0.6888354420661926
-0.0496307387948036,0.1663197875022888,0.0314993821084499,-0.4141049683094024,-0.0314183309674263,0.1105368882417678,0.0,0.0,-0.101426362991333,0.0535529851913452
-0.0492535606026649,0.1567705422639846,0.0320963338017463,-0.4243050515651703,-0.0258732289075851,0.1109023690223693,0.0,0.0,0.5406348705291748,0.6189887523651123
-0.0488575920462608,0.1480458527803421,0.0353344902396202,-0.3876937329769134,-0.0216579772531986,0.0843050330877304,0.0,0.0,-0.0275642275810241,-0.6895438432693481
-0.048517607152462,0.1390990763902664,0.0281114820390939,-0.3975604176521301,-0.0158559624105691,0.116040326654911,0.0,0.0,0.3481767177581787,0.3367024660110473
-0.0481860153377056,0.1305332481861114,0.0273550935089588,-0.3806533217430115,-0.0101167224347591,0.1147847026586532,0.0,0.0,0.3493239879608154,0.5463376045227051
-0.0479043014347553,0.122476540505886,0.0236549247056245,-0.3580542206764221,-0.0056585413403809,0.089163526892662,0.0,0.0,0.1792045831680297,0.8654637336730957
-0.0476712211966514,0.1147496998310089,0.0205592103302478,-0.3434044122695923,-0.0029478317592293,0.0542141795158386,0.0,0.0,-0.2059733867645263,-0.5582219958305359
-0.0474695190787315,0.1067970618605613,0.0164481624960899,-0.3534469306468963,0.0007229612674564,0.0734160989522934,0.0,0.0,0.2122282981872558,0.7952908277511597
-0.0471488945186138,0.099014364182949,0.0298493318259716,-0.3458994626998901,0.0029096768703311,0.0437343679368495,0.0,0.0,0.3481981754302978,0.1754878759384155
-0.0467071533203125,0.0919367671012878,0.0413504652678966,-0.3145710527896881,0.0056992513127624,0.0557914488017559,0.0,0.0,-0.1354947090148925,-0.0402095317840576
-0.0462611205875873,0.0846297144889831,0.0417174771428108,-0.3247693479061126,0.0085493773221969,0.0570022538304328,0.0,0.0,0.4407925605773926,0.7481881380081177
-0.0456196777522563,0.0782223045825958,0.0624620541930198,-0.2847838401794433,0.010200117714703,0.0330152548849582,0.0,0.0,-0.6673863530158997,-0.726821780204773
-0.0450249686837196,0.0715848803520202,0.0564608089625835,-0.2950217127799988,0.0131841963157057,0.0596814453601837,0.0,0.0,-0.3484737873077392,0.0218551158905029
-0.0444266311824321,0.0647180676460266,0.0567266643047332,-0.3052201271057129,0.0162447988986969,0.0612118244171142,0.0,0.0,0.3898475170135498,0.7134242057800293
-0.0437228195369243,0.0586246587336063,0.0685359984636306,-0.2708388566970825,0.0180612299591302,0.0363288968801498,0.0,0.0,-0.2041833400726318,0.4533751010894775
-0.043016243726015,0.0523018687963485,0.0687281638383865,-0.2810368835926056,0.01996511220932,0.0380777195096015,0.0,0.0,0.1813752651214599,0.2818365097045898
-0.042403507977724,0.0464101657271385,0.0596658401191234,-0.2618765532970428,0.0215573254972696,0.0318442210555076,0.0,0.0,0.1330265998840332,-0.2009745836257934
-0.0418842323124408,0.0408156476914882,0.05063147097826,-0.248665764927864,0.0228407513350248,0.0256684124469757,0.0,0.0,0.3191424608230591,0.5792913436889648
-0.0413463599979877,0.035667311400175,0.0535859540104866,-0.22881980240345,0.02303765155375,0.0039382046088576,0.0,0.0,-0.2893964052200317,0.2081607580184936
-0.04080705717206,0.0302895158529281,0.0536188706755638,-0.2390175759792328,0.0233440548181533,0.0061280527152121,0.0,0.0,0.2064454555511474,-0.2141077518463134
-0.0401775352656841,0.0250795222818851,0.0620854422450065,-0.2315727025270462,0.0242065656930208,0.0172502566128969,0.0,0.0,0.6471107006072998,0.3450876474380493
-0.0394665710628032,0.0206658225506544,0.0696462243795394,-0.1961880326271057,0.0256389249116182,0.0286471396684646,0.0,0.0,0.0646649599075317,-0.3783426284790039
-0.0387523658573627,0.0168027970939874,0.0697613209486007,-0.171717032790184,0.0272717755287885,0.0326569154858589,0.0,0.0,-0.4253676533699035,-0.3532338142395019
