x_pos,y_pos,x_vel,y_vel,angle,ang_vel,leg_1,leg_2,main_booster,lat_booster
-0.0014909744495525,1.4032752513885498,-0.1513986885547638,-0.339768499135971,0.002054602606222,0.0405510999262332,0.0,0.0,-0.2976645827293396,0.681685209274292
-0.0028914450667798,1.395301342010498,-0.1409196555614471,-0.3543967604637146,0.0029056202620267,0.0170229617506265,0.0,0.0,0.1473144292831421,0.3480851650238037
-0.0041680335998535,1.3873989582061768,-0.1292907297611236,-0.3512173593044281,0.0045208758674561,0.0323082655668258,0.0,0.0,-0.1842483282089233,0.8853332996368408
-0.0053570745512843,1.3791449069976809,-0.1194497719407081,-0.3668496012687683,0.0050557353533804,0.0106982113793492,0.0,0.0,-0.1292775869369506,0.8518245220184326
-0.0064337728545069,1.3705451488494873,-0.1064764261245727,-0.3822129070758819,0.0038788367528468,-0.0235402286052703,0.0,0.0,-0.5580841898918152,0.4784771203994751
-0.007479858584702,1.3615959882736206,-0.1037612333893776,-0.3977310955524444,0.0030419039539992,-0.0167401507496833,0.0,0.0,-0.3539823293685913,0.148301362991333
-0.0084959985688328,1.3522980213165283,-0.1011167019605636,-0.4132489860057831,0.0025496184825897,-0.0098467264324426,0.0,0.0,-0.6246418356895447,0.1916683912277221
-0.0094829555600881,1.3426507711410522,-0.0985485911369323,-0.4287668764591217,0.0024076902773231,-0.0028391689993441,0.0,0.0,-0.0433677434921264,0.7770620584487915
-0.0103815076872706,1.3326630592346191,-0.0885410755872726,-0.4438975155353546,0.0011126736644655,-0.0259026382118463,0.0,0.0,-0.5477793216705322,-0.2653125524520874
-0.0112523082643747,1.3223261833190918,-0.0861400440335273,-0.459415465593338,0.0001783432817319,-0.0186880379915237,0.0,0.0,-0.3145805597305298,0.619464635848999
-0.0120407100766897,1.311640739440918,-0.0768368542194366,-0.4749130606651306,-0.0017948900349438,-0.0394685342907905,0.0,0.0,-0.3849949836730957,-0.6188135743141174
-0.0128462789580225,1.3006048202514648,-0.080032430589199,-0.4904816746711731,-0.0023164341691881,-0.0104316789656877,0.0,0.0,-0.6259191036224365,-0.6675056219100952
-0.0136684421449899,1.2892234325408936,-0.0831161811947822,-0.5058395266532898,-0.0014293204294517,0.01774388179183,0.0,0.0,-0.7952898144721985,-0.0625231266021728
-0.0144671443849802,1.2774930000305176,-0.0811453312635421,-0.5213575959205627,-0.0001671786158112,0.0252449847757816,0.0,0.0,-0.7337252497673035,0.0235941410064697
-0.0152434352785348,1.2654132843017578,-0.079300008714199,-0.5368757843971252,0.0014736980665475,0.0328206494450569,0.0,0.0,-0.7923243045806885,-0.2067604064941406
-0.0159989353269338,1.2529844045639038,-0.0775880217552185,-0.5523940920829773,0.0034961781930178,0.0404531843960285,0.0,0.0,-0.5742337703704834,-0.0993047356605529
-0.0167346950620412,1.2402067184448242,-0.0760170817375183,-0.5679126381874084,0.0059031872078776,0.0481447502970695,0.0,0.0,-0.6387742757797241,-0.4720247983932495
-0.0174523349851369,1.2270797491073608,-0.0745943933725357,-0.5834313631057739,0.0086975554004311,0.055892426520586,0.0,0.0,-0.0007590651512145,-0.1060119867324829
-0.0181534774601459,1.2136037349700928,-0.0733270198106765,-0.5989503860473633,0.0118819503113627,0.0636935606598854,0.0,0.0,-0.5694882869720459,-0.2187060713768005
-0.0188395492732524,1.1997787952423096,-0.0722215920686721,-0.6144697070121765,0.0154589293524622,0.0715460702776908,0.0,0.0,-0.4691433906555176,0.6147000789642334
-0.0194533355534076,1.1856110095977783,-0.0639043524861335,-0.6297138929367065,0.017951026558876,0.0498463585972785,0.0,0.0,-0.5577060580253601,-0.0323172211647033
-0.0200554840266704,1.1710941791534424,-0.0631356686353683,-0.6452334523200989,0.0208413824439048,0.0578121356666088,0.0,0.0,-0.6734265089035034,0.0953195095062255
-0.0206477157771587,1.1562285423278809,-0.0625453442335128,-0.6607531309127808,0.024131366983056,0.0658056885004043,0.0,0.0,-0.7508677840232849,0.1142727136611938
-0.0212318412959575,1.141013741493225,-0.0621366500854492,-0.6762731671333313,0.0278236083686351,0.0738510191440582,0.0,0.0,-0.5893296599388123,0.4557719230651855
-0.0218095779418945,1.1254501342773438,-0.0619122013449668,-0.6917936205863953,0.0319202840328216,0.0819406658411026,0.0,0.0,-0.8504400253295898,0.8300490379333496
-0.0223325733095407,1.1095231771469116,-0.0555922575294971,-0.7079393267631531,0.0351719595491886,0.0650335922837257,0.0,0.0,-0.4367507696151733,0.561474084854126
-0.0228080749511718,1.093253254890442,-0.0501276068389415,-0.7231703996658325,0.0377085357904434,0.050731636583805,0.0,0.0,-0.1619942784309387,0.6131042242050171
-0.0232449527829885,1.076642990112305,-0.0456984043121337,-0.7382858395576477,0.039700660854578,0.0398424006998539,0.0,0.0,-0.3389257788658142,0.4924436807632446
-0.0236824993044137,1.0596840381622314,-0.0461993366479873,-0.7538036704063416,0.0421061888337135,0.0481106303632259,0.0,0.0,-0.0956590771675109,0.006333589553833
-0.0241228099912405,1.0423760414123535,-0.0468798801302909,-0.7693217396736145,0.0449270419776439,0.0564167611300945,0.0,0.0,-0.0836480855941772,0.5850389003753662
-0.024519920349121,1.0247292518615725,-0.0417719781398773,-0.7843678593635559,0.0469637177884578,0.0407334640622139,0.0,0.0,0.2347960472106933,0.7544546127319336
-0.024944495409727,1.0072195529937744,-0.0433418452739715,-0.7782391309738159,0.0478437095880508,0.017599981278181,0.0,0.0,0.2368662357330322,0.6737532615661621
-0.0254213325679302,0.990265429019928,-0.0475421324372291,-0.7535167932510376,0.0477001778781414,-0.0028704267460852,0.0,0.0,0.5906692743301392,-0.1386644840240478
-0.0259852409362792,0.9734782576560974,-0.0563932135701179,-0.7460964918136597,0.0476946346461772,-0.0001108630822272,0.0,0.0,0.2695708274841308,-0.182236909866333
-0.0265705101191997,0.9570652842521667,-0.0590058341622352,-0.7294806838035583,0.0481702201068401,0.0095118219032883,0.0,0.0,-0.2138355374336242,-0.4512146711349487
-0.0271678920835256,0.9403035044670104,-0.0606580562889575,-0.7449986338615417,0.0490704402327537,0.0180049017071723,0.0,0.0,0.3092215061187744,0.4835749864578247
-0.0278174392879009,0.9237319231033324,-0.0661972090601921,-0.736556887626648,0.0503003224730491,0.0245975852012634,0.0,0.0,0.0648435354232788,0.0005487203598022
-0.0284819602966308,0.9075483679771424,-0.0682487189769744,-0.7193304300308228,0.052070640027523,0.0354062542319297,0.0,0.0,-0.2918198108673095,0.8034225702285767
-0.0291036609560251,0.8910295367240906,-0.0628780722618103,-0.734193742275238,0.0527728907763958,0.0140449479222297,0.0,0.0,-0.7910617589950562,0.4889688491821289
-0.0297426227480173,0.874161958694458,-0.0650391578674316,-0.749711811542511,0.0539040565490722,0.0226231608539819,0.0,0.0,-0.2728606462478637,0.7355563640594482
-0.0303523056209087,0.8569556474685669,-0.0613302588462829,-0.7647390365600586,0.0542594157159328,0.0071072406135499,0.0,0.0,0.4998725652694702,0.5933440923690796
-0.0308387763798236,0.8401246666908264,-0.0485187396407127,-0.7480369806289673,0.0541409365832805,-0.002369662746787,0.0,0.0,0.5778871774673462,-0.4703155755996704
-0.0312689766287803,0.823401153087616,-0.043771494179964,-0.7432971596717834,0.0548827685415744,0.0148366224020719,0.0,0.0,0.2871276140213012,0.6206334829330444
-0.0316084846854209,0.8069552779197693,-0.0340462327003479,-0.7309252023696899,0.0549754835665226,0.0018542406614869,0.0,0.0,0.7136514186859131,0.2627201080322265
-0.0320288650691509,0.7906147837638855,-0.0423677116632461,-0.72625732421875,0.0553052760660648,0.006595660932362,0.0,0.0,-0.5411067605018616,0.4305800199508667
-0.0324718467891216,0.7739256024360657,-0.0450739189982414,-0.7417755722999573,0.0560675635933876,0.0152458753436803,0.0,0.0,0.3757491111755371,0.7334612607955933
-0.0328444465994834,0.7574504017829895,-0.037075325846672,-0.732221782207489,0.0558908209204673,-0.0035350243560969,0.0,0.0,-0.278005838394165,0.8624870777130127
-0.0331858620047569,0.7406403422355652,-0.032992135733366,-0.7470694780349731,0.0547490045428276,-0.0228363312780857,0.0,0.0,0.5327811241149902,0.4566982984542846
-0.0337148681282997,0.724566638469696,-0.0516014210879802,-0.7143415808677673,0.0534708797931671,-0.0255624111741781,0.0,0.0,-0.2792391777038574,0.5589041709899902
-0.0342262275516986,0.7081459760665894,-0.0491975992918014,-0.729740560054779,0.0515531003475189,-0.0383556075394153,0.0,0.0,-0.0385456681251525,0.0189969539642334
-0.0347632393240928,0.6913765072822571,-0.0521954894065856,-0.7452589273452759,0.0500685013830661,-0.0296919289976358,0.0,0.0,0.3333444595336914,0.7599937915802002
-0.0353482253849506,0.6751546263694763,-0.0558354072272777,-0.7208852767944336,0.0474332869052886,-0.0527042932808399,0.0,0.0,-0.3228927850723266,0.8947186470031738
-0.0358759872615337,0.6585850119590759,-0.0484178811311721,-0.7362931370735168,0.0431283600628376,-0.0860983729362487,0.0,0.0,-0.4999314546585083,-0.8771008849143982
-0.0364997871220111,0.6416704058647156,-0.0602164752781391,-0.7517021298408508,0.0409904494881629,-0.0427583791315555,0.0,0.0,0.2302435636520385,0.9268513917922974
-0.0369632728397846,0.6249600052833557,-0.0428111925721168,-0.7425886392593384,0.0374983511865139,-0.0698419660329818,0.0,0.0,-0.4588779211044311,0.1449282169342041
-0.0374541282653808,0.6079009175300598,-0.0459976978600025,-0.7581071853637695,0.0344380550086498,-0.0612059533596038,0.0,0.0,0.6312727928161621,0.8564838171005249
-0.0378290191292762,0.5916895866394043,-0.0332680530846118,-0.7204159498214722,0.0302676744759082,-0.083407424390316,0.0,0.0,-0.5223435163497925,0.7440824508666992
-0.0381597504019737,0.5751358866691589,-0.0274375919252634,-0.7356171011924744,0.0247083902359008,-0.1111858040094375,0.0,0.0,-0.0525874495506286,0.0158683061599731
-0.0385186187922954,0.5582335591316223,-0.0307025406509637,-0.7511367201805115,0.0195789746940135,-0.1025880426168441,0.0,0.0,0.3277472257614136,-0.2894465923309326
-0.0389797203242778,0.5419278740882874,-0.0410563610494136,-0.7246397733688354,0.0145954228937625,-0.0996708795428276,0.0,0.0,-0.4106930494308471,0.6773217916488647
-0.0394112579524517,0.5252689719200134,-0.0370606444776058,-0.7403488159179688,0.0085787922143936,-0.1203327998518943,0.0,0.0,0.738455057144165,-0.6172704696655273
-0.0400404930114746,0.5093695521354675,-0.0582236647605896,-0.706620991230011,0.0039327084086835,-0.0929215922951698,0.0,0.0,-0.3218154907226562,0.4592283964157104
-0.0406990051269531,0.4931212663650512,-0.0615646615624427,-0.7221391797065735,-0.000287598115392,-0.0844062715768814,0.0,0.0,0.9435321092605592,0.6917135715484619
-0.0413018241524696,0.4776068925857544,-0.0551177263259887,-0.6895426511764526,-0.0053847106173634,-0.1019424051046371,0.0,0.0,-0.5977596640586853,0.8618953227996826
-0.0418649688363075,0.4617367088794708,-0.0498201251029968,-0.7053754925727844,-0.0117952842265367,-0.1282112300395965,0.0,0.0,0.8983688354492188,0.1407634019851684
-0.0425918586552143,0.4465391635894775,-0.065955564379692,-0.6755174398422241,-0.0184426605701446,-0.1329475939273834,0.0,0.0,-0.2246358394622802,0.2395745515823364
-0.0433484092354774,0.4309928715229034,-0.0693485885858535,-0.6910366415977478,-0.0246706716716289,-0.1245600804686546,0.0,0.0,0.8311221599578857,0.5321592092514038
-0.0439881309866905,0.4155724644660949,-0.0572899580001831,-0.685477077960968,-0.0312637500464916,-0.1318615674972534,0.0,0.0,0.7523659467697144,-0.5619637370109558
-0.0446430221199989,0.4011679291725158,-0.0604506433010101,-0.6403175592422485,-0.0362409725785255,-0.0995444729924202,0.0,0.0,0.9932873249053956,0.7249271869659424
-0.0453723892569541,0.3872709274291992,-0.0665528550744056,-0.6178119778633118,-0.0425480343401432,-0.1261414885520935,0.0,0.0,0.7870161533355713,0.3582520484924316
-0.0461999885737896,0.374129056930542,-0.0763212740421295,-0.5842790603637695,-0.0489047951996326,-0.1271351128816604,0.0,0.0,-0.0141384601593017,0.0566946268081665
-0.0470577254891395,0.3606383204460144,-0.0797554701566696,-0.5997970104217529,-0.0548547208309173,-0.1189984828233718,0.0,0.0,0.4676507711410522,0.7667055130004883
-0.047970961779356,0.3479364514350891,-0.0839635357260704,-0.5648137331008911,-0.0621283762156963,-0.1454732120037078,0.0,0.0,-0.8287521004676819,0.4279792308807373
-0.0489144325256347,0.334885835647583,-0.0874085947871208,-0.5803322196006775,-0.0690021216869354,-0.1374749094247818,0.0,0.0,0.8717966079711914,-0.8633043766021729
-0.0499683395028114,0.3221538364887237,-0.1004953235387802,-0.5660967230796814,-0.0738432928919792,-0.0968232452869415,0.0,0.0,0.2331486940383911,0.8195772171020508
-0.0509126670658588,0.3094135522842407,-0.0883423835039138,-0.5665491223335266,-0.0798768326640129,-0.1206708550453186,0.0,0.0,0.6780192852020264,-0.4064652919769287
-0.0518921837210655,0.2968435287475586,-0.0920959040522575,-0.5589932203292847,-0.0856720507144928,-0.115904189646244,0.0,0.0,-0.2311312556266784,-0.6864309906959534
-0.0529568679630756,0.2839374542236328,-0.1024046391248703,-0.5738404393196106,-0.0896971225738525,-0.0805017128586769,0.0,0.0,0.5301051139831543,-0.3727933764457702
-0.0539107322692871,0.2718007564544678,-0.0920576974749565,-0.5396117568016052,-0.0930034443736076,-0.0661265775561332,0.0,0.0,0.5041980743408203,-0.3935303688049316
-0.0549282059073448,0.2604402899742126,-0.0983022004365921,-0.5051277279853821,-0.096412681043148,-0.0681847035884857,0.0,0.0,-0.4029403924942016,0.4185988903045654
-0.0559765808284282,0.248730331659317,-0.1017646789550781,-0.5206419229507446,-0.0994588807225227,-0.0609239116311073,0.0,0.0,0.3775365352630615,0.0142648220062255
-0.0569570548832416,0.2376497387886047,-0.0954904109239578,-0.492644727230072,-0.1019938290119171,-0.050698984414339,0.0,0.0,-0.2051742076873779,-0.6259936690330505
-0.0580262169241905,0.2262283116579055,-0.1061774715781211,-0.5076678395271301,-0.1027228161692619,-0.0145800020545721,0.0,0.0,0.3368828296661377,0.1350077390670776
-0.0591144561767578,0.2152825444936752,-0.1082187741994857,-0.4865196645259857,-0.1033179089426994,-0.0119020733982324,0.0,0.0,-0.4925947189331054,-0.1549725532531738
-0.0602338798344135,0.2039872258901596,-0.1116791367530822,-0.502032995223999,-0.1035831794142723,-0.0053053861483931,0.0,0.0,0.3668437004089355,0.3376928567886352
-0.0612631812691688,0.1930493265390396,-0.1033199056982994,-0.4861034154891968,-0.1031950116157531,0.0077632605098187,0.0,0.0,-0.194675862789154,-0.3378278017044067
-0.0623238570988178,0.1817618012428283,-0.1067760959267616,-0.5016169548034668,-0.1024979054927825,0.0139422267675399,0.0,0.0,0.9173455238342284,0.8047435283660889
-0.0631885528564453,0.1707884222269058,-0.086105078458786,-0.4877319037914276,-0.1028595864772796,-0.00723363365978,0.0,0.0,0.8400452136993408,0.56681227684021
-0.0638010948896408,0.1603805124759674,-0.060520876199007,-0.4626253843307495,-0.1035849452018737,-0.0145072592422366,0.0,0.0,0.4692788124084472,-0.1779822707176208
-0.0642857551574707,0.1501271873712539,-0.0485857464373111,-0.4556964635848999,-0.1034652963280677,0.0023930417373776,0.0,0.0,0.5686342716217041,0.4239789247512817
-0.0647338852286338,0.1405893862247467,-0.045167863368988,-0.42387655377388,-0.1031131744384765,0.0070425160229206,0.0,0.0,-0.1170016527175903,0.0986284017562866
-0.0652138739824295,0.1307021975517273,-0.0486038587987422,-0.4393905997276306,-0.1025186330080032,0.0118911135941743,0.0,0.0,0.8312723636627197,0.8909837007522583
-0.0654281601309776,0.121537908911705,-0.0207318495959043,-0.4073489010334015,-0.1032018959522247,-0.0136651741340756,0.0,0.0,0.748546838760376,-0.630416214466095
-0.0655744522809982,0.112523041665554,-0.0157046597450971,-0.4005875289440155,-0.1021373718976974,0.021290248259902,0.0,0.0,0.9106724262237548,-0.7341977953910828
-0.0658164024353027,0.1040544807910919,-0.0267761088907718,-0.3762054145336151,-0.099570594727993,0.0513355247676372,0.0,0.0,0.8356966972351074,0.3420193195343017
-0.0659016594290733,0.0966535210609436,-0.0117332227528095,-0.3287219107151031,-0.0963945388793945,0.0635212287306785,0.0,0.0,0.3795764446258545,-0.566719651222229
-0.0660393685102462,0.0896223410964012,-0.0182245858013629,-0.3122166693210602,-0.0919797271490097,0.0882961153984069,0.0,0.0,-0.0068528652191162,0.6957345008850098
-0.0661657303571701,0.0822423323988914,-0.0161189176142215,-0.3277877271175384,-0.0885268449783325,0.0690574571490287,0.0,0.0,0.4265313148498535,0.8251476287841797
-0.0661218613386154,0.0753978341817855,0.002330576069653,-0.3040817975997925,-0.0864908546209335,0.0407198593020439,0.0,0.0,0.0635641813278198,-0.2434175014495849
-0.066103458404541,0.0689303502440452,-0.0001383787894155,-0.2873296737670898,-0.0845185667276382,0.0394456535577774,0.0,0.0,-0.3706282377243042,0.0540007352828979
-0.0661177635192871,0.0621137470006942,-0.003496813820675,-0.3028456270694732,-0.0824712514877319,0.0409465059638023,0.0,0.0,0.6398147344589233,0.107160210609436
-0.0661487579345703,0.0556898936629295,-0.0051145711913704,-0.285394012928009,-0.0804840475320816,0.039744097739458,0.0,0.0,0.6131855249404907,0.7363003492355347
-0.0662323981523513,0.0498037673532962,-0.0086661735549569,-0.2615901231765747,-0.080173060297966,0.0062196156941354,0.0,0.0,0.3925107717514038,0.4850449562072754
-0.0664399117231369,0.0442437268793582,-0.0204970836639404,-0.2471255511045456,-0.0804367214441299,-0.0052732829935848,0.0,0.0,0.4442663192749023,0.8729392290115356
-0.066456601023674,0.0392581075429916,0.0002356404729653,-0.22168730199337,-0.0823240876197815,-0.0377472564578056,0.0,0.0,-0.0835816860198974,0.443993330001831
-0.0665064826607704,0.0339234434068203,-0.003049851860851,-0.2372039705514907,-0.0842408314347267,-0.0383350476622581,0.0,0.0,0.7175083160400391,0.9008454084396362
-0.0662839859724044,0.0294020995497703,0.025780314579606,-0.2011532634496688,-0.0877347365021705,-0.0698781907558441,0.0,0.0,0.0182472467422485,0.3427748680114746
-0.0660667419433593,0.0252483934164047,0.0253853648900985,-0.1848297864198684,-0.0913634300231933,-0.0725739449262619,0.0,0.0,0.0321555137634277,-0.2077643871307373
-0.0657451599836349,0.0215309951454401,0.0354909040033817,-0.165423572063446,-0.0946686342358589,-0.0661043673753738,0.0,0.0,-0.3036438226699829,0.1225343942642211
-0.0654567703604698,0.0174648389220237,0.0322849415242672,-0.180941492319107,-0.0980813950300216,-0.0682554692029953,0.0,0.0,0.5153958797454834,-0.1935402750968933
-0.0651347190141677,0.014168725349009,0.0358112230896949,-0.1467320024967193,-0.1016504094004631,-0.071380466222763,0.0,0.0,0.3312656879425049,-0.2855240106582641
-0.0647324547171592,0.0114634847268462,0.0437312051653862,-0.1204766556620597,-0.1051363199949264,-0.0697179660201072,0.0,0.0,-0.1207464933395385,-0.2111124396324157
-0.0642762184143066,0.0091492030769586,0.0307330191135406,-0.1018792167305946,-0.0903620272874832,0.2955022752285003,1.0,0.0,-0.1110271215438842,-0.2222320437431335
-0.063726045191288,0.0070841526612639,0.0243712048977613,-0.0902221426367759,-0.0599955320358276,0.6073764562606812,1.0,0.0,0.2713960409164428,0.209456205368042
-0.0632657036185264,0.0052617527544498,0.0166603960096836,-0.080078437924385,-0.0309649165719747,0.580612301826477,1.0,0.0,0.2855823040008545,0.5260589122772217
-0.0627680793404579,0.0037572120781987,0.0214529652148485,-0.0665208250284195,-0.0030217508319765,0.5588639974594116,0.0,0.0,0.1130820512771606,0.9302694797515868
-0.0622078888118267,0.0024500465951859,0.0297647416591644,-0.0582427941262722,0.022896409034729,0.5183635950088501,0.0,0.0,-0.6577937602996826,0.9464156627655028
-0.0617531761527061,0.0014186478219926,0.0411199405789375,-0.0459214225411415,0.0271734222769737,0.0855177715420723,0.0,1.0,-0.7714760899543762,0.5897648334503174
-0.0613795295357704,0.0006328320596367,0.0519984178245067,-0.0347293280065059,0.0127157801762223,-0.2891696095466614,0.0,1.0,-0.3788518905639648,-0.056298017501831
-0.0610714927315712,-0.0001100683221011,0.0563454329967498,-0.0329952910542488,-0.012500206939876,-0.5043309926986694,0.0,1.0,-0.1255263686180114,-0.2564529180526733
