x_pos,y_pos,x_vel,y_vel,angle,ang_vel,leg_1,leg_2,main_booster,lat_booster
-0.0016125679248943,1.403496503829956,-0.1633860319852829,-0.3299339413642883,0.0019021490588784,0.0375320576131343,0.0,0.0,-0.477218901113376,-0.6724406139881277
-0.0033639906905591,1.3959648609161377,-0.17831851541996,-0.3347429037094116,0.0050418116152286,0.0627999454736709,0.0,0.0,0.134667216608632,-0.9285711795405196
-0.0051731108687818,1.3887149095535278,-0.1860467791557312,-0.3222474455833435,0.0101205622777342,0.1015844121575355,0.0,0.0,0.4058463087658162,-0.7786052859322096
-0.0072530745528638,1.381969928741455,-0.2145778685808181,-0.2998371720314026,0.0166246425360441,0.130093514919281,0.0,0.0,0.1024401917993189,-0.6952445502848211
-0.0093898773193359,1.37575364112854,-0.2218362987041473,-0.2763940095901489,0.0246895030140876,0.1613121479749679,0.0,0.0,-0.4901490998844211,0.7130400683022431
-0.0115509983152151,1.369411587715149,-0.2225916385650634,-0.2819881737232208,0.0310870390385389,0.1279628872871399,0.0,0.0,-0.5324083295270416,0.9617828943258904
-0.0137331960722804,1.362945556640625,-0.2228946238756179,-0.2874825298786163,0.0357165858149528,0.0925994962453842,0.0,0.0,-0.8171881746513581,0.8107078562634927
-0.015929888933897,1.3563586473464966,-0.2223994433879852,-0.2928251028060913,0.0384053960442543,0.0537811443209648,0.0,0.0,-0.6505985037435982,0.8406870907592486
-0.0181567184627056,1.3496567010879517,-0.2238064706325531,-0.2978951036930084,0.0395215637981891,0.0223254933953285,0.0,0.0,-0.04970209041698,-0.907996147864737
-0.0205501560121774,1.3428282737731934,-0.2423491030931472,-0.3035641014575958,0.0424973629415035,0.0595213063061237,0.0,0.0,0.3722120285878421,0.979326790010482
-0.0229001995176076,1.336622953414917,-0.2361709326505661,-0.2758240699768066,0.0436477661132812,0.0230104066431522,0.0,0.0,0.9226659525373128,0.9312887618653928
-0.0252084732055664,1.3312197923660278,-0.2303486615419387,-0.2401274293661117,0.0431783944368362,-0.0093883574008941,0.0,0.0,-0.3614424898656745,0.6945291472733502
-0.0275460239499807,1.3256964683532717,-0.2316422164440155,-0.2454171925783157,0.0410829819738864,-0.0419119819998741,0.0,0.0,0.8930297009818466,0.9669740601677131
-0.0298320762813091,1.320656657218933,-0.2247492969036102,-0.2238932102918625,0.0372707806527614,-0.076251097023487,0.0,0.0,0.6279380257369891,0.6770889116497997
-0.0320397391915321,1.316725254058838,-0.215951919555664,-0.1746197789907455,0.0324973873794078,-0.0954762399196624,0.0,0.0,0.2994801614204885,-0.8496565106027231
-0.0343197807669639,1.3130080699920654,-0.2250218838453292,-0.1651474982500076,0.0295487008988857,-0.0589790269732475,0.0,0.0,-0.6791373349390708,-0.7924737426482111
-0.0367445945739746,1.3091703653335571,-0.2407672107219696,-0.1705388277769088,0.0278452411293983,-0.0340719260275363,0.0,0.0,0.5276695408157739,0.9407741752608184
-0.0390520095825195,1.3057256937026978,-0.2273388653993606,-0.1530413180589676,0.0244799554347991,-0.067312054336071,0.0,0.0,0.7631458952041523,0.774553227630447
-0.0413023009896278,1.3034515380859375,-0.2203397750854492,-0.101003274321556,0.0198382046073675,-0.0928429439663887,0.0,0.0,-0.0530607172100836,-0.7928663261033515
-0.0437200553715229,1.3010470867156982,-0.2389165163040161,-0.1068314686417579,0.017001511529088,-0.0567388758063316,0.0,0.0,-0.5474507660188954,-0.8441921393402692
-0.0462871566414833,1.2985196113586426,-0.2551873326301574,-0.1123114302754402,0.0154991904273629,-0.0300489123910665,0.0,0.0,0.4998576476018779,-0.7900824959537631
-0.0490075126290321,1.2964612245559692,-0.2721314132213592,-0.0914870575070381,0.0155937829986214,0.0018920178990811,0.0,0.0,-0.0304358680093304,-0.6027618900359756
-0.0518616661429405,1.294273018836975,-0.2864685654640198,-0.0972614139318466,0.0166298206895589,0.0207226667553186,0.0,0.0,0.1255794653496413,0.773657616588806
-0.054699707776308,1.2922704219818115,-0.2833404839038849,-0.0890036448836326,0.0161667354404926,-0.0092623215168714,0.0,0.0,0.9535720558783574,-0.8931280314301038
-0.0579015724360942,1.2912774085998535,-0.3211356997489929,-0.0441426448523998,0.0171102043241262,0.0188708715140819,0.0,0.0,-0.5984957176452048,-0.6986375257273789
-0.0612677559256553,1.2901369333267212,-0.3393106162548065,-0.0507169254124164,0.0197621546685695,0.0530391857028007,0.0,0.0,-0.4920696488395155,-0.6966236224537632
-0.0647846236824989,1.2888716459274292,-0.3557357788085937,-0.0562964007258415,0.0237665697932243,0.080088086426258,0.0,0.0,-0.1770898851585551,-0.6490759414286307
-0.0684594139456749,1.2874832153320312,-0.3731009364128113,-0.0618040896952152,0.0293101202696561,0.1108712777495384,0.0,0.0,0.9408126246051152,-0.7712792710571272
-0.0724837332963943,1.2873281240463257,-0.4091710448265075,-0.0070359953679144,0.0359714068472385,0.1332259029150009,0.0,0.0,0.0602943358374827,-0.9597367347884316
-0.0767058357596397,1.2875066995620728,-0.4308591783046722,0.007698468863964,0.0444999709725379,0.1705712080001831,0.0,0.0,-0.2783994779684273,0.987313480957508
-0.0809424370527267,1.2875745296478271,-0.4301799237728119,0.0028052702546119,0.0509469807147979,0.1289404034614563,0.0,0.0,0.4904015825288701,0.7700526766539122
-0.0853100791573524,1.2881011962890625,-0.4415436685085296,0.0232415590435266,0.0556736104190349,0.094532772898674,0.0,0.0,0.0554259996109511,0.6208348878646683
-0.089810274541378,1.2892723083496094,-0.4534034132957458,0.0519150272011756,0.0590187646448612,0.0669031515717506,0.0,0.0,-0.1643794878666333,-0.7586626844358174
-0.0944695472717285,1.290302872657776,-0.4709161818027496,0.0455994606018066,0.0639571398496627,0.0987677127122879,0.0,0.0,-0.4381354014611489,-0.9038373007932188
-0.0992907509207725,1.2912012338638306,-0.4887990057468414,0.0396277457475662,0.0705595538020134,0.132048413157463,0.0,0.0,0.5288240367840615,0.7226943848982482
-0.1041779518127441,1.2930328845977783,-0.4938747882843017,0.0811495631933212,0.0756616666913032,0.1020421162247657,0.0,0.0,-0.8690497987066426,-0.7876775994595542
-0.1092210784554481,1.2947254180908203,-0.5110148191452026,0.0748763754963874,0.0822996124625206,0.1327588558197021,0.0,0.0,-0.5634158903525834,0.6137053603569557
-0.1143035888671875,1.2963017225265503,-0.5135276317596436,0.0697562918066978,0.0875258892774581,0.1045257896184921,0.0,0.0,0.1187523164508361,0.7299983251451608
-0.1194991096854209,1.2986146211624146,-0.5232044458389282,0.1025718599557876,0.0911483168601989,0.0724485740065574,0.0,0.0,-0.5894305481933257,-0.9555391875721952
-0.1248554214835167,1.3007911443710327,-0.5409950017929077,0.09639523178339,0.0964587479829788,0.1062089800834655,0.0,0.0,0.4285893555738593,0.6507442636449875
-0.1304149627685547,1.3038432598114014,-0.559666097164154,0.1354075223207473,0.1001385003328323,0.0735950618982315,0.0,0.0,-0.9822824597358704,0.957656979560852
-0.1359708756208419,1.306778907775879,-0.5568410158157349,0.1303939670324325,0.1013759598135948,0.0247491728514432,0.0,0.0,-0.9598397016525269,0.3312661647796631
-0.1416132897138595,1.309586763381958,-0.565330982208252,0.1247135549783706,0.1024632602930069,0.0217461287975311,0.0,0.0,-0.919510006904602,0.3937684297561645
-0.1473409682512283,1.3122663497924805,-0.5737146735191345,0.1190332397818565,0.1033926308155059,0.0185879003256559,0.0,0.0,-0.9805907607078552,0.4939353466033935
-0.1531532257795334,1.314818024635315,-0.5819869041442871,0.1133530363440513,0.1041564866900444,0.0152770411223173,0.0,0.0,-0.8646692037582397,0.6936440467834473
-0.1589894294738769,1.3172438144683838,-0.582720160484314,0.107874147593975,0.1032610610127449,-0.0179086737334728,0.0,0.0,-0.9904334545135498,0.2683570384979248
-0.1649078428745269,1.319541573524475,-0.5907532572746277,0.10219407081604,0.1021850854158401,-0.0215194039046764,0.0,0.0,-0.91481751203537,0.6617782115936279
-0.1708652526140213,1.321724772453308,-0.5933891534805298,0.0971917957067489,0.0998453050851821,-0.0467956289649009,0.0,0.0,-0.9533259868621826,0.6800060272216797
-0.1768610924482345,1.3237922191619873,-0.5959621667861938,0.0921267941594123,0.0962512269616127,-0.0718815252184867,0.0,0.0,-0.9645836353302002,0.375090479850769
-0.182935431599617,1.3257317543029783,-0.6035957336425781,0.0864457711577415,0.0924551263451576,-0.0759221240878105,0.0,0.0,-0.9578262567520142,0.6579903364181519
-0.1890224516391754,1.3275524377822876,-0.6030282378196716,0.0812547579407692,0.0868263766169548,-0.1125751882791519,0.0,0.0,-0.8927192091941833,-0.2530876994132995
-0.1951851844787597,1.3292453289031982,-0.6103679537773132,0.0755721181631088,0.0809819623827934,-0.1168882399797439,0.0,0.0,-0.9892260432243348,0.4343769550323486
-0.2014219313859939,1.3308106660842896,-0.6175526976585388,0.0698892027139663,0.0749153047800064,-0.1213330850005149,0.0,0.0,-0.9891604781150818,0.4885262250900268
-0.2077312916517257,1.3322484493255615,-0.6245772242546082,0.0642059966921806,0.0686199516057968,-0.1259067505598068,0.0,0.0,-0.921243131160736,0.8782398700714111
-0.2140250653028488,1.333564519882202,-0.620568037033081,0.0588730834424495,0.0599091947078704,-0.1742152422666549,0.0,0.0,-0.9961936473846436,0.8796098232269287
-0.2203295677900314,1.334755301475525,-0.6199051141738892,0.0533059351146221,0.0494851805269718,-0.2084802836179733,0.0,0.0,-0.863143801689148,0.9843339920043944
-0.2266121357679367,1.3358356952667236,-0.6151604652404785,0.0483909286558628,0.0365480259060859,-0.2587431669235229,0.0,0.0,-0.956812858581543,0.0634956359863281
-0.2329606115818023,1.3367902040481567,-0.6214922070503235,0.0426961258053779,0.0233581289649009,-0.2637978196144104,0.0,0.0,-0.7711713314056396,0.985424280166626
-0.2392857521772384,1.3376327753067017,-0.6166585087776184,0.0376228913664817,0.0077059152536094,-0.3130444586277008,0.0,0.0,-0.9766095280647278,0.8221464157104492
-0.2456163465976715,1.3383591175079346,-0.6154886484146118,0.032276589423418,-0.0096384566277265,-0.3468877077102661,0.0,0.0,-0.8313630223274231,0.6121771335601807
-0.2519547343254089,1.3389557600021362,-0.6146616339683533,0.0262910686433315,-0.0285729058086872,-0.3786892294883728,0.0,0.0,-0.9986287355422974,0.7499053478240967
-0.2583019733428955,1.339431643486023,-0.6140183806419373,0.0206336677074432,-0.0490242838859558,-0.4090277552604675,0.0,0.0,-0.985566020011902,0.9955840110778807
-0.2646107077598572,1.339776873588562,-0.6074956655502319,0.0144150890409946,-0.0721424892544746,-0.4623643755912781,0.0,0.0,-0.7654120922088623,-0.9449067115783693
-0.2710452079772949,1.340010166168213,-0.6216473579406738,0.0091825146228075,-0.0937361344695091,-0.4318727552890777,0.0,0.0,-0.9366095066070556,-0.0916903614997863
-0.2775317728519439,1.3401223421096802,-0.6266077756881714,0.0034597471822053,-0.11561831086874,-0.4376437664031982,0.0,0.0,-0.9970806837081908,0.9307618141174316
-0.2840100824832916,1.3401044607162476,-0.624062180519104,-0.0028059568721801,-0.1392689943313598,-0.4730140268802643,0.0,0.0,-0.8733038902282715,0.4535163640975952
-0.2905360162258148,1.3399667739868164,-0.6286060810089111,-0.0085374815389513,-0.1632170379161834,-0.4789612293243408,0.0,0.0,-0.9752559661865234,-0.892744779586792
-0.2971687912940979,1.3397133350372314,-0.6406093835830688,-0.0139089059084653,-0.185928925871849,-0.454238086938858,0.0,0.0,-0.9531945586204528,-0.5873807668685913
-0.3038874566555023,1.33935809135437,-0.6501208543777466,-0.0186541806906461,-0.2078165858983993,-0.4377532601356506,0.0,0.0,-0.8225513100624084,-0.1433489322662353
-0.3106472492218017,1.338882327079773,-0.6540256142616272,-0.0243804939091205,-0.2300141602754593,-0.4439514279365539,0.0,0.0,-0.9768308401107788,-0.4003370404243469
-0.3174459040164947,1.3382863998413086,-0.6577168107032776,-0.0301083792001009,-0.2525253891944885,-0.4502247273921966,0.0,0.0,-0.8159405589103699,-0.5836933255195618
-0.3243233561515808,1.3375873565673828,-0.6665040254592896,-0.0348742082715034,-0.2742333710193634,-0.4341594278812408,0.0,0.0,-0.643949031829834,-0.4391043782234192
-0.331235259771347,1.3367677927017212,-0.6697677969932556,-0.0406012125313282,-0.2962620854377746,-0.4405751824378967,0.0,0.0,-0.253911018371582,0.1501595973968505
-0.3381794095039367,1.3358278274536133,-0.672819972038269,-0.0463297590613365,-0.3186148703098297,-0.4470558762550354,0.0,0.0,-0.5024279952049255,-0.4576398134231567
-0.3451534807682037,1.3347679376602173,-0.6756622195243835,-0.0520598627626895,-0.3412947356700897,-0.4535979330539703,0.0,0.0,-0.5334179997444153,-0.5834329128265381
-0.3521951138973236,1.3336024284362793,-0.6832798719406128,-0.0569026321172714,-0.3632520139217376,-0.4391456544399261,0.0,0.0,-0.0393485426902771,-0.7622835636138916
-0.3593234121799469,1.3323427438735962,-0.6933387517929077,-0.0610596910119056,-0.3839026093482971,-0.4130117297172546,0.0,0.0,0.3062615394592285,-0.4208981394767761
-0.3662465512752533,1.3318383693695068,-0.67265385389328,-0.027862200513482,-0.4049193263053894,-0.4203346669673919,0.0,0.0,-0.2177860736846923,-0.5694259405136108
-0.3732255101203918,1.3312411308288574,-0.6790380477905273,-0.0320677980780601,-0.4252443015575409,-0.4064997732639313,0.0,0.0,-0.0105614066123962,-0.705662727355957
-0.3802818357944488,1.3305695056915283,-0.6882489323616028,-0.0352166779339313,-0.4441600441932678,-0.3783145546913147,0.0,0.0,0.3036035299301147,-0.7438035011291504
-0.387402206659317,1.3302345275878906,-0.6957636475563049,-0.02015264891088,-0.4620162546634674,-0.3571240603923797,0.0,0.0,0.4088102579116821,-0.9327216148376464
-0.3942658305168152,1.3307123184204102,-0.6717167496681213,0.0162833742797374,-0.4782239496707916,-0.3241536617279053,0.0,0.0,0.1784254312515258,-0.833235502243042
-0.4010867476463318,1.3317161798477173,-0.6687873005867004,0.0399449840188026,-0.4930675327777862,-0.2968716323375702,0.0,0.0,0.2905029058456421,-0.3149398565292358
-0.4077074527740478,1.333327054977417,-0.6483903527259827,0.0666130110621452,-0.508456289768219,-0.3077749013900757,0.0,0.0,0.1656544208526611,-0.6523006558418274
-0.4141505360603332,1.3355083465576172,-0.63164222240448,0.0921671912074089,-0.5228213667869568,-0.2873021066188812,0.0,0.0,-0.1374608874320984,-0.5854935050010681
-0.4206367433071136,1.3375957012176514,-0.6366813778877258,0.0881177634000778,-0.5364741086959839,-0.2730562388896942,0.0,0.0,0.2239768505096435,-0.5554085373878479
-0.4270237386226654,1.339900255203247,-0.6275923848152161,0.0979671627283096,-0.5492701530456543,-0.2559205293655395,0.0,0.0,-0.1756606101989746,-0.5624518394470215
-0.4334501326084137,1.3421066999435425,-0.6321792602539062,0.0937492921948432,-0.5614089965820312,-0.2427774220705032,0.0,0.0,0.2839491367340088,-0.4295713901519775
-0.4395481944084167,1.3446615934371948,-0.5995830297470093,0.1092175915837287,-0.5733700394630432,-0.2392204999923706,0.0,0.0,-0.0464756488800048,-0.6310392618179321
-0.4456831514835357,1.3471195697784424,-0.6039237976074219,0.1050736531615257,-0.5846506953239441,-0.2256125658750534,0.0,0.0,-0.1683777570724487,-0.5727394223213196
-0.4518560469150543,1.3494938611984253,-0.6085435748100281,0.1016381904482841,-0.5950330495834351,-0.2076474130153656,0.0,0.0,-0.0981078743934631,-0.4041221141815185
-0.4580296576023102,1.3517444133758545,-0.6083884239196777,0.095932625234127,-0.6057660579681396,-0.2146603614091873,0.0,0.0,-0.0111360549926757,-0.3486483097076416
-0.464202731847763,1.3538709878921509,-0.6081111431121826,0.0902263820171356,-0.6168491244316101,-0.221661776304245,0.0,0.0,0.2580482959747314,-0.4086138010025024
-0.4701676368713379,1.3561112880706787,-0.587368369102478,0.0952136367559433,-0.6279262900352478,-0.221543863415718,0.0,0.0,0.13430917263031,-0.5635657906532288
-0.4759925901889801,1.3587243556976318,-0.5741077661514282,0.1120453923940658,-0.6381916403770447,-0.2053070813417434,0.0,0.0,-0.2578958868980407,-0.5101800560951233
-0.4818384647369385,1.3612488508224487,-0.5767687559127808,0.1082908138632774,-0.6478395462036133,-0.1929587125778198,0.0,0.0,0.2682249546051025,-0.6403793096542358
-0.4874714910984039,1.3642343282699585,-0.556354284286499,0.1291513592004776,-0.6564659476280212,-0.1725276857614517,0.0,0.0,-0.179582417011261,-0.411071240901947
-0.4930988848209381,1.3670954704284668,-0.5555686354637146,0.1234472468495369,-0.6654359102249146,-0.1793991029262542,0.0,0.0,-0.4763878583908081,-0.4426311254501343
-0.4987198710441589,1.3698322772979736,-0.5547043085098267,0.1177426651120185,-0.6747473478317261,-0.1862283051013946,0.0,0.0,0.082788348197937,-0.5748916268348694
-0.5040899515151978,1.3731026649475098,-0.5303548574447632,0.1417676359415054,-0.6831794381141663,-0.1686423122882843,0.0,0.0,-0.2997750639915466,-0.6740909218788147
-0.5094960927963257,1.3763082027435305,-0.5350709557533264,0.1394431293010711,-0.6902540326118469,-0.1414917111396789,0.0,0.0,-0.2225059270858764,-0.5053017735481262
-0.5149260759353638,1.3794269561767578,-0.5381218194961548,0.1359064280986786,-0.6965064406394958,-0.1250486969947815,0.0,0.0,-0.1758003234863281,-0.5054013133049011
-0.5203827619552612,1.3824660778045654,-0.5415976047515869,0.1327910274267196,-0.7017577290534973,-0.1050256043672561,0.0,0.0,-0.3640326261520386,-0.6256544589996338
-0.525877058506012,1.3854376077651978,-0.5464507341384888,0.1303930729627609,-0.7056114673614502,-0.0770751535892486,0.0,0.0,-0.1946173310279846,-0.3143565654754638
-0.5313617587089539,1.388284683227539,-0.5452607870101929,0.1246930211782455,-0.7097876667976379,-0.0835242569446563,0.0,0.0,-0.1940231323242187,-0.2891649007797241
-0.5368366837501526,1.391006588935852,-0.5440431237220764,0.1189929619431495,-0.7142819762229919,-0.0898860394954681,0.0,0.0,-0.2961736917495727,-0.6587015390396118
-0.5423283576965332,1.3936452865600586,-0.5463445782661438,0.115639753639698,-0.7179732322692871,-0.0738250240683555,0.0,0.0,-0.0988107919692993,-0.3210036754608154
-0.5478097200393677,1.396159052848816,-0.5450925230979919,0.1099403202533721,-0.721972644329071,-0.0799887850880622,0.0,0.0,-0.3524115085601806,-0.5995345711708069
-0.5533040761947632,1.398587942123413,-0.5469479560852051,0.1064808741211891,-0.7252473831176758,-0.0654950886964798,0.0,0.0,-0.2751661539077759,-0.3824489116668701
-0.558788001537323,1.4008915424346924,-0.5456900596618652,0.1007821336388588,-0.7288187742233276,-0.071427397429943,0.0,0.0,-0.052022635936737,-0.5647055506706238
-0.5642918348312378,1.403118133544922,-0.5484352111816406,0.0977983772754669,-0.7314004302024841,-0.0516325533390045,0.0,0.0,-0.3459055423736572,-0.578229546546936
-0.5698128938674927,1.4052631855010986,-0.5508274435997009,0.0945751890540123,-0.7331001162528992,-0.0339932516217231,0.0,0.0,-0.0911616086959838,-0.4829938411712646
-0.5753239393234253,1.407283067703247,-0.5496124029159546,0.0888779684901237,-0.7350755929946899,-0.0395091995596885,0.0,0.0,-0.1784157752990722,-0.5197809338569641
-0.5808603167533875,1.4092267751693726,-0.5530057549476624,0.085995003581047,-0.7359257936477661,-0.017003996297717,0.0,0.0,-0.2341980934143066,-0.5048630237579346
-0.5864228010177612,1.4110913276672363,-0.5564336180686951,0.0829847082495689,-0.7356746196746826,0.0050231567583978,0.0,0.0,-0.4062356948852539,-0.2306938767433166
-0.5919760465621948,1.4128303527832031,-0.5553220510482788,0.0772890597581863,-0.7356738448143005,1.5414734662044793e-05,0.0,0.0,-0.3431336879730224,-0.2594063282012939
-0.5975204110145569,1.4144437313079834,-0.554257869720459,0.0715939328074455,-0.735913872718811,-0.0048006940633058,0.0,0.0,0.0166233777999877,-0.3551841974258423
-0.6028482913970947,1.416096329689026,-0.5327162146568298,0.0734054818749427,-0.736012876033783,-0.0019802809692919,0.0,0.0,-0.5310741066932678,-0.4240151047706604
-0.608168363571167,1.4176231622695925,-0.5317655801773071,0.0677115395665168,-0.7363317608833313,-0.0063776047900319,0.0,0.0,-0.419832706451416,-0.3290490508079529
-0.6134811639785767,1.419023871421814,-0.5308807492256165,0.0620182231068611,-0.736859142780304,-0.0105477543547749,0.0,0.0,-0.4324371814727783,-0.281301736831665
