x_pos,y_pos,x_vel,y_vel,angle,ang_vel,leg_1,leg_2,main_booster,lat_booster
-0.001508331275545,1.4035183191299438,-0.1535383015871048,-0.3289701342582702,0.0024242904037237,0.0478705242276191,0.0,0.0,-0.3666003942489624,0.8400180339813232
-0.0029285431373864,1.3960295915603638,-0.1432548016309738,-0.3328298330307007,0.0036398516967892,0.0243145264685153,0.0,0.0,-0.5178162455558777,0.9739598035812378
-0.0042375563643872,1.388427734375,-0.1304090321063995,-0.3378592133522033,0.0031521068885922,-0.0097556393593549,0.0,0.0,-0.2529637217521667,0.4762642383575439
-0.0055276872590184,1.380719542503357,-0.1291692554950714,-0.3425825238227844,0.0033078570850193,0.0031152889132499,0.0,0.0,-0.4455158710479736,0.1797791719436645
-0.0067977905273437,1.3729053735733032,-0.1278124749660492,-0.3473029136657715,0.0040993774309754,0.0158319808542728,0.0,0.0,-0.5654652118682861,0.5388588905334473
-0.0079947467893362,1.3649845123291016,-0.1198091059923172,-0.3520394265651703,0.0042114038951694,0.0022404831834137,0.0,0.0,-0.2775932550430298,0.6423397064208984
-0.0091207502409815,1.3569575548171997,-0.1121043115854263,-0.3567421734333038,0.0037219657097011,-0.009789696894586,0.0,0.0,-0.3012744188308716,0.6247934103012085
-0.0101618766784667,1.3488270044326782,-0.1026830822229385,-0.3613621890544891,0.002303434535861,-0.0283731427043676,0.0,0.0,-0.647428572177887,0.383503794670105
-0.0111784934997558,1.3405901193618774,-0.1008332520723342,-0.3660821616649627,0.0014908576849848,-0.0162533577531576,0.0,0.0,-0.7421895861625671,0.2413561344146728
-0.0121692661195993,1.332247018814087,-0.0988625288009643,-0.3708020746707916,0.0012740249512717,-0.0043369154445827,0.0,0.0,-0.7349441051483154,0.6621321439743042
-0.0130736352875828,1.323798418045044,-0.0892896726727485,-0.3754947781562805,0.0001436087186448,-0.0226104445755481,0.0,0.0,-0.442477285861969,-0.1976100206375122
-0.013949966058135,1.3152436017990112,-0.0870715081691742,-0.3802148997783661,-0.0004109952133148,-0.0110930651426315,0.0,0.0,-0.7146978974342346,0.4365358352661133
-0.0147972106933593,1.3065825700759888,-0.0847332328557968,-0.3849348127841949,-0.0004025317903142,0.0001693403901299,0.0,0.0,-0.851697564125061,0.7598512172698975
-0.0155475614592432,1.2978081703186035,-0.0738960579037666,-0.3899714052677154,-0.0015226780669763,-0.0224052872508764,0.0,0.0,-0.3081743717193603,0.0063459873199462
-0.0162666328251361,1.2889275550842283,-0.0713134706020355,-0.3946914374828338,-0.0021048376802355,-0.0116443652659654,0.0,0.0,-0.9644681215286256,0.0784896612167358
-0.0169533733278512,1.279940843582153,-0.0686138048768043,-0.3994113206863403,-0.0021647193934768,-0.00119777652435,0.0,0.0,-0.8332204818725586,-0.0956583619117736
-0.0176067352294921,1.2708479166030884,-0.0657977163791656,-0.4041313230991363,-0.0017177144763991,0.0089411381632089,0.0,0.0,-0.8808095455169678,0.2307674884796142
-0.0182259567081928,1.2616487741470337,-0.0628670305013656,-0.4088513255119324,-0.0007806523935869,0.0187429599463939,0.0,0.0,-0.8892399072647095,0.1801100969314575
-0.0188098903745412,1.2523434162139893,-0.0598236247897148,-0.4135715067386627,0.0006284067640081,0.0281837247312068,0.0,0.0,-0.9706478118896484,0.5023115873336792
-0.0193233489990234,1.242931604385376,-0.052356868982315,-0.4183008372783661,0.0016261340351775,0.0199563074856996,0.0,0.0,-0.7541846632957458,0.5827758312225342
-0.0197439193725585,1.2334179878234863,-0.0420904085040092,-0.4228242337703705,0.0016537150368094,0.0005516135715879,0.0,0.0,-0.9779409766197203,0.5937619209289551
-0.0200788490474224,1.2237951755523682,-0.0327113270759582,-0.427687257528305,0.000889589486178,-0.0152836861088871,0.0,0.0,-0.8243824243545532,0.0394563674926757
-0.0203748699277639,1.2140659093856812,-0.0292292144149541,-0.432407796382904,0.000513146398589,-0.0075297281146049,0.0,0.0,-0.9557413458824158,-0.175467848777771
-0.0206315033137798,1.204230546951294,-0.025646761059761,-0.4371281266212463,0.0004992299946025,-0.0002781726070679,0.0,0.0,-0.943767249584198,-0.6096126437187195
-0.0209074970334768,1.1942906379699707,-0.0294446349143981,-0.4417758584022522,0.0023199350107461,0.0364174731075763,0.0,0.0,-0.9745672345161438,-0.0803085565567016
-0.0211425777524709,1.184223175048828,-0.0256698783487081,-0.4474501609802246,0.0044495975598692,0.0425932593643665,0.0,0.0,-0.9437914490699768,0.4358034133911133
-0.0213361736387014,1.1740494966506958,-0.0218011736869812,-0.452168732881546,0.0068600960075855,0.0482098832726478,0.0,0.0,-0.9271546006202698,0.252485990524292
-0.0214877128601074,1.1637699604034424,-0.0178432185202837,-0.456887423992157,0.0095215952023863,0.0532299764454364,0.0,0.0,-0.8895925283432007,0.2099142074584961
-0.0215964317321777,1.1533843278884888,-0.0137996356934309,-0.4616062939167022,0.012402968481183,0.057627759873867,0.0,0.0,-0.9671549797058104,-0.2422075271606445
-0.0216621402651071,1.142892599105835,-0.0096741765737533,-0.4663252234458923,0.015471912920475,0.061378825455904,0.0,0.0,-0.977644979953766,-0.4019429683685303
-0.0216841697692871,1.1322948932647705,-0.0054707061499357,-0.4710442721843719,0.0186949539929628,0.0644606575369834,0.0,0.0,-0.9658163785934448,-0.1005197763442993
-0.0216622352600097,1.121591329574585,-0.0011932195629924,-0.4757634103298187,0.0220376066863536,0.0668532699346542,0.0,0.0,-0.9241939783096312,0.1744832992553711
-0.0215959548950195,1.1107816696166992,0.0031541790813207,-0.4804825782775879,0.0254645869135856,0.0685395374894142,0.0,0.0,-0.9042485356330872,0.7532486915588379
-0.0214316360652446,1.0998611450195312,0.0142644438892602,-0.4853921830654144,0.0276009161025285,0.0427267588675022,0.0,0.0,-0.9839035272598268,-0.2565701007843017
-0.0212224964052438,1.0888346433639526,0.0187388733029365,-0.4901106655597687,0.0297489780932664,0.0429614186286926,0.0,0.0,-0.8946869969367981,0.672173261642456
-0.0209136009216308,1.077709436416626,0.0301334466785192,-0.4944688081741333,0.0304939616471529,0.0148997213691473,0.0,0.0,-0.9833757281303406,-0.6284195780754089
-0.02061128616333,1.0664725303649902,0.0282150395214557,-0.4994620680809021,0.032481450587511,0.0397499054670333,0.0,0.0,-0.9661564230918884,-0.0772129893302917
-0.0202637668699026,1.0551292896270752,0.0328465327620506,-0.5041801333427429,0.0343697369098663,0.0377655252814292,0.0,0.0,-0.964655339717865,-0.3749892711639404
-0.0198708530515432,1.04367995262146,0.0375210382044315,-0.508898138999939,0.0361220613121986,0.0350462943315506,0.0,0.0,-0.8633710145950317,0.5663814544677734
-0.0193856246769428,1.032127857208252,0.0481161512434482,-0.5134420990943909,0.0365224778652191,0.0080081606283783,0.0,0.0,-0.957507848739624,-0.5396785736083984
-0.0189054496586322,1.0204710960388184,0.0465465560555458,-0.5181110501289368,0.0379782170057296,0.0291149411350488,0.0,0.0,-0.7583040595054626,0.1336135864257812
-0.0183799751102924,1.008708119392395,0.0513206198811531,-0.5228284597396851,0.0391912385821342,0.0242603253573179,0.0,0.0,-0.8814551830291748,0.6010096073150635
-0.0177539829164743,0.996835470199585,0.0630603209137916,-0.5276597738265991,0.0387400947511196,-0.0090228635817766,0.0,0.0,-0.9605584144592284,-0.2820667028427124
-0.0170828811824321,0.9848565459251404,0.0678752437233924,-0.5323768854141235,0.0379796512424945,-0.0152090042829513,0.0,0.0,-0.9470680356025696,-0.6967844367027283
-0.016425609588623,0.9727596640586852,0.0653431490063667,-0.5376478433609009,0.0383591577410697,0.0075903036631643,0.0,0.0,-0.8539836406707764,-0.1087921857833862
-0.015723705291748,0.9605564475059508,0.0701776444911956,-0.5423647165298462,0.0383677184581756,0.0001713094243314,0.0,0.0,-0.8810067772865295,-0.0335808396339416
-0.0149775501340627,0.9482468962669371,0.0750136896967887,-0.5470814108848572,0.0379766002297401,-0.0078222434967756,0.0,0.0,-0.9008544087409972,0.2882461547851562
-0.0141874309629201,0.9358310103416444,0.0798456668853759,-0.5517981648445129,0.0371585637331008,-0.016360905021429,0.0,0.0,-0.8302274942398071,0.0154783725738525
-0.0133536336943507,0.923308789730072,0.0846678614616394,-0.5565147995948792,0.0358878262341022,-0.0254146512597799,0.0,0.0,-0.9117883443832396,-0.8630715012550354
-0.0125471111387014,0.9106737971305848,0.0806152671575546,-0.5615543127059937,0.0359176099300384,0.000595562683884,0.0,0.0,-0.9809890985488892,-0.4979248642921448
-0.0116978641599416,0.8979323506355286,0.0854002982378006,-0.5662708878517151,0.035447746515274,-0.0093970168381929,0.0,0.0,-0.9085302352905272,0.0740613937377929
-0.010806274600327,0.8850846290588379,0.0901577621698379,-0.570987343788147,0.0344570577144622,-0.0198137834668159,0.0,0.0,-0.9400500059127808,-0.842499315738678
-0.0099273677915334,0.8721229434013367,0.0880494937300682,-0.5760695934295654,0.0342979580163955,-0.003181928070262,0.0,0.0,-0.9615827202796936,-0.4256776571273803
-0.0090073589235544,0.8590549230575562,0.092733234167099,-0.5807859897613525,0.0335799530148506,-0.0143599156290292,0.0,0.0,-0.9451016187667848,-0.4963562488555908
-0.0080467220395803,0.8458803296089172,0.0973705798387527,-0.5855024456977844,0.0322861224412918,-0.0258767362684011,0.0,0.0,-0.9336325526237488,-0.7053709030151367
-0.0071107866242527,0.8325931429862976,0.0938508510589599,-0.5905331969261169,0.0320267938077449,-0.0051864455454051,0.0,0.0,-0.939008355140686,-0.7638831734657288
-0.0061869621276855,0.8192042708396912,0.0919636636972427,-0.5950741171836853,0.0324429385364055,0.0083230333402752,0.0,0.0,-0.928959310054779,-0.186732530593872
-0.0052248002029955,0.8057088255882263,0.0964222326874733,-0.5997905135154724,0.0322400666773319,-0.004057437647134,0.0,0.0,-0.9171087741851808,-0.8341059684753418
-0.0042831422761082,0.7921128273010254,0.0935387462377548,-0.6042810678482056,0.0328582637012004,0.0123640755191445,0.0,0.0,-0.988745927810669,-0.465910255908966
-0.0033049583435058,0.7784103751182556,0.0978437811136245,-0.6089972853660583,0.0328343883156776,-0.000477541325381,0.0,0.0,-0.9678967595100404,-0.6005793809890747
-0.0023344992659986,0.7645940780639648,0.0966192036867141,-0.6140645146369934,0.0332520715892314,0.0083535220474004,0.0,0.0,-0.9346452355384828,-0.7629119157791138
-0.0013999938964843,0.750671923160553,0.0919016152620315,-0.618800699710846,0.0347782038152217,0.0305230319499969,0.0,0.0,-0.9768717288970948,-0.1187854409217834
-0.0004321098385844,0.7366431951522827,0.0959220081567764,-0.6235169768333435,0.0356349498033523,0.017134865745902,0.0,0.0,-0.9106971621513368,-0.7008231282234192
0.0005146980402059,0.7225062847137451,0.0931479930877685,-0.6283456087112427,0.0371542051434516,0.0303849186748266,0.0,0.0,-0.9693167805671692,0.2457143068313598
0.0014925956493243,0.7082628607749939,0.0969407930970192,-0.6330617070198059,0.0379899442195892,0.0167147051542997,0.0,0.0,-0.9292073249816896,-0.707362949848175
0.0024326324928551,0.6939095258712769,0.0921457484364509,-0.637974202632904,0.0398324988782405,0.0368508324027061,0.0,0.0,-0.7270419597625732,0.3878257274627685
0.0034010887611657,0.679449737071991,0.0956794843077659,-0.6426902413368225,0.040980190038681,0.0229540634900331,0.0,0.0,-0.8517408967018127,-0.8158637285232544
0.0043409345671534,0.6648702621459961,0.0921071171760559,-0.6480298638343811,0.04283157736063,0.0370275452733039,0.0,0.0,-0.9624784588813782,-0.0527592301368713
0.0053059579804539,0.6501842141151428,0.095349408686161,-0.6527456045150757,0.0439791530370712,0.0229516793042421,0.0,0.0,-0.7026836276054382,0.1480504274368286
0.0062948227860033,0.6353915929794312,0.0984336212277412,-0.6574611663818359,0.04441924020648,0.0088020311668515,0.0,0.0,-0.917472243309021,-0.8802188038825989
0.0072252275422215,0.6204907894134521,0.0912779495120048,-0.6623116135597229,0.0461662672460079,0.0349404290318489,0.0,0.0,-0.5507778525352478,0.7753667831420898
0.0082403179258108,0.6054893136024475,0.1021006256341934,-0.6667133569717407,0.0455779917538166,-0.0117655042558908,0.0,0.0,-0.7381605505943298,-0.896594226360321
0.0091873165220022,0.590385377407074,0.0938347429037094,-0.6713114976882935,0.0464375801384449,0.0171917099505662,0.0,0.0,-0.9612390995025636,-0.7318840622901917
0.010099982842803,0.5751714110374451,0.0898298919200897,-0.6762242913246155,0.0478577576577663,0.028403665870428,0.0,0.0,-0.7695856094360352,0.3605567216873169
0.011027050204575,0.5598507523536682,0.0919988602399826,-0.6809395551681519,0.0485584139823913,0.0140130314975976,0.0,0.0,-0.6181706786155701,-0.6237061619758606
0.0119229312986135,0.5444137454032898,0.0884940177202224,-0.6861253976821899,0.0496402196586132,0.0216362103819847,0.0,0.0,-0.8398761749267578,-0.4850205779075622
0.0128289218991994,0.5288701057434082,0.0902393758296966,-0.690840482711792,0.0500001236796379,0.007198148407042,0.0,0.0,-0.6202744841575623,-0.9603019952774048
0.0136655811220407,0.5132227540016174,0.0820769742131233,-0.6954923272132874,0.0515731088817119,0.031459666788578,0.0,0.0,-0.8407717943191528,0.037438154220581
0.0145078655332326,0.4974687397480011,0.0833675116300582,-0.7002073526382446,0.0524229183793067,0.016996394842863,0.0,0.0,-0.8439754843711853,-0.7257058620452881
0.0152850151062011,0.4816100895404815,0.0758575275540351,-0.7048971056938171,0.054261103272438,0.0367636047303676,0.0,0.0,0.0134131908416748,-0.6117019057273865
0.015914250165224,0.4659315347671509,0.0606639459729194,-0.696907639503479,0.0564887449145317,0.0445528589189052,0.0,0.0,-0.1722257137298584,-0.3063200712203979
0.016541576012969,0.4501464366912842,0.0612184889614582,-0.7016226053237915,0.0579930804669857,0.0300868041813373,0.0,0.0,0.1767412424087524,-0.501803994178772
0.0170225147157907,0.4348580539226532,0.0464619100093841,-0.6795483827590942,0.0596073120832443,0.0322847440838813,0.0,0.0,-0.5766599178314209,0.6379871368408203
0.0175421722233295,0.4194696843624115,0.0522322244942188,-0.6839151978492737,0.059344258159399,-0.0052610919810831,0.0,0.0,0.2418447732925415,-0.1338855624198913
0.0180120468139648,0.4047609567642212,0.0480247661471366,-0.6536841988563538,0.0583178028464317,-0.0205291341990232,0.0,0.0,0.3225911855697632,-0.8807774186134338
0.0184525493532419,0.3906439542770386,0.0439770556986331,-0.6274263262748718,0.0583923943340778,0.0014918386004865,0.0,0.0,0.2172565460205078,-0.7006139755249023
0.0188278201967477,0.376787781715393,0.0367358587682247,-0.6158576607704163,0.0591688081622123,0.0155284982174634,0.0,0.0,-0.6134311556816101,0.0603421926498413
0.0191850662231445,0.3628250062465668,0.0356683507561683,-0.6205720901489258,0.0592264495790004,0.0011526495218276,0.0,0.0,0.3076661825180053,-0.0119532942771911
0.0196110717952251,0.349442571401596,0.0427240766584873,-0.5947690606117249,0.0591051392257213,-0.0024260855279862,0.0,0.0,-0.4615077972412109,-0.8013228178024292
0.0199650768190622,0.3359429836273193,0.0350088849663734,-0.5999971628189087,0.0594945959746837,0.007789006922394,0.0,0.0,0.1589826345443725,0.2341111898422241
0.0202573779970407,0.3231254518032074,0.0295779015868902,-0.5696542859077454,0.0591507516801357,-0.0068770525977015,0.0,0.0,-0.586245596408844,-0.1554852128028869
0.0205204002559185,0.3102011978626251,0.0273712761700153,-0.5743686556816101,0.0580935813486576,-0.0211433228105306,0.0,0.0,0.857079267501831,-0.4267649054527282
0.0208475105464458,0.2983052730560303,0.0338488593697547,-0.5286632180213928,0.056972149759531,-0.0224287025630474,0.0,0.0,0.0946371555328369,-0.6836685538291931
0.0211494453251361,0.2866212129592895,0.0305857565253973,-0.5192744135856628,0.0565839894115924,-0.0077636428177356,0.0,0.0,-0.5322551131248474,-0.5884103775024414
0.0213630683720111,0.2748245894908905,0.0211923066526651,-0.5243032574653625,0.056761011481285,0.0035403664223849,0.0,0.0,0.1137958765029907,0.2528209686279297
0.0215602871030569,0.2637971341609955,0.0199878253042697,-0.4900979697704315,0.0564953051507473,-0.0053140250965952,0.0,0.0,-0.0684216022491455,-0.2350959777832031
0.0217142105102539,0.2526630163192749,0.0163760967552661,-0.4948126673698425,0.055524855852127,-0.0194090604782104,0.0,0.0,0.2208377122879028,-0.3135010004043579
0.0216979030519723,0.242295041680336,0.000482105941046,-0.4607230126857757,0.0534260347485542,-0.0419760160148143,0.0,0.0,0.2134093046188354,0.0742470026016235
0.0216693878173828,0.2325932383537292,-0.0003173805889673,-0.4311011433601379,0.0509219169616699,-0.0500824637711048,0.0,0.0,0.4996709823608398,-0.7699177861213684
0.0214400291442871,0.2238018810749054,-0.0211489126086235,-0.3906655013561249,0.0491610169410705,-0.0352177917957305,0.0,0.0,-0.4483709335327148,0.2259466648101806
0.0211569778621196,0.2149040251970291,-0.025812555104494,-0.3953808844089508,0.0467031076550483,-0.0491583719849586,0.0,0.0,-0.2888796329498291,0.1558619737625122
0.0208178516477346,0.2058996707201004,-0.0307240150868892,-0.4000966846942901,0.0435501970350742,-0.0630585104227066,0.0,0.0,-0.0996912121772766,-0.2217930555343628
0.0204201694577932,0.1967889666557312,-0.0358762815594673,-0.4048130214214325,0.0397043153643608,-0.0769175812602043,0.0,0.0,0.1759437322616577,0.0359950065612793
0.0198397636413574,0.1881243586540222,-0.0529412403702735,-0.3849668800830841,0.034672062844038,-0.1006449833512306,0.0,0.0,0.1150721311569213,0.2840979099273681
0.0192509647458791,0.1800845265388488,-0.053422175347805,-0.3572126924991607,0.0292817205190658,-0.1078068614006042,0.0,0.0,0.1927087306976318,-0.8611729741096497
0.0185723304748535,0.1723296493291854,-0.0634727627038955,-0.3445828855037689,0.0249487794935703,-0.0866590738296508,0.0,0.0,0.3269288539886474,0.1466854810714721
0.0179275516420602,0.1653918176889419,-0.0599374994635582,-0.3082791864871979,0.0204702951014041,-0.0895698592066764,0.0,0.0,-0.3697751760482788,-0.5868894457817078
0.0171652790158987,0.158351257443428,-0.0722319334745407,-0.3128633499145508,0.0165207684040069,-0.0789903551340103,0.0,0.0,-0.5356190204620361,-0.7541348338127136
0.0162860862910747,0.1512122303247451,-0.084387868642807,-0.3172557055950165,0.0130351958796381,-0.0697115361690521,0.0,0.0,-0.7120290398597717,0.336821436882019
0.0153337474912405,0.1439671814441681,-0.0910062864422798,-0.3219740092754364,0.0088721383363008,-0.0832611545920372,0.0,0.0,-0.6712852716445923,-0.0338618755340576
0.0143068311735987,0.1366160660982132,-0.0978011786937713,-0.3266929984092712,0.0040340246632695,-0.0967622324824333,0.0,0.0,-0.7521682381629944,-0.0391961932182312
0.0132033349946141,0.1291592419147491,-0.1047643274068832,-0.3314127922058105,-0.0014766440726816,-0.1102133393287658,0.0,0.0,-0.7564897537231445,-0.2986710667610168
0.0120219234377145,0.1215967014431953,-0.1118876114487648,-0.3361334502696991,-0.0076572750695049,-0.123612605035305,0.0,0.0,-0.4651710987091064,0.3432706594467163
0.0107608791440725,0.1139285862445831,-0.1191630363464355,-0.3408551216125488,-0.0145051795989274,-0.1369580924510955,0.0,0.0,-0.2194939255714416,-0.0715433955192565
0.0094189643859863,0.1061551868915557,-0.1265828013420105,-0.3455778956413269,-0.0220175571739673,-0.1502475142478943,0.0,0.0,0.2876485586166382,0.0791324377059936
0.0079876901581883,0.0989361107349395,-0.1347700655460357,-0.3209949433803558,-0.0302691608667373,-0.1650323569774627,0.0,0.0,-0.0586888790130615,0.2010531425476074
0.0064728735014796,0.0916120409965515,-0.1424559950828552,-0.325720340013504,-0.039179228246212,-0.1782015413045883,0.0,0.0,0.2178503274917602,0.3459705114364624
0.0049799918197095,0.0845749229192733,-0.1400564461946487,-0.3130289316177368,-0.0482992343604564,-0.1824002116918563,0.0,0.0,0.2551978826522827,0.0266188383102417
0.0035004615783691,0.0782061442732811,-0.1384203732013702,-0.2833912968635559,-0.0577285960316658,-0.1885869055986404,0.0,0.0,-0.1473753452301025,-0.3969964981079101
0.0019340515136718,0.0717330053448677,-0.1464527547359466,-0.288119912147522,-0.067806102335453,-0.2015503942966461,0.0,0.0,0.2918756008148193,-0.423708438873291
0.0003459930303506,0.0655156448483467,-0.148199662566185,-0.2768389880657196,-0.0782976597547531,-0.2098312377929687,0.0,0.0,0.2374156713485717,-0.0609661340713501
