x_pos,y_pos,x_vel,y_vel,angle,ang_vel,leg_1,leg_2,main_booster,lat_booster
-0.0015053749084472,1.4032708406448364,-0.1527820229530334,-0.3399698138236999,0.0020077240187674,0.0396226830780506,0.0,0.0,-0.72749559972511,-0.6217125436969781
-0.0030371665488928,1.3952878713607788,-0.156546413898468,-0.3548038303852081,0.0053348056972026,0.0665485635399818,0.0,0.0,0.6056187724221738,0.8771951270469299
-0.0043386458419263,1.3875352144241333,-0.13224957883358,-0.3445747792720794,0.0074105779640376,0.0415191687643528,0.0,0.0,0.7211301157674173,0.9592605439165394
-0.0056890486739575,1.380205512046814,-0.1352505087852478,-0.3257633149623871,0.0076123313046991,0.0040356395766139,0.0,0.0,0.0131085212400976,0.8207773370256352
-0.0068666459992527,1.3731262683868408,-0.1165972724556922,-0.3146268129348755,0.0064655668102204,-0.0229373630136251,0.0,0.0,-0.2345086578235209,-0.5863166633966346
-0.008061408996582,1.365692138671875,-0.1194634661078453,-0.330405056476593,0.0064570107497274,-0.0001714782410999,0.0,0.0,-0.4556622704246815,-4.728909770856937e-05
-0.0092377662658691,1.3579044342041016,-0.1178656592965126,-0.3461221158504486,0.0066874092444777,0.0046085715293884,0.0,0.0,0.2339894924785086,-0.5969727666890111
-0.0103226657956838,1.3504905700683594,-0.1104089468717575,-0.3295224010944366,0.0085768206045031,0.0377919375896453,0.0,0.0,0.0636772181844198,-0.3868037247624902
-0.0114017482846975,1.343530774116516,-0.1100295558571815,-0.3093364834785461,0.0106636835262179,0.0417412742972373,0.0,0.0,0.7188603038374675,0.1243096452879023
-0.0124716758728027,1.337350845336914,-0.1093398928642273,-0.2746814787387848,0.0129798986017704,0.0463287234306335,0.0,0.0,0.2224423792315168,0.9311925792006576
-0.0133817670866847,1.3314805030822754,-0.0917558968067169,-0.2609129250049591,0.0137198837473988,0.0148012787103652,0.0,0.0,0.1711011176603483,0.5040085053276447
-0.0141845699399709,1.32581889629364,-0.0803712159395217,-0.2516244351863861,0.0138094760477542,0.001792011433281,0.0,0.0,0.663976805341377,-0.0950724042081724
-0.0148481372743844,1.3208630084991455,-0.0673011317849159,-0.2202690541744232,0.0147440461441874,0.0186935998499393,0.0,0.0,-0.1008599682879733,-0.7864675880387533
-0.0155488969758152,1.3155449628829956,-0.0726545229554176,-0.2363886684179306,0.0172809474170207,0.0507427155971527,0.0,0.0,0.6511567685894697,-0.15191249762732
-0.0161057468503713,1.311112642288208,-0.0591407008469104,-0.1970311254262924,0.0206995364278554,0.0683781653642654,0.0,0.0,-0.5532139380780348,0.3124246679151367
-0.0166456215083599,1.3063267469406128,-0.057650126516819,-0.2127618491649627,0.0243320614099502,0.0726567432284355,0.0,0.0,-0.1052841632548846,0.9731978261783696
-0.0170742031186819,1.3012022972106934,-0.0443591028451919,-0.2277824878692627,0.0258010793477296,0.0293831527233123,0.0,0.0,-0.6518258638217014,0.6967557599917179
-0.0174181945621967,1.2957208156585691,-0.0343590416014194,-0.2436191290616989,0.0257682539522647,-0.0006566740339621,0.0,0.0,0.6550920623062293,0.3355439373494131
-0.0176691059023141,1.2910953760147097,-0.0257182270288467,-0.2055858969688415,0.0263937972486019,0.0125121194869279,0.0,0.0,-0.5878578877196055,-0.961980663203996
-0.0179899223148822,1.2861123085021973,-0.0351047068834304,-0.2215267717838287,0.0293834675103425,0.0597987286746501,0.0,0.0,0.971301838093658,-0.8344734821759584
-0.0182211883366107,1.282131552696228,-0.028379887342453,-0.1770327240228653,0.0345822758972644,0.1039855033159256,0.0,0.0,0.4920561548178015,-0.0122453986945031
-0.0184401515871286,1.2783970832824707,-0.0273927953094244,-0.1661188602447509,0.0400182232260704,0.1087284833192825,0.0,0.0,-0.3920798396902432,-0.102719812580973
-0.0186439510434865,1.274309158325195,-0.026058379560709,-0.1818416267633438,0.0456384643912315,0.1124148592352867,0.0,0.0,0.1915909433497158,-0.240431007207043
-0.0187927242368459,1.2702090740203855,-0.0209804009646177,-0.1824227124452591,0.0516714192926883,0.1206699460744857,0.0,0.0,-0.6489525227362296,0.0497366300595349
-0.0189270973205566,1.2657560110092163,-0.0197015795856714,-0.1981495320796966,0.0578778311610221,0.1241393238306045,0.0,0.0,0.0597519846017269,0.4559861922250733
-0.0191658027470111,1.2615965604782104,-0.0298760533332824,-0.1851101815700531,0.0638208389282226,0.1188600435853004,0.0,0.0,0.0958307044160038,-0.361137896764115
-0.0194186214357614,1.257805585861206,-0.0314687713980674,-0.1687639653682708,0.0699396505951881,0.122376300394535,0.0,0.0,0.7561333944968969,0.6799328570698974
-0.0198160167783498,1.2549710273742676,-0.0443550273776054,-0.1262032389640808,0.0745127871632576,0.0914628878235817,0.0,0.0,0.298818233291402,-0.3813238386077575
-0.0203476902097463,1.2526826858520508,-0.057461179792881,-0.1019251570105552,0.0787646919488906,0.0850380808115005,0.0,0.0,-0.7285213721427035,0.2020792698724601
-0.0208663940429687,1.250041127204895,-0.0563171990215778,-0.1176453307271003,0.0831644311547279,0.0879949703812599,0.0,0.0,-0.4185344001384656,0.6146926592555152
-0.0213230140507221,1.247059345245361,-0.0489723905920982,-0.1327099651098251,0.0864416509866714,0.0655442774295806,0.0,0.0,-0.968957245349884,0.9807571172714232
-0.0216999053955078,1.2437273263931274,-0.0394134074449539,-0.1481947898864746,0.0881554558873176,0.0342761203646659,0.0,0.0,-0.9977787733078004,0.9933714866638184
-0.0219979286193847,1.2400598526000977,-0.029946494847536,-0.1630009561777115,0.0882889553904533,0.0026699595618993,0.0,0.0,-0.9853852987289428,0.979128122329712
-0.0222151763737201,1.236039400100708,-0.0202278215438127,-0.1786023080348968,0.0868056714534759,-0.0296658724546432,0.0,0.0,-0.8279843330383301,0.9559990167617798
-0.0223443023860454,1.231677532196045,-0.0095552392303943,-0.1936692595481872,0.0834844782948494,-0.066424086689949,0.0,0.0,-0.8896434903144836,0.8473443984985352
-0.0223944671452045,1.2269773483276367,-1.745695772115141e-05,-0.2086254209280014,0.0785353928804397,-0.0989817678928375,0.0,0.0,-0.955049216747284,0.3914599418640136
-0.0224346164613962,1.221923828125,0.0008802398224361,-0.224345862865448,0.0736935138702392,-0.096837431192398,0.0,0.0,-0.9574328064918518,0.1213208436965942
-0.0224650390446186,1.216517210006714,0.0017405108083039,-0.2400661259889602,0.0689529255032539,-0.094811700284481,0.0,0.0,-0.8218351602554321,0.0272276401519775
-0.0224863048642873,1.2107572555541992,0.0025630239397287,-0.2557862401008606,0.0643077045679092,-0.0929044857621193,0.0,0.0,-0.8839951157569885,0.7081658840179443
-0.0224404335021972,1.20465087890625,0.0106905987486243,-0.2711507380008697,0.0582757741212844,-0.1206385120749473,0.0,0.0,-0.950843870639801,0.3906154632568359
-0.0223862640559673,1.1981912851333618,0.0114370193332433,-0.2868718802928924,0.0523274429142475,-0.1189667135477066,0.0,0.0,-0.959231436252594,0.3445523977279663
-0.0223241802304983,1.191378474235535,0.0121451262384653,-0.3025928139686584,0.0464568622410297,-0.1174114570021629,0.0,0.0,-0.9982150793075562,-0.5101001262664795
-0.0222883224487304,1.1842045783996582,0.0085890050977468,-0.318695604801178,0.0415103882551193,-0.0989293009042739,0.0,0.0,-0.9181517958641052,0.4280829429626465
-0.0222455020993948,1.1766773462295532,0.0092204716056585,-0.3344155550003052,0.0366302207112312,-0.0976033955812454,0.0,0.0,-0.9852158427238464,-0.2301098108291626
-0.022196102887392,1.1687966585159302,0.0098138339817523,-0.3501354157924652,0.0318107344210147,-0.0963897630572319,0.0,0.0,-0.9794561266899108,-0.1355595588684082
-0.0221406929194927,1.1605629920959473,0.0103693231940269,-0.3658551871776581,0.0270464234054088,-0.095286451280117,0.0,0.0,-0.9484687447547911,-0.6710696816444397
-0.0221272464841604,1.1519700288772583,0.0049077970907092,-0.3818460404872894,0.0235316790640354,-0.0702948793768882,0.0,0.0,-0.9203033447265624,-0.7296434044837952
-0.0221770294010639,1.143028974533081,-0.0032181437127292,-0.3973515927791595,0.0217826254665851,-0.03498100861907,0.0,0.0,-0.9169071316719056,-0.6184860467910767
-0.0222818367183208,1.1337378025054932,-0.0102741755545139,-0.4129358232021332,0.0215734280645847,-0.0041840830817818,0.0,0.0,-0.987418532371521,-0.0298495888710021
-0.022382354363799,1.1240931749343872,-0.009866246022284,-0.4286535382270813,0.0213985368609428,-0.0034980333875864,0.0,0.0,-0.9650545120239258,-0.7253928184509277
-0.0225225444883108,1.1140931844711304,-0.0149791119620203,-0.4444582760334015,0.0223520547151565,0.0190703142434358,0.0,0.0,-0.982932984828949,0.1009086370468139
-0.0226590149104595,1.1037397384643557,-0.0146413948386907,-0.4601760506629944,0.0233303289860487,0.0195654463022947,0.0,0.0,-0.9879130721092224,0.3977930545806885
-0.0227922443300485,1.0930323600769043,-0.0143376318737864,-0.4758938550949096,0.0243288408964872,0.0199702717363834,0.0,0.0,-0.981577455997467,0.2005161046981811
-0.0229226108640432,1.081971526145935,-0.0140669513493776,-0.4916116297245025,0.0253432635217905,0.0202884785830974,0.0,0.0,-0.9557128548622132,0.5135307312011719
-0.0229997634887695,1.070556879043579,-0.0074662812985479,-0.5073078870773315,0.0250955466181039,-0.0049542342312633,0.0,0.0,-0.8632757067680359,-0.6918982267379761
-0.0231382362544536,1.0587832927703855,-0.0152113856747746,-0.5232956409454346,0.0264503546059131,0.0270959585905075,0.0,0.0,-0.9295794367790222,-0.3810789585113525
-0.0232747085392475,1.0466560125350952,-0.0150340367108583,-0.5390136241912842,0.0278092604130506,0.0271782241761684,0.0,0.0,-0.9608048796653748,0.5244622230529785
-0.0233588218688964,1.034179449081421,-0.0084907123818993,-0.5545180439949036,0.0278863459825515,0.00154184398707,0.0,0.0,-0.8294479250907898,-0.9144209027290344
-0.0235053058713674,1.0213558673858645,-0.0163370445370674,-0.5699651837348938,0.0295527819544076,0.0333288162946701,0.0,0.0,-0.8842940926551819,0.0331460237503051
-0.0236509330570697,1.0081787109375,-0.0162427742034196,-0.5856831669807434,0.0312135051935911,0.0332143940031528,0.0,0.0,-0.8081488013267517,0.5855693817138672
-0.0237455368041992,0.994645357131958,-0.0098573667928576,-0.6014956831932068,0.0316025167703628,0.0077801896259188,0.0,0.0,-0.7387516498565674,0.0134705305099487
-0.0238398555666208,0.980758249759674,-0.0098120076581835,-0.6172133088111877,0.0319804362952709,0.0075583928264677,0.0,0.0,-0.8390078544616699,-0.0357835292816162
-0.0239340774714946,0.9665175080299376,-0.0097889974713325,-0.6329309940338135,0.0323449485003948,0.0072903954423964,0.0,0.0,-0.9205899834632874,-0.3448421955108642
-0.0240283962339162,0.9519230127334596,-0.0097868721932172,-0.6486486792564392,0.0326940156519413,0.006981243379414,0.0,0.0,-0.8375090956687927,-0.2172836661338806
-0.0241230018436908,0.9369750022888184,-0.0098041212186217,-0.6643664240837097,0.0330258347094059,0.00663627916947,0.0,0.0,-0.6996163129806519,-0.4387509226799011
-0.0242182724177837,0.9216732382774352,-0.0098391994833946,-0.6800840497016907,0.0333388783037662,0.0062606879509985,0.0,0.0,-0.641363263130188,0.2099279165267944
-0.0243142135441303,0.9060178995132446,-0.009890517219901,-0.6958016753196716,0.0336318761110305,0.0058599431067705,0.0,0.0,-0.0752838253974914,0.2227447032928466
-0.0244110114872455,0.8900088667869568,-0.0099564520642161,-0.7115193009376526,0.0339038521051406,0.0054395324550569,0.0,0.0,-0.5548979640007019,0.4596433639526367
-0.0245088580995798,0.8736462593078613,-0.0100353490561246,-0.7272369861602783,0.0341540873050689,0.0050049424171447,0.0,0.0,-0.4984972476959228,0.5808794498443604
-0.0245689395815134,0.8569293022155762,-0.005255970172584,-0.7429563999176025,0.033407587558031,-0.0149302380159497,0.0,0.0,0.0195859670639038,0.1510846614837646
-0.0247008316218853,0.8404822945594788,-0.012148487381637,,0.032376579940319,-0.0206200517714023,0.0,0.0,-0.5749778747558594,0.4394428730010986
-0.0248340610414743,0.8236817717552185,-0.0122560542076826,-0.7466694712638855,0.0313234142959117,-0.0210633687674999,0.0,0.0,-0.588257908821106,0.3899905681610107
-0.0249686241149902,0.8065275549888611,-0.0123696876689791,-0.7623871564865112,0.0302485022693872,-0.0214982144534587,0.0,0.0,-0.5492998957633972,-0.0639477372169494
-0.0251046176999807,0.789019763469696,-0.0124876080080866,-0.778104841709137,0.0291525665670633,-0.0219187662005424,0.0,0.0,0.068826675415039,-0.4482437372207641
-0.0252711288630962,0.771536648273468,-0.0154228415340185,-0.7770026922225952,0.0279356725513935,-0.0243378467857837,0.0,0.0,-0.2670072317123413,0.4468352794647217
-0.0254390724003314,0.7537000179290771,-0.0155439246445894,-0.7927204966545105,0.0267000403255224,-0.0247124955058097,0.0,0.0,0.3679101467132568,0.3128626346588135
-0.0256420131772756,0.7359299063682556,-0.0189060736447572,-0.7897536158561707,0.025326220318675,-0.0274763461202383,0.0,0.0,0.227783203125,-0.1808016300201416
-0.0258674621582031,0.7186899781227112,-0.0211062990128994,-0.7661964893341064,0.0239083133637905,-0.0283577796071767,0.0,0.0,-0.2756648659706116,-0.0512966513633728
-0.0260940548032522,0.7010965347290039,-0.0212183855473995,-0.7819143533706665,0.0224773194640874,-0.0286197923123836,0.0,0.0,0.0109833478927612,-0.2429367303848266
-0.0264018066227436,0.683897078037262,-0.0289897117763757,-0.7643954753875732,0.0207180082798004,-0.035186231136322,0.0,0.0,-0.4601495265960693,-0.003311276435852
-0.0267106052488088,0.6663439869880676,-0.0290865302085876,-0.7801133990287781,0.0189508125185966,-0.035344049334526,0.0,0.0,-0.4505279064178467,-0.523090660572052
-0.0270589832216501,0.6484408378601074,-0.0340237654745578,-0.7956851124763489,0.0181489828974008,-0.0160367228090763,0.0,0.0,0.4824967384338379,0.6698648929595947
-0.0274642948061227,0.630957305431366,-0.0381666384637355,-0.7770211696624756,0.015816930681467,-0.0466409474611282,0.0,0.0,0.2796027660369873,0.5844467878341675
-0.0278788562864065,0.6139100193977356,-0.0378295443952083,-0.7576228976249695,0.012233842164278,-0.0716616958379745,0.0,0.0,0.3183680772781372,-0.5408860445022583
-0.0283539779484272,0.5973479151725769,-0.0449429750442504,-0.7360737919807434,0.0097093489021062,-0.0504901334643363,0.0,0.0,-0.3281658887863159,0.219173789024353
-0.0288290977478027,0.5804323554039001,-0.0449691005051136,-0.7517920732498169,0.0071949572302401,-0.0502877123653888,0.0,0.0,0.1956171989440918,0.0137646198272705
-0.0292887687683105,0.5635349154472351,-0.04351806640625,-0.750988245010376,0.0047744424082338,-0.0484100952744483,0.0,0.0,0.7878947257995605,0.0571471452713012
-0.0296498294919729,0.5469381213188171,-0.0341411419212818,-0.7376275658607483,0.0028375331312417,-0.0387382432818412,0.0,0.0,0.3166136741638183,0.2010986804962158
-0.0298941619694232,0.5306709408760071,-0.0230550095438957,-0.722986102104187,0.0014671607641503,-0.0274074915796518,0.0,0.0,-0.1052033901214599,0.4655517339706421
-0.0301377288997173,0.5140500068664551,-0.0229916125535964,-0.7387039661407471,0.0001262223522644,-0.0268187969923019,0.0,0.0,0.947724461555481,0.4466228485107422
-0.0303867347538471,0.4984040856361389,-0.0235465802252292,-0.6953768134117126,-0.001210824586451,-0.0267408285290002,0.0,0.0,-0.4761849641799927,0.7559158802032471
-0.0305711738765239,0.4824101030826568,-0.0155355334281921,-0.7108461856842041,-0.0040876963175833,-0.0575373955070972,0.0,0.0,0.8942471742630005,-0.2482193708419799
-0.030607795342803,0.467208981513977,-0.0014614617684856,-0.6756136417388916,-0.0062575517222285,-0.0433970391750335,0.0,0.0,-0.1273755431175232,-0.0725768208503723
-0.030642032623291,0.4516542553901672,-0.0012806142913177,-0.6913318037986755,-0.0083747077733278,-0.0423430055379867,0.0,0.0,0.2687993049621582,0.2633237838745117
-0.0307106021791696,0.4363329708576202,-0.0045836768113076,-0.680957019329071,-0.0106194950640201,-0.0448959097266197,0.0,0.0,0.3233504295349121,0.1040985584259033
-0.0307008735835552,0.4216936826705932,0.002863232512027,-0.650651216506958,-0.0124851008877158,-0.0373123735189437,0.0,0.0,0.5849568843841553,-0.1232705116271972
-0.0307031627744436,0.407520055770874,0.0017007326241582,-0.6299546360969543,-0.0143818231299519,-0.0379345044493675,0.0,0.0,-0.3573263883590698,-0.3206521868705749
-0.0307013504207134,0.3929928541183471,0.002024597954005,-0.6456725597381592,-0.0161992125213146,-0.0363477207720279,0.0,0.0,0.5369551181793213,0.3256164789199829
-0.0306035038083791,0.3790836930274963,0.0111584533005952,-0.6181995868682861,-0.0175556447356939,-0.0271285362541675,0.0,0.0,0.0666232109069824,-0.0940183401107788
-0.0305267330259084,0.3655483424663543,0.0091204587370157,-0.601591944694519,-0.0189783126115798,-0.0284535028040409,0.0,0.0,0.5546188354492188,-0.1683499813079834
-0.0305089000612497,0.3527181446552276,0.0034871608950197,-0.5702511668205261,-0.0206600949168205,-0.0336355157196521,0.0,0.0,-0.3692067861557007,-0.2360800504684448
-0.0304850582033395,0.3395343422889709,0.0039760926738381,-0.5859689116477966,-0.0222332905977964,-0.0314639694988727,0.0,0.0,-0.0826721787452697,0.0177990198135375
-0.0304546356201171,0.3259969055652618,0.0045092082582414,-0.6016865968704224,-0.0236903112381696,-0.0291402246803045,0.0,0.0,0.8126139640808105,-0.2456817030906677
-0.0305686946958303,0.3129733800888061,-0.0092809479683637,-0.5788581967353821,-0.0257871728390455,-0.0419372394680976,0.0,0.0,0.8552289009094238,0.0739961862564086
-0.0305354110896587,0.3008016645908355,0.0047604059800505,-0.5409918427467346,-0.0272021796554327,-0.0283000823110342,0.0,0.0,0.6593017578125,-0.8053863048553467
-0.0304797179996967,0.2888246476650238,0.0051191132515668,-0.5323024392127991,-0.0267547648400068,0.0089482385665178,0.0,0.0,0.7143716812133789,-0.2722022533416748
-0.0302436836063861,0.2776750326156616,0.022299887612462,-0.4955171644687652,-0.025463780388236,0.0258195605129003,0.0,0.0,0.0015331506729125,-0.1159108281135559
-0.0300002098083496,0.2668776512145996,0.0229449681937694,-0.4798603951931,-0.0240817628800869,0.0276403725147247,0.0,0.0,-0.3423835635185241,-0.2291447520256042
-0.0297469142824411,0.2557266056537628,0.0237610172480344,-0.4955779314041137,-0.0225366167724132,0.0309032890945673,0.0,0.0,-0.1216593980789184,-0.7161797285079956
-0.0295327194035053,0.2442237287759781,0.0184178110212087,-0.511199414730072,-0.019576571881771,0.0592007413506507,0.0,0.0,0.686312198638916,0.3432643413543701
-0.0292986873537302,0.2336172610521316,0.0202653780579566,-0.471361368894577,-0.0164717175066471,0.0620970204472541,0.0,0.0,-0.1362072229385376,-0.0616199374198913
-0.0290530212223529,0.2226572632789611,0.0212299302220344,-0.4870796501636505,-0.0131801720708608,0.0658312290906906,0.0,0.0,0.4357267618179321,0.5842773914337158
-0.0286675449460744,0.2119359374046325,0.0360190495848655,-0.4764844179153442,-0.0106878085061907,0.0498471558094024,0.0,0.0,0.4297325611114502,-0.578841507434845
-0.0284246448427438,0.2016671448945999,0.0206548273563385,-0.4563677012920379,-0.0070980838499963,0.0717944577336311,0.0,0.0,0.5119776725769043,0.7374668121337891
-0.0282366760075092,0.1917502731084823,0.0166689474135637,-0.4407413601875305,-0.0049960506148636,0.0420405939221382,0.0,0.0,0.3403910398483276,0.2156069278717041
-0.0280500408262014,0.1821659207344055,0.0163972452282905,-0.4259637594223022,-0.002757613081485,0.0447687730193138,0.0,0.0,0.1086958646774292,-0.1977404356002807
-0.0278306007385253,0.1727648824453354,0.0193709805607795,-0.417819619178772,-0.0002139400166925,0.0508733913302421,0.0,0.0,0.2502510547637939,0.08936607837677
-0.0274971965700387,0.1634184867143631,0.0300593171268701,-0.4153975546360016,0.003018788062036,0.0646546110510826,0.0,0.0,0.6906468868255615,0.0461096763610839
-0.027050781995058,0.1547687649726867,0.0406672097742557,-0.3844496309757232,0.0069519095122814,0.0786623135209083,0.0,0.0,0.2440736293792724,-0.7388041019439697
-0.0266295429319143,0.1466833651065826,0.0363701656460762,-0.359385073184967,0.012626021169126,0.1134824380278587,0.0,0.0,-0.2858002781867981,0.167546272277832
-0.0261917114257812,0.1382449269294738,0.0377753935754299,-0.3751057386398315,0.0185529813170433,0.1185391545295715,0.0,0.0,0.1165980100631713,-0.5199925303459167
