x_pos,y_pos,x_vel,y_vel,angle,ang_vel,leg_1,leg_2,main_booster,lat_booster
-0.001495361328125,1.4030935764312744,-0.1513253003358841,-0.3478417694568634,0.0016028999816626,0.0316067896783351,0.0,0.0,0.5669450076741007,-0.6873112048540506
-0.002962875412777,1.3954124450683594,-0.1496555805206298,-0.3413894474506378,0.0044766343198716,0.0574805438518524,0.0,0.0,0.916549713874474,-0.763746088360396
-0.0042952536605298,1.387898087501526,-0.1378961056470871,-0.333986759185791,0.0090855881571769,0.09218779951334,0.0,0.0,-0.3647388194967855,-0.6148014581239354
-0.0056561469100415,1.3798506259918213,-0.142022043466568,-0.3577189445495605,0.0149498218670487,0.1172952502965927,0.0,0.0,0.907277448453073,0.82071043057286
-0.0067716599442064,1.3724093437194824,-0.1159832850098609,-0.330774188041687,0.0193405356258153,0.0878224447369575,0.0,0.0,-0.1210183610314461,-0.6357992070243463
-0.0078958515077829,1.3644353151321411,-0.1176175847649574,-0.3544789552688598,0.0244749970734119,0.1026986986398696,0.0,0.0,-0.157445864556184,-0.9367393088026672
-0.0090666767209768,1.3559281826019287,-0.123965635895729,-0.3782240152359009,0.0312899723649024,0.1363118290901184,0.0,0.0,-0.5761952983413434,0.9324132350485476
-0.0101159093901515,1.3468974828720093,-0.1092201098799705,-0.4014578759670257,0.0355443619191646,0.0850955545902252,0.0,0.0,0.0405780439415912,-0.9592254718845202
-0.0112383840605616,1.338132381439209,-0.1181970238685607,-0.3897177875041961,0.0414337553083896,0.1177985072135925,0.0,0.0,0.9349909043084392,0.89296133690849
-0.0122966766357421,1.3301212787628174,-0.10969790071249,-0.3561614751815796,0.045270450413227,0.0767408460378646,0.0,0.0,-0.3094211867173133,0.9742010594598552
-0.0132366176694631,1.321585774421692,-0.0953599363565445,-0.3793977200984955,0.0466120950877666,0.0268356688320636,0.0,0.0,-0.5265109285345355,0.9181442472567826
-0.0140651706606149,1.3125231266021729,-0.0818564593791961,-0.4027523696422577,0.0456224009394645,-0.0197959151118993,0.0,0.0,0.8614241958238609,0.6911524395288351
-0.0146862026304006,1.3041287660598757,-0.0598068758845329,-0.3730230033397674,0.0433526150882244,-0.0453997887670993,0.0,0.0,0.8756588067923978,0.7459144444902703
-0.0151498792693018,1.2958097457885742,-0.0424636714160442,-0.3696241080760956,0.0394894927740097,-0.0772698819637298,0.0,0.0,-0.3154328799428549,-0.6901532369148273
-0.0156246181577444,1.2869646549224854,-0.0443118140101432,-0.3930363953113556,0.0363523848354816,-0.0627475604414939,0.0,0.0,-0.962870405664318,-0.9637471263554608
-0.0161308292299509,1.277574062347412,-0.0486920177936553,-0.4173170924186706,0.0344514697790145,-0.0380216278135776,0.0,0.0,0.6853159407903533,0.9782801700740548
-0.0164014808833599,1.268984317779541,-0.0230600573122501,-0.381679892539978,0.030486486852169,-0.0793071761727333,0.0,0.0,0.2668157323242985,-0.8119273104292177
-0.0165902134031057,1.260290026664734,-0.0162807330489158,-0.3863576054573059,0.027923934161663,-0.051255565136671,0.0,0.0,0.2393601968386085,0.9702542338526507
-0.0166040416806936,1.2519841194152832,0.0034791969228535,-0.3690734207630157,0.0231149438768625,-0.0961884558200836,0.0,0.0,-0.1258082306863999,0.6150661320670603
-0.0165458675473928,1.243148684501648,0.0121047422289848,-0.3926032483577728,0.0168960858136415,-0.124388612806797,0.0,0.0,-0.5905832225776273,0.7983929875255192
-0.0163817405700683,1.233790636062622,0.025013068690896,-0.4158266484737396,0.0083976723253726,-0.1699835956096649,0.0,0.0,-0.1169916297674307,0.7147749585194952
-0.0161305423825979,1.2238999605178833,0.0355433039367198,-0.4395631551742553,-0.0019092090660706,-0.2061563730239868,0.0,0.0,0.2046575357394362,-0.7926436313114559
-0.0158041007816791,1.2140737771987915,0.0417432524263858,-0.4367489814758301,-0.0109051018953323,-0.1799336522817611,0.0,0.0,-0.2979831891783999,-0.8084322570634234
-0.0155057907104492,1.2037097215652466,0.0378730446100235,-0.4607003927230835,-0.018850740045309,-0.1589271575212478,0.0,0.0,-0.2642087572393197,0.7262548532616909
-0.015135383233428,1.1928167343139648,0.0465643256902694,-0.4842759072780609,-0.0282722655683755,-0.1884474754333496,0.0,0.0,0.7010652195622622,0.803728249238755
-0.0148191452026367,1.1824688911437988,0.0434675998985767,-0.460174947977066,-0.0399746969342231,-0.2340483963489532,0.0,0.0,0.880724725984547,0.6840847442688573
-0.0143841747194528,1.1728326082229614,0.0570836663246154,-0.4286939203739166,-0.0534047931432724,-0.2686017751693725,0.0,0.0,-0.5764802191888652,-0.7266072203536716
-0.013992691412568,1.162681221961975,0.0513342544436454,-0.4516530334949493,-0.0654546916484832,-0.240997701883316,0.0,0.0,0.4424830771532142,0.8040515289456748
-0.0135951042175292,1.153027057647705,0.054118663072586,-0.429771363735199,-0.0796668380498886,-0.284243106842041,0.0,0.0,0.8515277402205141,0.84365996394829
-0.0130886081606149,1.1436543464660645,0.0671289637684822,-0.4175185263156891,-0.0959951877593994,-0.3265670835971832,0.0,0.0,-0.5211212312853912,-0.7210946724069922
-0.0126125337556004,1.1337707042694092,0.0630497708916664,-0.4403303265571594,-0.1113138943910598,-0.3063742816448211,0.0,0.0,-0.2131415074629561,0.8862095657623597
-0.0120528219267725,1.123345136642456,0.0733199268579483,-0.4647389948368072,-0.1285614222288131,-0.3449510037899017,0.0,0.0,0.5009042907474879,0.9784475932159156
-0.0113845821470022,1.1134881973266602,0.0865637511014938,-0.4399091303348541,-0.1482260823249817,-0.3932933211326599,0.0,0.0,0.7811282159636204,0.7331470200472535
-0.0106544494628906,1.1036806106567385,0.0947076603770256,-0.4381866455078125,-0.1699119657278061,-0.4337180554866791,0.0,0.0,0.2230236345373484,0.8446917712970066
-0.0097452159970998,1.0940179824829102,0.1146048679947853,-0.4323358237743377,-0.1936684399843216,-0.4751294553279876,0.0,0.0,0.5707277168310287,-0.950343813427976
-0.0087308883666992,1.0849136114120483,0.1234635561704635,-0.4076626896858215,-0.2158788591623306,-0.4442083835601806,0.0,0.0,0.0952048955184101,-0.7621271068482955
-0.0077117918990552,1.0757502317428589,0.1227176040410995,-0.4104500412940979,-0.2369618117809295,-0.421658992767334,0.0,0.0,-0.0623289114493306,0.6089731228407507
-0.0066245077177882,1.0660500526428225,0.1311027854681015,-0.4348875284194946,-0.2597372829914093,-0.4555093348026275,0.0,0.0,-0.8414422411259128,0.6953961694836204
-0.0054693222045898,1.0558152198791504,0.1394064575433731,-0.4593012034893036,-0.2842107117176056,-0.4894692301750183,0.0,0.0,0.7740926404162118,0.936472860152068
-0.0040116310119628,1.0459551811218262,0.1716563105583191,-0.4434888660907745,-0.3109223544597626,-0.5342332124710083,0.0,0.0,0.8748726007572765,-0.6124869102626593
-0.002436924027279,1.0369234085083008,0.1826330125331878,-0.4070289731025696,-0.3371085524559021,-0.523724377155304,0.0,0.0,-0.6797589063644409,-0.9985598921775818
-0.0009080886957235,1.0273995399475098,0.1766474545001983,-0.4290392696857452,-0.3620614409446716,-0.4990579485893249,0.0,0.0,-0.8020549416542053,-0.99318665266037
0.0005689620738849,1.0173784494400024,0.1700084954500198,-0.451191633939743,-0.3857042491436004,-0.4728569090366363,0.0,0.0,-0.6414408087730408,-0.993780255317688
0.0019954680465161,1.006869912147522,0.1635209172964096,-0.4728522002696991,-0.4080250859260559,-0.4464172422885895,0.0,0.0,-0.4350519180297851,-0.9932293891906738
0.0033511160872876,0.995877206325531,0.1545833051204681,-0.4941863715648651,-0.4285522103309631,-0.4105426371097564,0.0,0.0,-0.7946844696998596,-0.9996252059936525
0.0046450616791844,0.9843964576721193,0.1468354165554046,-0.515691339969635,-0.447559505701065,-0.3801456391811371,0.0,0.0,0.0294817686080932,-0.9990147352218628
0.0060337064787745,0.9727835655212402,0.1546620279550552,-0.5212761163711548,-0.4649102985858917,-0.3470156192779541,0.0,0.0,-0.4278411269187927,-0.9938794374465942
0.0073464391753077,0.9607169032096864,0.1450350880622863,-0.540973424911499,-0.4801600873470306,-0.3049956262111664,0.0,0.0,-0.7652963399887085,-0.9907521605491638
0.0085793491452932,0.9481973648071288,0.1349988132715225,-0.5605478882789612,-0.4932403564453125,-0.2616056501865387,0.0,0.0,-0.3056482076644897,-0.981545090675354
0.0097403526306152,0.9352050423622132,0.1261851787567138,-0.5810871720314026,-0.5045668482780457,-0.2265300303697586,0.0,0.0,-0.65680330991745,-0.9886828660964966
0.0108469007536768,0.9217283129692078,0.1196056976914405,-0.6022980809211731,-0.5146843791007996,-0.2023502141237259,0.0,0.0,-0.6075860857963562,-0.998924732208252
0.0118763921782374,0.9077929854393004,0.1101409643888473,-0.6220806241035461,-0.5228552222251892,-0.1634168177843094,0.0,0.0,-0.3172005414962768,-0.8976070880889893
0.0128475185483694,0.8933688998222351,0.1032403483986854,-0.6434513330459595,-0.5298547148704529,-0.1399880945682525,0.0,0.0,-0.4175560474395752,-0.9857194423675536
0.0137467384338378,0.8784824013710022,0.0945252627134323,-0.6634252071380615,-0.5351346731185913,-0.1055992692708969,0.0,0.0,0.0313987731933593,-0.9922582507133484
0.0148185733705759,0.8634309768676758,0.1103511452674865,-0.6702102422714233,-0.5387779474258423,-0.0728655159473419,0.0,0.0,-0.6503086686134338,-0.9920737743377686
0.0157985687255859,0.8479167819023132,0.09937284886837,-0.6900748014450073,-0.5403561592102051,-0.0315640643239021,0.0,0.0,-0.5503991842269897,-0.9980586767196656
0.016710091382265,0.831932544708252,0.091280847787857,-0.710456907749176,-0.5404985547065735,-0.002848457545042,0.0,0.0,-0.574329674243927,-0.9684267640113832
0.0175557136535644,0.8154683709144592,0.0836179107427597,-0.7313652038574219,-0.5394152402877808,0.0216663312166929,0.0,0.0,-0.6664519906044006,-0.9970108866691588
0.0183269493281841,0.7985371351242065,0.0748743414878845,-0.751603901386261,-0.5368245840072632,0.0518132634460926,0.0,0.0,-0.6935371160507202,-0.9910137057304382
0.0190049167722463,0.7811518311500549,0.0637750476598739,-0.77109295129776,-0.5322112441062927,0.0922667384147644,0.0,0.0,-0.8288329839706421,-0.9973491430282592
0.0195948593318462,0.7632853388786316,0.0536011941730976,-0.7919610738754272,-0.5260355472564697,0.1235138550400734,0.0,0.0,-0.8101843595504761,-0.9782343506813048
0.0200840942561626,0.7449624538421631,0.0416847430169582,-0.8115739226341248,-0.5177910923957825,0.1648885458707809,0.0,0.0,-0.9227691292762756,-0.8998162746429443
0.0204964634031057,0.7261514067649841,0.0329499952495098,-0.8329238891601562,-0.508392870426178,0.1879643350839615,0.0,0.0,-0.9369876384735109,-0.9609450101852416
0.0208168979734182,0.7068669199943542,0.0222901776432991,-0.8534989953041077,-0.4973957240581512,0.2199426591396331,0.0,0.0,-0.8519203066825867,-0.8787484169006348
0.0210444442927837,0.6870984435081482,0.0116158938035368,-0.8746224045753479,-0.4849315285682678,0.2492846250534057,0.0,0.0,-0.8292074203491211,-0.9481397271156312
0.0211598388850688,0.6668664216995239,-0.0015122751938179,-0.8946836590766907,-0.4704115092754364,0.2904001772403717,0.0,0.0,-0.6065911054611206,-0.8047804236412048
0.0211891178041696,0.6461580395698547,-0.0113957040011882,-0.9155980944633484,-0.4545962512493133,0.3163053393363952,0.0,0.0,-0.2590639591217041,-0.8088653087615967
0.0211297031491994,0.6249515414237976,-0.0213974677026271,-0.937572181224823,-0.4376770853996277,0.3383833169937134,0.0,0.0,0.5802969932556152,-0.1025734543800354
0.0214012153446674,0.6043126583099365,0.0117775117978453,-0.9125864505767822,-0.4209773242473602,0.3339949548244476,0.0,0.0,0.6115207672119141,-0.4984607696533203
0.0217370986938476,0.5838362574577332,0.0188122186809778,-0.905731737613678,-0.4050375521183014,0.3187955021858215,0.0,0.0,0.5873169898986816,-0.3553192615509033
0.0222059246152639,0.563782811164856,0.0326960124075412,-0.8872820138931274,-0.3898375332355499,0.3040005564689636,0.0,0.0,-0.213484525680542,-0.2060022354125976
0.0226306915283203,0.5432031154632568,0.0285008456557989,-0.9108998775482178,-0.3749652206897735,0.2974455654621124,0.0,0.0,0.9279918670654296,-0.6815024018287659
0.0231721885502338,0.5235980153083801,0.0394393540918827,-0.8675578832626343,-0.3593991696834564,0.3113211095333099,0.0,0.0,0.461895227432251,-0.0925657153129577
0.023906897753477,0.5041497945785522,0.0586918666958808,-0.8607406616210938,-0.3438520133495331,0.3109431266784668,0.0,0.0,0.8192241191864014,-0.0042033195495605
0.0247028358280658,0.4848021268844604,0.0652030408382415,-0.8565341830253601,-0.3287918269634247,0.3012036681175232,0.0,0.0,0.3863029479980469,-0.5733070969581604
0.0255511291325092,0.4653013348579407,0.0694220289587974,-0.8632785081863403,-0.3127459585666656,0.320917546749115,0.0,0.0,0.0859819650650024,-0.6030739545822144
0.0263479240238666,0.4456197917461395,0.0633123144507408,-0.8712988495826721,-0.2958147823810577,0.3386233150959015,0.0,0.0,0.964989423751831,-0.6484450101852417
0.0273088458925485,0.4267987608909607,0.0786691457033157,-0.8330549001693726,-0.2778882384300232,0.3585315346717834,0.0,0.0,0.886986255645752,-0.7524338364601135
0.028510857373476,0.408787190914154,0.10127754509449,-0.7970319986343384,-0.2585046291351318,0.3876720070838928,0.0,0.0,0.7667741775512695,-0.6191888451576233
0.0297100059688091,0.3915925920009613,0.1002532094717025,-0.7608645558357239,-0.2384753823280334,0.4005846381187439,0.0,0.0,-0.3010977506637573,-0.7346914410591125
0.0307829864323139,0.3738912940025329,0.0860367864370346,-0.7834237217903137,-0.2169366925954818,0.4307738244533539,0.0,0.0,0.8886710405349731,-0.3654309511184692
0.0320377349853515,0.3569749295711517,0.1041858047246933,-0.7488546371459961,-0.1954643577337265,0.4294469952583313,0.0,0.0,0.7933335304260254,-0.5790492296218872
0.0331948287785053,0.3405014276504516,0.0937419086694717,-0.729408323764801,-0.1734156906604766,0.4409735202789306,0.0,0.0,0.760456919670105,-0.2821248769760132
0.0343589782714843,0.324586272239685,0.094917245209217,-0.7049732208251953,-0.1519045084714889,0.4302243590354919,0.0,0.0,0.3552889823913574,-0.6363306045532227
0.035488985478878,0.3090147972106933,0.0904360637068748,-0.6899159550666809,-0.1293993592262268,0.4501029551029205,0.0,0.0,0.7481158971786499,0.408873438835144
0.0367281921207904,0.2938175499439239,0.1011102646589279,-0.6736099720001221,-0.1067215278744697,0.4535564482212066,0.0,0.0,0.9792786836624146,-0.0133472084999084
0.0379765518009662,0.2787038385868072,0.1020933240652084,-0.6702534556388855,-0.0841593593358993,0.4512434005737304,0.0,0.0,0.8720531463623047,0.055653691291809
0.0393045432865619,0.2637351751327514,0.1097553595900535,-0.6641402840614319,-0.0613507069647312,0.4561733305454254,0.0,0.0,0.93945574760437,0.2443965673446655
0.0407816879451274,0.2492307275533676,0.1240646392107009,-0.6438410878181458,-0.0379753150045871,0.4675076603889465,0.0,0.0,0.9983665943145752,0.6578665971755981
0.0424443259835243,0.2348991483449936,0.1436580121517181,-0.6365318298339844,-0.0156567972153425,0.4463707506656647,0.0,0.0,0.9521262645721436,-0.4084292650222778
0.0440483093261718,0.2213750183582306,0.1380398273468017,-0.600985586643219,0.0064147575758397,0.44143146276474,0.0,0.0,0.9958124160766602,0.7203924655914307
0.0456772819161415,0.2087071239948272,0.1421007364988327,-0.563237190246582,0.0269452799111604,0.4106103777885437,0.0,0.0,0.9852452278137208,0.312219500541687
0.0473671928048133,0.1967220157384872,0.1477071344852447,-0.5331870913505554,0.0479691550135612,0.4204774796962738,0.0,0.0,0.9313915967941284,0.5431749820709229
0.0491392128169536,0.1847897619009018,0.1568604111671447,-0.5310944318771362,0.0680876523256301,0.4023699164390564,0.0,0.0,0.9172277450561525,0.7589263916015625
0.0507969856262207,0.1732130646705627,0.147312730550766,-0.5154593586921692,0.0863649696111679,0.3655465841293335,0.0,0.0,0.9307596683502196,0.3580188751220703
0.0523977279663085,0.162629634141922,0.1413581371307373,-0.4715647399425506,0.1049288883805275,0.3712781369686126,0.0,0.0,0.73110032081604,0.8393861055374146
0.0539063438773155,0.1524146348237991,0.1340707391500473,-0.4552603960037231,0.1216095238924026,0.3336125910282135,0.0,0.0,0.6627806425094604,0.5858075618743896
0.0551604256033897,0.1428533196449279,0.1103078573942184,-0.4262461066246032,0.1366297751665115,0.3004052340984344,0.0,0.0,0.7838134765625,0.5082809925079346
0.0563806518912315,0.1339146196842193,0.1078384891152381,-0.3986386656761169,0.1507800966501236,0.2830067276954651,0.0,0.0,0.5710911750793457,0.7318446636199951
0.0574253089725971,0.1255108714103698,0.0919993296265602,-0.3748080134391784,0.1632279306650161,0.2489566355943679,0.0,0.0,0.4509899616241455,0.8161497116088867
0.0582755096256732,0.1175528615713119,0.0744603425264358,-0.3548851311206817,0.1738069206476211,0.2115799635648727,0.0,0.0,0.7657867670059204,0.8430211544036865
0.0590007789433002,0.1098582819104194,0.0638096034526825,-0.3430245220661163,0.1825360655784607,0.1745828837156295,0.0,0.0,0.8752501010894775,-0.0035759210586547
0.059401512145996,0.1026044487953186,0.0320867374539375,-0.3233940899372101,0.1905551254749298,0.1603818237781524,0.0,0.0,0.9607127904891968,-0.1209385991096496
0.0594387054443359,0.0956852063536644,-0.0033481419086456,-0.3084483444690704,0.1976618021726608,0.1421335041522979,0.0,0.0,0.8389599323272705,0.1924977302551269
0.0593637451529502,0.0894468873739242,-0.0150111094117164,-0.27828249335289,0.2052383571863174,0.1515311300754547,0.0,0.0,0.3191468715667724,0.8871273994445801
0.0592826828360557,0.0831418335437774,-0.0138337193056941,-0.2810309827327728,0.2110176831483841,0.1155864968895912,0.0,0.0,0.4600626230239868,0.6583154201507568
0.0591773018240928,0.0773606374859809,-0.0151658905670046,-0.257609099149704,0.2156898826360702,0.0934441089630127,0.0,0.0,0.3658915758132934,0.7591609954833984
0.0589006431400775,0.0720074474811554,-0.0307019613683223,-0.2383668571710586,0.2187584340572357,0.0613714531064033,0.0,0.0,0.5044108629226685,0.8401625156402588
0.0585896484553813,0.0673412680625915,-0.0326210781931877,-0.2076107710599899,0.2202978432178497,0.0307880733162164,0.0,0.0,-0.2608325481414795,0.7574570178985596
0.0582735054194927,0.0621664635837078,-0.0314274653792381,-0.2299622893333435,0.2200998812913894,-0.0039592697285115,0.0,0.0,0.8493616580963135,0.8700766563415527
0.057743739336729,0.0578267909586429,-0.0510141029953956,-0.1925826370716095,0.2181192934513092,-0.0396117158234119,0.0,0.0,0.3951668739318847,0.9006805419921875
0.0571243278682231,0.0539802871644496,-0.0582405813038349,-0.1704152226448059,0.214377224445343,-0.0748412683606147,0.0,0.0,0.3764106035232544,0.9301494359970092
0.056500244885683,0.0502065978944301,-0.0569285526871681,-0.1669328957796096,0.2088415473699569,-0.1107134073972702,0.0,0.0,0.030503511428833,0.9545295238494872
0.0557089820504188,0.0464653111994266,-0.0717930793762207,-0.1652626991271972,0.2014477252960205,-0.1478764116764068,0.0,0.0,0.5938903093338013,0.8593266010284424
0.0546785369515419,0.0429006926715374,-0.0938154533505439,-0.157196044921875,0.1921604871749878,-0.185744896531105,0.0,0.0,-0.0638798475265502,0.9828943014144896
0.0536505691707134,0.0388278104364872,-0.0917063578963279,-0.1796196550130844,0.1810178458690643,-0.2228527516126632,0.0,0.0,0.6327238082885742,0.9688148498535156
0.0525606162846088,0.0350306592881679,-0.0960372537374496,-0.1672289371490478,0.1680256128311157,-0.2598445117473602,0.0,0.0,0.007392406463623,0.977241039276123
0.0515351295471191,0.0310645680874586,-0.0876222103834152,-0.174649566411972,0.1530924290418625,-0.2986640930175781,0.0,0.0,0.1336091756820678,0.9729257822036744
0.050520896911621,0.0273067578673362,-0.0845698565244674,-0.1653664261102676,0.1362820267677307,-0.3362081944942474,0.0,0.0,0.527644157409668,0.9411102533340454
0.0494333282113075,0.0241604186594486,-0.0900941342115402,-0.138237789273262,0.1177027970552444,-0.3715848326683044,0.0,0.0,-0.2575229406356811,0.9233384132385254
0.0483557693660259,0.0204925164580345,-0.0870892032980918,-0.1615167260169983,0.0971870422363281,-0.4103153347969055,0.0,0.0,-0.4304391145706177,0.2292232513427734
