x_pos,y_pos,x_vel,y_vel,angle,ang_vel,leg_1,leg_2,main_booster,lat_booster
-0.0015240669017657,1.403255820274353,-0.1541356295347213,-0.3406386971473694,0.001542656100355,0.0304140653461217,0.0,0.0,-0.2361347675323486,0.6487710475921631
-0.0029935836791992,1.3952428102493286,-0.1468295603990554,-0.3561324179172516,0.0014224303886294,-0.0024039540439844,0.0,0.0,-0.2899379730224609,0.8077001571655273
-0.0043862340971827,1.386854887008667,-0.1369341015815735,-0.3727953135967254,-0.0008792905136942,-0.0460388138890266,0.0,0.0,-0.088560402393341,0.2470207214355468
-0.0057795522734522,1.3780981302261353,-0.1367679685354232,-0.3891868889331817,-0.0034121796488761,-0.0506624765694141,0.0,0.0,0.0584223270416259,0.5505962371826172
-0.0070370673201978,1.369600534439087,-0.1220116838812828,-0.3776806890964508,-0.0071045351214706,-0.0738542154431343,0.0,0.0,-0.045774221420288,-0.5041875243186951
-0.0083259586244821,1.360733985900879,-0.1257074624300003,-0.3940890729427337,-0.0102588413283228,-0.0630917474627494,0.0,0.0,0.2650812864303589,-0.0203102231025695
-0.0096285818144679,1.352162480354309,-0.1267613619565963,-0.3809860944747925,-0.0137302055954933,-0.0694333463907241,0.0,0.0,0.0033779144287109,0.3354971408843994
-0.0108362194150686,1.343809723854065,-0.1174551844596862,-0.3712673485279083,-0.0170035175979137,-0.0654720813035965,0.0,0.0,-0.5259559750556946,0.6410295963287354
-0.0119955064728856,1.3350942134857178,-0.1111248955130577,-0.3874194324016571,-0.0217562988400459,-0.0950641632080078,0.0,0.0,-0.4549561142921448,0.0340309143066406
-0.013156128115952,1.3260104656219482,-0.1110133752226829,-0.4038072228431701,-0.0267438571900129,-0.0997602790594101,0.0,0.0,-0.5101664662361145,0.1619160175323486
-0.0143179893493652,1.3165583610534668,-0.1109123453497886,-0.4201968610286712,-0.03196756914258,-0.1044840961694717,0.0,0.0,-0.1749886274337768,-0.5043599605560303
-0.0155164720490574,1.3067386150360107,-0.1152232885360717,-0.4365401566028595,-0.0365450084209442,-0.0915569067001342,0.0,0.0,0.242958664894104,0.521269679069519
-0.0165493972599506,1.297333836555481,-0.0976194366812706,-0.4181329011917114,-0.0421529822051525,-0.1121695041656494,0.0,0.0,-0.3779155015945434,0.524988055229187
-0.0175379756838083,1.2875531911849976,-0.0917776376008987,-0.4349107146263122,-0.049158975481987,-0.140132874250412,0.0,0.0,-0.6580963730812073,0.0594476461410522
-0.0185282714664936,1.27740478515625,-0.0917118564248085,-0.4513007998466491,-0.0564014576375484,-0.1448629647493362,0.0,0.0,-0.8391690254211426,-0.0639959573745727
-0.0195203777402639,1.2668883800506592,-0.0916559845209121,-0.467693954706192,-0.0638812780380249,-0.1496102511882782,0.0,0.0,-0.8555425405502319,-0.8254913687705994
-0.0205641742795705,1.2560186386108398,-0.0978619009256362,-0.4833936393260956,-0.0703311190009117,-0.1290086507797241,0.0,0.0,-0.9095527529716492,-0.7320075035095215
-0.0216542240232229,1.2447794675827026,-0.1033812165260315,-0.4998039603233337,-0.0759095922112464,-0.1115792989730835,0.0,0.0,-0.2577118277549743,-0.6607002019882202
-0.0227897651493549,1.2331831455230713,-0.1088038086891174,-0.5156421065330505,-0.0806223675608635,-0.0942641571164131,0.0,0.0,-0.0185410976409912,-0.8249813914299011
-0.0240012165158987,1.2212270498275757,-0.1180370002985,-0.5315544605255127,-0.0837128162384033,-0.0618143565952777,0.0,0.0,0.1541328430175781,-0.6176868677139282
-0.0251205451786518,1.2096856832504272,-0.1099701672792434,-0.5130565762519836,-0.0856561288237571,-0.0388692244887352,0.0,0.0,-0.4864768385887146,-0.4050789475440979
-0.026242446154356,1.1977758407592771,-0.1099862903356552,-0.5294535160064697,-0.0878383368253707,-0.0436482951045036,0.0,0.0,-0.5823536515235901,-0.5749874114990234
-0.0274024959653615,1.1855015754699707,-0.1144709140062332,-0.5456147789955139,-0.089360736310482,-0.0304505433887243,0.0,0.0,-0.1201999187469482,-0.0964324474334716
-0.0285653118044137,1.172858715057373,-0.1145042553544044,-0.5620054006576538,-0.0911220982670784,-0.0352307967841625,0.0,0.0,0.1480299234390258,-0.4336750507354736
-0.0297884941101074,1.1605291366577148,-0.1198421344161033,-0.5481351017951965,-0.0935793593525886,-0.0491495728492736,0.0,0.0,0.4360408782958984,-0.6307829022407532
-0.0311463363468647,1.148753643035889,-0.1340485662221908,-0.5234726667404175,-0.0952984690666198,-0.0343823432922363,0.0,0.0,-0.1962006092071533,-0.7792233824729919
-0.0325678810477256,1.1366231441497805,-0.141731396317482,-0.539158284664154,-0.0957113280892372,-0.0082571413367986,0.0,0.0,-0.4415966272354126,0.8260374069213867
-0.0339409820735454,1.1241254806518557,-0.1353507339954376,-0.5555762052536011,-0.0976492092013359,-0.0387574657797813,0.0,0.0,-0.0169692635536193,0.0373414754867553
-0.0353171341121196,1.111259698867798,-0.1354248970746994,-0.5719648599624634,-0.0998256281018257,-0.0435285717248916,0.0,0.0,-0.09639173746109,-0.5636100769042969
-0.036742590367794,1.0980300903320312,-0.1412826776504516,-0.5880627036094666,-0.1010783910751342,-0.0250553227961063,0.0,0.0,-0.9645259976387024,-0.3695343732833862
-0.0381713882088661,1.0844322443008425,-0.1413697898387909,-0.6044512391090393,-0.1025694832205772,-0.0298216752707958,0.0,0.0,-0.4871188402175903,-0.3500397205352783
-0.0396033301949501,1.0704660415649414,-0.1414629071950912,-0.6208398342132568,-0.1042987331748008,-0.0345846489071846,0.0,0.0,-0.5449188351631165,-0.5678997039794922
-0.0410892479121685,1.0561447143554688,-0.1479024291038513,-0.6365477442741394,-0.1049761697649955,-0.0135486973449587,0.0,0.0,-0.6111904382705688,-0.4098000526428222
-0.042578600347042,1.0414552688598633,-0.1480066329240799,-0.6529362201690674,-0.1058913618326187,-0.0183036401867866,0.0,0.0,-0.6085014939308167,-0.3337948322296142
-0.0440712943673133,1.0263972282409668,-0.1481159329414367,-0.6693246960639954,-0.1070440635085105,-0.0230539124459028,0.0,0.0,-0.7365788817405701,0.3107715845108032
-0.0455676093697547,1.0109710693359375,-0.148230031132698,-0.6857132315635681,-0.1084339991211891,-0.0277988072484731,0.0,0.0,-0.941120147705078,-0.0454199910163879
-0.0470674522221088,0.995176374912262,-0.1483486592769622,-0.7021018862724304,-0.1100609004497528,-0.0325377434492111,0.0,0.0,0.8262560367584229,-0.0692089796066284
-0.0484366416931152,0.9802611470222472,-0.1352404057979583,-0.6630290746688843,-0.1117297783493995,-0.0333775430917739,0.0,0.0,0.1221295595169067,0.2567269802093506
-0.0497721657156944,0.9658350348472596,-0.1315160542726516,-0.6413136720657349,-0.1137585341930389,-0.0405750721693038,0.0,0.0,-0.9702903628349304,-0.9324129819869996
-0.0511812195181846,0.9510537981987,-0.140404924750328,-0.6569824814796448,-0.1142495572566986,-0.0098208282142877,0.0,0.0,-0.8208569884300232,-0.2805661559104919
-0.052593994885683,0.9359042644500732,-0.1405387818813324,-0.6733711361885071,-0.1149759963154792,-0.0145290475338697,0.0,0.0,-0.9316298365592957,-0.0836842656135559
-0.0540103912353515,0.9203863739967346,-0.1406757980585098,-0.6897597908973694,-0.1159373894333839,-0.0192275680601596,0.0,0.0,-0.645693838596344,-0.3417197465896606
-0.0554306022822856,0.904500126838684,-0.1408157050609588,-0.7061484456062317,-0.117133155465126,-0.0239152703434228,0.0,0.0,-0.2855596542358398,-0.8488055467605591
-0.0569104179739952,0.8882536292076111,-0.1479624956846237,-0.7220655083656311,-0.1171488314867019,-0.0003135113220196,0.0,0.0,-0.546595573425293,-0.0072314739227294
-0.0583939552307128,0.871638834476471,-0.1481074392795562,-0.7384541630744934,-0.1173976734280586,-0.004976843483746,0.0,0.0,0.224846601486206,-0.780424177646637
-0.0598757751286029,0.8550208806991577,-0.1492991000413894,-0.7384870052337646,-0.1162861138582229,0.0222312398254871,0.0,0.0,0.0840823650360107,-0.2883803248405456
-0.0612876899540424,0.8384645581245422,-0.1422554105520248,-0.7357539534568787,-0.1152210906147956,0.0213004313409328,0.0,0.0,0.0874347686767578,-0.5612160563468933
-0.0627655014395713,0.8223854899406433,-0.1496227830648422,-0.714485764503479,-0.113397791981697,0.0364660397171974,0.0,0.0,-0.4898680448532104,-0.1146413087844848
-0.064247228205204,0.8059380054473877,-0.1497750878334045,-0.7308745980262756,-0.1118044331669807,0.0318671204149723,0.0,0.0,-0.936825394630432,0.2165150642395019
-0.0657327622175216,0.7891223430633545,-0.1499286293983459,-0.7472632527351379,-0.1104400381445884,0.0272882282733917,0.0,0.0,-0.7827135920524597,0.1912875175476074
-0.0672221183776855,0.7719383239746094,-0.1500832587480545,-0.7636519074440002,-0.1093034669756889,0.0227313004434108,0.0,0.0,-0.6236300468444824,0.2249622344970703
-0.0687153786420822,0.7543858289718628,-0.1502387225627899,-0.780040442943573,-0.1083935350179672,0.0181984174996614,0.0,0.0,-0.1487938165664672,0.0148837566375732
-0.0702124610543251,0.7364650964736938,-0.1503948867321014,-0.7964288592338562,-0.10770895332098,0.0136918574571609,0.0,0.0,0.216002345085144,0.2177166938781738
-0.0716478377580642,0.71905118227005,-0.1440151333808899,-0.7739193439483643,-0.1072373911738395,0.0094312988221645,0.0,0.0,0.1727025508880615,0.0897722244262695
-0.0729448348283767,0.7017680406570435,-0.13044373691082,-0.7680875062942505,-0.1064989119768142,0.0147695345804095,0.0,0.0,0.2947205305099487,0.0767078399658203
-0.0742808356881141,0.6846791505813599,-0.1337712109088897,-0.7594922184944153,-0.1063274294137954,0.0034295567311346,0.0,0.0,0.7812991142272949,-0.0249630808830261
-0.0754284858703613,0.6684874892234802,-0.1151986345648765,-0.7196012139320374,-0.1059058159589767,0.008432594127953,0.0,0.0,-0.6065360307693481,-0.5257828235626221
-0.0766117125749588,0.6519345641136169,-0.1193423047661781,-0.7356115579605103,-0.1048917770385742,0.0202806331217288,0.0,0.0,0.361606240272522,0.4781860113143921
-0.0776662826538086,0.6360158324241638,-0.1065548434853553,-0.7074216604232788,-0.1038073301315307,0.0216889791190624,0.0,0.0,-0.6542662382125854,0.1388148069381714
-0.0787245780229568,0.6197287440299988,-0.10671067237854,-0.7238099575042725,-0.1029348894953727,0.0174490362405776,0.0,0.0,-0.5103777050971985,-0.4784273505210876
-0.0797865837812423,0.6030732989311218,-0.1068657860159874,-0.7401981949806213,-0.1022717580199241,0.013262515887618,0.0,0.0,0.8232147693634033,-0.5108474493026733
-0.0809298530220985,0.5872312188148499,-0.1154755353927612,-0.7040140628814697,-0.1011377498507499,0.0226803980767726,0.0,0.0,0.4574155807495117,0.6637976169586182
-0.0818593949079513,0.5716738104820251,-0.0927972644567489,-0.6914509534835815,-0.1012986227869987,-0.0032171327620744,0.0,0.0,-0.0137430429458618,-0.1019034385681152
-0.0827924758195877,0.555747926235199,-0.0929493308067321,-0.7078390121459961,-0.1016592606902122,-0.0072127757593989,0.0,0.0,0.6431410312652588,0.2518911361694336
-0.083681009709835,0.5400474667549133,-0.0883153304457664,-0.6978365778923035,-0.1021799072623252,-0.0104131419211626,0.0,0.0,0.8814613819122314,-0.3147932291030884
-0.0846444144845008,0.5250043869018555,-0.0949641019105911,-0.6686742901802063,-0.1035446524620056,-0.0272951535880565,0.0,0.0,0.7203906774520874,0.0546491146087646
-0.0854968056082725,0.5109190344810486,-0.0837787017226219,-0.6261168122291565,-0.104993499815464,-0.0289770029485225,0.0,0.0,0.0760954618453979,0.2903872728347778
-0.0862792953848838,0.4967410564422607,-0.0768601298332214,-0.6302322745323181,-0.1063777506351471,-0.0276847630739212,0.0,0.0,-0.7207757830619812,-0.7627890110015869
-0.0871216803789138,0.482212632894516,-0.0841359347105026,-0.6457182168960571,-0.1064831390976905,-0.0021076668053865,0.0,0.0,0.5253956317901611,0.0111027956008911
-0.0880072563886642,0.4679813981056213,-0.0878669396042823,-0.6325480937957764,-0.1071623638272285,-0.0135846929624676,0.0,0.0,0.2048105001449585,-0.3346806168556213
-0.08890962600708,0.4541289806365967,-0.0890705585479736,-0.6157506108283997,-0.1083172410726547,-0.0230976678431034,0.0,0.0,0.6556351184844971,-0.2727229595184326
-0.0897169113159179,0.4408330023288727,-0.0795436650514602,-0.5910159945487976,-0.1094889566302299,-0.0234343390911817,0.0,0.0,-0.7640729546546936,-0.0915871858596801
-0.0905269607901573,0.427168607711792,-0.0796800181269645,-0.6074039340019226,-0.1108131632208824,-0.0264841709285974,0.0,0.0,0.5955569744110107,-0.1318666338920593
-0.0912076979875564,0.4139553308486938,-0.0669227093458175,-0.5873388051986694,-0.1119542270898819,-0.02282097004354,0.0,0.0,0.7497457265853882,0.380473256111145
-0.0918802246451377,0.400997132062912,-0.0658079832792282,-0.5760329961776733,-0.1133976951241493,-0.0288691706955432,0.0,0.0,0.3093552589416504,0.4757033586502075
-0.0924727469682693,0.3880451917648315,-0.0579176172614097,-0.5757438540458679,-0.1147207394242286,-0.026460850611329,0.0,0.0,0.699897050857544,0.0292184352874755
-0.09306001663208,0.3752507865428924,-0.0571242682635784,-0.5687653422355652,-0.1163142621517181,-0.0318704396486282,0.0,0.0,0.498732328414917,0.5243203639984131
-0.0935326591134071,0.3631588220596313,-0.0444781370460987,-0.5376396775245667,-0.1190835833549499,-0.0553865954279899,0.0,0.0,0.5562911033630371,-0.8185967803001404
-0.0938963890075683,0.3518475294113159,-0.0352665968239307,-0.502811074256897,-0.1201851144433021,-0.0220305118709802,0.0,0.0,-0.6846925616264343,-0.0942524671554565
-0.0942622199654579,0.340167760848999,-0.0353857055306434,-0.5191983580589294,-0.1213776022195816,-0.0238497797399759,0.0,0.0,-0.2895078659057617,-0.6995137929916382
-0.0946973785758018,0.3281244337558746,-0.0439367406070232,-0.5352228283882141,-0.1209572404623031,0.0084073524922132,0.0,0.0,0.4628102779388428,0.1562364101409912
-0.0950143784284591,0.3167482912540436,-0.0322231128811836,-0.5055640935897827,-0.120441235601902,0.0103201027959585,0.0,0.0,0.1392803192138672,-0.2756250500679016
-0.0953548401594162,0.3056071102619171,-0.0341760255396366,-0.4951520264148712,-0.1203068494796752,0.0026875450275838,0.0,0.0,-0.4183036088943481,-0.1816436052322387
-0.0956968292593956,0.294097363948822,-0.0342839173972606,-0.5115388035774231,-0.1202194541692733,0.0017478207591921,0.0,0.0,-0.0664564371109008,-0.1926987171173095
-0.0960401520133018,0.2822189629077911,-0.0343888849020004,-0.5279254913330078,-0.1201674193143844,0.0010405193315818,0.0,0.0,0.6697258949279785,-0.0634994506835937
-0.0962267890572547,0.2708315849304199,-0.0191009007394313,-0.5060663819313049,-0.1197313144803047,0.0087221190333366,0.0,0.0,0.1800822019577026,-0.8119009733200073
-0.0964304953813552,0.2594399452209472,-0.0224293582141399,-0.506134569644928,-0.1176753416657447,0.0411196015775203,0.0,0.0,0.749130129814148,0.0708599090576171
-0.0964874252676963,0.248297318816185,-0.0082227950915694,-0.4950315654277801,-0.1151649877429008,0.05020722001791,0.0,0.0,0.5137885808944702,0.481694221496582
-0.096351146697998,0.237542450428009,0.0104624759405851,-0.4777519404888153,-0.1120191514492034,0.0629166662693023,0.0,0.0,0.3744459152221679,-0.3628698587417602
-0.0960635170340538,0.2268886417150497,0.0250260028988122,-0.473226249217987,-0.1083133071660995,0.0741170197725296,0.0,0.0,0.4390139579772949,-0.3521881103515625
-0.0957106575369834,0.2168429493904113,0.031547375023365,-0.4462117254734039,-0.1045951843261718,0.0743620917201042,0.0,0.0,0.0450479984283447,-0.5078673958778381
-0.0953261405229568,0.2071511596441269,0.0335992947220802,-0.4304124712944031,-0.0997780263423919,0.096343345940113,0.0,0.0,0.0086133480072021,-0.2257997989654541
-0.0948255509138107,0.1976874023675918,0.0447878092527389,-0.4202673137187958,-0.0945518016815185,0.1045245379209518,0.0,0.0,-0.4920376539230346,0.1085448265075683
-0.0943250656127929,0.1878552734851837,0.0447108522057533,-0.4366554021835327,-0.089257538318634,0.1058852672576904,0.0,0.0,0.5221697092056274,0.5077923536300659
-0.0937944427132606,0.1783557534217834,0.0488005988299846,-0.4219530820846557,-0.0850329399108886,0.0844918042421341,0.0,0.0,-0.1732868552207946,-0.2585904598236084
-0.093263529241085,0.1684876531362533,0.048730444163084,-0.4383402466773987,-0.0807200521230697,0.0862578004598617,0.0,0.0,0.7302966117858887,0.7655919790267944
-0.0926506966352462,0.1591378301382064,0.0584347657859325,-0.4153991937637329,-0.0778883844614029,0.0566331446170806,0.0,0.0,0.0158561468124389,-0.7368836998939514
-0.0921452492475509,0.1501746773719787,0.0461408235132694,-0.3981407284736633,-0.0735310018062591,0.0871474593877792,0.0,0.0,0.4494051933288574,-0.4044631719589233
-0.0915181189775466,0.1417503952980041,0.0578389652073383,-0.3741803169250488,-0.0687048882246017,0.0965221673250198,0.0,0.0,-0.0055873990058898,-0.6656026244163513
-0.0909472480416297,0.1329684853553772,0.0506244786083698,-0.390024870634079,-0.06231090426445,0.127879649400711,0.0,0.0,0.3800759315490722,0.1611064672470092
-0.090405561029911,0.1247611343860626,0.0478937998414039,-0.3645221889019012,-0.0561051741242408,0.1241144314408302,0.0,0.0,0.3589935302734375,0.8829443454742432
-0.0897936820983886,0.116792045533657,0.0565760619938373,-0.3540181815624237,-0.0515406988561153,0.091289535164833,0.0,0.0,0.2656649351119995,0.8138251304626465
-0.0891942977905273,0.1091481745243072,0.0569068379700183,-0.3396266996860504,-0.0485497340559959,0.0598191246390342,0.0,0.0,0.0901293754577636,-0.796532154083252
-0.0887550339102745,0.1016646698117256,0.0392092950642108,-0.3324547708034515,-0.0438855215907096,0.0932841598987579,0.0,0.0,0.3898822069168091,0.5015169382095337
-0.088152214884758,0.0947126001119613,0.0561673268675804,-0.3088661432266235,-0.0398240350186824,0.0812297537922859,0.0,0.0,-0.5522500872612,-0.1438731551170349
-0.0875481590628624,0.0873919576406478,0.0561297908425331,-0.3252533078193664,-0.0355990417301654,0.0845000445842742,0.0,0.0,0.3895936012268066,0.8935730457305908
-0.0867100730538368,0.0806604027748107,0.0810221880674362,-0.2991174459457397,-0.0328457988798618,0.0550648458302021,0.0,0.0,-0.2151072025299072,-0.4335838556289673
-0.085870549082756,0.0735602006316185,0.0809905081987381,-0.3155039548873901,-0.0299189966171979,0.0585358217358589,0.0,0.0,0.3249897956848144,-0.2226960062980651
-0.084894560277462,0.0671136677265167,0.0939162150025367,-0.2864418625831604,-0.0262848325073719,0.0726834312081337,0.0,0.0,-0.0578436255455017,0.0828351974487304
-0.0839170441031456,0.0602985732257366,0.0938898921012878,-0.3028289377689361,-0.0224684663116931,0.0763272643089294,0.0,0.0,0.3906774520874023,0.8999412059783936
-0.0828578919172287,0.0541523806750774,0.1036746725440025,-0.2731332182884216,-0.0202618781477212,0.0441318489611148,0.0,0.0,0.0239175558090209,0.0186961889266967
-0.0817496329545974,0.0483683906495571,0.1082266941666603,-0.2570347189903259,-0.0176917556673288,0.0514023974537849,0.0,0.0,-0.0331918001174926,-0.10551118850708
-0.0806396454572677,0.0422156900167465,0.1082075461745262,-0.2734213471412658,-0.0149287162348628,0.0552603714168071,0.0,0.0,0.5212308168411255,-0.6260987520217896
-0.079691506922245,0.0365532264113426,0.0908312872052192,-0.2516289949417114,-0.0109927644953131,0.0787190869450569,0.0,0.0,0.6476491689682007,0.7162679433822632
-0.0788191780447959,0.0312917344272136,0.0847757086157798,-0.2338294684886932,-0.0085711255669593,0.0484328083693981,0.0,0.0,0.4802837371826172,0.9425199031829834
-0.077888011932373,0.0264179091900587,0.0923815220594406,-0.2166100442409515,-0.0078447023406624,0.0145283313468098,0.0,0.0,0.455717921257019,0.7688579559326172
-0.0768649131059646,0.0218779668211936,0.1028835624456405,-0.201778158545494,-0.0084036644548177,-0.0111794471740722,0.0,0.0,0.2039605379104614,0.4960253238677978
-0.0757423415780067,0.0173611976206302,0.1121650114655494,-0.2007458806037902,-0.0083164973184466,0.0017432190943509,0.0,0.0,0.2518489360809326,0.5388922691345215
-0.0744900703430175,0.0132536981254816,0.1258458197116851,-0.1825595796108245,-0.0089248139411211,-0.0121665066108107,0.0,0.0,0.19345223903656,-0.0401520729064941
-0.0732123404741287,0.0096512055024504,0.1280851066112518,-0.1601116359233856,-0.0092396307736635,-0.0062961899675428,0.0,0.0,0.024712324142456,-0.5548897981643677
