x_pos,y_pos,x_vel,y_vel,angle,ang_vel,leg_1,leg_2,main_booster,lat_booster
-0.0015405655140057,1.403489112854004,-0.156278982758522,-0.3302676081657409,0.0019984387326985,0.0394383817911148,0.0,0.0,0.98145651242694,-0.8631231647059948
-0.0030985833145678,1.3967716693878174,-0.1598719209432602,-0.2985645830631256,0.0060268198139965,0.0805759355425834,0.0,0.0,-0.408348452472639,-0.5749232918900133
-0.0047080041840672,1.3899140357971191,-0.1661383360624313,-0.3048164248466491,0.0111648589372634,0.1027705073356628,0.0,0.0,0.047245720509601,0.7610486649792252
-0.0063643455505371,1.383393406867981,-0.1694719940423965,-0.2898420989513397,0.0149631015956401,0.0759718269109726,0.0,0.0,-0.190222528727185,-0.5896960601071961
-0.0080725671723485,1.3767385482788086,-0.1758316308259964,-0.2958276867866516,0.0199157837778329,0.0990628451108932,0.0,0.0,-0.381853515524138,-0.7046443781454663
-0.0098386760801076,1.3699465990066528,-0.182953268289566,-0.3019613921642303,0.0261856485158205,0.1254089623689651,0.0,0.0,0.5688352569980082,-0.9848099891291308
-0.0117356302216649,1.3638383150100708,-0.1982270628213882,-0.2716481983661651,0.0346197038888931,0.1686966270208358,0.0,0.0,-0.0258571363316004,0.5071791191436537
-0.0135972024872899,1.3575997352600098,-0.1936663091182708,-0.2774679362773895,0.0420473217964172,0.1485662758350372,0.0,0.0,-0.2669728965588331,-0.8628084243194577
-0.0155421253293752,1.3512316942214966,-0.2040145099163055,-0.2833141386508941,0.051469337195158,0.1884579211473465,0.0,0.0,-0.9141165163815574,0.900758506796888
-0.0174299236387014,1.3447407484054563,-0.1967533081769943,-0.288784772157669,0.0593597963452339,0.1578235030174255,0.0,0.0,0.6986244701871211,-0.7479512304954751
-0.0193289760500192,1.3390345573425293,-0.1998284757137298,-0.2540266513824463,0.0691999047994613,0.196820318698883,0.0,0.0,0.8206543057767561,0.7011449026531702
-0.0211412422358989,1.3340784311294556,-0.1902195066213607,-0.2207095324993133,0.0781125500798225,0.1782692968845367,0.0,0.0,0.5013450959836938,0.8093864011496401
-0.0228198058903217,1.329965591430664,-0.1757040470838546,-0.1832150518894195,0.0858915150165557,0.1555934250354766,0.0,0.0,0.7302044954808671,0.7558364048392707
-0.0244030002504587,1.3262851238250732,-0.1650846600532531,-0.1639808565378189,0.0926041007041931,0.1342644095420837,0.0,0.0,-0.0016001000026397,-0.7753075551278122
-0.0260440818965435,1.3224716186523438,-0.1723283380270004,-0.1700124144554138,0.1007606908679008,0.1631464511156082,0.0,0.0,0.0171487788752369,0.6462783822577134
-0.0275862701237201,1.318808674812317,-0.1614900529384613,-0.1632945388555526,0.1079844534397125,0.1444885581731796,0.0,0.0,-0.7397196018590086,0.6452935849570878
-0.0290765762329101,1.3150291442871094,-0.1549689471721649,-0.1684252470731735,0.1138964816927909,0.1182509884238243,0.0,0.0,0.417924090489538,-0.9692642298181676
-0.0305483825504779,1.3115971088409424,-0.1554458290338516,-0.153185948729515,0.122129887342453,0.1646829098463058,0.0,0.0,-0.0525613839303047,-0.6317275907311521
-0.0320706367492675,1.3080291748046875,-0.1618236005306244,-0.159380167722702,0.1316863149404525,0.1911457031965255,0.0,0.0,-0.7779493322182529,0.701048850111613
-0.033553410321474,1.3043367862701416,-0.1569138914346695,-0.1648959815502166,0.14030322432518,0.1723537743091583,0.0,0.0,-0.6034962954588041,0.5285579769739769
-0.0349937453866004,1.3005245923995972,-0.1516570746898651,-0.1701622009277343,0.1479126811027526,0.1522027999162674,0.0,0.0,0.3013836419485458,0.9753221815618344
-0.036404799669981,1.2971092462539673,-0.147044837474823,-0.1523949950933456,0.1538548618555069,0.1188540682196617,0.0,0.0,0.3341911025633204,0.940209536764621
-0.0376961715519428,1.2942545413970947,-0.1335534155368805,-0.1273355931043625,0.1582747101783752,0.0884049013257026,0.0,0.0,0.0693030329831281,-0.8552397877014803
-0.0390378944575786,1.29155170917511,-0.1405865848064422,-0.1208146885037422,0.1646977216005325,0.1284714341163635,0.0,0.0,0.0810662782709872,0.682604724260466
-0.0405046455562114,1.2893271446228027,-0.151877298951149,-0.0994648933410644,0.1699182838201522,0.1044206991791725,0.0,0.0,-0.8858027017862482,-0.9239365597992208
-0.042062759399414,1.2869287729263306,-0.1635891497135162,-0.1075014844536781,0.1777120232582092,0.1558747291564941,0.0,0.0,0.8609539115362272,0.9427441924186636
-0.0436914451420307,1.28563129901886,-0.1690307259559631,-0.0584170818328857,0.1838962435722351,0.1236841902136802,0.0,0.0,0.6063852297179597,0.8857989236229352
-0.0455415733158588,1.285372018814087,-0.1894698590040207,-0.0120802344754338,0.1883718967437744,0.0895134583115577,0.0,0.0,0.8609061256233095,0.5525283062067976
-0.0476682670414447,1.2862366437911987,-0.2158591300249099,0.0380219183862209,0.19157275557518,0.0640171319246292,0.0,0.0,0.8647353139083913,0.70107499444484
-0.0498714447021484,1.2877830266952517,-0.2223165780305862,0.0684694871306419,0.1935841888189315,0.0402285754680633,0.0,0.0,-0.0952904044270206,-0.711076058676021
-0.0521296486258506,1.2891870737075806,-0.2294626981019973,0.0619215741753578,0.1972504705190658,0.0733257085084915,0.0,0.0,-0.9918621182441713,0.9577486515045166
-0.0543223395943641,1.2904703617095947,-0.2215322703123092,0.0567392483353614,0.1995221525430679,0.0454337112605571,0.0,0.0,-0.9964272379875184,0.9885239601135254
-0.0564497001469135,1.2916483879089355,-0.2135523855686187,0.0522429719567298,0.2003501951694488,0.0165608804672956,0.0,0.0,-0.997641623020172,0.5817884206771851
-0.0585347190499305,1.292698860168457,-0.2085599601268768,0.0466781966388225,0.2004133611917495,0.0012631721328943,0.0,0.0,-0.99613755941391,0.918560266494751
-0.0605449676513671,1.293638825416565,-0.1994827091693878,0.0419852398335933,0.1988560259342193,-0.0311464332044124,0.0,0.0,-0.99777090549469,0.8108681440353394
-0.0624889358878135,1.294469714164734,-0.1914488971233368,0.0373227223753929,0.1958924382925033,-0.0592716932296752,0.0,0.0,-0.996009647846222,0.5734764337539673
-0.0643868446350097,1.2951759099960327,-0.1860293895006179,0.0318810418248176,0.1921053975820541,-0.075741246342659,0.0,0.0,-0.9770320653915404,0.5853049755096436
-0.0662334412336349,1.2957661151885986,-0.1799240410327911,0.0268434826284647,0.1873417049646377,-0.0952736735343933,0.0,0.0,-0.9272266626358032,0.6778602600097656
-0.0680276900529861,1.296243667602539,-0.1736836731433868,0.0219322443008422,0.1815771758556366,-0.1152907609939575,0.0,0.0,-0.9893320202827454,0.691563606262207
-0.0697610825300216,1.2966033220291138,-0.1664169728755951,0.0168142206966877,0.1746352165937423,-0.1388391554355621,0.0,0.0,-0.9831215143203736,-0.0051540732383728
-0.0714892372488975,1.2968288660049438,-0.1661601066589355,0.010790885426104,0.1679683029651641,-0.1333383321762085,0.0,0.0,-0.9879760146141052,0.8541809320449829
-0.0731311812996864,1.2969388961791992,-0.1557535231113433,0.0058226534165441,0.159515380859375,-0.1690586656332016,0.0,0.0,-0.9713674783706664,0.0566300153732299
-0.0747670158743858,1.2969151735305786,-0.1553975045680999,-0.0002022627013502,0.1513368040323257,-0.1635713875293731,0.0,0.0,-0.872447669506073,0.2830641269683838
-0.0763961821794509,1.296757459640503,-0.1549949645996093,-0.0062266173772513,0.1434322148561477,-0.1580918133258819,0.0,0.0,-0.8864778876304626,-0.2087204456329345
-0.0780181884765625,0.0,-0.1545477658510208,-0.0122504290193319,0.1358012109994888,-0.1526202857494354,0.0,0.0,-0.9790061116218568,-0.4108411073684692
-0.0796326622366905,0.0,-0.1540577560663223,-0.0182737149298191,0.1284433305263519,-0.1471573263406753,0.0,0.0,-0.9562762975692748,0.0602847337722778
-0.0812391266226768,1.295479655265808,-0.1535268425941467,-0.0242964960634708,0.1213581562042236,-0.1417033374309539,0.0,0.0,-0.9829635620117188,0.4074862003326416
-0.0828372985124588,1.2947852611541748,-0.152956873178482,-0.0303187910467386,0.1145452335476875,-0.1362587511539459,0.0,0.0,-0.97928649187088,0.6533563137054443
-0.0843871086835861,1.2939692735671997,-0.1473676264286041,-0.0357004404067993,0.1069851145148277,-0.1512024700641632,0.0,0.0,-0.963721513748169,-0.20344078540802
-0.0859277695417404,1.29301917552948,-0.146725058555603,-0.0417229868471622,0.0996961966156959,-0.145778015255928,0.0,0.0,-0.9849646687507628,0.2268977165222168
-0.0874589905142784,1.2919347286224363,-0.1460491567850113,-0.0477450340986251,0.0926779732108116,-0.1403644979000091,0.0,0.0,-0.7829769253730774,0.5403608083724976
-0.0889422446489334,1.290724754333496,-0.1405316740274429,-0.0533076040446758,0.0849546119570732,-0.1544673293828964,0.0,0.0,-0.9612805247306824,0.4964761734008789
-0.0904154777526855,1.289380669593811,-0.1397944539785385,-0.0593298524618148,0.0775007456541061,-0.149077370762825,0.0,0.0,-0.9944729804992676,0.1195425987243652
-0.0918784141540527,1.2879021167755127,-0.1390294283628463,-0.065351590514183,0.0703157410025596,-0.143700286746025,0.0,0.0,-0.9659878015518188,0.1621233224868774
-0.0933306664228439,1.2862892150878906,-0.1382384151220321,-0.0713728368282318,0.063398890197277,-0.1383368372917175,0.0,0.0,-0.9693781733512878,0.4061678647994995
-0.0947721451520919,1.2845418453216553,-0.1374231725931167,-0.0773936063051223,0.0567495077848434,-0.132987841963768,0.0,0.0,-0.9697394371032716,-0.0055407881736755
-0.0962025672197341,1.282659649848938,-0.1365854442119598,-0.0834139287471771,0.0503668040037155,-0.1276541799306869,0.0,0.0,-0.9486962556838988,0.4731436967849731
-0.0976217240095138,1.280643105506897,-0.1357269585132599,-0.089433804154396,0.0442499630153179,-0.1223368421196937,0.0,0.0,-0.9819154739379884,0.1458293199539184
-0.0990294441580772,1.2784916162490845,-0.1348493993282318,-0.0954532772302627,0.0383981354534626,-0.1170368567109108,0.0,0.0,-0.9963789582252502,-0.1261404752731323
-0.1004255264997482,1.2762055397033691,-0.1339544355869293,-0.1014723554253578,0.0328103639185428,-0.1117554306983947,0.0,0.0,-0.995040774345398,-0.2075884342193603
-0.1018099784851074,1.2737845182418823,-0.1330436617136001,-0.1074910536408424,0.0274856649339199,-0.1064938902854919,0.0,0.0,-0.9836218953132628,-0.0278297066688537
-0.1031824126839637,1.271228551864624,-0.1321187019348144,-0.1135093942284584,0.0224229972809553,-0.1012535840272903,0.0,0.0,-0.9848228096961976,-0.3277323246002197
-0.1045428290963172,1.2685377597808838,-0.1311811357736587,-0.1195273846387863,0.0176211837679147,-0.0960359722375869,0.0,0.0,-0.991004467010498,-0.0661534070968627
-0.1058912277221679,1.265712022781372,-0.1302325129508972,-0.1255450546741485,0.0130790518596768,-0.0908428281545639,0.0,0.0,-0.9992783069610596,0.2094638347625732
-0.1072273254394531,1.2627511024475098,-0.1292743235826492,-0.1315624266862869,0.0087952502071857,-0.0856759697198867,0.0,0.0,-0.998682737350464,0.132485032081604
-0.1085511222481727,1.259655237197876,-0.1283080726861953,-0.1375795006752014,0.0047683771699666,-0.0805373936891555,0.0,0.0,-0.9930423498153688,0.1209614276885986
-0.109862707555294,1.256424069404602,-0.1273352056741714,-0.1435963213443756,0.0009969075908884,-0.0754292756319046,0.0,0.0,-0.9898172616958618,0.676795244216919
-0.1111010536551475,1.2530499696731567,-0.1187202334403991,-0.1499670296907425,-0.0040500503964722,-0.1009394973516464,0.0,0.0,-0.98041033744812,0.0427755117416381
-0.1123270988464355,1.2495408058166504,-0.1177383884787559,-0.1559844315052032,-0.0088450331240892,-0.0958996191620826,0.0,0.0,-0.9994109272956848,0.0956196784973144
-0.1135406494140625,1.245896339416504,-0.1167541593313217,-0.1620015352964401,-0.0133899413049221,-0.0908980742096901,0.0,0.0,-0.9912477731704712,0.0064804553985595
-0.1147418990731239,1.242116928100586,-0.1157689094543457,-0.1680183261632919,-0.0176868289709091,-0.0859378948807716,0.0,0.0,-0.9980811476707458,0.0549664497375488
-0.115930750966072,1.2382025718688965,-0.1147839576005935,-0.1740348786115646,-0.0217379573732614,-0.0810223668813705,0.0,0.0,-0.9957135915756226,0.4405395984649658
-0.1171072944998741,1.2341525554656982,-0.1138006076216697,-0.180051177740097,-0.0255457106977701,-0.0761551186442375,0.0,0.0,-0.9942163825035096,-0.1121168732643127
-0.1182716339826583,1.2299675941467283,-0.1128201335668563,-0.1860672384500503,-0.0291127115488052,-0.0713400319218635,0.0,0.0,-0.9950994253158568,0.4677469730377197
-0.1194238662719726,1.2256473302841189,-0.1118438020348548,-0.1920830756425857,-0.0324417799711227,-0.0665813311934471,0.0,0.0,-0.9971240758895874,0.1165906190872192
-0.1205638870596885,1.2211917638778689,-0.1108728423714637,-0.1980987042188644,-0.0355359464883804,-0.0618834681808948,0.0,0.0,-0.9955486059188844,0.5116965770721436
-0.1216536536812782,1.216593623161316,-0.1051090583205223,-0.2044548988342285,-0.0393636412918567,-0.076553925871849,0.0,0.0,-0.9878191351890564,-0.2596207857131958
-0.1227316856384277,1.211860418319702,-0.1041524559259414,-0.2104707360267639,-0.0429632738232612,-0.0719925835728645,0.0,0.0,-0.9931627511978148,0.6808273792266846
-0.1237365752458572,1.206994652748108,-0.0955333262681961,-0.2164037376642227,-0.0478722192347049,-0.0981785506010055,0.0,0.0,-0.9885709285736084,0.3508423566818237
-0.1247300133109092,1.201993703842163,-0.0945958346128463,-0.2224202305078506,-0.0525610111653804,-0.0937756448984146,0.0,0.0,-0.9964073300361632,0.0894951820373535
-0.1257119178771972,1.1968575716018677,-0.0936695486307144,-0.2284364849328994,-0.0570340640842914,-0.0894611477851867,0.0,0.0,-0.979383111000061,0.0718865394592285
-0.1266825646162033,1.1915862560272217,-0.0927555710077285,-0.2344525009393692,-0.0612961463630199,-0.0852416008710861,0.0,0.0,-0.9346014857292176,0.0150725841522216
-0.1276421546936035,1.1861796379089355,-0.0918549448251724,-0.2404683083295822,-0.0653523430228233,-0.0811239033937454,0.0,0.0,-0.9673413634300232,0.5494005680084229
-0.1285512894392013,1.180636286735535,-0.0860102772712707,-0.2465973794460296,-0.0702017694711685,-0.0969886034727096,0.0,0.0,-0.9569442868232728,0.3891633749008178
-0.1294497549533844,1.1749576330184937,-0.08513955026865,-0.2526135742664337,-0.0748565793037414,-0.0930963903665542,0.0,0.0,-0.9843010902404784,-0.0995529294013977
-0.1303378045558929,1.1691436767578125,-0.0842852443456649,-0.2586295306682586,-0.0793230086565017,-0.0893284082412719,0.0,0.0,-0.9730570912361144,0.4358057975769043
-0.1312154829502105,1.1631945371627808,-0.0834482908248901,-0.2646453976631164,-0.0836076438426971,-0.0856927037239074,0.0,0.0,-0.931984841823578,0.2896192073822021
-0.1320832222700119,1.1571099758148191,-0.0826296210289001,-0.2706610560417175,-0.087717518210411,-0.082197368144989,0.0,0.0,-0.9474393725395204,0.3453998565673828
-0.132941335439682,1.150890231132507,-0.0818301364779472,-0.2766766548156738,-0.0916600450873375,-0.0788506865501403,0.0,0.0,-0.635865330696106,0.3818484544754028
-0.1337900161743164,1.144534945487976,-0.0810506865382194,-0.2826921045780182,-0.0954430699348449,-0.0756604596972465,0.0,0.0,-0.9452139139175416,-0.2730073928833008
-0.1346295326948166,1.138044357299805,-0.0802921056747436,-0.288707435131073,-0.0990748777985572,-0.0726359337568283,0.0,0.0,-0.9850143790245056,0.0096625089645385
-0.1354602873325348,1.1314184665679932,-0.0795551687479019,-0.294722706079483,-0.1025641113519668,-0.0697848498821258,0.0,0.0,-0.9241218566894532,-0.5075613856315613
-0.136314108967781,1.1246638298034668,-0.0828043669462204,-0.3003808259963989,-0.1051164120435714,-0.0510460063815116,0.0,0.0,-0.8564766645431519,-0.0984614491462707
-0.1371596306562423,1.1177737712860107,-0.0821128785610199,-0.3063956201076507,-0.1075446903705596,-0.0485654138028621,0.0,0.0,-0.9885402321815492,-0.1264147162437439
-0.1379974335432052,1.1107484102249146,-0.0814451649785041,-0.312410444021225,-0.1098587587475776,-0.046281199902296,0.0,0.0,-0.9677386283874512,-0.4195115566253662
-0.1388277113437652,1.1035875082015991,-0.0808018520474433,-0.3184252977371216,-0.1120687574148178,-0.0442002080380916,0.0,0.0,-0.6990244388580322,-0.7625036835670471
-0.1397131979465484,1.0963013172149658,-0.0880010277032852,-0.3238655924797058,-0.1126051545143127,-0.0107281487435102,0.0,0.0,-0.7583724856376648,-0.0684036612510681
-0.1405917108058929,1.0888798236846924,-0.087408147752285,-0.3298801779747009,-0.113058753311634,-0.0090717524290084,0.0,0.0,-0.9793658256530762,-0.3371337652206421
-0.1414640396833419,1.0813227891921997,-0.086841270327568,-0.335894912481308,-0.1134405136108398,-0.0076352269388735,0.0,0.0,-0.9344919919967652,0.0153286457061767
-0.1423302590847015,1.0736303329467771,-0.0863008126616478,-0.3419097065925598,-0.113761655986309,-0.0064226584509015,0.0,0.0,-0.9658820629119872,-0.7800614237785339
-0.1432600915431976,1.0658199787139893,-0.0944982916116714,-0.3470106422901153,-0.112260989844799,0.0300131533294916,0.0,0.0,-0.9897026419639589,-0.0481966733932495
-0.1441847831010818,1.0578744411468506,-0.0940118283033371,-0.3530258238315582,-0.1107225343585014,0.0307694114744663,0.0,0.0,-0.9452345371246338,-0.5213742256164551
-0.1451533287763595,1.0498021841049194,-0.0996913686394691,-0.3585628569126129,-0.1079159751534462,0.0561310052871704,0.0,0.0,-0.9594110250473022,0.4630266427993774
-0.1461174935102462,1.041594624519348,-0.0992600247263908,-0.3645787537097931,-0.1050946786999702,0.056425966322422,0.0,0.0,-0.9339595437049866,-0.4129289388656616
-0.1470776498317718,1.0332517623901367,-0.098856471478939,-0.370594710111618,-0.102270133793354,0.0564908571541309,0.0,0.0,-0.984983503818512,-0.5602417588233948
-0.148074060678482,1.0247749090194702,-0.1034842580556869,-0.3764871954917907,-0.0984522700309753,0.076357401907444,0.0,0.0,-0.9585810303688048,0.6234219074249268
-0.1490058898925781,1.0161588191986084,-0.0954601615667343,-0.3827930092811584,-0.0961944535374641,0.0451565533876419,0.0,0.0,-0.989803671836853,-0.5176079273223877
-0.1499768197536468,1.0074177980422974,-0.1004232317209243,-0.3882769346237182,-0.0928947851061821,0.0659935474395752,0.0,0.0,-0.9367959499359132,0.7262094020843506
-0.1508739441633224,0.9985401034355164,-0.0911976173520088,-0.3944720327854156,-0.0914241820573806,0.0294120013713836,0.0,0.0,-0.9065714478492736,-0.7509757280349731
-0.1518206596374511,0.989534318447113,-0.0974179431796073,-0.4000886976718902,-0.0886987298727035,0.0545088462531566,0.0,0.0,-0.9749225974082948,0.7190184593200684
-0.1527092009782791,0.9803931713104248,-0.0901119410991668,-0.4062030017375946,-0.087449200451374,0.0249906741082668,0.0,0.0,-0.9962606430053712,-0.1701163649559021
-0.1535963118076324,0.9711167216300964,-0.0899023711681366,-0.4122190475463867,-0.0862722620368003,0.0235385745763778,0.0,0.0,-0.9917466640472412,-0.5943455100059509
-0.1545232832431793,0.9617074131965636,-0.0948296710848808,-0.418072760105133,-0.0841528698801994,0.0423877090215683,0.0,0.0,-0.984527349472046,-0.3469901084899902
-0.1554494798183441,0.9521629214286804,-0.0946736186742782,-0.424089103937149,-0.082125224173069,0.0405530557036399,0.0,0.0,-0.965270221233368,-0.5972344279289246
-0.1564326286315918,0.9424886107444764,-0.1017224416136741,-0.4297816157341003,-0.0787554904818534,0.0673947557806968,0.0,0.0,-0.962632417678833,-0.2331002950668335
-0.1574158668518066,0.9326793551445008,-0.1016181707382202,-0.4357986450195312,-0.075495146214962,0.0652067214250564,0.0,0.0,-0.9942938685417176,0.1643614768981933
-0.1583994925022125,0.9227349758148192,-0.1015389189124107,-0.4418156743049621,-0.0723524838685989,0.0628534331917762,0.0,0.0,-0.9776346683502196,0.2882856130599975
-0.1593837738037109,0.912655472755432,-0.1014840602874755,-0.4478326141834259,-0.0693353563547134,0.0603426583111286,0.0,0.0,-0.9817243218421936,0.1576733589172363
-0.1603692024946212,0.902440905570984,-0.1014529466629028,-0.4538495242595672,-0.066451258957386,0.0576820783317089,0.0,0.0,-0.996850609779358,0.860711932182312
-0.1612847298383712,0.8920922875404358,-0.0925253555178642,-0.4598938822746277,-0.0654902458190918,0.0192202366888523,0.0,0.0,-0.9959235787391664,0.2043008804321289
-0.1622018814086914,0.8816086649894714,-0.09253940731287,-0.4659101366996765,-0.0646761059761047,0.0162830129265785,0.0,0.0,-0.9980944991111756,-0.8641530871391296
