x_pos,y_pos,x_vel,y_vel,angle,ang_vel,leg_1,leg_2,main_booster,lat_booster
-0.0014963150024414,1.4029262065887451,-0.152414008975029,-0.3552792370319366,0.0024965857155621,0.0493019446730613,0.0,0.0,-0.2481418466647178,0.1377569071689369
-0.0029644966125488,1.3942575454711914,-0.1500346511602401,-0.3852804899215698,0.0056724534370005,0.0635240823030471,0.0,0.0,0.1651627343202781,-0.2104575942806451
-0.0043113706633448,1.3853187561035156,-0.1391007453203201,-0.3973053693771362,0.0100403642281889,0.0873660966753959,0.0,0.0,0.2665103009580816,0.936824147212095
-0.005664920900017,1.3762528896331787,-0.1385709941387176,-0.4029543101787567,0.0132233379408717,0.063665397465229,0.0,0.0,-0.8787424427759087,0.4230456976068747
-0.006988525390625,1.366489052772522,-0.1363306939601898,-0.4339870512485504,0.0171493049710989,0.0785263776779174,0.0,0.0,-0.5424405218055659,-0.5523127335463416
-0.0083153722807765,1.35602605342865,-0.138257086277008,-0.4650988280773163,0.0226616933941841,0.1102580428123474,0.0,0.0,0.4359720937425171,-0.4240373358438607
-0.0096425060182809,1.345617651939392,-0.1389385610818863,-0.462705910205841,0.0288223158568143,0.1232238784432411,0.0,0.0,0.4317388932768875,0.8853310903431556
-0.0107382778078317,1.3353643417358398,-0.1149723902344703,-0.4558211863040924,0.0341550558805465,0.1066643819212913,0.0,0.0,-0.127515042584922,0.4939627277824109
-0.0118025783449411,1.3244134187698364,-0.1125733405351638,-0.4868578612804413,0.0402311831712722,0.1215338259935379,0.0,0.0,-0.4310065598780037,-0.1973224053713393
-0.0128352167084813,1.31276535987854,-0.1101447790861129,-0.5178890228271484,0.0470501184463501,0.1363910585641861,0.0,0.0,-0.7400419436179233,0.3448621966108167
-0.013835716061294,1.3004205226898191,-0.1076893061399459,-0.5489227175712585,0.054612036794424,0.1512521505355835,0.0,0.0,0.88668148387675,0.5251759064723265
-0.0147099494934082,1.288291573524475,-0.0950259417295456,-0.5393597483634949,0.0621354170143604,0.1504813283681869,0.0,0.0,-0.6005596857792581,0.2499751257863656
-0.0155517579987645,1.2754656076431274,-0.0925240665674209,-0.5704041123390198,0.0704018175601959,0.1653431951999664,0.0,0.0,0.0668981524360663,-0.7292836618701751
-0.0163830760866403,1.2622791528701782,-0.0937246307730674,-0.5865892767906189,0.0809050798416137,0.2100843638181686,0.0,0.0,0.5843437450234867,-0.8395279653607575
-0.0171618461608886,1.249598264694214,-0.0911320969462394,-0.5643664598464966,0.0940621346235275,0.2631648778915405,0.0,0.0,-0.7742486938818427,0.6234672386381086
-0.0178495403379201,1.2362231016159058,-0.081289604306221,-0.595291018486023,0.106497012078762,0.2487200945615768,0.0,0.0,-0.0700737115033285,0.3598289195413564
-0.0185046195983886,1.2221530675888062,-0.0787441879510879,-0.6263352632522583,0.1196742355823516,0.2635679841041565,0.0,0.0,-0.6759005571099705,0.8982314790088849
-0.0190392490476369,1.2073960304260254,-0.0652106627821922,-0.6568480730056763,0.1313825249671936,0.2341868132352829,0.0,0.0,-0.3843228794571325,-0.7626257023806955
-0.0195917133241891,1.1919416189193726,-0.0689989775419235,-0.6881343126296997,0.1451047211885452,0.2744685411453247,0.0,0.0,0.0432497303844641,0.891199047225987
-0.020153235644102,1.1763248443603516,-0.0688373893499374,-0.6953631043434143,0.1577862948179245,0.2536544799804687,0.0,0.0,-0.5293195280008087,0.1892397903752206
-0.0206821449100971,1.1600137948989868,-0.0662800744175911,-0.726421058177948,0.171208381652832,0.2684660255908966,0.0,0.0,0.8230727592625255,-0.2903470430886556
-0.021248722448945,1.1437333822250366,-0.070834144949913,-0.7252624034881592,0.1854288429021835,0.2844350337982178,0.0,0.0,-0.257262597339331,0.3165096808581379
-0.0217830650508403,1.1267592906951904,-0.0682915598154068,-0.7563289999961853,0.2003872096538543,0.2991938292980194,0.0,0.0,-0.3562604887519434,0.4985022930103383
-0.0222853664308786,1.1090919971466064,-0.0657620579004287,-0.7873924374580383,0.2160826921463012,0.3139377534389496,0.0,0.0,0.2855551822888287,0.6194121796968073
-0.0229348186403512,1.0914435386657717,-0.0797041878104209,-0.7866107225418091,0.2310480624437332,0.2993344664573669,0.0,0.0,0.6587592780446041,-0.2047578556623172
-0.0238531120121479,1.0740628242492676,-0.1066347733139991,-0.7748638987541199,0.246073767542839,0.3005143404006958,0.0,0.0,-0.6436885822393437,0.2372021689684458
-0.0247394554316997,1.055989384651184,-0.1041066423058509,-0.8059244751930237,0.2618366181850433,0.3152571320533752,0.0,0.0,-0.991312075619748,-0.9355594410338944
-0.0256828311830759,1.0371989011764526,-0.1126879602670669,-0.8385222554206848,0.2806312441825866,0.3758925795555115,0.0,0.0,0.5086424778583101,0.6566721529241726
-0.0268675796687603,1.018709421157837,-0.1358863115310669,-0.8252063393592834,0.2985610961914062,0.3585970103740692,0.0,0.0,0.8638561650978394,-0.0319890214187776
-0.0282060615718364,1.0003068447113037,-0.1517553925514221,-0.8216713666915894,0.3171159327030182,0.371096670627594,0.0,0.0,0.6261673454579004,0.0384707213889644
-0.0297563560307025,0.9824103713035583,-0.1736278980970382,-0.7995946407318115,0.3364894688129425,0.3874706625938415,0.0,0.0,0.827770471572876,0.9963124990463256
-0.0314523689448833,0.9644951820373536,-0.1866967380046844,-0.8003144860267639,0.3544288277626037,0.3587872385978699,0.0,0.0,0.5836669206619263,0.996807336807251
-0.0333982482552528,0.9469728469848632,-0.2102526426315307,-0.7827218770980835,0.3709573447704315,0.3305701017379761,0.0,0.0,0.4022022485733032,0.8667078018188477
-0.03541736677289,0.9291834235191344,-0.2164394408464431,-0.7944843769073486,0.3863805830478668,0.3084655404090881,0.0,0.0,0.4548631906509399,0.9935411214828492
-0.0375287048518657,0.9115250706672668,-0.2243338525295257,-0.7884689569473267,0.4004906117916107,0.2822014391422272,0.0,0.0,-0.0674649477005004,0.987377405166626
-0.0395398139953613,0.8932276964187622,-0.2129430025815963,-0.81660395860672,0.4132138788700104,0.2544644474983215,0.0,0.0,0.1186611652374267,0.988910675048828
-0.0415931716561317,0.8746909499168396,-0.215897798538208,-0.8269878029823303,0.4246255755424499,0.228234201669693,0.0,0.0,-0.1426950693130493,0.9964284896850586
-0.0435449592769146,0.8555195331573486,-0.2043251246213913,-0.8548460602760315,0.4345484375953674,0.198457270860672,0.0,0.0,0.1563785076141357,0.9668700695037842
-0.0456812866032123,0.8364946246147156,-0.221544474363327,-0.8480239510536194,0.4431681632995605,0.1723947077989578,0.0,0.0,0.26125168800354,0.93732488155365
-0.0479008667171001,0.8174696564674377,-0.2287123948335647,-0.8477088809013367,0.4505575597286224,0.1477883458137512,0.0,0.0,0.3530118465423584,0.919827938079834
-0.050399113446474,0.7986007928848267,-0.2553891539573669,-0.8404225707054138,0.4566661119461059,0.1221713274717331,0.0,0.0,0.2504351139068603,0.6708707809448242
-0.0529047958552837,0.7796741127967834,-0.2556188702583313,-0.8428512811660767,0.4622305333614349,0.1112885847687721,0.0,0.0,0.3026366233825683,0.8276257514953613
-0.0553563125431537,0.7604793906211853,-0.2493466883897781,-0.8545047640800476,0.4668589234352112,0.092567890882492,0.0,0.0,0.0969728231430053,0.9589033126831056
-0.0578032508492469,0.7411627173423767,-0.2476709634065628,-0.8595243692398071,0.4701590836048126,0.0660039260983467,0.0,0.0,0.239442229270935,0.901991367340088
-0.0602908134460449,0.7214623093605042,-0.2506641745567322,-0.8762243986129761,0.4722704589366913,0.0422270894050598,0.0,0.0,0.4478721618652344,0.9428107738494872
-0.0627780929207801,0.7015321254730225,-0.2495205402374267,-0.8860495686531067,0.4731489717960357,0.0175701044499874,0.0,0.0,0.2998316287994385,0.828669548034668
-0.065294548869133,0.6814553141593933,-0.2515417635440826,-0.8922712802886963,0.4730314910411834,-0.0023496155627071,0.0,0.0,0.1208964586257934,0.9394123554229736
-0.0680639296770095,0.661437451839447,-0.2756697237491607,-0.8892530798912048,0.4716275632381439,-0.0280784871429204,0.0,0.0,-0.2090812921524047,0.6569733619689941
-0.070777416229248,0.6407579779624939,-0.2697144150733948,-0.918533444404602,0.4698185622692108,-0.0361798219382762,0.0,0.0,-0.1124460101127624,0.955795168876648
-0.0734044089913368,0.6194309592247009,-0.2599245011806488,-0.9469280242919922,0.4667509496212005,-0.0613520219922065,0.0,0.0,-0.3282884359359741,0.9748936891555786
-0.0759263038635253,0.5974737405776978,-0.2477296590805053,-0.9743905663490297,0.4618176817893982,-0.0986653864383697,0.0,0.0,0.0528452396392822,0.934614896774292
-0.0786131843924522,0.575478196144104,-0.2630322873592376,-0.9757179617881776,0.4555909931659698,-0.1245336979627609,0.0,0.0,0.2095962762832641,0.979260802268982
-0.0812694579362869,0.5533350110054016,-0.2586703300476074,-0.9818912744522096,0.4479689300060272,-0.152441531419754,0.0,0.0,-0.191098153591156,0.9926531314849854
-0.083839513361454,0.5305572152137756,-0.248712345957756,-1.0097134113311768,0.4388861358165741,-0.1816560924053192,0.0,0.0,0.4572658538818359,0.9587228298187256
-0.0863702744245529,0.507810115814209,-0.2435669600963592,-1.00804340839386,0.4285486042499542,-0.2067508995532989,0.0,0.0,0.4218894243240356,0.7754912376403809
-0.0890801399946212,0.484900563955307,-0.2604021728038788,-1.0150233507156372,0.4170908033847809,-0.2291557341814041,0.0,0.0,0.5726990699768066,0.4832251071929931
-0.0919995307922363,0.4623924493789673,-0.2822489440441131,-0.9975343346595764,0.4066459834575653,-0.2088964879512787,0.0,0.0,0.5139570236206055,0.4745606184005737
-0.0950319319963455,0.4401169717311859,-0.2946022152900696,-0.987567901611328,0.3973709046840668,-0.1855018138885498,0.0,0.0,0.79331374168396,-0.0554217100143432
-0.0983209609985351,0.4184304177761078,-0.3211038708686828,-0.9616879820823668,0.3890402317047119,-0.1666133850812912,0.0,0.0,0.5224244594573975,0.1641284227371215
-0.1019356697797775,0.3970143795013428,-0.3538687825202942,-0.9497631788253784,0.3809374868869781,-0.162054643034935,0.0,0.0,0.7891550064086914,-0.6290101408958435
-0.1056755036115646,0.3754627108573913,-0.3682241141796112,-0.9563267827033995,0.3748189210891723,-0.1223714724183082,0.0,0.0,0.7269959449768066,-0.6181433200836182
-0.10982246696949,0.3541536033153534,-0.4103500247001648,-0.9459394216537476,0.3702113032341003,-0.0921522229909896,0.0,0.0,0.8967007398605347,-0.7973665595054626
-0.1140863448381424,0.3330272436141968,-0.424358993768692,-0.9384254217147828,0.3680602610111236,-0.0430210418999195,0.0,0.0,0.5988016128540039,-0.922585427761078
-0.1185969337821006,0.3120112419128418,-0.4512900710105896,-0.9341059923171996,0.3683080077171325,0.0049550039693713,0.0,0.0,0.4178953170776367,-0.9561142921447754
-0.1232825294137001,0.2907378077507019,-0.4710853695869446,-0.9461410641670228,0.3709843456745147,0.0535268075764179,0.0,0.0,-0.0099291205406188,-0.9684635996818542
-0.1280446052551269,0.2687190771102905,-0.4813972413539886,-0.9799631834030152,0.3764851093292236,0.1100150719285011,0.0,0.0,-0.6057916879653931,-0.9625419974327089
-0.132869154214859,0.2459749579429626,-0.48979052901268,-1.0128015279769895,0.3842794597148895,0.1558870375156402,0.0,0.0,-0.6671938896179199,-0.9506198167800904
-0.1377431899309158,0.2224888950586319,-0.4966685771942138,-1.046352744102478,0.3941487669944763,0.1973869502544403,0.0,0.0,-0.5064107775688171,-0.9512100219726562
-0.1426798850297927,0.1982769072055816,-0.50493323802948,-1.0792579650878906,0.4062184393405914,0.2413928061723709,0.0,0.0,-0.2184650897979736,-0.9440598487854004
-0.1476888656616211,0.1733161956071853,-0.5144892930984497,-1.113333225250244,0.4208599030971527,0.292828619480133,0.0,0.0,-0.241855502128601,-0.9079259037971495
-0.1527696549892425,0.1476151347160339,-0.5238288044929504,-1.147065281867981,0.4379421770572662,0.3416458964347839,0.0,0.0,0.3512017726898193,-0.8502523303031921
-0.1580983102321624,0.1218898892402648,-0.5503362417221069,-1.1489174365997314,0.4570587277412414,0.38233083486557,0.0,0.0,0.4334455728530884,-0.7884824275970459
-0.1639187783002853,0.0963431671261787,-0.6008561849594116,-1.1417251825332642,0.4778513610363006,0.4158528447151184,0.0,0.0,0.6376457214355469,-0.551030158996582
-0.1699705123901367,0.0708914399147033,-0.6251525282859802,-1.1382510662078855,0.5001652240753174,0.446276843547821,0.0,0.0,0.3570351600646972,0.1821228265762329
-0.1762009561061859,0.0451511703431606,-0.6427776217460632,-1.1513715982437134,0.5224828124046326,0.4463512897491455,0.0,1.0,0.998821258544922,0.9991905689239502
-0.1757696121931076,0.0412596799433231,-0.1051099523901939,-0.2568176090717315,0.6236083507537842,1.902840256690979,0.0,1.0,-0.8970920443534851,-0.787074863910675
-0.1757517755031585,0.0367948375642299,-0.0643768161535263,-0.2329102307558059,0.7062645554542542,1.6528078317642212,0.0,1.0,-0.7245822548866272,0.1000773906707763
-0.1754960119724273,0.0352848619222641,0.0369522124528884,-0.0724178850650787,0.6843878626823425,-0.2675536274909973,0.0,1.0,0.0064765214920043,0.8639726638793945
-0.1753553450107574,0.034169778227806,0.0318154469132423,-0.0489956475794315,0.6552202105522156,-0.456812709569931,0.0,1.0,0.4139424562454223,0.847386360168457
-0.1756351441144943,0.033330425620079,-0.0040892930701375,-0.0303845442831516,0.6221910715103149,-0.5883545279502869,0.0,1.0,-0.2274038195610046,0.8668797016143799
-0.1758480072021484,0.0318798869848251,0.0058473995886743,-0.0538976863026618,0.5882408618927002,-0.651008665561676,0.0,1.0,0.1876038312911987,0.7834131717681885
-0.1762986183166504,0.0305030196905136,-0.01657553948462,-0.0491547174751758,0.5547556281089783,-0.6661487817764282,0.0,1.0,0.0291527509689331,0.7081795930862427
-0.1769570410251617,0.0288651566952466,-0.0352898873388767,-0.0606385916471481,0.5196029543876648,-0.7030848860740662,0.0,1.0,0.220392107963562,0.8455331325531006
-0.1778550148010254,0.0272142030298709,-0.0570066757500171,-0.06138152256608,0.4826565384864807,-0.7389600276947021,0.0,0.0,-0.993460476398468,-0.1471201777458191
-0.1787572801113128,0.0248832553625106,-0.0568955428898334,-0.0924503952264785,0.4458130896091461,-0.7368999719619751,0.0,0.0,-0.9820313453674316,0.7953007221221924
-0.1796011924743652,0.021918449550867,-0.0487703010439872,-0.1209546625614166,0.4071510732173919,-0.7732735872268677,0.0,0.0,-0.8677638173103333,0.1633646488189697
-0.180450439453125,0.0182754378765821,-0.048734463751316,-0.1520312279462814,0.3685160875320434,-0.7727320194244385,0.0,0.0,-0.5265272259712219,0.2569208145141601
-0.181305319070816,0.0139542911201715,-0.0487356707453727,-0.1831086128950119,0.3298692107200622,-0.7729701399803162,0.0,0.0,0.477514386177063,0.2894586324691772
-0.1822057664394378,0.0097439745441079,-0.0534165874123573,-0.1792571693658828,0.2918524146080017,-0.7603673338890076,0.0,0.0,0.5615196228027344,0.3316963911056518
-0.1830921173095703,0.0054475404322147,-0.0521502271294593,-0.1841197609901428,0.2544242143630981,-0.7485949397087097,0.0,0.0,0.5322909355163574,0.3283514976501465
-0.1841592788696289,0.0015192127320915,-0.0687337145209312,-0.1685022711753845,0.2158347219228744,-0.7718177437782288,0.0,1.0,0.9173359870910645,0.7192987203598022
-0.1853270530700683,-0.0017559790285304,-0.0770365372300148,-0.1402851194143295,0.1758109331130981,-0.800510048866272,0.0,1.0,0.7616868019104004,0.6969921588897705
-0.1864249259233474,-0.0046014096587896,-0.0688189417123794,-0.1221594810485839,0.1348330229520797,-0.8195917010307312,0.0,0.0,0.6861711740493774,0.5432765483856201
-0.1874205619096756,-0.0076007987372577,-0.0574551448225975,-0.1300678700208664,0.0929730907082557,-0.8372331857681274,0.0,0.0,0.7293004989624023,-0.3061647415161133
-0.1885254830121994,-0.0104851387441158,-0.0677834600210189,-0.1261171996593475,0.050673920661211,-0.8460181355476379,1.0,0.0,0.985736846923828,0.0416327714920043
-0.1893593817949295,-0.0119092129170894,-0.0609408691525459,-0.0628362447023391,0.02935441583395,-0.4253150522708893,1.0,0.0,0.3246912956237793,0.8110854625701904
-0.1899128854274749,-0.0127875469624996,-0.0520928092300891,-0.038978524506092,0.0261469762772321,-0.0641316100955009,1.0,0.0,0.9756559133529664,0.9924465417861938
-0.1903780996799469,-0.012476410716772,-0.0574259534478187,0.0135957254096865,0.0369446165859699,0.2159851789474487,1.0,0.0,0.978377103805542,0.9487544298171996
-0.190602496266365,-0.0114045282825827,-0.0384434685111045,0.0471572950482368,0.0527916438877582,0.3169744908809662,1.0,0.0,0.6246113777160645,0.9989967346191406
-0.1908825933933258,-0.0098331114277243,-0.0370392501354217,0.0694942027330398,0.0617092363536357,0.178344264626503,1.0,1.0,-0.5258609652519226,0.7633440494537354
-0.191112607717514,-0.0088264606893062,-0.0263177566230297,0.0445995740592479,0.0649883523583412,0.0655781626701355,0.0,1.0,-0.9869361519813538,0.9929068088531494
-0.1912653893232345,-0.0083787469193339,-0.0123703945428133,0.0200232993811368,0.0621006488800048,-0.0577607452869415,0.0,1.0,-0.974164605140686,0.9069592952728271
-0.1913580894470214,-0.0085014840587973,-0.0010194982169196,-0.0051324521191418,0.0539414286613464,-0.1631967425346374,0.0,1.0,-0.7182065844535828,0.6621570587158203
-0.1913716346025467,-0.0089434050023555,0.0046894671395421,-0.0194528605788946,0.0480144470930099,-0.1184621229767799,1.0,1.0,-0.3839844465255737,-0.3611845970153808
-0.1913008689880371,-0.0094660064205527,0.0080240629613399,-0.0232099499553442,0.0471293814480304,-0.0176538620144128,1.0,1.0,-0.499998927116394,0.427703857421875
-0.1912006437778473,-0.0098616508767008,0.0087282732129096,-0.0176308155059814,0.0484663471579551,0.0267994944006204,1.0,1.0,-0.393740177154541,0.0890449285507202
-0.1910988837480545,-0.0099713709205389,0.0087452735751867,-0.0049281134270131,0.0498926267027854,0.0285582840442657,1.0,1.0,-0.4640003442764282,-0.071060836315155
-0.1909960806369781,-0.0097036864608526,0.0095329983159899,0.0118694985285401,0.050648458302021,0.0151350973173975,1.0,1.0,-0.2560110092163086,-0.0199587345123291
-0.190807431936264,-0.0090926075354218,0.0173716899007558,0.0271161552518606,0.0521116964519023,0.029256671667099,1.0,1.0,-0.1462664604187011,0.4270644187927246
-0.1905160844326019,-0.0081825517117977,0.0276521742343902,0.0403934977948665,0.0535802692174911,0.029385969042778,1.0,1.0,-0.2476765513420105,0.3964680433273315
-0.1902322769165039,-0.00733347190544,0.0346520654857158,0.0379447266459465,0.0473886355757713,-0.1238175630569458,1.0,1.0,-0.6058223843574524,-0.4253253936767578
-0.1898782700300216,-0.0065205479040741,0.0414308682084083,0.0363049432635307,0.0414373762905597,-0.1190107464790344,1.0,1.0,-0.5602356791496277,-0.3566280603408813
-0.1895055770874023,-0.0058124088682234,0.0426207073032856,0.0316000133752822,0.0361809656023979,-0.1050915941596031,1.0,1.0,-0.5400205850601196,-0.5062223076820374
-0.1891793310642242,-0.0052900221198797,0.0365614891052246,0.0233078654855489,0.032292578369379,-0.0777618065476417,1.0,1.0,-0.4099065065383911,-0.5109565258026123
-0.1889007538557052,-0.0049548172391951,0.0304439403116703,0.0149513771757483,0.0297451578080654,-0.0509420335292816,1.0,1.0,-0.4125609993934631,-0.3214234113693237
-0.1886175125837326,-0.0047309421934187,0.0300972368568182,0.0099803255870938,0.028001582249999,-0.0348650217056274,1.0,1.0,-0.4797852039337158,-0.1459382176399231
-0.1883322745561599,-0.0045629646629095,0.0298854447901248,0.0074868807569146,0.0266619585454463,-0.026786595582962,1.0,1.0,-0.6923207640647888,-0.4603239893913269
-0.1880477964878082,-0.0043953442946076,0.0298092607408761,0.0074698473326861,0.0253239255398511,-0.0267555117607116,1.0,1.0,-0.6268868446350098,-0.312694787979126
-0.1877661645412445,-0.0041861678473651,0.0298349857330322,0.0093246372416615,0.0236821379512548,-0.0328318774700164,1.0,1.0,-0.6396248936653137,-0.5360379219055176
-0.1875338554382324,-0.0039307856932282,0.0252302531152963,0.0113819716498255,0.0216985158622264,-0.0396684035658836,1.0,1.0,-0.6565606594085693,-0.3329918384552002
-0.1873063147068023,-0.0035979056265205,0.0253384057432413,0.0148297734558582,0.0191481113433837,-0.0510052852332592,1.0,1.0,-0.6004086136817932,-0.4606258273124695
