x_pos,y_pos,x_vel,y_vel,angle,ang_vel,leg_1,leg_2,main_booster,lat_booster
-0.0015407562023028,1.4033674001693726,-0.1553776413202285,-0.3356778919696808,0.0011645157355815,0.0229265112429857,0.0,0.0,-0.5598661303520203,0.3056492805480957
-0.0031004906632006,1.3955806493759155,-0.1565010100603103,-0.3460771441459656,0.0016819798620417,0.0103511670604348,0.0,0.0,-0.0903187990188598,0.808607816696167
-0.0046031000092625,1.3875305652618408,-0.1481824219226837,-0.3577779829502105,-0.0003682937240228,-0.0410092510282993,0.0,0.0,0.0538860559463501,0.6181478500366211
-0.0061643598601222,1.3796995878219604,-0.1520688235759735,-0.3480501770973205,-0.0043768901377916,-0.0801797360181808,0.0,0.0,-0.4333524703979492,-0.0451385974884033
-0.0077487947419285,1.3716115951538086,-0.1537677943706512,-0.3594822287559509,-0.0089968582615256,-0.0924075692892074,0.0,0.0,0.0907347202301025,0.4308350086212158
-0.0092638013884425,1.363803744316101,-0.1466560065746307,-0.3470578789710998,-0.0137942796573042,-0.0959575921297073,0.0,0.0,-0.1488931775093078,-0.3523769378662109
-0.0108047481626272,1.355738878250122,-0.1486202776432037,-0.3584914803504944,-0.0192008037120103,-0.1081406250596046,0.0,0.0,0.231379747390747,-0.1795462369918823
-0.0122519489377737,1.3481377363204956,-0.1391793042421341,-0.3379140198230743,-0.0246836207807064,-0.1096662878990173,0.0,0.0,-0.0130444169044494,-0.2203496098518371
-0.0137272831052541,1.3402799367904663,-0.1413805931806564,-0.3493502736091614,-0.030772253870964,-0.1217835769057273,0.0,0.0,-0.1360160112380981,0.6122742891311646
-0.0151836397126317,1.332167625427246,-0.1376407593488693,-0.3607328832149505,-0.0386753939092159,-0.1580775678157806,0.0,0.0,-0.2117376923561096,-0.0459507703781127
-0.0166701320558786,1.3237993717193604,-0.1400449723005294,-0.372166633605957,-0.0471792444586753,-0.1700927913188934,0.0,0.0,-0.1938818097114563,0.2129660844802856
-0.0181876178830862,1.3151752948760986,-0.1425428688526153,-0.3836015462875366,-0.0562823601067066,-0.1820793002843856,0.0,0.0,0.0464428663253784,0.41944420337677
-0.0196294784545898,1.3069523572921753,-0.1347876191139221,-0.3658432066440582,-0.0655921027064323,-0.1862123310565948,0.0,0.0,-0.911834955215454,-0.1766824722290039
-0.0211038589477539,1.298473834991455,-0.1374545991420745,-0.3772862255573272,-0.0754964128136634,-0.1981040835380554,0.0,0.0,-0.8526472449302673,-0.3642933368682861
-0.0226117130368948,1.2897403240203855,-0.1401953399181366,-0.3887233734130859,-0.085992120206356,-0.2099333256483078,0.0,0.0,-0.8509244322776794,-0.0317628383636474
-0.0241533275693655,1.2807519435882568,-0.1430052369832992,-0.4001635611057281,-0.0970765426754951,-0.2217082679271698,0.0,0.0,-0.6180750727653503,-0.2820489406585693
-0.0257294662296772,1.271508812904358,-0.1458786278963089,-0.4116058647632599,-0.1087466105818748,-0.2334221601486206,0.0,0.0,-0.695746123790741,-0.7850279211997986
-0.0273882858455181,1.262012243270874,-0.1547625362873077,-0.4229158759117126,-0.119807943701744,-0.221246600151062,0.0,0.0,-0.3551563620567322,-0.2916666865348816
-0.0290824882686138,1.2522611618041992,-0.1577518880367279,-0.4343604147434234,-0.1314488798379898,-0.232839897274971,0.0,0.0,-0.7587205171585083,0.4123735427856445
-0.0308128353208303,1.242255926132202,-0.1607901453971862,-0.445806473493576,-0.1436649560928344,-0.2443433552980423,0.0,0.0,-0.4765392541885376,-0.6092421412467957
-0.0326165184378623,1.2320088148117063,-0.168544590473175,-0.4566050767898559,-0.1554910242557525,-0.2365425080060959,0.0,0.0,-0.6619466543197632,-0.2324213981628418
-0.0344569198787212,1.2215077877044678,-0.171672910451889,-0.4680542349815368,-0.1678847670555114,-0.2478972971439361,0.0,0.0,-0.3569888472557068,-0.0785202980041503
-0.0363344177603721,1.2107528448104858,-0.1748389601707458,-0.4795049130916595,-0.1808409839868545,-0.259147584438324,0.0,0.0,0.1708958148956298,0.0264887809753417
-0.0381606109440326,1.2000575065612793,-0.1694185733795166,-0.477015882730484,-0.1941250711679458,-0.2657055258750915,0.0,0.0,0.0122082233428955,-0.7885675430297852
-0.0401088707149028,1.189738392829895,-0.1826508641242981,-0.4602744281291961,-0.2064070105552673,-0.2456608265638351,0.0,0.0,-0.4973564147949219,-0.7773767709732056
-0.0421720519661903,1.179171800613403,-0.1955413222312927,-0.4711732566356659,-0.2172929942607879,-0.2177197188138961,0.0,0.0,-0.9033862948417664,-0.8963371515274048
-0.0443415641784668,1.1683790683746338,-0.2074280232191085,-0.4811038970947265,-0.2269251644611358,-0.1926430612802505,0.0,0.0,-0.7952390313148499,-0.1892406940460205
-0.0465496070683002,1.1573323011398315,-0.2107820808887481,-0.4925470352172851,-0.2370944321155548,-0.2033850699663162,0.0,0.0,-0.4726606607437134,-0.8597257137298584
-0.048875618726015,1.1460671424865725,-0.2241494208574295,-0.5020575523376465,-0.2456778883934021,-0.1716689765453338,0.0,0.0,0.0240899324417114,-0.4632810354232788
-0.05117978900671,1.134992241859436,-0.2214012593030929,-0.4937549233436584,-0.2548447549343109,-0.1833373308181762,0.0,0.0,-0.261411190032959,-0.7614619731903076
-0.0535776130855083,1.1236931085586548,-0.2317705154418945,-0.503596842288971,-0.2630276679992676,-0.1636579632759094,0.0,0.0,-0.6211528182029724,-0.3012134432792663
-0.056014634668827,1.1121395826339722,-0.2352093160152435,-0.5150386691093445,-0.2717174887657165,-0.1737965792417526,0.0,0.0,-0.4510127902030945,-0.6239497661590576
-0.0585436820983886,1.1003596782684326,-0.245351105928421,-0.5249692797660828,-0.2794618904590606,-0.1548880636692047,0.0,0.0,-0.1060552597045898,-0.6741892695426941
-0.0611696243286132,1.0883437395095823,-0.2560542225837707,-0.5353105664253235,-0.2861877083778381,-0.134516105055809,0.0,0.0,0.0924478769302368,-0.3752054572105407
-0.0637075453996658,1.076665282249451,-0.2468476742506027,-0.5204192399978638,-0.2933409810066223,-0.1430656760931015,0.0,0.0,-0.5991069078445435,-0.7560422420501709
-0.0663390159606933,1.0647625923156738,-0.2572123110294342,-0.5302147269248962,-0.2994641065597534,-0.1224622949957847,0.0,0.0,0.0968444347381591,-0.5709568858146667
-0.068982794880867,1.0530641078948977,-0.2591064274311065,-0.5210331678390503,-0.3049120008945465,-0.1089579090476036,0.0,0.0,0.483296275138855,-0.440900981426239
-0.0714281052350997,1.0420730113983154,-0.2390044033527374,-0.4896653890609741,-0.31064173579216,-0.114594779908657,0.0,0.0,0.3927391767501831,-0.978461742401123
-0.0738031417131424,1.0319043397903442,-0.2334764450788498,-0.4528024792671203,-0.3148150146007538,-0.0834651291370391,0.0,0.0,-0.0048145651817321,-0.7072110176086426
-0.076267622411251,1.0215060710906982,-0.2433702498674392,-0.4628195166587829,-0.3180232048034668,-0.0641637593507766,0.0,0.0,0.3511042594909668,-0.6315499544143677
-0.0787097960710525,1.0118330717086792,-0.2418238669633865,-0.4304352402687073,-0.3205064237117767,-0.049664307385683,0.0,0.0,-0.0605946779251098,0.1508499383926391
-0.0811911597847938,1.0019047260284424,-0.2453866451978683,-0.4418710768222809,-0.323365569114685,-0.057183064520359,0.0,0.0,0.4190117120742798,-0.7653945088386536
-0.0835967063903808,0.9920803308486938,-0.2390819489955902,-0.4369708001613617,-0.3248944878578186,-0.0305781122297048,0.0,0.0,0.6729557514190674,-0.0196483135223388
-0.0857750922441482,0.9827130436897278,-0.2164911031723022,-0.4166262447834015,-0.3262952864170074,-0.0280158333480358,0.0,0.0,0.8930854797363281,-0.2838137149810791
-0.0879281982779502,0.9735919833183287,-0.2134651392698288,-0.4058027863502502,-0.3282271027565002,-0.0386370494961738,0.0,0.0,0.5888103246688843,0.2527668476104736
-0.0899746865034103,0.9646499752998352,-0.2027125358581543,-0.3978623151779175,-0.330247700214386,-0.040411103516817,0.0,0.0,0.1900148391723632,-0.169871985912323
-0.0919137969613075,0.955887496471405,-0.191911980509758,-0.389901340007782,-0.3323342502117157,-0.0417308583855629,0.0,0.0,0.1893055438995361,-0.5771164894104004
-0.0938214287161827,0.9477918148040771,-0.189523309469223,-0.3600921630859375,-0.3336322009563446,-0.0259591694921255,0.0,0.0,0.5515899658203125,-0.5123099088668823
-0.095688059926033,0.9405787587165833,-0.1858870834112167,-0.3207609057426452,-0.3344409763813019,-0.0161752626299858,0.0,0.0,0.0981695652008056,0.5946722030639648
-0.097452737390995,0.9335716962814332,-0.1743251681327819,-0.311927855014801,-0.3366808295249939,-0.0447977520525455,0.0,0.0,-0.4480681419372558,-0.3209553956985473
-0.0992551818490028,0.9263080954551696,-0.1779492795467376,-0.3233581781387329,-0.3390828967094421,-0.0480412617325782,0.0,0.0,0.0483835935592651,0.0935183763504028
-0.1009741798043251,0.9194678664207458,-0.1693119704723358,-0.3046250641345978,-0.3417866826057434,-0.0540759153664112,0.0,0.0,0.3926799297332763,0.2298016548156738
-0.1025179848074913,0.9128543138504028,-0.1521089822053909,-0.2944783866405487,-0.3441666066646576,-0.0475987121462821,0.0,0.0,-0.1035661101341247,-0.4485275149345398
-0.1040987968444824,0.9059839844703674,-0.1557478159666061,-0.3059062659740448,-0.3466179072856903,-0.0490258932113647,0.0,0.0,0.1500167846679687,0.5916520357131958
-0.1054494827985763,0.8992512822151184,-0.1317144632339477,-0.3000465333461761,-0.3501441180706024,-0.0705243200063705,0.0,0.0,-0.0945104956626892,-0.2169317603111267
-0.106836698949337,0.892261803150177,-0.1353618204593658,-0.3114731609821319,-0.3536778390407562,-0.0706744045019149,0.0,0.0,0.7264628410339355,-0.4993859529495239
-0.1078794449567794,0.8861360549926758,-0.1013798117637634,-0.2729751765727997,-0.3567321002483368,-0.0610847100615501,0.0,0.0,0.6149640083312988,-0.3999260663986206
-0.1086015701293945,0.8806089758872986,-0.0699607878923416,-0.2462094575166702,-0.359104722738266,-0.0474527552723884,0.0,0.0,0.5694843530654907,-0.9495835900306702
-0.1090768799185752,0.8759289383888245,-0.0473040603101253,-0.2080576419830322,-0.35933917760849,-0.0046892878599464,0.0,0.0,0.1781356334686279,-0.6440789103507996
-0.1094933524727821,0.8718419671058655,-0.0427208170294761,-0.1813715994358062,-0.3582057058811188,0.0226693898439407,0.0,0.0,0.3969626426696777,-0.7953494191169739
-0.1098498329520225,0.8679381012916565,-0.0384725034236907,-0.172804981470108,-0.3552315235137939,0.0594838336110115,0.0,0.0,0.4729323387145996,-0.8527659773826599
-0.1101796180009841,0.8647474646568298,-0.0375384464859962,-0.1406867355108261,-0.3504382371902466,0.095865786075592,0.0,0.0,-0.09932541847229,-0.8854832053184509
-0.1105964630842208,0.8613256812095642,-0.0478232912719249,-0.1506004184484481,-0.3439874947071075,0.1290144622325897,0.0,0.0,0.3885143995285034,-0.7628076076507568
-0.1109088882803917,0.8583940267562866,-0.0391688756644725,-0.1284311115741729,-0.3356957733631134,0.1658344268798828,0.0,0.0,-0.6440000534057617,-0.7432025671005249
-0.1113108620047569,0.8552284240722656,-0.0498381778597831,-0.1384846270084381,-0.3256340026855469,0.2012357264757156,0.0,0.0,-0.9074159264564514,0.0880215167999267
-0.1117463111877441,0.8518056273460388,-0.053506065160036,-0.1499099284410476,-0.3152685761451721,0.2073087990283966,0.0,0.0,-0.9742078185081482,0.7068794965744019
-0.1121584922075271,0.8481068015098572,-0.0500878393650054,-0.1624904125928878,-0.3060567378997803,0.1842366307973861,0.0,0.0,-0.851860523223877,0.5424697399139404
-0.1125584617257118,0.8441223502159119,-0.0480412431061267,-0.1754186004400253,-0.2977508306503296,0.1661183536052703,0.0,0.0,-0.9606230854988098,-0.2630114555358886
-0.1129913330078125,0.8398803472518921,-0.0517018809914588,-0.18684022128582,-0.2890645563602447,0.1737256795167923,0.0,0.0,-0.810859203338623,0.2520449161529541
-0.1134566292166709,0.8353806734085083,-0.0553592629730701,-0.1982620656490326,-0.2799749076366424,0.1817929595708847,0.0,0.0,-0.8709492683410645,0.7536735534667969
-0.1139050498604774,0.8306054472923279,-0.0528560653328895,-0.210718885064125,-0.2717530727386474,0.1644365638494491,0.0,0.0,-0.2944440841674804,-0.1026253700256347
-0.1143855080008506,0.8255724906921387,-0.0565036311745643,-0.22213976085186,-0.2630858123302459,0.1733454167842865,0.0,0.0,-0.8021257519721985,0.7383720874786377
-0.1148518547415733,0.820271909236908,-0.0544350631535053,-0.2342061251401901,-0.2551213800907135,0.1592878103256225,0.0,0.0,-0.9960331320762634,0.653233528137207
-0.1152937859296798,0.8146914839744568,-0.0510237701237201,-0.2468514889478683,-0.2481567114591598,0.1392932385206222,0.0,0.0,-0.9805259108543396,0.3960076570510864
-0.1157668083906173,0.8088529706001282,-0.0546490959823131,-0.2582705914974212,-0.2406931221485138,0.1492720693349838,0.0,0.0,-0.9940249919891356,0.4626221656799316
-0.1162709221243858,0.8027564287185669,-0.0582652017474174,-0.2696902453899383,-0.2327151894569397,0.1595587283372879,0.0,0.0,-0.9794448018074036,0.9209576845169068
-0.1167402267456054,0.796369194984436,-0.0535767301917076,-0.282840758562088,-0.2259758561849594,0.1347866952419281,0.0,0.0,-0.9977751970291138,0.7461059093475342
-0.1171823516488075,0.7897108793258667,-0.0499471500515937,-0.2950592041015625,-0.2201719582080841,0.1160780563950538,0.0,0.0,-0.9977996945381165,0.1937386989593505
-0.1176547035574913,0.7827943563461304,-0.0535263307392597,-0.3064772486686706,-0.2138141095638275,0.1271567344665527,0.0,0.0,-0.9999632239341736,0.5363755226135254
-0.1181225776672363,0.7756139039993286,-0.0527785010635852,-0.3182750046253204,-0.2077653557062149,0.1209752559661865,0.0,0.0,-0.9997273087501526,0.6438071727752686
-0.1185820549726486,0.7681564688682556,-0.0515038296580314,-0.330672949552536,-0.2021625638008117,0.1120556443929672,0.0,0.0,-0.9973214268684388,-0.1789467334747314
-0.1190710067749023,0.7604408860206604,-0.055032379925251,-0.3420911431312561,-0.1959749460220337,0.1237519606947898,0.0,0.0,-0.9991921782493592,0.466912031173706
-0.1195889487862587,0.7524672150611877,-0.0585404336452484,-0.3535100519657135,-0.1891939043998718,0.1356208026409149,0.0,0.0,-0.9997212290763856,0.8133336305618286
-0.1200778931379318,0.7442223429679871,-0.0547713451087474,-0.3657011091709137,-0.1832931786775589,0.1180144548416137,0.0,0.0,-0.9787070155143738,0.6672912836074829
-0.1205441504716873,0.735708475112915,-0.0518029741942882,-0.3777605593204498,-0.1780937612056732,0.1039883494377136,0.0,0.0,-0.999957263469696,0.1789916753768921
-0.1210385337471962,0.7269364595413208,-0.0552349388599395,-0.3891791403293609,-0.1722792088985443,0.1162907481193542,0.0,0.0,-0.9975804686546326,0.0545247793197631
-0.1215605735778808,0.7179064750671387,-0.0586364790797233,-0.4005984365940094,-0.165843591094017,0.1287126243114471,0.0,0.0,-0.9949136972427368,0.1050248146057128
-0.1221099868416786,0.7086187601089478,-0.0620046071708202,-0.4120186269283294,-0.1587814390659332,0.1412431001663208,0.0,0.0,-0.999743402004242,0.8792949914932251
-0.12260103225708,0.6990523338317871,-0.0546089634299278,-0.4245956540107727,-0.1532781422138214,0.1100663319230079,0.0,0.0,-0.9999427795410156,0.6013376712799072
-0.1230611801147461,0.6892099976539612,-0.0506779067218303,-0.4369667172431946,-0.1486231237649917,0.0931002646684646,0.0,0.0,-0.999058723449707,0.0884326696395874
-0.1235472708940506,0.6791095733642578,-0.0539240464568138,-0.4483859837055206,-0.1433281451463699,0.1058991998434066,0.0,0.0,-0.9979910850524902,-0.2801983952522278
-0.1240590065717697,0.6687514185905457,-0.0571218840777874,-0.4598060250282287,-0.137389600276947,0.1187705546617508,0.0,0.0,-0.9981040358543396,0.8325304985046387
-0.1245165839791297,0.6581220030784607,-0.0503547675907611,-0.472000390291214,-0.1328105926513672,0.0915801078081131,0.0,0.0,-0.999864399433136,0.6124584674835205
-0.1249430626630783,0.6472170352935791,-0.0464599803090095,-0.4843310415744781,-0.1290134042501449,0.075943648815155,0.0,0.0,-0.998802363872528,0.9548397064208984
-0.1253251135349273,0.6360378861427307,-0.0409241579473018,-0.4966133534908294,-0.1263058930635452,0.054150354117155,0.0,0.0,-0.9994242787361144,0.0489840507507324
-0.1257300376892089,0.6246008276939392,-0.043879747390747,-0.508032500743866,-0.1229437962174415,0.0672421008348465,0.0,0.0,-0.9988908767700196,0.301846981048584
-0.1261571943759918,0.6129056811332703,-0.0467611849308013,-0.5194520950317383,-0.1189251020550727,0.0803738087415695,0.0,0.0,-0.9985440969467164,0.3428142070770263
-0.1266057938337326,0.6009527444839478,-0.0495623014867305,-0.5308722853660583,-0.1142481043934822,0.093540146946907,0.0,0.0,-0.9972459077835084,0.8411400318145752
-0.1269988119602203,0.5887332558631897,-0.0427463836967945,-0.5428324341773987,-0.1108305677771568,0.0683509334921836,0.0,0.0,-0.9994987845420836,0.7135604619979858
-0.1273598670959472,0.576252281665802,-0.0389123000204563,-0.5545005202293396,-0.1080469489097595,0.0556723661720752,0.0,0.0,-0.9983131885528564,0.3796322345733642
-0.1277394294738769,0.5635135769844055,-0.0414319075644016,-0.5659205317497253,-0.1046012416481971,0.0689142793416976,0.0,0.0,-0.998550534248352,-0.6321254968643188
-0.1281884163618087,0.5505232214927673,-0.0503586158156394,-0.5769792199134827,-0.0991807430982589,0.1084103137254715,0.0,0.0,-0.99588543176651,0.9722155332565308
-0.1285917311906814,0.5372669100761414,-0.0449024178087711,-0.5888721942901611,-0.0946592018008232,0.0904307886958122,0.0,0.0,-0.989833116531372,0.9404346942901612
-0.1289547979831695,0.5237428545951843,-0.0401146709918975,-0.6008291840553284,-0.0908805727958679,0.0755729526281356,0.0,0.0,-0.9334887266159058,0.7460360527038574
-0.129262164235115,0.5099561214447021,-0.033454779535532,-0.6125824451446533,-0.0881845504045486,0.0539204999804496,0.0,0.0,-0.5670468807220459,0.8870878219604492
-0.1295052468776703,0.4958935976028442,-0.0257352702319622,-0.6249166131019592,-0.086774356663227,0.0282038263976573,0.0,0.0,0.3329908847808838,-0.2886281013488769
-0.1295892745256424,0.4824779033660888,-0.0110440049320459,-0.596099853515625,-0.0841584652662277,0.0523178167641162,0.0,0.0,-0.7826152443885803,-0.007932424545288
-0.1296826303005218,0.4688045978546142,-0.0126498416066169,-0.6075211763381958,-0.0808784812688827,0.0655998587608337,0.0,0.0,-0.3312605023384094,0.4209775924682617
-0.1297838240861892,0.4548736214637756,-0.0140964556485414,-0.6189430356025696,-0.0769347473978996,0.0788748934864997,0.0,0.0,0.5879795551300049,0.4870600700378418
-0.1297751367092132,0.4415099322795868,-0.0041252393275499,-0.593693196773529,-0.071988508105278,0.0989246889948844,0.0,0.0,0.2609336376190185,0.9772886037826538
-0.1296546906232834,0.4288231432437897,0.0083357635885477,-0.563681960105896,-0.0683253109455108,0.0732640400528907,0.0,0.0,-0.1459027528762817,0.8468432426452637
-0.1294631063938141,0.4158787429332733,0.0166698936372995,-0.5751954913139343,-0.0658543035387992,0.0494201704859733,0.0,0.0,0.0162237882614135,0.5593276023864746
-0.1291542947292328,0.4030861854553222,0.0287570767104625,-0.568464994430542,-0.0637561008334159,0.0419641211628913,0.0,0.0,0.9263241291046144,0.344433069229126
-0.1289409697055816,0.3911288976669311,0.0192150603979825,-0.5313460826873779,-0.0616573058068752,0.0419759377837181,0.0,0.0,0.144707441329956,0.6933014392852783
-0.1287485063076019,0.3794504106044769,0.0179650243371725,-0.5189914107322693,-0.0603969953954219,0.0252063423395156,0.0,0.0,-0.2672853469848633,0.9389979839324952
-0.1284800469875335,0.3675072789192199,0.0267361756414175,-0.5307994484901428,-0.0602808967232704,0.0023217850830405,0.0,0.0,-0.3103904128074646,0.9034454822540284
-0.128130629658699,0.3552982211112976,0.0360553748905658,-0.5426713824272156,-0.0613840296864509,-0.022062687203288,0.0,0.0,0.5875078439712524,0.384596586227417
-0.1276264190673828,0.3433372974395752,0.0502840057015419,-0.5315908193588257,-0.0612509101629257,0.0026625322643667,0.0,0.0,0.7553228139877319,0.3227639198303222
-0.1269641816616058,0.3321969509124756,0.0649375990033149,-0.495074450969696,-0.0599842257797718,0.025333572179079,0.0,0.0,0.3318052291870117,0.4396047592163086
-0.1262309104204177,0.3217708170413971,0.0712920874357223,-0.4633024632930755,-0.0579708367586135,0.0402679517865181,0.0,0.0,-0.8050209879875183,0.5926100015640259
