x_pos,y_pos,x_vel,y_vel,angle,ang_vel,leg_1,leg_2,main_booster,lat_booster
-0.0014934539794921,1.4032021760940552,-0.1520939767360687,-0.3430197536945343,0.0024708835408091,0.0487929284572601,0.0,0.0,-0.41279573016861,0.2770768059169398
-0.002955722855404,1.395085096359253,-0.1493858844041824,-0.3607615828514099,0.0055960756726562,0.0625106543302536,0.0,0.0,0.7487911899007256,-0.2021364392712036
-0.0042469976469874,1.3871883153915403,-0.1336947232484817,-0.3509965538978576,0.0101125827059149,0.0903385952115058,0.0,0.0,0.6359931451305751,-0.8291432867689847
-0.0057065961882472,1.379606008529663,-0.152666687965393,-0.3370561301708221,0.0167383980005979,0.1325284391641616,0.0,0.0,-0.9956166690968942,-0.7622632446530344
-0.0071802139282226,1.3716034889221191,-0.1559813469648361,-0.3557924628257751,0.0252605825662612,0.1704595685005188,0.0,0.0,0.5674761311283867,0.756729504946225
-0.0084299091249704,1.3639590740203855,-0.1330720484256744,-0.3399096131324768,0.0332756489515304,0.1603163927793502,0.0,0.0,-0.1610992576533247,-0.2056133408440268
-0.009645271115005,1.35589337348938,-0.1303596794605255,-0.358691394329071,0.0419992394745349,0.1744881272315979,0.0,0.0,-0.4065171998652199,0.1495886344853458
-0.0108260158449411,1.3474071025848389,-0.1275996565818786,-0.3774659335613251,0.0514292195439338,0.1886170953512191,0.0,0.0,-0.9305383861615392,-0.9583016125838
-0.0120489122346043,1.3385050296783447,-0.1344744265079498,-0.3961134552955627,0.0634995624423027,0.2414287328720092,0.0,0.0,0.3764887385822539,-0.9296854179314724
-0.0133488653227686,1.3300882577896118,-0.1447430402040481,-0.3747667074203491,0.0781136751174926,0.2923091053962707,0.0,0.0,-0.7495060782755527,-0.7239553522954643
-0.0146618839353322,1.3212478160858154,-0.1479904502630233,-0.3938603401184082,0.0946598649024963,0.3309544920921325,0.0,0.0,-0.7700416752206309,-0.003443158425382
-0.0159392356872558,1.3119899034500122,-0.1450916677713394,-0.4126525819301605,0.1119049191474914,0.3449331521987915,0.0,0.0,-0.4404205728539754,-0.9870304842806856
-0.0172416679561138,1.3023099899291992,-0.1498070657253265,-0.431799054145813,0.1313844621181488,0.3896270394325256,0.0,0.0,0.4974328438623234,0.0302093564975136
-0.0184883121401071,1.2927054166793823,-0.1451642662286758,-0.4288116991519928,0.151853397488594,0.4094161093235016,0.0,0.0,-0.1996946061449831,0.9406457971328396
-0.0196094512939453,1.2827152013778689,-0.1309325397014618,-0.4460421204566955,0.170693352818489,0.3768336474895477,0.0,0.0,0.0028246150800381,0.8340441991680205
-0.0205817222595214,1.2726024389266968,-0.1150271072983741,-0.4516021907329559,0.1885734647512436,0.3576352000236511,0.0,0.0,0.9274770907313006,-0.8769076162658435
-0.0216004364192485,1.2635844945907593,-0.1223838776350021,-0.4035353362560272,0.2092450261116027,0.4134690165519714,0.0,0.0,0.1767554798084389,0.4167373473808441
-0.0225394256412982,1.2545748949050903,-0.1154482141137123,-0.4036239087581634,0.2310761660337448,0.4366625845432281,0.0,0.0,0.7197996656682748,-0.4929165097399643
-0.0235354416072368,1.2464065551757812,-0.1221776381134986,-0.3667496740818023,0.2540631592273712,0.4597817063331604,0.0,0.0,-0.4596645378871322,0.4095408936810828
-0.0244957916438579,1.237824559211731,-0.1191392987966537,-0.3855910897254944,0.2777293920516968,0.4733670651912689,0.0,0.0,-0.7826331178161223,0.341977363031078
-0.0254206657409667,1.2288302183151243,-0.1161016970872879,-0.4044259190559387,0.3020720183849334,0.4868966042995453,0.0,0.0,0.9111511892506832,-0.8167048407844899
-0.0265092849731445,1.2201306819915771,-0.1345502138137817,-0.3922086358070373,0.3287835121154785,0.5342782735824585,0.0,0.0,-0.217904843144002,-0.7121649614172386
-0.0276047699153423,1.210998773574829,-0.1367391049861908,-0.412307471036911,0.3573048114776611,0.570477306842804,0.0,0.0,-0.3300042293710259,0.7925242860084649
-0.0285992622375488,1.201485276222229,-0.1252740919589996,-0.4294932782649994,0.3846854269504547,0.5476616024971008,0.0,0.0,0.7917714126492281,-0.5922610503804601
-0.0300186164677143,1.1924151182174685,-0.1688289791345596,-0.4106527864933014,0.4135206341743469,0.5767555236816406,0.0,0.0,-0.8638454418119796,0.279516589613156
-0.0313989631831646,1.1829164028167725,-0.1652330160140991,-0.4304067194461822,0.4430135190486908,0.5898575186729431,0.0,0.0,0.647019124932855,-0.3893740926189106
-0.033053208142519,1.1739938259124756,-0.1928642839193344,-0.4055405855178833,0.4731787145137787,0.6033039093017578,0.0,0.0,0.3472726944689124,0.146014026412695
-0.03507661819458,1.165489673614502,-0.2295032441616058,-0.3875496983528137,0.5035006403923035,0.606438159942627,0.0,0.0,0.2867881177384133,-0.4346813622119442
-0.0374485030770301,1.157297134399414,-0.2640425264835357,-0.3742981851100921,0.5339964628219604,0.6099164485931396,0.0,0.0,-0.9291842482877616,-0.4609905827299931
-0.0397893898189067,1.1486972570419312,-0.2610085308551788,,0.5651302933692932,0.6226763725280762,0.0,0.0,0.6945601843398259,0.1068746474861682
-0.042548943310976,1.1408066749572754,-0.3029514253139496,-0.3624816834926605,0.5969838500022888,0.6370728015899658,0.0,0.0,-0.9049158096313475,0.9920023679733276
-0.0452211387455463,1.1325608491897583,-0.2926347851753235,-0.3783416450023651,0.627609372138977,0.6125115156173706,0.0,0.0,-0.9765785336494446,0.9972476959228516
-0.0478137023746967,1.1239736080169678,-0.2831093370914459,-0.393513411283493,0.656967282295227,0.5871587991714478,0.0,0.0,-0.956424355506897,0.9936978816986084
-0.0503192916512489,1.1150336265563965,-0.2728185355663299,-0.4090875089168548,0.6850070953369141,0.5607963800430298,0.0,0.0,-0.9802014231681824,0.9900856018066406
-0.0527359955012798,1.1057603359222412,-0.2621839642524719,-0.423597127199173,0.7114048600196838,0.5279549360275269,0.0,0.0,-0.992972731590271,0.9895117282867432
-0.0550679191946983,1.0961586236953735,-0.2519797086715698,-0.4377726912498474,0.736120879650116,0.4943216741085052,0.0,0.0,-0.9766488075256348,0.9766219854354858
-0.0573160164058208,1.0862144231796265,-0.2420730143785476,-0.4526121914386749,0.7593429684638977,0.4644423127174377,0.0,0.0,-0.9827377796173096,0.9893637895584106
-0.0594807639718055,1.0759469270706177,-0.2320809811353683,-0.466389924287796,0.7807605266571045,0.4283529222011566,0.0,0.0,-0.830933690071106,0.9679696559906006
-0.0615736953914165,1.0653470754623413,-0.2234929800033569,-0.4806475341320038,0.8006734848022461,0.3982590436935425,0.0,0.0,-0.9924620985984802,0.9592568874359132
-0.0635860413312912,1.054417610168457,-0.213950514793396,-0.4946440458297729,0.8188495635986328,0.3635219931602478,0.0,0.0,-0.955397367477417,0.9848438501358032
-0.0655330643057823,1.0431468486785889,-0.2062611281871795,-0.5092781782150269,0.8356903791427612,0.3368167579174042,0.0,0.0,-0.9719091653823853,0.9845302104949952
-0.0673912987112999,1.031561017036438,-0.195702463388443,-0.5223129987716675,0.8503333330154419,0.2928587198257446,0.0,0.0,-0.975753128528595,0.95365571975708
-0.0691618919372558,1.0196479558944702,-0.1854355633258819,-0.535902738571167,0.8629451394081116,0.2522358298301697,0.0,0.0,-0.9755808115005492,0.9360320568084716
-0.0708513259887695,1.0074121952056885,-0.1758773624897003,-0.549258828163147,0.8735215067863464,0.2115274220705032,0.0,0.0,-0.9865952134132384,0.9363512992858888
-0.0724666565656662,0.9948290586471558,-0.1673921197652816,-0.563930332660675,0.8825495839118958,0.1805618107318878,0.0,0.0,-0.9869481921195984,0.9714455604553224
-0.0740015059709549,0.9819152355194092,-0.1579972356557846,-0.5776426196098328,0.8896021246910095,0.141051098704338,0.0,0.0,-0.9981695413589478,0.9735472202301024
-0.0754577666521072,0.968675434589386,-0.148792028427124,-0.5910520553588867,0.8945801258087158,0.0995603799819946,0.0,0.0,-0.9764677286148072,0.953188419342041
-0.0768589004874229,0.95509272813797,-0.1423540860414505,-0.6055392622947693,0.8981113433837891,0.0706244558095932,0.0,0.0,-0.9829001426696776,0.9202392101287842
-0.0782076865434646,0.9411605596542358,-0.136255994439125,-0.620373010635376,0.9003027677536011,0.0438283905386924,0.0,0.0,-0.9327973127365112,0.8851749897003174
-0.079492762684822,0.9268840551376344,-0.1288375705480575,-0.6347834467887878,0.9008262753486632,0.0104696881026029,0.0,0.0,-0.9874386787414552,0.6735247373580933
-0.0807172805070877,0.9122629165649414,-0.1217406541109085,-0.6492286324501038,0.8996919393539429,-0.022686630487442,0.0,0.0,-0.9980695843696594,0.8464481830596924
-0.0818884819746017,0.8972939252853394,-0.1154346242547035,-0.6638700366020203,0.8970147371292114,-0.0535440854728221,0.0,0.0,-0.9674110412597656,0.833282470703125
-0.0829914063215255,0.8819901347160339,-0.1072859540581703,-0.6776663661003113,0.8922732472419739,-0.0948292687535286,0.0,0.0,-0.980692744255066,0.8095901012420654
-0.0840414017438888,0.8663433790206909,-0.1008676886558532,-0.6920252442359924,0.8858064413070679,-0.1293361485004425,0.0,0.0,-0.9847676753997804,0.6484417915344238
-0.0850342735648155,0.8503462672233582,-0.0939992666244506,-0.7067089080810547,0.8776094317436218,-0.1639419496059417,0.0,0.0,-0.97324937582016,0.3271945714950561
-0.0860113129019737,0.8339284062385559,-0.0924297794699668,-0.7254860401153564,0.8695039749145508,-0.1621088534593582,0.0,0.0,-0.9568573236465454,0.698927640914917
-0.0869369506835937,0.8171641230583191,-0.0860635414719581,-0.7399726510047913,0.8595854640007019,-0.1983704417943954,0.0,0.0,-0.9770714640617372,0.647650957107544
-0.0878108963370323,0.8000497221946716,-0.0795917958021164,-0.7546621561050415,0.8478537797927856,-0.2346333265304565,0.0,0.0,-0.9731339812278748,0.3407008647918701
-0.0886725410819053,0.7825139760971069,-0.078237809240818,-0.7734358906745911,0.8360986709594727,-0.2351023405790329,0.0,0.0,-0.9276366233825684,0.9123564958572388
-0.0894860252737999,0.764630138874054,-0.072025753557682,-0.7880398631095886,0.8224514722824097,-0.2729440331459045,0.0,0.0,-0.8520393967628479,0.7615015506744385
-0.0902433395385742,0.7463902831077576,-0.0648906230926513,-0.8029898405075073,0.8068397641181946,-0.3122344315052032,0.0,0.0,-0.7649536728858948,0.8304150104522705
-0.0909576416015625,0.727789580821991,-0.0591838844120502,-0.8183097243309021,0.7895165085792542,-0.3464646935462951,0.0,0.0,-0.7156289219856262,0.660240650177002
-0.091620922088623,0.708832323551178,-0.0524481609463691,-0.8333845138549805,0.7702289819717407,-0.3857502937316894,0.0,0.0,-0.579798698425293,0.5642522573471069
-0.0922464355826377,0.6895021200180054,-0.047285757958889,-0.8494235873222351,0.7494147419929504,-0.4162843823432922,0.0,0.0,-0.6056939959526062,0.7068971395492554
-0.0928249359130859,0.6698046922683716,-0.0408848151564598,-0.8651350736618042,0.7267670631408691,-0.4529538750648498,0.0,0.0,-0.0719706416130065,0.5859091281890869
-0.0933735817670822,0.6497238874435425,-0.0365564748644828,-0.8818544149398804,0.7028077840805054,-0.4791857302188873,0.0,0.0,0.2605807781219482,0.8130207061767578
-0.0942846313118934,0.6300579309463501,-0.0707649812102317,-0.8628161549568176,0.6767386794090271,-0.5213820338249207,0.0,0.0,0.077066421508789,0.7580416202545166
-0.0952175110578537,0.6103034019470215,-0.0709114596247673,-0.8663052320480347,0.6487032175064087,-0.5607089400291443,0.0,0.0,0.3257038593292236,0.4783005714416504
-0.0965476036071777,0.5909706354141235,-0.1099526137113571,-0.8478817343711853,0.6204003095626831,-0.5660580396652222,0.0,0.0,0.1510344743728637,0.530483603477478
-0.0980956107378006,0.5715954303741455,-0.1298653185367584,-0.8495744466781616,0.5904335379600525,-0.5993349552154541,0.0,0.0,-0.4118671417236328,0.7793197631835938
-0.0996053665876388,0.5518509745597839,-0.1239536553621292,-0.8658245801925659,0.5586198568344116,-0.6362737417221069,0.0,0.0,0.4345012903213501,0.696216344833374
-0.1013354286551475,0.5324482321739197,-0.1437892615795135,-0.8505730032920837,0.5249201655387878,-0.6739950180053711,0.0,0.0,0.2494003772735595,0.8016672134399414
-0.1034360900521278,0.5134345889091492,-0.1782393008470535,-0.8332189917564392,0.4889532625675201,-0.7193385362625122,0.0,0.0,-0.1918247938156128,0.7305015325546265
-0.1054868698120117,0.4940569102764129,-0.1706306040287017,-0.8495097756385803,0.4507748484611511,-0.7635686993598938,0.0,0.0,0.7616391181945801,0.897080659866333
-0.1076976805925369,0.4748493432998657,-0.1837370097637176,-0.8421739339828491,0.4101662337779999,-0.8121725916862488,0.0,0.0,0.9894983768463136,0.9421465396881104
-0.1099201217293739,0.4558656215667724,-0.1820500642061233,-0.832678496837616,0.3672541081905365,-0.858243465423584,0.0,0.0,0.9634714126586914,0.7569129467010498
-0.1122774109244346,0.4370490312576294,-0.1927733123302459,-0.8259368538856506,0.3221643269062042,-0.901796817779541,0.0,0.0,0.9926795959472656,0.7782886028289795
-0.1149013489484787,0.4192264974117279,-0.2166666090488433,-0.7826477885246277,0.2749005854129791,-0.945276379585266,0.0,0.0,0.9893547296524048,0.7362596988677979
-0.1176474541425705,0.4025005996227264,-0.2264695465564727,-0.7350775599479675,0.2258182168006897,-0.9816488027572632,0.0,0.0,0.756810188293457,0.7567920684814453
-0.1206684112548828,0.3866379261016845,-0.2510376572608948,-0.6980144381523132,0.1743590831756591,-1.029184341430664,0.0,0.0,0.1392288208007812,0.650155782699585
-0.1237862557172775,0.3707057535648346,-0.2582256197929382,-0.7026863694190979,0.120879627764225,-1.06959068775177,0.0,0.0,0.1281740665435791,0.0421725511550903
-0.1269513070583343,0.3551972210407257,-0.262097418308258,-0.6857503652572632,0.0669289231300354,-1.0790162086486816,0.0,0.0,-0.2210733294486999,-0.0623597502708435
-0.1301246583461761,0.3393049538135528,-0.2621192038059234,-0.7047580480575562,0.0123699577525258,-1.0911811590194702,0.0,0.0,0.1031489372253418,-0.9601420164108276
-0.1334305703639984,0.3237096071243286,-0.2766416668891907,-0.6935402154922485,-0.040892370045185,-1.0652482509613037,0.0,0.0,-0.0994341373443603,-0.9423032402992249
-0.1368188858032226,0.3077386617660522,-0.2862811982631683,-0.7120749950408936,-0.0928683206439018,-1.039520502090454,0.0,0.0,0.0412620306015014,-0.992922067642212
-0.1401908844709396,0.2919304966926574,-0.2862176597118377,-0.706528902053833,-0.1435325741767883,-1.0132867097854614,0.0,0.0,0.3172718286514282,-0.9925678968429564
-0.1435854882001876,0.276141881942749,-0.2901894748210907,-0.70721036195755,-0.1928506791591644,-0.9863635897636414,0.0,0.0,0.4651926755905151,-0.9940978288650512
-0.1469014137983322,0.2604774236679077,-0.2841635942459106,-0.7030788660049438,-0.2407547235488891,-0.958082377910614,0.0,0.0,0.7165679931640625,-0.9931546449661256
-0.149988368153572,0.2452520430088043,-0.2633589506149292,-0.6847776770591736,-0.2870942056179046,-0.9267905950546264,0.0,0.0,0.7940883636474609,-0.9949645400047302
-0.1528715193271637,0.2302034199237823,-0.2450896948575973,-0.6779680848121643,-0.3318514227867126,-0.8951454162597656,0.0,0.0,0.8927801847457886,-0.9963926076889038
-0.1555562913417816,0.2160290628671646,-0.2272050827741623,-0.6400565505027771,-0.3752429187297821,-0.8678311109542847,0.0,0.0,0.8530910015106201,-0.9964796900749208
-0.1579665243625641,0.2026744484901428,-0.2017901390790939,-0.6044200658798218,-0.4171919226646423,-0.8389805555343628,0.0,0.0,0.8999946117401123,-0.9981722831726074
-0.1599930822849273,0.189927726984024,-0.1656115800142288,-0.578001081943512,-0.4575096666812897,-0.8063559532165527,0.0,0.0,0.9027222394943236,-0.9873835444450378
-0.1618122160434723,0.1772437393665313,-0.1470000445842743,-0.5757010579109192,-0.4962692558765411,-0.7751925587654114,0.0,0.0,0.8725185394287109,-0.9876003861427308
-0.1634856164455413,0.1650200933218002,-0.1342717856168747,-0.5556923747062683,-0.5337318778038025,-0.7492525577545166,0.0,0.0,0.9239236116409302,-0.9975957274436952
-0.1646181046962738,0.1536776423454284,-0.0822791680693626,-0.5167652368545532,-0.5695891976356506,-0.717147707939148,0.0,0.0,0.8638381958007812,-0.9741195440292358
-0.1654946357011795,0.142827421426773,-0.0585089810192585,-0.4951032102108001,-0.6040958166122437,-0.6901322603225708,0.0,0.0,0.827390193939209,-0.9900597929954528
-0.1660589277744293,0.1328625530004501,-0.0290029980242252,-0.4559099972248077,-0.6373419761657715,-0.6649240255355835,0.0,0.0,0.2896900177001953,-0.9996946454048156
-0.1662971526384353,0.1231514513492584,0.0017661161255091,-0.4446138143539428,-0.6691055297851562,-0.6352714896202087,0.0,0.0,0.1671525239944458,-0.9947981238365172
-0.1663002073764801,0.1137762367725372,0.0234730280935764,-0.4295683205127716,-0.6993604898452759,-0.6050989627838135,0.0,0.0,-0.442443311214447,-0.9971288442611694
-0.1663683950901031,0.1040834486484527,0.0149893760681152,-0.4433433413505554,-0.7278048992156982,-0.568888783454895,0.0,0.0,-0.1506738662719726,-0.9844161868095398
-0.1664984673261642,0.0940587148070335,0.0071141337975859,-0.457783579826355,-0.7546852231025696,-0.5376064777374268,0.0,0.0,-0.1338706612586975,-0.9938283562660216
-0.1666956841945648,0.0837191939353942,-0.0015148071106523,-0.4712073504924774,-0.7796207666397095,-0.4987110197544098,0.0,0.0,-0.2121192216873169,-0.9690234065055848
-0.1669612824916839,0.0730661004781723,-0.010215382091701,-0.4844684302806854,-0.8025478720664978,-0.45854252576828,0.0,0.0,-0.0486918091773986,-0.97256737947464
-0.168008416891098,0.0682400539517402,-0.09089195728302,-0.2240208238363266,-0.8228718638420105,-0.4073560833930969,1.0,0.0,-0.101946473121643,-0.1277138590812683
-0.1688344925642013,0.063018761575222,-0.0750684812664985,-0.2375227808952331,-0.8338720202445984,-0.2200179100036621,1.0,0.0,0.4067705869674682,0.18203866481781
-0.169364646077156,0.0605333186686039,-0.0489871464669704,-0.1157032772898674,-0.8330110311508179,0.0288952086120843,1.0,0.0,0.625878095626831,0.5434222221374512
-0.1692521125078201,0.0595157966017723,0.0005911629414185,-0.0375632718205452,-0.8173227310180664,0.3140399754047394,1.0,0.0,0.3598555326461792,0.728811502456665
-0.1684997528791427,0.0594499930739402,0.0587992668151855,0.0082765659317374,-0.7930705547332764,0.4863647818565368,1.0,0.0,0.8754616975784302,0.6038997173309326
-0.1671705245971679,0.0597282983362674,0.1141499429941177,0.0247864685952663,-0.7669702172279358,0.5220066905021667,1.0,0.0,0.9644491672515868,0.4022225141525268
-0.1652013808488845,0.060638103634119,0.1787707209587097,0.051832441240549,-0.7423455715179443,0.4925119280815124,1.0,0.0,0.964919090270996,-0.1463767290115356
-0.1625431030988693,0.06209422275424,0.2470528781414032,0.0759327486157417,-0.7174500823020935,0.4979289472103119,0.0,0.0,0.9011842012405396,0.5911009311676025
-0.1594315469264984,0.0635928958654403,0.293364942073822,0.0767345428466796,-0.6943376660346985,0.4622646868228912,0.0,0.0,0.7771961688995361,0.3005592823028564
-0.1559967100620269,0.065574511885643,0.3264214992523193,0.0973521098494529,-0.6725882291793823,0.4350039064884186,0.0,0.0,0.8167692422866821,0.2350629568099975
-0.1523207724094391,0.0679415762424469,0.3513582944869995,0.1136526688933372,-0.6522453427314758,0.4068724513053894,0.0,0.0,0.8529884815216064,0.3403089046478271
-0.1482810974121093,0.0706727132201194,0.3881731927394867,0.1292740702629089,-0.632757842540741,0.3897643089294433,0.0,0.0,0.8316706418991089,0.1005202531814575
-0.143869012594223,0.0736815780401229,0.4256973266601562,0.1411769390106201,-0.6138757467269897,0.37765634059906,0.0,0.0,0.7838476896286011,0.0428146123886108
-0.1391177177429199,0.0766322240233421,0.4594601094722748,0.1383616477251052,-0.5950646996498108,0.3762345612049103,0.0,0.0,0.745492696762085,-0.0590078830718994
-0.1338754594326019,0.0799810513854026,0.5085681676864624,0.1557662785053253,-0.5765132904052734,0.371042788028717,0.0,0.0,0.5491765737533569,-0.8040136098861694
-0.1282473504543304,0.0839045867323875,0.5460985898971558,0.1814800202846527,-0.5569354295730591,0.3915721774101257,0.0,0.0,0.2481946945190429,-0.82576984167099
-0.1225036606192588,0.0877156108617782,0.5565326809883118,0.1766229420900344,-0.5363054871559143,0.4126143455505371,0.0,0.0,0.2976160049438476,-0.742225706577301
