x_pos,y_pos,x_vel,y_vel,angle,ang_vel,leg_1,leg_2,main_booster,lat_booster
-0.0015773773193359,1.4035025835037231,-0.1592457592487335,-0.3296647369861603,0.0013447949895635,0.0264963712543249,0.0,0.0,-0.6387410718167521,-0.9856213794647884
-0.0032744407653808,1.3959815502166748,-0.1723651587963104,-0.3342725336551666,0.0039814403280615,0.0527385286986827,0.0,0.0,-0.5267971767233737,0.8892836633833283
-0.0049290657043457,1.3883322477340698,-0.1654964387416839,-0.3399690091609955,0.0040229861624538,0.0008307830430567,0.0,0.0,0.5307237072968534,-0.6473672570504533
-0.0067936899140477,1.3812522888183594,-0.1870820820331573,-0.3146677315235138,0.0046317372471094,0.012176034040749,0.0,0.0,-0.5668031675353973,0.9616495403087236
-0.0085974689573049,1.374053955078125,-0.1782241016626358,-0.3199180364608764,0.0025012008845806,-0.0426146313548088,0.0,0.0,0.104731382875383,-0.9079932320857944
-0.010390281677246,1.3672773838043213,-0.1785446107387542,-0.3011744916439056,0.0017789660487324,-0.0144464019685983,0.0,0.0,0.363398135556646,0.967081964510332
-0.012147712521255,1.3610942363739014,-0.1726396828889846,-0.2748138010501861,-0.0012874450767412,-0.061333954334259,0.0,0.0,-0.9510411036859274,0.8816751422124254
-0.0138304708525538,1.3547916412353516,-0.1625751405954361,-0.2801273763179779,-0.0069311880506575,-0.1128851547837257,0.0,0.0,0.9405356931493732,-0.7745021422797821
-0.0155884744599461,1.349851369857788,-0.1712103486061096,-0.2195993512868881,-0.0114672183990478,-0.0907289385795593,0.0,0.0,-0.5423262632956845,0.6988349480911219
-0.0172907821834087,1.3447926044464111,-0.1638604700565338,-0.2248861640691757,-0.0177663434296846,-0.125993937253952,0.0,0.0,0.1685160228884332,0.963925374148003
-0.0188308712095022,1.340240716934204,-0.1453456580638885,-0.2024393230676651,-0.0263265911489725,-0.171220988035202,0.0,0.0,0.3540068918737167,-0.9209919838649524
-0.0203523635864257,1.3362151384353638,-0.1450393497943878,-0.1790529191493988,-0.0333565026521682,-0.1406110078096389,0.0,0.0,0.0735945706352529,0.8818642222078528
-0.0216701515018939,1.3327460289001465,-0.1225715652108192,-0.1544036418199539,-0.0424575246870517,-0.1820375621318817,0.0,0.0,-0.4969357807414822,0.9505685372782372
-0.0228792186826467,1.3291428089141846,-0.1092520132660865,-0.1605184674263,-0.0539916679263114,-0.2307039052248001,0.0,0.0,-0.0420042474834303,0.8601679223024634
-0.0239728931337595,1.325422286987305,-0.0952841639518737,-0.1659246534109115,-0.0679477229714393,-0.2791464626789093,0.0,0.0,0.349689553530071,0.666982532850668
-0.0248620994389057,1.3219233751296997,-0.0733718127012252,-0.1562908589839935,-0.0833529978990554,-0.3081339597702026,0.0,0.0,-0.4354253021880139,-0.7932725922325927
-0.0257562641054391,1.318320870399475,-0.0748267918825149,-0.1609841883182525,-0.0978278890252113,-0.2895242869853973,0.0,0.0,0.9022291293024624,0.8807162684423431
-0.0263121612370014,1.3151999711990356,-0.0393389351665973,-0.1398455947637558,-0.1139783710241317,-0.3230391144752502,0.0,0.0,-0.8110071454715579,0.8161561653817352
-0.0267399791628122,1.3119564056396484,-0.0244256760925054,-0.1456624567508697,-0.132272332906723,-0.3659120202064514,0.0,0.0,-0.7665238816980755,0.8932561572039361
-0.027049446478486,1.3085838556289673,-0.0108359437435865,-0.1518004685640335,-0.1523526757955551,-0.4016432166099548,0.0,0.0,0.2308303309403852,0.6118742370143216
-0.0270588882267475,1.3058953285217283,0.0203600246459245,-0.1218075901269912,-0.173695832490921,-0.4269018769264221,0.0,0.0,0.958545979640384,-0.837059244086427
-0.026961326599121,1.3038744926452637,0.0294981598854064,-0.0922533720731735,-0.1935444772243499,-0.397008329629898,0.0,0.0,0.2004322736100485,-0.929901067859482
-0.026680851355195,1.30230712890625,0.0460344403982162,-0.0721107795834541,-0.2116871178150177,-0.3628852963447571,0.0,0.0,-0.9090148249936232,-0.828394246608157
-0.0263833999633789,1.3006316423416138,0.0463852956891059,-0.0769453793764114,-0.2285433113574981,-0.3371540904045105,0.0,0.0,-0.9761650413086064,-0.9499840043522092
-0.0260976795107126,1.2988717555999756,0.0429957062005996,-0.0805159732699394,-0.24319389462471,-0.2930379509925842,0.0,0.0,-0.2242947053900512,-0.6449498516144156
-0.0257948879152536,1.296998381614685,0.0432222038507461,-0.0854580551385879,-0.2563718557357788,-0.2635592818260193,0.0,0.0,-0.608062203373074,0.7814929439602416
-0.0253470428287982,1.2949872016906738,0.0593589767813682,-0.0919981896877288,-0.2712669670581817,-0.2979021966457367,0.0,0.0,0.9412997389617908,-0.8554858846103204
-0.0247774124145507,1.2943620681762695,0.0702114105224609,-0.0303039830178022,-0.284867912530899,-0.2720187902450561,0.0,0.0,0.098637124933518,-0.9440952455364124
-0.024141788482666,1.2944411039352417,0.0749748349189758,0.0012419723207131,-0.2966269254684448,-0.2351802289485931,0.0,0.0,-0.4033322857884154,-0.7863912344027002
-0.0234757419675588,1.2944254875183103,0.076455682516098,-0.0027339400257915,-0.3068130612373352,-0.2037229537963867,0.0,0.0,0.0668991509825163,0.6926786789356685
-0.0224831588566303,1.2950482368469238,0.110481396317482,0.0252605862915515,-0.3184516727924347,-0.2327723950147628,0.0,0.0,-0.8629242482363699,-0.7965122454195894
-0.0214618686586618,1.295579433441162,0.1115934625267982,0.021505182608962,-0.3283055126667022,-0.1970769166946411,0.0,0.0,-0.1055371226080987,0.9878559012374104
-0.0202760696411132,1.2959669828414917,0.1296955198049545,0.0146541828289628,-0.3399193882942199,-0.2322777062654495,0.0,0.0,-0.9396528111405408,0.8575954151870807
-0.018934154883027,1.2961971759796145,0.1467659622430801,0.0072103766724467,-0.3531240224838257,-0.2640926837921142,0.0,0.0,0.8071259794448256,-0.8056970599385642
-0.0172930713742971,1.297297477722168,0.1750321686267852,0.0461744740605354,-0.3646322786808014,-0.2301648557186126,0.0,0.0,0.904094080986606,-0.7828187168432867
-0.0152714727446436,1.2995251417160034,0.2114437073469162,0.0966061055660247,-0.3744565546512604,-0.1964856535196304,0.0,0.0,0.3793472441955805,-0.979288379979649
-0.0131014827638864,1.3022136688232422,0.2243364155292511,0.1175509765744209,-0.3822495639324188,-0.1558599472045898,0.0,0.0,0.7883030983022861,-0.9295904096773
-0.01054048538208,1.3059494495391846,0.2614960074424743,0.1645704805850982,-0.3879982531070709,-0.1149731129407882,0.0,0.0,-0.2259954663809018,-0.6543050630414964
-0.0079199792817235,1.3096009492874146,0.2660151124000549,0.1612042039632797,-0.392235517501831,-0.0847452580928802,0.0,0.0,0.7878748097775696,-0.6737148317733181
-0.0049568177200853,1.3140543699264526,0.2988371253013611,0.1972349137067794,-0.3949267268180847,-0.0538244433701038,0.0,0.0,0.8767655088360586,0.9191571228886734
-0.0015979766612872,1.3196531534194946,0.3402886092662811,0.2476066052913665,-0.399641215801239,-0.0942898243665695,0.0,0.0,-0.9801006317138672,-0.7815765142440796
0.0018268584972247,1.3251569271087646,0.345596969127655,0.2437254637479782,-0.4029696583747864,-0.0665695667266845,0.0,0.0,-0.9979860186576844,-0.9302826523780824
0.0053050993010401,1.3305647373199463,0.3493220508098602,0.239922359585762,-0.4045816361904144,-0.0322401896119117,0.0,0.0,-0.9980892539024352,-0.9754019975662231
0.0088372230529785,1.3358861207962036,0.3530286252498626,0.2365569919347763,-0.4043830931186676,0.0039707608520984,0.0,0.0,-0.9895769953727722,-0.9330077171325684
0.0124085424467921,1.341120958328247,0.3549093604087829,0.2332932949066162,-0.4019994139671325,0.0476738661527633,0.0,0.0,-0.9996135830879213,-0.7516708374023438
0.0160424225032329,1.3462584018707275,0.3596924841403961,0.2293716222047805,-0.3980406522750854,0.079175055027008,0.0,0.0,-0.9994954466819764,-0.9743813276290894
0.0197269432246685,1.3513085842132568,0.3629221320152282,0.2259935438632965,-0.3921199738979339,0.1184137463569641,0.0,0.0,-0.9939252734184264,-0.7621438503265381
0.0234642978757619,1.3562850952148438,0.3662640750408172,0.2232102751731872,-0.3841533362865448,0.1593329608440399,0.0,0.0,-0.993147313594818,-0.903818905353546
0.0272403713315725,1.3611958026885986,0.3677865862846374,0.2208662778139114,-0.373725563287735,0.2085547745227813,0.0,0.0,-0.9966804385185242,-0.8519296050071716
0.0310687068849802,1.3660211563110352,0.3710957467556,0.2174823731184005,-0.36130091547966,0.2484929114580154,0.0,0.0,-0.9999390840530396,-0.6653275489807129
0.034977912902832,1.3707468509674072,0.3779445588588714,0.2132431119680404,-0.3476432263851166,0.2731536030769348,0.0,0.0,-0.9992823004722596,-0.8211910724639893
0.0389404296875,1.375393986701965,0.3812609314918518,0.210081398487091,-0.3319360613822937,0.3141435980796814,0.0,0.0,-0.9992022514343262,-0.8890736103057861
0.0429669395089149,1.3799452781677246,0.3859453797340393,0.2060177326202392,-0.3145411014556885,0.347898930311203,0.0,0.0,-0.999779999256134,-0.779213011264801
0.0470565780997276,1.384413242340088,0.3904226422309875,0.2024791538715362,-0.2953465580940246,0.383890688419342,0.0,0.0,-0.999658226966858,-0.3701395988464355
0.0512660965323448,1.3887633085250854,0.402098000049591,0.1970426440238952,-0.2759348452091217,0.3882344961166382,0.0,0.0,-0.9961599707603456,-0.1489400863647461
0.0555959716439247,1.3929957151412964,0.41379514336586,0.1916050463914871,-0.2563007473945617,0.3926821053028106,0.0,0.0,-0.9975365400314332,0.0323798656463623
0.0600460991263389,1.3971104621887207,0.4255111217498779,0.1861663311719894,-0.2364394962787628,0.3972252011299133,0.0,0.0,-0.9987152218818665,0.2046884298324585
0.0646167770028114,1.4011080265045166,0.4372431635856628,0.1807264387607574,-0.2163467109203338,0.4018557071685791,0.0,0.0,-0.9885569214820862,-0.0474157929420471
0.0693080872297287,1.4049882888793943,0.448988527059555,0.1752853244543075,-0.1960184127092361,0.4065658450126648,0.0,0.0,-0.9944965839385986,0.3247079849243164
0.0741204246878624,1.4087517261505127,0.460744708776474,0.1698429435491562,-0.1754510253667831,0.4113481640815735,0.0,0.0,-0.9930506348609924,0.4290933609008789
0.0790534019470214,1.4123982191085815,0.4725092947483063,0.1643992960453033,-0.1546412706375122,0.4161951541900635,0.0,0.0,-0.9934167861938475,-0.0652015805244445
0.0841073021292686,1.4159282445907593,0.4842797219753265,0.158954307436943,-0.1335862874984741,0.4210997223854065,0.0,0.0,-0.9847142100334167,-0.323167622089386
0.0892819389700889,1.4193421602249146,0.4960536956787109,0.1535079181194305,-0.1122835576534271,0.4260548949241638,0.0,0.0,-0.9837986826896667,0.1590514183044433
0.0945775061845779,1.4226399660110474,0.5078288912773132,0.1480601131916046,-0.0907308757305145,0.4310539662837982,0.0,0.0,-0.9659685492515564,0.2429072856903076
0.0999937057495117,1.4258217811584473,0.51960289478302,0.1426109373569488,-0.0689263641834259,0.4360903799533844,0.0,0.0,-0.9609817266464232,0.400924801826477
0.1055305451154708,1.4288880825042725,0.5313735604286194,0.1371603012084961,-0.0468684807419776,0.441157728433609,0.0,0.0,-0.9478517770767212,0.4804656505584717
0.1111878380179405,1.4318392276763916,0.5431385040283203,0.1317082047462463,-0.0245559867471456,0.4462499618530273,0.0,0.0,-0.9411497116088868,0.1899225711822509
0.1169653907418251,1.4346750974655151,0.5548955202102661,0.1262546479701995,-0.0019879401661455,0.4513610303401947,0.0,0.0,-0.8054295182228088,0.5725958347320557
0.1229104027152061,1.4374021291732788,0.5725842714309692,0.1210863068699836,0.0196465402841568,0.4326898157596588,0.0,0.0,-0.7700513005256653,0.1383156776428222
0.1289751976728439,1.440013766288757,0.5843180418014526,0.1156342774629592,0.0415377095341682,0.4378235340118408,0.0,0.0,-0.6953698992729187,0.5801370143890381
0.1351985037326812,1.4425147771835327,0.6009081602096558,0.1104235872626304,0.0627070814371109,0.4233873784542084,0.0,0.0,-0.5907750129699707,0.8190689086914062
0.1416089981794357,1.4449076652526855,0.621134340763092,0.1053978204727172,0.0824189484119415,0.3942376673221588,0.0,0.0,-0.4277218580245971,0.6412570476531982
0.1481779068708419,1.447196125984192,0.6377629637718201,0.1005438044667244,0.1013807877898216,0.3792369961738586,0.0,0.0,-0.2128170728683471,0.1102106571197509
0.1548656523227691,1.449367880821228,0.6494176983833313,0.0950992256402969,0.1205983534455299,0.3843510150909424,0.0,0.0,-0.0930089950561523,0.3844292163848877
0.161671832203865,1.4514232873916626,0.6610458493232727,0.0896534919738769,0.1400705575942993,0.3894449472427368,0.0,0.0,-0.3433427810668945,0.7152496576309204
0.1686589270830154,1.4533675909042358,0.6805424690246582,0.0846094340085983,0.1582088768482208,0.3627667129039764,0.0,0.0,0.1721913814544677,0.2949682474136352
0.1757037192583084,1.4555466175079346,0.6862038373947144,0.0947965830564498,0.1764955520629882,0.3657334446907043,0.0,0.0,0.1058559417724609,-0.8021154403686523
0.182702824473381,1.4583818912506104,0.6798512935638428,0.1235074922442436,0.196632370352745,0.4027368128299713,0.0,0.0,0.2463763952255249,0.7111313343048096
0.1898188591003418,1.4620498418807983,0.6927216649055481,0.1603968441486358,0.2156733125448227,0.3808192610740661,0.0,0.0,0.5957231521606445,0.3022167682647705
0.1967763900756836,1.4667233228683472,0.6771858334541321,0.2048858851194381,0.2344589829444885,0.3757136464118957,0.0,0.0,0.703577995300293,0.9551578760147096
0.2036993950605392,1.4717426300048828,0.675681471824646,0.2203444838523864,0.2513664960861206,0.3381510972976684,0.0,0.0,0.8030500411987305,0.8913735151290894
0.2106371819972992,1.4779499769210815,0.6786586046218872,0.2732157707214355,0.2667892277240753,0.308454692363739,0.0,0.0,0.9002026319503784,0.860950231552124
0.2174570113420486,1.4849727153778076,0.6686493754386902,0.3096412122249603,0.2804607152938843,0.2734299004077911,0.0,0.0,0.9271692037582396,0.8330085277557373
0.2241673469543457,1.4930182695388794,0.6593039035797119,0.3552727401256561,0.2925314307212829,0.2414150536060333,0.0,0.0,0.9481277465820312,0.9897432327270508
0.2308120727539062,1.5021603107452393,0.6545369029045105,0.4042878746986389,0.3027914464473724,0.2052001953125,0.0,0.0,0.958592414855957,0.9962270259857178
0.2375484406948089,1.5122568607330322,0.6652823090553284,0.4469704926013946,0.311435341835022,0.1728777587413787,0.0,0.0,0.964409351348877,0.8610656261444092
0.2443677932024002,1.5228517055511477,0.675022304058075,0.4693810641765594,0.3186178207397461,0.1436499059200287,0.0,0.0,0.9709426164627076,0.9928269386291504
0.251340389251709,1.5340981483459473,0.6918924450874329,0.4986434578895569,0.324201226234436,0.1116677969694137,0.0,0.0,0.9740617275238036,0.9989403486251832
0.2584655880928039,1.546324372291565,0.7086044549942017,0.5425116419792175,0.3282739818096161,0.0814554542303085,0.0,0.0,0.9833064079284668,0.9940202236175536
0.265798956155777,1.5592225790023804,0.730873703956604,0.5726921558380127,0.3308373093605041,0.0512668304145336,0.0,0.0,0.9768532514572144,0.9849205017089844
0.2730132937431335,1.5733160972595217,0.7207375764846802,0.6262139081954956,0.3315713107585907,0.0146802319213747,0.0,0.0,0.9674556255340576,0.9897236824035645
0.280151754617691,1.588634967803955,0.7148228883743286,0.681060254573822,0.3305391073226928,-0.0206443686038255,0.0,0.0,0.9238953590393066,0.9206172227859496
0.2873632311820984,1.6050512790679932,0.7234975099563599,0.7301511168479919,0.3280963897705078,-0.0488545522093772,0.0,0.0,0.8864669799804688,0.9509066343307496
0.2947536408901214,1.621964693069458,0.7428563833236694,0.7525638341903687,0.3241167962551117,-0.0795916840434074,0.0,0.0,0.8152890205383301,0.9858884811401368
0.3020824491977691,1.6395565271377563,0.7385531067848206,0.7831165790557861,0.3182177245616913,-0.1179815679788589,0.0,0.0,0.8406633138656616,0.7436355352401733
0.3093637526035309,1.6584813594818115,0.7348994612693787,0.8425708413124084,0.3111906349658966,-0.1405411958694458,0.0,0.0,0.6408348083496094,0.8032721281051636
0.3166086077690124,1.6781100034713743,0.7327212691307068,0.8741271495819092,0.3026527762413025,-0.1707579493522644,0.0,0.0,0.646241307258606,0.6250002384185791
0.3236338496208191,1.698720932006836,0.7121748924255371,0.9180211424827576,0.2926896214485168,-0.1992630958557129,0.0,0.0,0.224245548248291,0.5296139717102051
0.3307141363620758,1.720005989074707,0.7184662222862244,0.9480600953102112,0.2819469273090362,-0.2148538380861282,0.0,0.0,0.1592985391616821,0.7620372772216797
0.3377589285373688,1.7419424057006836,0.7163442373275757,0.9771978855133056,0.2697664499282837,-0.2436095923185348,0.0,0.0,-0.2589253187179565,0.7173712253570557
0.3449432253837585,1.7637840509414673,0.7314398884773254,0.9730833172798156,0.2564710974693298,-0.2659077048301697,0.0,0.0,-0.215433657169342,-0.5483202934265137
0.3521760106086731,1.7854876518249512,0.73505699634552,0.966615915298462,0.2444690763950348,-0.2400407791137695,0.0,0.0,-0.1259195208549499,0.3069157600402832
0.3594984114170074,1.807071685791016,0.7439297437667847,0.9611891508102416,0.2325973063707351,-0.2374355345964431,0.0,0.0,0.0896055698394775,0.2456978559494018
0.3667322099208832,1.829006314277649,0.7354279160499573,0.9767174124717712,0.2203901559114456,-0.2441432476043701,0.0,0.0,-0.2965184450149536,-0.0975271463394165
0.3740512728691101,1.850821018218994,0.7438727617263794,0.9712908267974854,0.2082998901605606,-0.2418054044246673,0.0,0.0,-0.1956174373626709,0.3388353586196899
0.3814532160758972,1.8725165128707888,0.7520879507064819,0.9658645391464232,0.1963198482990265,-0.2396007776260376,0.0,0.0,-0.0627115964889526,0.3252007961273193
0.3889356553554535,1.894092321395874,0.7600633502006531,0.9604386687278748,0.1844434440135955,-0.2375282347202301,0.0,0.0,-0.2745575904846191,-0.7665902376174927
0.3964335322380066,1.915536880493164,0.7599424123764038,0.9543256163597108,0.1742563396692276,-0.203742429614067,0.0,0.0,-0.4381866455078125,0.0479261875152587
0.4040067791938782,1.936861515045166,0.7674065232276917,0.9489033222198486,0.164159819483757,-0.2019303292036056,0.0,0.0,-0.2343135476112365,-0.6599993705749512
0.4116078317165375,1.958054542541504,0.768952488899231,0.9428603649139404,0.1553017646074295,-0.1771607547998428,0.0,0.0,-0.522083044052124,-0.9013645052909852
0.4192063212394714,1.979118824005127,0.7668237686157227,0.9369027614593506,0.1483420580625534,-0.1391942799091339,0.0,0.0,-0.5784057378768921,-0.5884236693382263
0.4268299043178558,2.0000576972961426,0.7681992053985596,0.9311953783035278,0.142509788274765,-0.1166454926133155,0.0,0.0,-0.4694005846977234,-0.4664132595062256
0.4345173835754394,2.0208756923675537,0.7745236158370972,0.9257793426513672,0.1367434412240982,-0.1153266653418541,0.0,0.0,-0.4072899222373962,-0.697598397731781
0.44219970703125,2.0415596961975098,0.7722729444503784,0.919658660888672,0.1327138394117355,-0.0805918872356414,0.0,0.0,-0.5833832025527954,0.6944853067398071
0.4499824643135071,2.062129020690918,0.7833696603775024,0.9146426916122437,0.1276478767395019,-0.1013192310929298,0.0,0.0,-0.1310970187187194,-0.8157692551612854
0.4577532708644867,2.082563877105713,0.7804297208786011,0.9084948301315308,0.1243185997009277,-0.0665854886174202,0.0,0.0,-0.7114748358726501,-0.8530311584472656
0.46551114320755,2.102863550186157,0.7774478197097778,0.9023415446281432,0.1226635500788688,-0.0331007353961467,0.0,0.0,-0.6546626687049866,-0.4788656234741211
0.4733163714408874,2.1230413913726807,0.782160222530365,0.8969285488128662,0.1210472509264946,-0.0323264971375465,0.0,0.0,-0.8211876749992371,0.1023820638656616
0.4811657965183258,2.143097400665283,0.7865312695503235,0.8915156126022339,0.1194648072123527,-0.0316489189863204,0.0,0.0,-0.838015079498291,-0.2471821308135986
0.4890558123588562,2.163032293319702,0.7905564308166504,0.8861027359962463,0.1179116070270538,-0.0310641024261713,0.0,0.0,-0.8069663643836975,0.5074074268341064
0.4970272183418274,2.182847023010254,0.7998092174530029,0.880877673625946,0.1152658015489578,-0.0529158115386962,0.0,0.0,-0.8572877049446106,-0.8192663788795471
0.5049781799316406,2.2025325298309326,0.7963576316833496,0.8750027418136597,0.1140085607767105,-0.0251452215015888,0.0,0.0,-0.860192596912384,-0.9733090996742249
