x_pos,y_pos,x_vel,y_vel,angle,ang_vel,leg_1,leg_2,main_booster,lat_booster
-0.0015540122985839,1.403226017951965,-0.1577856689691543,-0.3419536054134369,0.0021343594416975,0.042129848152399,0.0,0.0,-0.6526578068733215,0.7099778652191162
-0.0030769347213208,1.3951536417007446,-0.1532003581523895,-0.3587722182273865,0.0030276831239461,0.0178689882159233,0.0,0.0,-0.1202444434165954,0.8354880809783936
-0.0045477868989109,1.3866769075393677,-0.1462783962488174,-0.3767485320568084,0.0022353229578584,-0.0158487632870674,0.0,0.0,-0.1517476439476013,0.4744801521301269
-0.0060451505705714,1.3778016567230225,-0.1492726802825927,-0.3944549262523651,0.0017710486426949,-0.009286175481975,0.0,0.0,0.0475356578826904,0.6957305669784546
-0.0074203489348292,1.369150996208191,-0.1360785067081451,-0.3844777941703796,0.0003498914011288,-0.0284258462488651,0.0,0.0,-0.4032550454139709,0.660138726234436
-0.0087553979828953,1.3601008653640747,-0.1307662576436996,-0.4022264778614044,-0.0023565380834043,-0.0541337132453918,0.0,0.0,-0.0023953318595886,0.6875855922698975
-0.0100603103637695,1.3506524562835691,-0.1267434656620025,-0.4199377596378326,-0.0060601579025387,-0.0740794166922569,0.0,0.0,0.1887565851211547,0.5645718574523926
-0.0112195014953613,1.3415043354034424,-0.1116008311510086,-0.4066044390201568,-0.010338825173676,-0.085580974817276,0.0,0.0,-0.0438952445983886,-0.1726653575897216
-0.0123971942812204,1.3319580554962158,-0.1137425526976585,-0.4243144094944,-0.0143162840977311,-0.0795563906431198,0.0,0.0,-0.2382553815841674,0.5275037288665771
-0.0135498046875,1.3220160007476809,-0.1104791760444641,-0.4419191479682922,-0.019042344763875,-0.0945298969745636,0.0,0.0,0.439110517501831,0.2249754667282104
-0.0146318431943655,1.3124504089355469,-0.1040797382593154,-0.4251991510391235,-0.0231232475489377,-0.0816255733370781,0.0,0.0,-0.2028036117553711,0.352389931678772
-0.0157262794673442,1.3024863004684448,-0.1056035310029983,-0.4429093599319458,-0.0269228052347898,-0.0759980827569961,0.0,0.0,-0.8754795789718628,0.8094099760055542
-0.0167532917112112,1.292125225067139,-0.0971651822328567,-0.4606009423732757,-0.0323987305164337,-0.1095283776521682,0.0,0.0,-0.5275236964225769,0.6801533699035645
-0.0177287105470895,1.2813570499420166,-0.0907482355833053,-0.4787496626377105,-0.0391103625297546,-0.1342452019453048,0.0,0.0,-0.5568304657936096,-0.4929448366165161
-0.0187095645815134,1.270190954208374,-0.0915741175413131,-0.496456116437912,-0.0455613881349563,-0.1290322095155716,0.0,0.0,-0.7573783993721008,-0.904593288898468
-0.0197524074465036,1.258620023727417,-0.0995109304785728,-0.5144116878509521,-0.0502927675843238,-0.0946359112858772,0.0,0.0,-0.2208608388900756,-0.6514045000076294
-0.0208355896174907,1.2466615438461304,-0.1048001423478126,-0.5316128134727478,-0.0537812933325767,-0.0697766169905662,0.0,0.0,-0.5850304961204529,0.0463283061981201
-0.0219173431396484,1.234304666519165,-0.1048992872238159,-0.5493165254592896,-0.057034108787775,-0.0650618001818656,0.0,0.0,0.7147274017333984,-0.4587963819503784
-0.0228472705930471,1.2227884531021118,-0.090408369898796,-0.5119320154190063,-0.0595875792205333,-0.0510741397738456,0.0,0.0,-0.360360324382782,-0.435137391090393
-0.0237709991633892,1.2108736038208008,-0.0900105088949203,-0.5296450853347778,-0.061922863125801,-0.0467097014188766,0.0,0.0,-0.76552414894104,-0.4623665809631347
-0.024686049669981,1.1985604763031006,-0.0893627181649208,-0.5473449230194092,-0.0640482231974601,-0.0425109528005123,0.0,0.0,-0.3592347502708435,-0.5006932020187378
-0.0256290435791015,1.185849666595459,-0.0933407619595527,-0.5649659037590027,-0.0649970173835754,-0.0189774874597787,0.0,0.0,-0.5925931930541992,-0.8525016903877258
-0.0266116149723529,1.1727442741394043,-0.0988345071673393,-0.5824337601661682,-0.0644244477152824,0.0114522827789187,0.0,0.0,-0.5493682026863098,-0.1371342539787292
-0.0275786407291889,1.1592406034469604,-0.0974693447351455,-0.6001364588737488,-0.0636701881885528,0.0150867793709039,0.0,0.0,-0.6479867100715637,0.3385462760925293
-0.0285280235111713,1.1453382968902588,-0.0958733111619949,-0.6178389191627502,-0.0627428740262985,0.0185478739440441,0.0,0.0,-0.664174497127533,-0.2543176412582397
-0.0294584278017282,1.1310161352157593,-0.0941428691148758,-0.6364935636520386,-0.0616520456969738,0.0218165814876556,0.0,0.0,-0.6337503790855408,-0.0271236896514892
-0.0303668975830078,1.1162954568862915,-0.0921045094728469,-0.6541944742202759,-0.0604069046676158,0.0249027665704488,0.0,0.0,-0.7101054787635803,0.6414883136749268
-0.0312114711850881,1.1011797189712524,-0.0848535522818565,-0.6718005537986755,-0.0600150078535079,0.0078378459438681,0.0,0.0,-0.714059591293335,-0.1352475881576538
-0.032030202448368,1.0856654644012451,-0.082409992814064,-0.6895013451576233,-0.0594871528446674,0.0105571346357464,0.0,0.0,-0.2600127458572387,-0.6413002014160156
-0.0328739173710346,1.0697550773620603,-0.0863659456372261,-0.7070481777191162,-0.0575120523571968,0.0395021513104438,0.0,0.0,0.1674884557723999,0.3319623470306396
-0.0336407646536827,1.054341197013855,-0.0788570493459701,-0.6849785447120667,-0.0553580336272716,0.0430803038179874,0.0,0.0,-0.3494872450828552,-0.1292090415954589
-0.0343766212463378,1.0385290384292605,-0.0758790075778961,-0.7026799321174622,-0.0530951917171478,0.0452571585774421,0.0,0.0,-0.3723846673965454,-0.1753211021423339
-0.0350801460444927,1.0223186016082764,-0.0727429389953613,-0.7203813791275024,-0.0507323332130909,0.0472570732235908,0.0,0.0,-0.4993489980697632,0.1857005357742309
-0.0357499122619628,1.005709886550903,-0.0694588273763656,-0.7380829453468323,-0.048278234899044,0.0490821748971939,0.0,0.0,-0.3636437654495239,-0.1519325375556945
-0.0363844856619834,0.9887030124664308,-0.0660364180803299,-0.7557846307754517,-0.0457414835691452,0.0507351756095886,0.0,0.0,0.6179585456848145,0.1605650186538696
-0.036931324750185,0.9724065065383912,-0.0574003644287586,-0.7242100238800049,-0.043048221617937,0.0538653321564197,0.0,0.0,-0.1565946340560913,0.2347656488418579
-0.0374406799674034,0.9557117223739624,-0.0537294931709766,-0.7419119477272034,-0.0402890555560588,0.055183220654726,0.0,0.0,-0.3860952854156494,-0.0106385350227355
-0.0379116050899028,0.9386186599731444,-0.0499476976692676,-0.7596138715744019,-0.0374721437692642,0.0563386678695678,0.0,0.0,-0.2278444766998291,0.5701744556427002
-0.0383008942008018,0.9211313724517822,-0.0407594069838523,-0.7771666049957275,-0.0356646850705146,0.0361492410302162,0.0,0.0,-0.3431102037429809,0.5396665334701538
-0.0386053100228309,0.9032442569732666,-0.0311718974262475,-0.7949711084365845,-0.0349389463663101,0.014514660462737,0.0,0.0,0.2576069831848144,-0.8016538619995117
-0.0390036590397357,0.8858621120452881,-0.0421250239014625,-0.7724853157997131,-0.0326765440404415,0.0452480763196945,0.0,0.0,0.35774827003479,0.737290620803833
-0.0391744598746299,0.8687167167663574,-0.0180953703820705,-0.7619979381561279,-0.0316850878298282,0.0198290981352329,0.0,0.0,-0.522131621837616,-0.3262525796890259
-0.0393030159175396,0.8511731028556824,-0.0138746332377195,-0.7796993851661682,-0.03067347407341,0.0202323347330093,0.0,0.0,-0.1686306595802307,0.4121023416519165
-0.0393884666264057,0.8332310318946838,-0.0095860604196786,-0.7974008321762085,-0.0296485517174005,0.0204985663294792,0.0,0.0,-0.0858110785484314,0.4003846645355224
-0.0394304282963275,0.8148907423019409,-0.0052352589555084,-0.8151024580001831,-0.0286169238388538,0.0206325240433216,0.0,0.0,0.2752532958984375,0.6099095344543457
-0.0393335334956646,0.7965291142463684,0.0097937937825918,-0.8160811066627502,-0.0287272464483976,-0.002206512261182,0.0,0.0,-0.2507472038269043,0.7095630168914795
-0.0391304977238178,0.7777625322341919,0.0220028180629014,-0.8341036438941956,-0.0303980335593223,-0.0334158018231391,0.0,0.0,0.1082195043563842,-0.7622005939483643
-0.0390120521187782,0.7594510912895203,0.0120699033141136,-0.8138459324836731,-0.0306294690817594,-0.0046284617856144,0.0,0.0,-0.1318501234054565,0.0470987558364868
-0.0388484001159668,0.7407413125038147,0.0166215524077415,-0.8315474987030029,-0.0308780819177627,-0.0049722222611308,0.0,0.0,0.023572564125061,0.3050857782363891
-0.0386423096060752,0.7221063375473022,0.0209380369633436,-0.8282251358032227,-0.0312098916620016,-0.0066359303891658,0.0,0.0,-0.2052575945854187,0.1103924512863159
-0.0383902564644813,0.7030732035636902,0.0255662649869918,-0.8459266424179077,-0.0315692201256752,-0.0071865236386656,0.0,0.0,-0.2258249521255493,0.3284140825271606
-0.0380919463932514,0.6836417317390442,0.0302279088646173,-0.8636282682418823,-0.0319608449935913,-0.0078322142362594,0.0,0.0,-0.0319863557815551,0.2641067504882812
-0.0377470031380653,0.663811981678009,0.0349200814962387,-0.8813298344612122,-0.0323892086744308,-0.0085674626752734,0.0,0.0,0.3216118812561035,0.3461148738861084
-0.0373321548104286,0.644540548324585,0.0419522300362587,-0.8565187454223633,-0.03284677490592,-0.0091511709615588,0.0,0.0,0.0437209606170654,0.2067416906356811
-0.0367660522460937,0.6253279447555542,0.0566776096820831,-0.8538933396339417,-0.0329138003289699,-0.0013402887852862,0.0,0.0,0.243219256401062,-0.3121694326400757
-0.0362129211425781,0.6062523722648621,0.0557647161185741,-0.8478191494941711,-0.0333619490265846,-0.008963031694293,0.0,0.0,0.280208945274353,-0.089806318283081
-0.0355190262198448,0.5877005457878113,0.0695566684007644,-0.8245266079902649,-0.0335249863564968,-0.003260587574914,0.0,0.0,0.0956923961639404,-0.7327629923820496
-0.034715749323368,0.5694217681884766,0.0789868980646133,-0.8123632669448853,-0.0321957170963287,0.0265853554010391,0.0,0.0,0.145964503288269,-0.289640724658966
-0.0337944999337196,0.551598310470581,0.0905913040041923,-0.7921184301376343,-0.0306844133883714,0.0302261747419834,0.0,0.0,-0.1300495266914367,-0.8626065254211426
-0.0329022407531738,0.5333878993988037,0.0858058258891105,-0.8092885613441467,-0.0272997189313173,0.0676934868097305,0.0,0.0,0.4743466377258301,-0.6288954019546509
-0.0319528579711914,0.51526939868927,0.0901976972818374,-0.80518639087677,-0.0226221736520528,0.093551255762577,0.0,0.0,0.5394449234008789,-0.3273043036460876
-0.0310340877622365,0.497736245393753,0.0876453965902328,-0.7791944146156311,-0.0184411536902189,0.0836204141378402,0.0,0.0,0.4731597900390625,-0.2424913644790649
-0.0299485214054584,0.4804936647415161,0.1038751825690269,-0.7662884593009949,-0.0138165904209017,0.0924910455942154,0.0,0.0,-0.0115435123443603,-0.6535251140594482
-0.0288642887026071,0.4628551006317138,0.1025351136922836,-0.7838913202285767,-0.0080105010420084,0.1161219030618667,0.0,0.0,0.6558282375335693,-0.5230852365493774
-0.0277616493403911,0.4454180002212524,0.1033804193139076,-0.7749620079994202,-0.0012099345913156,0.1360114961862564,0.0,0.0,0.8954341411590576,0.0221105813980102
-0.0267516132444143,0.4286004900932312,0.0948399901390075,-0.7474525570869446,0.0048644826747477,0.1214883923530578,0.0,0.0,0.7700989246368408,-0.1159498691558837
-0.0256746299564838,0.4127606451511383,0.1015093177556991,-0.7040233016014099,0.0109756253659725,0.1222230046987533,0.0,0.0,0.2121978998184204,-0.0914180278778076
-0.0244912151247262,0.3968459367752075,0.111941859126091,-0.7073819041252136,0.0172955244779586,0.1263981014490127,0.0,0.0,0.491637110710144,-0.2430652379989624
-0.0232480056583881,0.3816900253295898,0.1178706139326095,-0.6736841201782227,0.0236584413796663,0.1272584199905395,0.0,0.0,-0.3345367908477783,0.2247215509414672
-0.0219561569392681,0.3661363422870636,0.1228095889091491,-0.6913888454437256,0.0299518629908561,0.125868409872055,0.0,0.0,0.843247652053833,-0.1051905155181884
-0.0207406040281057,0.3513128757476806,0.1157330125570297,-0.6589478254318237,0.0357023663818836,0.1150097697973251,0.0,0.0,0.3961076736450195,-0.5688870549201965
-0.0195117946714162,0.3368801772594452,0.1159225329756736,-0.6416347026824951,0.0425786301493644,0.1375251114368438,0.0,0.0,0.5881710052490234,-0.3115922212600708
-0.0183924678713083,0.3232583999633789,0.1056286916136741,-0.6056013703346252,0.0488149896264076,0.1247271746397018,0.0,0.0,0.416896104812622,0.4494714736938476
-0.0171854011714458,0.3099855482578277,0.1141673475503921,-0.5901331305503845,0.0552771389484405,0.1292429864406585,0.0,0.0,0.475745677947998,0.2662026882171631
-0.0159788131713867,0.2968355715274811,0.1143290176987648,-0.5846899151802063,0.0615358687937259,0.1251745820045471,0.0,0.0,0.1856207847595214,0.230764627456665
-0.0146888736635446,0.2836415469646454,0.1224962845444679,-0.5866813063621521,0.0679580867290496,0.1284442543983459,0.0,0.0,0.0898631811141967,0.0179474353790283
-0.0133860586211085,0.2703826427459717,0.1239539757370948,-0.5895828604698181,0.0742236897349357,0.1253122985363006,0.0,0.0,0.6855912208557129,0.1535154581069946
-0.0121026039123535,0.2579356133937835,0.1221044436097145,-0.5535255670547485,0.0803918465971946,0.1233634501695633,0.0,0.0,0.4409288167953491,0.4638717174530029
-0.010757828131318,0.2461628466844558,0.1279858648777008,-0.5235942602157593,0.0868275687098503,0.1287144720554351,0.0,0.0,0.0496027469635009,0.0699796676635742
-0.0094799995422363,0.2347589582204818,0.1216752305626869,-0.5072051286697388,0.0928809195756912,0.1210671514272689,0.0,0.0,-0.3390097022056579,0.1608979701995849
-0.0081530567258596,0.2229572385549545,0.1266343295574188,-0.524909257888794,0.0988847091794014,0.1200761571526527,0.0,0.0,0.7508683204650879,0.4676734209060669
-0.0068171499297022,0.2120144665241241,0.1273792535066604,-0.4867684543132782,0.1050398200750351,0.1231022477149963,0.0,0.0,0.4556828737258911,0.7111709117889404
-0.0055276872590184,0.2014233916997909,0.1243993863463401,-0.4710406363010406,0.1095592826604843,0.0903890654444694,0.0,0.0,0.9401246309280396,-0.5859451293945312
-0.0043905256316065,0.1916047185659408,0.1082248240709304,-0.4367978870868683,0.1150157526135444,0.1091294661164283,0.0,0.0,0.7480947971343994,-0.2566922903060913
-0.0033017159439623,0.1824884265661239,0.1034876257181167,-0.4055938422679901,0.1203780397772789,0.1072459071874618,0.0,0.0,0.8707854747772217,-0.4105956554412842
-0.0021449089981615,0.1739730238914489,0.1098675951361656,-0.3789415657520294,0.1261654198169708,0.115747258067131,0.0,0.0,0.7657896280288696,-0.949280858039856
-0.0010306357871741,0.1655862927436828,0.1036967262625694,-0.3734188377857208,0.1338676363229751,0.1540440022945404,0.0,0.0,0.1964493989944458,-0.4519429802894592
0.0001605033903615,0.1572489887475967,0.1110890507698059,-0.3712897598743438,0.1418573707342147,0.1597948670387268,0.0,0.0,0.0458803176879882,-0.2667112350463867
0.0014416694175451,0.1490706801414489,0.1196992397308349,-0.3643015325069427,0.1502592116594314,0.1680365055799484,0.0,0.0,0.2567023038864136,-0.6717672348022461
0.0027919770218431,0.1409497410058975,0.1251099556684494,-0.3619637489318847,0.1601728349924087,0.1982723623514175,0.0,0.0,-0.2511609196662903,0.4761092662811279
0.0041913031600415,0.132431760430336,0.1300289630889892,-0.3796731829643249,0.1700770705938339,0.1980847418308258,0.0,0.0,-0.0894228219985961,-0.573921263217926
0.0055965422652661,0.1235103011131286,0.129562646150589,-0.3978019952774048,0.1810649633407592,0.2197578400373459,0.0,0.0,0.1173045635223388,0.2175076007843017
0.0070522306486964,0.1148805245757103,0.1342399418354034,-0.3849660754203796,0.1924429237842559,0.2275590449571609,0.0,0.0,-0.2638447284698486,0.2645429372787475
0.0085566518828272,0.1058542132377624,0.1391337066888809,-0.4026783108711242,0.2038264870643615,0.2276713103055954,0.0,0.0,0.6595879793167114,0.3894504308700561
0.0099544525146484,0.097166784107685,0.1287374198436737,-0.3876728415489197,0.2149766832590103,0.2230039536952972,0.0,0.0,0.7135987281799316,-0.0721839666366577
0.0112958904355764,0.0894222110509872,0.1226966232061386,-0.3459089398384094,0.2265490293502807,0.231446772813797,0.0,0.0,0.0804719924926757,0.3894152641296386
0.0125872613862156,0.0818201154470443,0.1177804619073867,-0.339659571647644,0.2380723506212234,0.2304660975933075,0.0,0.0,0.7452312707901001,0.5737009048461914
0.0136352535337209,0.0750175341963768,0.0949471890926361,-0.3039623498916626,0.2480916827917099,0.2003869712352752,0.0,0.0,0.3276098966598511,0.7154195308685303
0.0147238727658987,0.0686863735318183,0.1002969965338707,-0.2828537225723266,0.2568096220493316,0.1743588745594024,0.0,0.0,0.1484718322753906,0.4529250860214233
0.0156923290342092,0.0627004727721214,0.0884324163198471,-0.267533004283905,0.2653934359550476,0.1716763377189636,0.0,0.0,0.2780880928039551,0.8404395580291748
0.0165492054075002,0.0571588836610317,0.0789928212761879,-0.2475237399339676,0.2722512483596802,0.1371564716100692,0.0,0.0,0.3239064216613769,0.8099825382232666
0.0173872001469135,0.0518102012574672,0.0786846429109573,-0.2386801391839981,0.2774948179721832,0.1048713102936744,0.0,0.0,0.2973819971084595,0.0601722002029418
0.0180557258427143,0.0467074252665042,0.0621000900864601,-0.2276995182037353,0.2823692858219147,0.0974895879626274,0.0,0.0,0.5342311859130859,0.6698284149169922
0.0185405723750591,0.0418642126023769,0.0453053154051303,-0.2158743292093277,0.2856393754482269,0.06540147960186,0.0,0.0,0.7358572483062744,0.9408950805664062
0.0190496444702148,0.0377988442778587,0.0493526682257652,-0.1809868514537811,0.2872380912303924,0.0319743789732456,0.0,0.0,0.2053835391998291,0.3824979066848755
0.0195727348327636,0.0337417684495449,0.0504878088831901,-0.1806728094816208,0.2891150712966919,0.0375395342707634,0.0,0.0,0.8835247755050659,0.6507084369659424
0.020113468170166,0.0306400638073682,0.0530326440930366,-0.138061374425888,0.2901883423328399,0.0214653126895427,0.0,0.0,-0.0444833040237426,0.4437479972839355
0.0206562988460063,0.0280838105827569,0.0701880604028701,-0.1105666980147361,0.2737450301647186,-0.3289846181869507,0.0,1.0,0.960108518600464,0.1487209796905517
0.021005630493164,0.0272720679640769,0.0632952451705932,-0.0310641489923,0.2446854412555694,-0.5813164114952087,0.0,1.0,0.5752921104431152,-0.5755855441093445
0.0212784763425588,0.0268602948635816,0.0532489232718944,-0.014191536232829,0.2183383703231811,-0.5269415974617004,0.0,1.0,0.125888705253601,-0.4399505853652954
0.0214245803654193,0.0268725249916315,0.0407619588077068,0.0041958508081734,0.1919686049222946,-0.5273956060409546,0.0,0.0,-0.9987291097640992,0.0189512968063354
0.0216161720454692,0.0264957994222641,0.0453461185097694,-0.0135644515976309,0.1656865179538726,-0.5256419777870178,0.0,0.0,-0.9968693256378174,-0.3885583877563476
0.021852970123291,0.025729976594448,0.0498868376016616,-0.0313245579600334,0.1394972056150436,-0.5237864255905151,0.0,0.0,-0.9895179867744446,-0.0366622805595397
0.0221345908939838,0.0245749801397323,0.0543803758919239,-0.0490843839943409,0.113405741751194,-0.5218297243118286,0.0,0.0,-0.9789920449256896,-0.4074965715408325
0.0224609375,0.023030886426568,0.0588226430118083,-0.0668438449501991,0.0874171108007431,-0.5197728872299194,0.0,0.0,-0.9098467230796814,-0.9106715321540833
0.0227573402225971,0.0210864637047052,0.0538800358772277,-0.0851719230413436,0.0634161308407783,-0.4800194799900055,0.0,0.0,-0.6628100275993347,-0.703929603099823
0.0230445861816406,0.0187448598444461,0.0515345409512519,-0.1032631546258926,0.0408689454197883,-0.4509438872337341,0.0,0.0,-0.1909161806106567,-0.8829843997955322
0.0233209617435932,0.0159998517483472,0.0489541515707969,-0.1215534135699272,0.0198159515857696,-0.4210602343082428,0.0,0.0,0.4355618953704834,-0.7787418365478516
0.0236615184694528,0.0137574533000588,0.053552858531475,-0.0995162278413772,0.0005725419032387,-0.3848684132099151,0.0,0.0,0.4746071100234985,-0.7877592444419861
0.0240066535770893,0.0122087094932794,0.0522604510188102,-0.0689179822802543,-0.0169415120035409,-0.3502811193466186,0.0,0.0,-0.2179123163223266,-0.7262694239616394
0.0243420600891113,0.0102586364373564,0.0498319678008556,-0.0869318321347236,-0.0330335646867752,-0.3218412697315216,0.0,0.0,0.1979122161865234,-0.8641160130500793
