x_pos,y_pos,x_vel,y_vel,angle,ang_vel,leg_1,leg_2,main_booster,lat_booster
-0.0015249252319335,1.40313720703125,-0.1540139615535736,-0.3459042012691498,0.001365506555885,0.026905994862318,0.0,0.0,0.4571327269902687,0.7265941019555202
-0.0029440880753099,1.3954973220825195,-0.1414807289838791,-0.3395536839962005,0.0009347652667202,-0.0086149731650948,0.0,0.0,0.6440846182015247,-0.7814102526098725
-0.0042799948714673,1.387966871261597,-0.1345847398042678,-0.3346817791461944,0.001911056227982,0.0195278488099575,0.0,0.0,0.364285645345586,-0.651926181641314
-0.0057782172225415,1.3805654048919678,-0.151439294219017,-0.3289519548416137,0.0035092760808765,0.031967245042324,0.0,0.0,-0.7872733314492164,0.5316551222110979
-0.0072275162674486,1.3726787567138672,-0.144788771867752,-0.350519448518753,0.0033689604606479,-0.0028062344063073,0.0,0.0,0.8495309565366049,-0.7607338336741487
-0.0085733411833643,1.3652163743972778,-0.1358819603919983,-0.3316662907600403,0.0046528386883437,0.0256799068301916,0.0,0.0,-0.3607587184047585,-0.8662392203697302
-0.0099919317290186,1.3572659492492676,-0.1444698423147201,-0.3533547818660736,0.007227795664221,0.0515040643513202,0.0,0.0,0.7160748249485387,-0.7659140303563262
-0.0113079072907567,1.3498401641845703,-0.1355927735567093,-0.3300625681877136,0.0111852055415511,0.0791553109884262,0.0,0.0,-0.7607373065383589,0.5916090498888927
-0.0125805856660008,1.3419342041015625,-0.129594549536705,-0.3513968288898468,0.0134844426065683,0.0459892749786376,0.0,0.0,0.500000909096554,-0.8703061278807925
-0.0139339445158839,1.3345342874526978,-0.1388865411281585,-0.3289201855659485,0.016988655552268,0.0700907856225967,0.0,0.0,-0.3618590531580303,0.6575999158884245
-0.0152308465912938,1.3266490697860718,-0.1311840862035751,-0.3504770398139953,0.0184740461409091,0.0297102741897106,0.0,0.0,-0.7609809744362208,0.8696321543165062
-0.0164536479860544,1.3182768821716309,-0.1212964877486229,-0.372087687253952,0.017497444525361,-0.0195336788892745,0.0,0.0,0.6491342234264823,-0.6759121420337824
-0.0176031105220317,1.3104701042175293,-0.1150915175676345,-0.3469630777835846,0.0176411066204309,0.0028734104707837,0.0,0.0,0.434499528535897,-0.5139637474899987
-0.0187367442995309,1.302634358406067,-0.114142045378685,-0.3482685685157776,0.0184156708419322,0.0154926236718893,0.0,0.0,0.1224689677692238,-0.8252689984322383
-0.0198376663029193,1.2951610088348389,-0.1120346933603286,-0.332173079252243,0.0203339103609323,0.0383680984377861,0.0,0.0,-0.3719929457181889,0.7125189876701281
-0.020875072106719,1.287193775177002,-0.1034178510308265,-0.3540901839733124,0.0200129691511392,-0.0064192772842943,0.0,0.0,-0.5911484389735406,0.912616726319752
-0.021827220916748,1.2787528038024902,-0.0920552015304565,-0.3751194775104522,0.0168924797326326,-0.0624157860875129,0.0,0.0,-0.9266959712605328,-0.8986252608381572
-0.0228364951908588,1.2698155641555786,-0.0985630601644516,-0.3971891105175018,0.0145548433065414,-0.0467566587030887,0.0,0.0,0.2342832620094455,-0.8247709146164041
-0.0238398555666208,1.2612985372543335,-0.0991091355681419,-0.3785194158554077,0.0133426636457443,-0.0242456905543804,0.0,0.0,0.7421493341087386,0.6177073409337706
-0.0248970985412597,1.2531882524490356,-0.1024356037378311,-0.3604338467121124,0.0100779505446553,-0.0653004497289657,0.0,0.0,0.6916716234949989,0.6056819331016897
-0.0257769580930471,1.2457528114318848,-0.0832171514630317,-0.3304394781589508,0.0053691584616899,-0.094183973968029,0.0,0.0,0.3343198555726556,-0.9148341871619436
-0.0267234798520803,1.2383606433868408,-0.0911294966936111,-0.3285362124443054,0.0018853124929592,-0.0696832761168479,0.0,0.0,0.4840100470931623,0.677851851538791
-0.0274926181882619,1.2312145233154297,-0.0716713219881057,-0.3176036179065704,-0.0033002917189151,-0.1037211418151855,0.0,0.0,0.9108949540050546,-0.6272484428529332
-0.0282271392643451,1.224115967750549,-0.0690891295671463,-0.3155080676078796,-0.0076175699941813,-0.0863534733653068,0.0,0.0,0.6996402204592773,-0.6797737551325371
-0.0291728973388671,1.2175278663635254,-0.0905912145972251,-0.2928301990032196,-0.0115561364218592,-0.0787781327962875,0.0,0.0,0.8601064547608124,0.741032990280842
-0.0302330013364553,1.211626648902893,-0.0994981005787849,-0.2623452544212341,-0.0179876685142517,-0.1286303699016571,0.0,0.0,0.8849863920215677,0.7863405066419411
-0.0312150958925485,1.2064852714538574,-0.0894931256771087,-0.2286356985569,-0.026593379676342,-0.1721144616603851,0.0,0.0,0.6355145865573617,0.5243703308594552
-0.0322761535644531,1.202092528343201,-0.0953312143683433,-0.1954603195190429,-0.0372376292943954,-0.2128848284482956,0.0,0.0,0.9022095220946704,-0.7597711135536955
-0.0335311889648437,1.1985700130462646,-0.1152548044919967,-0.1568468958139419,-0.0473639480769634,-0.2025263309478759,0.0,0.0,0.2900732964943087,-0.8585078888687744
-0.0348590835928916,1.1951353549957275,-0.1236200556159019,-0.1529724150896072,-0.0564283095300197,-0.1812875568866729,0.0,0.0,0.4815885590102629,-0.933361973673589
-0.0362027175724506,1.1923670768737793,-0.126457467675209,-0.123354397714138,-0.0642448738217353,-0.1563312709331512,0.0,0.0,-0.9963440895080566,-0.0235060453414917
-0.0375507362186908,1.189112901687622,-0.1262569427490234,-0.1450148224830627,-0.0726954117417335,-0.1690106093883514,0.0,0.0,-0.9871360063552856,-0.4815459251403808
-0.0389031395316123,1.1853734254837036,-0.1260638236999511,-0.1666765511035919,-0.0817819014191627,-0.1817300617694854,0.0,0.0,-0.9889239072799684,-0.0274848937988281
-0.0402600280940532,1.1811485290527344,-0.1258783042430877,-0.1883396953344345,-0.091506190598011,-0.1944857537746429,0.0,0.0,-0.9893800020217896,-0.5616592764854431
-0.0416646003723144,1.1764456033706665,-0.1310972571372985,-0.2096219956874847,-0.1007804498076438,-0.185485228896141,0.0,0.0,-0.9929644465446472,-0.3410172462463379
-0.0430737510323524,1.1712576150894165,-0.1309272348880767,-0.2312864810228347,-0.1106956452131271,-0.1983039081096649,0.0,0.0,-0.9935007691383362,0.1364643573760986
-0.0444876663386821,1.1655848026275637,-0.1307653188705444,-0.2529524862766266,-0.1212530955672264,-0.2111491709947586,0.0,0.0,-0.99187171459198,-0.2359175682067871
-0.0459063537418842,1.159427285194397,-0.1306115984916687,-0.2746202051639557,-0.132453978061676,-0.2240179479122162,0.0,0.0,-0.990925431251526,0.0732979774475097
-0.0473299026489257,1.1527855396270752,-0.1304662525653839,-0.2962896525859833,-0.1442993432283401,-0.2369073331356048,0.0,0.0,-0.9799901247024536,-0.4254770278930664
-0.0487582199275493,1.1456596851348877,-0.1303293704986572,-0.3179610073566437,-0.1567900776863098,-0.2498145848512649,0.0,0.0,-0.9936056733131408,-0.4546788930892944
-0.0501915924251079,1.1380503177642822,-0.130201056599617,-0.3396342694759369,-0.1699269264936447,-0.2627369463443756,0.0,0.0,-0.988083004951477,-0.7034292817115784
-0.051673699170351,1.1299668550491333,-0.1355732828378677,-0.3607531785964966,-0.1825909912586212,-0.2532813251018524,0.0,0.0,-0.9234129190444946,-0.4871886968612671
-0.0531607642769813,1.1214001178741455,-0.1354617029428482,-0.3824281394481659,-0.195902332663536,-0.2662268280982971,0.0,0.0,-0.9734231233596802,-0.7778635621070862
-0.0547033324837684,1.112363576889038,-0.1417077034711837,-0.4033373892307281,-0.2085577398538589,-0.2531080543994903,0.0,0.0,-0.965229630470276,-0.5671718716621399
-0.0562989227473735,1.1028518676757812,-0.1475879997014999,-0.424476146697998,-0.220648393034935,-0.2418134957551956,0.0,0.0,-0.8211868405342102,-0.6414512395858765
-0.0579463951289653,1.0928657054901123,-0.1533379256725311,-0.445576936006546,-0.2321990728378296,-0.2310138642787933,0.0,0.0,-0.9396818280220032,-0.1102663278579711
-0.0595990195870399,1.0823960304260254,-0.153258204460144,-0.4672521650791168,-0.2443979084491729,-0.2439767569303512,0.0,0.0,-0.7891150116920471,-0.5864383578300476
-0.0613091476261615,1.0714693069458008,-0.1597926914691925,-0.4875425994396209,-0.2558342814445495,-0.2287265956401825,0.0,0.0,-0.7467119693756104,-0.5869179368019104
-0.0630784034729003,1.060085654258728,-0.166524589061737,-0.5077957510948181,-0.2664655447006225,-0.2126250565052032,0.0,0.0,-0.4397532343864441,-0.9322022795677184
-0.0649271011352539,1.0482457876205444,-0.1757616847753524,-0.5279037356376648,-0.2757927775382995,-0.1865444928407669,0.0,0.0,-0.9524527788162231,-0.6420930624008179
-0.0668185204267501,1.035937786102295,-0.1803895384073257,-0.548702597618103,-0.2847755253314972,-0.179654985666275,0.0,0.0,-0.0766253471374511,-0.3595161437988281
-0.0687154754996299,1.023146152496338,-0.1803455501794815,-0.5703762769699097,-0.2944047152996063,-0.1925843209028244,0.0,0.0,0.0138280391693115,-0.923559069633484
-0.0705327987670898,1.0102542638778689,-0.1735584437847137,-0.5746498107910156,-0.3028379678726196,-0.168664202094078,0.0,0.0,-0.6712998747825623,-0.9846653342247008
-0.0724275559186935,0.9969214797019958,-0.1826361119747162,-0.5940031409263611,-0.3099132478237152,-0.1415060013532638,0.0,0.0,0.8010222911834717,-0.9168026447296144
-0.0740637779235839,0.9838112592697144,-0.1582532525062561,-0.5838304162025452,-0.3154789507389068,-0.1113143116235733,0.0,0.0,0.1145532131195068,-0.8177486658096313
-0.0757401436567306,0.9707313776016236,-0.1632349789142608,-0.5822915434837341,-0.3200573325157165,-0.091567724943161,0.0,0.0,0.1455672979354858,-0.9519630670547484
-0.077244758605957,0.9579614996910096,-0.1473282873630523,-0.5682513117790222,-0.323326826095581,-0.0653900057077407,0.0,0.0,0.2138305902481079,-0.949465274810791
-0.0785556808114051,0.9453946948051452,-0.1292245239019394,-0.5589428544044495,-0.325268805027008,-0.0388392321765422,0.0,0.0,-0.4449514150619507,-0.9088006019592284
-0.0799299255013465,0.932382345199585,-0.136517196893692,-0.5785326361656189,-0.3262130320072174,-0.0188844259828329,0.0,0.0,0.0042492151260375,-0.9131962060928344
-0.0812759399414062,0.9196327924728394,-0.1349033117294311,-0.5665764212608337,-0.3258978426456451,0.0063039870001375,0.0,0.0,-0.2371990084648132,-0.958060085773468
-0.0826952904462814,0.9064241647720336,-0.1433377563953399,-0.5867366790771484,-0.3244355916976928,0.0292452219873666,0.0,0.0,-0.4080607891082763,-0.8926151990890503
-0.0841973274946212,0.8927746415138245,-0.1530570238828659,-0.6060116291046143,-0.321474015712738,0.0592316575348377,0.0,0.0,0.4560420513153076,-0.6544121503829956
-0.085497573018074,0.8792555928230286,-0.1337648779153823,-0.6000185012817383,-0.317578375339508,0.0779125466942787,0.0,0.0,0.4308434724807739,-0.7924457788467407
-0.0866753607988357,0.866028368473053,-0.1225216537714004,-0.5868484973907471,-0.3126605451107025,0.098356507718563,0.0,0.0,-0.6270824074745178,-0.7912489175796509
-0.0879191383719444,0.8523396849632263,-0.1300490200519561,-0.6071751117706299,-0.3067806363105774,0.1175974458456039,0.0,0.0,-0.0639120936393737,-0.8341274261474609
-0.0892443656921386,0.8382033705711365,-0.1395929604768753,-0.6268139481544495,-0.2994726598262787,0.1461597234010696,0.0,0.0,-0.3625832796096802,-0.2046138048171997
-0.0905757918953895,0.823582649230957,-0.1396262347698211,-0.6484853029251099,-0.2927812933921814,0.1338276267051696,0.0,0.0,-0.6097118854522705,-0.8145794868469238
-0.0919684395194053,0.8084926009178162,-0.1465408504009246,-0.6692250370979309,-0.2852824032306671,0.1499772816896438,0.0,0.0,0.0512022972106933,-0.3285371661186218
-0.093197725713253,0.7936928272247314,-0.1297197341918945,-0.6564558744430542,-0.2783122360706329,0.1394030898809433,0.0,0.0,-0.5452886819839478,-0.017709732055664
-0.0944334045052528,0.7784088253974915,-0.1297625750303268,-0.6781255602836609,-0.271945595741272,0.127332717180252,0.0,0.0,-0.3403042554855346,-0.3940058946609497
-0.0956750884652137,0.7626401782035828,-0.129808098077774,-0.6997941732406616,-0.2661772966384887,0.1153658255934715,0.0,0.0,-0.6434359550476074,-0.040994644165039
-0.0969229713082313,0.746386706829071,-0.1298562437295913,-0.7214618921279907,-0.2610017359256744,0.103511668741703,0.0,0.0,0.0994328260421752,-0.2315607666969299
-0.0981149673461914,0.7304959893226624,-0.123296782374382,-0.705525279045105,-0.256809264421463,0.083849661052227,0.0,0.0,-0.5512171983718872,-0.6606080532073975
-0.0993572250008583,0.7141377925872803,-0.1289222836494445,-0.7262154221534729,-0.252023696899414,0.0957115218043327,0.0,0.0,0.1027486324310302,-0.1072407960891723
-0.1005622893571853,0.6976823210716248,-0.1245449632406234,-0.7306717038154602,-0.2479148954153061,0.0821763128042221,0.0,0.0,-0.7415706515312195,-0.0321605205535888
-0.1017735451459884,0.6807416677474976,-0.1246028766036033,-0.7523365616798401,-0.2443708628416061,0.0708805695176124,0.0,0.0,0.5483572483062744,0.0116037130355834
-0.1029425635933876,0.6637893915176392,-0.119704321026802,-0.7529684901237488,-0.2415200620889663,0.0570161342620849,0.0,0.0,0.3841288089752197,-0.6165570020675659
-0.1040122956037521,0.6473453640937805,-0.1104600057005882,-0.7302795052528381,-0.2379820942878723,0.07075896859169,0.0,0.0,0.2447061538696289,-0.6745327711105347
-0.1049282103776931,0.6313135027885437,-0.095988854765892,-0.7118242383003235,-0.2335164248943328,0.0893134474754333,0.0,0.0,-0.3796396255493164,-0.4818434715270996
-0.1058499366044998,0.6147962212562561,-0.0960557088255882,-0.7334879040718079,-0.2295767664909362,0.0787930786609649,0.0,0.0,0.3133810758590698,-0.408927321434021
-0.1068176254630088,0.5982133150100708,-0.0996781438589096,-0.7365700602531433,-0.2266270965337753,0.0589930713176727,0.0,0.0,0.916994333267212,-0.9558157324790956
-0.1076064109802246,0.5825017690658569,-0.0832931697368621,-0.6976197361946106,-0.2221587151288986,0.0893680527806282,0.0,0.0,0.6463682651519775,-0.4030078649520874
-0.1083728820085525,0.5671772360801697,-0.0801156908273696,-0.6805751919746399,-0.2186451256275177,0.070271760225296,0.0,0.0,-0.0130282044410705,-0.4884693026542663
-0.1091446876525878,0.5513668656349182,-0.0801903083920478,-0.7022367119789124,-0.2156044393777847,0.0608133561909198,0.0,0.0,0.9256867170333862,-0.9439478516578674
-0.1098344773054122,0.5362987518310547,-0.0733973011374473,-0.6690568327903748,-0.2111440896987915,0.089207038283348,0.0,0.0,0.8696532249450684,-0.6480221152305603
-0.1103376373648643,0.5216935276985168,-0.0558589026331901,-0.6483396887779236,-0.2055522501468658,0.1118366941809654,0.0,0.0,0.54979407787323,0.211154818534851
-0.110758401453495,0.5070673227310181,-0.0473102554678916,-0.6493339538574219,-0.2002790719270706,0.1054636389017105,0.0,0.0,0.3632618188858032,-0.4565600156784057
-0.1110428795218467,0.4924209713935852,-0.0336320474743843,-0.6502558588981628,-0.195053681731224,0.1045079231262207,0.0,0.0,0.6345299482345581,-0.6653110384941101
-0.1111185103654861,0.4780893325805664,-0.0140549270436167,-0.636121928691864,-0.1885263472795486,0.1305465251207351,0.0,0.0,0.3936097621917724,-0.064717411994934
-0.1110207587480545,0.463729053735733,0.0031031952239573,-0.6373979449272156,-0.1818137615919113,0.1342518329620361,0.0,0.0,0.8254332542419434,-0.2448893785476684
-0.110783003270626,0.4501093029975891,0.0174384731799364,-0.6045612692832947,-0.1754652112722396,0.1269714385271072,0.0,0.0,0.6907186508178711,-0.6829462647438049
-0.110432244837284,0.437160462141037,0.0275974869728088,-0.5746405720710754,-0.167978435754776,0.1497355103492736,0.0,0.0,0.2985106706619262,0.2907545566558838
-0.1099010482430458,0.4244766235351562,0.0454697683453559,-0.5628805756568909,-0.1603227108716964,0.1531145870685577,0.0,0.0,-0.7084144353866577,-0.1767509579658508
-0.1093732863664627,0.4113068878650665,0.0453742817044258,-0.5845407843589783,-0.1529232412576675,0.1479896456003189,0.0,0.0,0.4064235687255859,-0.462414026260376
-0.1088268309831619,0.3983039855957031,0.0476678572595119,-0.5772044658660889,-0.1459580957889557,0.1393028199672699,0.0,0.0,0.2152575254440307,-0.2327206134796142
-0.1081293076276779,0.3857432901859283,0.0626714155077934,-0.5575791001319885,-0.1389024406671524,0.1411135047674179,0.0,0.0,0.5301645994186401,-0.246334433555603
-0.1073827743530273,0.3734838962554931,0.0678312182426452,-0.5442444682121277,-0.1321130692958831,0.135787695646286,0.0,0.0,0.4655218124389648,-0.7494304180145264
-0.106725312769413,0.3618302345275879,0.0577539131045341,-0.5172541737556458,-0.1241590082645416,0.1590813100337982,0.0,0.0,-0.1766762733459472,0.5826530456542969
-0.1060173958539962,0.349683403968811,0.0642434507608413,-0.539329469203949,-0.1176367476582527,0.1304447203874588,0.0,0.0,0.2740774154663086,-0.11773681640625
-0.1052841171622276,0.337919145822525,0.0670201033353805,-0.5223719477653503,-0.1113736182451248,0.1252629607915878,0.0,0.0,0.0493029356002807,-0.0478097200393676
-0.1045515090227127,0.3263859450817108,0.0672202259302139,-0.5121479630470276,-0.105387657880783,0.119719348847866,0.0,0.0,-0.1230665445327758,0.1013463735580444
-0.1038201302289962,0.3143660724163055,0.0671082288026809,-0.5338029265403748,-0.0994015485048294,0.1197222247719764,0.0,0.0,0.7596478462219238,0.2861499786376953
-0.1031495109200477,0.3028339147567749,0.0615681335330009,-0.512182354927063,-0.0939556211233139,0.1089189201593399,0.0,0.0,0.4347589015960693,0.0387136936187744
-0.1025668159127235,0.2915125787258148,0.053320474922657,-0.5028682947158813,-0.0890452191233635,0.0982080847024917,0.0,0.0,0.5191287994384766,-0.3713651895523071
-0.1018282920122146,0.2806785106658935,0.0683280155062675,-0.4811955690383911,-0.083581268787384,0.1092789396643638,0.0,0.0,-0.1639894247055053,0.1789404153823852
-0.101089671254158,0.2693575322628021,0.0682091265916824,-0.5028489828109741,-0.0779806226491928,0.1120127588510513,0.0,0.0,0.412901759147644,0.3140034675598144
-0.100175954401493,0.2585108876228332,0.0849613919854164,-0.4817522168159485,-0.0716364458203315,0.1268836557865142,0.0,0.0,0.0948952436447143,0.0577976703643798
-0.0992397293448448,0.247948482632637,0.08708106726408,-0.4691397845745086,-0.0651603415608406,0.1295217424631118,0.0,0.0,-0.3306963443756103,0.5723680257797241
-0.0982460975646972,0.2369003593921661,0.0940027385950088,-0.4908044040203094,-0.059858851134777,0.106030024588108,0.0,0.0,0.381935715675354,0.1174440383911132
-0.0971582382917404,0.2260854840278625,0.1028531342744827,-0.480436623096466,-0.0539985112845897,0.1172067373991012,0.0,0.0,0.4081588983535766,-0.0501793622970581
-0.0960372909903526,0.2158265709877014,0.105902649462223,-0.4557431936264038,-0.0478738322854042,0.1224937289953231,0.0,0.0,0.309330940246582,0.044101595878601
-0.0948363319039344,0.2060124725103378,0.1133447661995887,-0.4359804689884186,-0.0412061251699924,0.1333542019128799,0.0,0.0,-0.0999650359153747,0.230465292930603
-0.0936330780386924,0.1957117170095443,0.1132204681634903,-0.4576349258422851,-0.0341912396252155,0.1402977406978607,0.0,0.0,0.1077642440795898,0.5285947322845459
-0.0924617797136306,0.1855490058660507,0.1108848825097084,-0.4515444934368133,-0.0280211381614208,0.1234020441770553,0.0,0.0,0.6213346719741821,-0.6941832304000854
-0.0914661437273025,0.1756633818149566,0.0918136835098266,-0.4392348527908325,-0.0203627571463584,0.1531674265861511,0.0,0.0,0.6047841310501099,0.9088571071624756
-0.0904077515006065,0.1661103516817093,0.0995133146643638,-0.4245083034038543,-0.0141255436465144,0.1247443780303001,0.0,0.0,0.2796471118927002,0.290806770324707
-0.0893202796578407,0.1566898673772812,0.1018926873803138,-0.4186386466026306,-0.0073557058349251,0.1353969126939773,0.0,0.0,-0.0559072494506835,-0.418350338935852
-0.0882293730974197,0.146782785654068,0.1017712578177452,-0.440294086933136,-0.0001266422041226,0.144580990076065,0.0,0.0,0.8553013801574707,0.9165928363800048
-0.0869409590959549,0.1375450491905212,0.1226706281304359,-0.4105799496173858,0.0059684519656002,0.1219020336866378,0.0,0.0,0.5002186298370361,-0.1076942086219787
-0.0856303200125694,0.1289195567369461,0.124285914003849,-0.3833964467048645,0.0126633560284972,0.1338978707790374,0.0,0.0,-0.0267990827560424,0.4622969627380371
