x_pos,y_pos,x_vel,y_vel,angle,ang_vel,leg_1,leg_2,main_booster,lat_booster
-0.0014697074657306,1.4034205675125122,-0.1496208608150482,-0.3333061933517456,0.0023746390361338,0.0468877293169498,0.0,0.0,-0.5974463224411011,0.7646691799163818
-0.0028207779396325,1.3957371711730957,-0.1364282816648483,-0.3414872288703918,0.0036851537879556,0.0262132883071899,0.0,0.0,-0.2128465175628662,0.9412616491317748
-0.0040285112336277,1.387843132019043,-0.1204509958624839,-0.3508424758911133,0.0033587417565286,-0.0065289614722132,0.0,0.0,-0.4906995892524719,0.6709600687026978
-0.005141925998032,1.3797434568405151,-0.1105774641036987,-0.3599869906902313,0.0026041632518172,-0.0150928674265742,0.0,0.0,-0.2225719690322876,0.7312219142913818
-0.0061344145797193,1.3714426755905151,-0.0973553955554962,-0.3689258992671966,0.0007306741317734,-0.0374733880162239,0.0,0.0,-0.4949506521224975,0.6066757440567017
-0.0070182802155613,1.3629372119903564,-0.0856387391686439,-0.3780169486999511,-0.001978441607207,-0.0541873797774314,0.0,0.0,-0.6237077116966248,-0.4218150377273559
-0.0078530311584472,1.3542282581329346,-0.0813800543546676,-0.3870729207992553,-0.0040494785644114,-0.0414247922599315,0.0,0.0,-0.5696829557418823,-0.0397403836250305
-0.0086400033906102,1.3453153371810913,-0.0772435963153839,-0.3961286246776581,-0.0054828780703246,-0.0286708679050207,0.0,0.0,-0.6235767602920532,0.3550891876220703
-0.0093805314972996,1.336198806762695,-0.0732387155294418,-0.4051841199398041,-0.0062781432643532,-0.0159066896885633,0.0,0.0,-0.8080745935440063,-0.3748383522033691
-0.0100759509950876,1.326878547668457,-0.0693753883242607,-0.4142395257949829,-0.0064350557513535,-0.0031390052754431,0.0,0.0,-0.9222071766853333,0.062157392501831
-0.0107275964692235,1.3173543214797974,-0.0656640157103538,-0.4232949316501617,-0.0059534981846809,0.0096319001168012,0.0,0.0,-0.3830946087837219,-0.0204511284828186
-0.0113373752683401,1.307626247406006,-0.0621153339743614,-0.4323504269123077,-0.0048333061859011,0.0224061459302902,0.0,0.0,-0.6972576975822449,0.4303325414657593
-0.0119070056825876,1.297694444656372,-0.0587403401732444,-0.4414060413837433,-0.0030742830131202,0.0351838693022728,0.0,0.0,-0.6678253412246704,0.6176913976669312
-0.0123839378356933,1.287553071975708,-0.0487400852143764,-0.4507316946983337,-0.0020414388272911,0.0206589456647634,0.0,0.0,-0.2611669301986694,-0.0134403705596923
-0.0128243444487452,1.277207851409912,-0.0457417219877243,-0.4597873985767364,-0.0003686124691739,0.0334595814347267,0.0,0.0,-0.9460890293121338,-0.5021267533302307
-0.0132629396393895,1.2666529417037964,-0.0470184348523616,-0.4691047668457031,0.0027585772331804,0.0625495389103889,0.0,0.0,-0.9288548827171326,-0.2828613519668579
-0.0136693958193063,1.255894660949707,-0.0444484502077102,-0.478161484003067,0.0065251137129962,0.0753373280167579,0.0,0.0,-0.9242260456085204,-0.5839980840682983
-0.0140810962766408,1.2449275255203247,-0.0465227477252483,-0.487458735704422,0.0118170734494924,0.1058488115668296,0.0,0.0,-0.9541228413581848,0.1559470891952514
-0.01446533203125,1.233757257461548,-0.0444231107831001,-0.4965173900127411,0.0177486222237348,0.1186414361000061,0.0,0.0,-0.7001066207885742,0.76399827003479
-0.014772224240005,1.2223848104476929,-0.0360128618776798,-0.5055161118507385,0.0230062119662761,0.1051613315939903,0.0,0.0,-0.8434137105941772,0.2668086290359497
-0.0150568010285496,1.2108091115951538,-0.0344140715897083,-0.5145755410194397,0.0289048757404088,0.1179837584495544,0.0,0.0,-0.8881668448448181,0.5398792028427124
-0.0152779575437307,1.1990290880203247,-0.0276178568601608,-0.5236666798591614,0.0343504473567009,0.1089213714003562,0.0,0.0,-0.9254011511802672,0.6417248249053955
-0.015420245938003,1.1870484352111816,-0.0188151262700557,-0.5325895547866821,0.0388868600130081,0.0907363221049308,0.0,0.0,-0.8042397499084473,-0.1017647981643676
-0.0155481342226266,1.174864649772644,-0.0180193595588207,-0.5416496992111206,0.0440648458898067,0.1035690680146217,0.0,0.0,-0.7950677871704102,0.8235989809036255
-0.0156147005036473,1.1624830961227417,-0.0112684201449155,-0.5504260659217834,0.0486312545835971,0.0913360714912414,0.0,0.0,-0.8255334496498108,0.4036988019943237
-0.0156715400516986,1.1498773097991943,-0.0109594473615288,-0.5604394674301147,0.0538395419716835,0.1041656956076622,0.0,0.0,-0.8368968367576599,0.8362019062042236
-0.0156559944152832,1.1370790004730225,-0.0026619751006364,-0.5689671039581299,0.0580138526856899,0.083486221730709,0.0,0.0,-0.8276069164276123,0.5556186437606812
-0.0156027795746922,1.124086618423462,0.0013222642010077,-0.5776026248931885,0.061962466686964,0.0789725184440612,0.0,0.0,-0.9688805937767028,0.924548864364624
-0.0154921533539891,1.1109039783477783,0.0078861443325877,-0.5860255360603333,0.0651086941361427,0.0629244297742843,0.0,0.0,-0.8030125498771667,0.76065993309021
-0.0153254512697458,1.097521185874939,0.0143182184547185,-0.5948946475982666,0.0674342662096023,0.0465113148093223,0.0,0.0,-0.821173369884491,0.3989397287368774
-0.0151635166257619,1.083935260772705,0.0131964338943362,-0.6039527058601379,0.0703989714384079,0.059294331818819,0.0,0.0,-0.8767598271369934,0.6643173694610596
-0.0149630550295114,1.0701472759246826,0.0175624284893274,-0.6129136681556702,0.0728506222367286,0.0490329638123512,0.0,0.0,-0.9257668852806092,0.7585415840148926
-0.0147212985903024,1.0561692714691162,0.0223751999437809,-0.6213406920433044,0.0746331438422203,0.0356502160429954,0.0,0.0,-0.2197897434234619,0.2877209186553955
-0.0144919399172067,1.0419881343841553,0.0204951390624046,-0.6303988695144653,0.0770498514175415,0.0483341999351978,0.0,0.0,-0.6851783990859985,0.924840807914734
-0.01420259475708,1.0276144742965698,0.0277738384902477,-0.6388879418373108,0.0782060921192169,0.0231246631592512,0.0,0.0,-0.4114491939544678,0.7879205942153931
-0.0138665195554494,1.0130512714385986,0.0334382429718971,-0.6472645401954651,0.0783729255199432,0.0033366933930665,0.0,0.0,-0.7426691651344299,-0.4997501373291015
-0.0135497096925973,0.998284876346588,0.0308821313083171,-0.6563225388526917,0.0791656076908111,0.0158534236252307,0.0,0.0,-0.3753547668457031,0.8532931804656982
-0.0131830219179391,0.9833306074142456,0.0370679423213005,-0.6646146178245544,0.0787714496254921,-0.0078831342980265,0.0,0.0,-0.4727148413658142,-0.2109530568122863
-0.0128396032378077,0.9681732058525084,0.0341136194765567,-0.6736726760864258,0.0789952725172042,0.0044764378108084,0.0,0.0,-0.104860782623291,-0.266570508480072
-0.0125214578583836,0.9528127908706664,0.0309764593839645,-0.6827307343482971,0.0798323601484298,0.0167418904602527,0.0,0.0,-0.427354097366333,0.7421001195907593
-0.012182330712676,0.9372612833976746,0.0336776301264762,-0.6911894083023071,0.0800595059990882,0.0045429677702486,0.0,0.0,-0.7369052767753601,0.1852892637252807
-0.011872005648911,0.9215067625045776,0.0302069839090108,-0.7002473473548889,0.0808888152241706,0.0165858548134565,0.0,0.0,-0.4051000475883484,0.7755866050720215
-0.0115202907472848,0.9055492281913756,0.0355460494756698,-0.7092034816741943,0.0805220305919647,-0.0073356055654585,0.0,0.0,-0.4341636896133423,0.2922953367233276
-0.0112001420930027,0.8893886208534241,0.031783290207386,-0.7182613611221313,0.0807437300682067,0.00443392759189,0.0,0.0,-0.5174297094345093,0.8646901845932007
-0.0108489990234375,0.8730224370956421,0.0359247550368309,-0.7273429036140442,0.0799428448081016,-0.0160177499055862,0.0,0.0,-0.1970813870429992,0.8327746391296387
-0.0104610444977879,0.8564532399177551,0.0408253781497478,-0.7363029718399048,0.0779310762882232,-0.0402355007827281,0.0,0.0,-0.0178744792938232,0.3109970092773437
-0.0101086618378758,0.8396809101104736,0.0366959050297737,-0.7453609704971313,0.0764819532632827,-0.0289822705090045,0.0,0.0,0.4274653196334839,0.7021136283874512
-0.0099003789946436,0.8237845301628113,0.0233468040823936,-0.7063807845115662,0.0739965364336967,-0.0497081689536571,0.0,0.0,-0.1659481525421142,0.5877916812896729
-0.0096939085051417,0.8076942563056946,0.02352861687541,-0.7149841785430908,0.0711385235190391,-0.0571602694690227,0.0,0.0,0.0080584287643432,0.1587188243865966
-0.0095613477751612,0.7918639183044434,0.0156752057373523,-0.7034628391265869,0.0687503218650817,-0.0477638877928257,0.0,0.0,-0.1720643043518066,0.7545223236083984
-0.0093947406858205,0.775837779045105,0.0204278491437435,-0.7121044397354126,0.0650188326835632,-0.0746297761797905,0.0,0.0,-0.6052768230438232,-0.2958118915557861
-0.0092688556760549,0.7596084475517273,0.0158484317362308,-0.7211622595787048,0.0617904290556907,-0.0645681619644165,0.0,0.0,-0.6891535520553589,0.5701165199279785
-0.009131240658462,0.7431780695915222,0.0178882516920566,-0.7300850749015808,0.0577102489769458,-0.0816034525632858,0.0,0.0,-0.3742537498474121,0.6777036190032959
-0.0089824674651026,0.7265550494194031,0.0199050828814506,-0.7386049628257751,0.0527454875409603,-0.0992953926324844,0.0,0.0,-0.1611588597297668,-0.2357732057571411
-0.0088767055422067,0.7097292542457581,0.0151328817009925,-0.7476629614830017,0.0482368282973766,-0.0901732891798019,0.0,0.0,-0.3594123125076294,-0.4546311497688293
-0.0088148117065429,0.6927001476287842,0.0103067820891737,-0.7567203640937805,0.0441666282713413,-0.0814040377736091,0.0,0.0,-0.1202243566513061,-0.0073726773262023
-0.0087973596528172,0.6754679083824158,0.0054314052686095,-0.7657772898674011,0.0405162423849105,-0.0730075165629386,0.0,0.0,-0.4322353601455688,-0.5348187685012817
-0.0088578220456838,0.6580324172973633,-0.0035847357939928,-0.774847686290741,0.0380858369171619,-0.0486079528927803,0.0,0.0,-0.3083150386810303,0.469133973121643
-0.0089640617370605,0.6403934955596924,-0.0085461130365729,-0.7839033603668213,0.0360350459814071,-0.0410158112645149,0.0,0.0,-0.0550049543380737,0.0736700296401977
-0.0091166496276855,0.622550904750824,-0.0135447857901453,-0.7929587960243225,0.0343423336744308,-0.0338542126119136,0.0,0.0,0.6169905662536621,0.5014247894287109
-0.0092353820800781,0.6050487756729126,-0.0096387285739183,-0.7778261303901672,0.0321353264153003,-0.0441403314471244,0.0,0.0,-0.1033183336257934,0.2192387580871582
-0.0094016073271632,0.587343156337738,-0.0147019419819116,-0.7868813872337341,0.0302406847476959,-0.0378928147256374,0.0,0.0,0.7464995384216309,0.6922034025192261
-0.0094358446076512,0.5702607035636902,-0.0007221633568406,-0.7591652274131775,0.0275792423635721,-0.0532290153205394,0.0,0.0,0.2251598834991455,0.3923676013946533
-0.0095135690644383,0.5536569952964783,-0.0054249754175543,-0.7378988265991211,0.0252620913088321,-0.0463430993258953,0.0,0.0,-0.3543269634246826,0.3282017707824707
-0.0096403118222951,0.536849856376648,-0.0105633977800607,-0.7469537854194641,0.0231830533593893,-0.0415809378027915,0.0,0.0,0.0273801088333129,-0.3232061862945556
-0.0099019054323434,0.5203874707221985,-0.0239080600440502,-0.7316266894340515,0.0209599807858467,-0.0444612503051757,0.0,0.0,0.3411507606506347,-0.0822060108184814
-0.0102104190737009,0.5047639012336731,-0.0288775507360696,-0.6943539381027222,0.01900315284729,-0.039136566221714,0.0,0.0,-0.1573104262351989,0.6009910106658936
-0.0105153080075979,0.4889311790466308,-0.0272810347378253,-0.7036413550376892,0.0158476345241069,-0.0631105378270149,0.0,0.0,-0.5489940047264099,-0.0726627111434936
-0.0108708385378122,0.4728948473930359,-0.0324873700737953,-0.7126962542533875,0.0128240445628762,-0.0604719594120979,0.0,0.0,0.541635274887085,-0.3198457360267639
-0.0113709447905421,0.4573158025741577,-0.0466401688754558,-0.6923784613609314,0.0094989603385329,-0.0665017813444137,0.0,0.0,0.9157505035400392,0.6832575798034668
-0.0119906421750783,0.4427129924297333,-0.0570130050182342,-0.6489925980567932,0.0046071391552686,-0.0978361517190933,0.0,0.0,0.1911836862564087,-0.0843309164047241
-0.0126420017331838,0.4285798966884613,-0.0603423826396465,-0.628128170967102,-0.0001316118286922,-0.0947749018669128,0.0,0.0,0.5123175382614136,0.2107136249542236
-0.0134634971618652,0.4154031574726105,-0.0768148452043533,-0.5856455564498901,-0.0053922752849757,-0.1052135229110717,0.0,0.0,0.1197395324707031,0.545461893081665
-0.0142371179535985,0.4026093780994415,-0.0710308924317359,-0.5686488747596741,-0.0116426292806863,-0.1250070631504058,0.0,0.0,-0.671763002872467,0.0555860996246337
-0.0150635717436671,0.3896124064922333,-0.0762879699468612,-0.5777061581611633,-0.0179221034049987,-0.1255894303321838,0.0,0.0,-0.6446619629859924,-0.4951367378234863
-0.015943145379424,0.3764122128486633,-0.0815488547086715,-0.5867635011672974,-0.0242564026266336,-0.1266859173774719,0.0,0.0,-0.161298930644989,0.0582937002182006
-0.0168763156980276,0.3630088865756988,-0.0868123918771743,-0.5958210229873657,-0.0306706633418798,-0.1282851547002792,0.0,0.0,0.8295613527297974,0.3943336009979248
-0.0178453437983989,0.3507198691368103,-0.0902637541294097,-0.5463297963142395,-0.0372323617339134,-0.1312340795993805,0.0,0.0,-0.950783371925354,-0.0983785390853881
-0.018868351355195,0.3382277190685272,-0.0955293178558349,-0.5553877353668213,-0.043922372162342,-0.133800059556961,0.0,0.0,-0.6225121021270752,-0.0359224677085876
-0.0199455264955759,0.3255326449871063,-0.1007943525910377,-0.5644460320472717,-0.0507636703550815,-0.1368259191513061,0.0,0.0,-0.6566935777664185,-0.1557007431983947
-0.0210770610719919,0.3126345872879028,-0.1060578823089599,-0.573504626750946,-0.0577784925699234,-0.1402964740991592,0.0,0.0,-0.3936204314231872,-0.1208491921424865
-0.0222632400691509,0.2995336055755615,-0.1113189235329628,-0.5825636386871338,-0.0649882405996322,-0.1441951096057891,0.0,0.0,0.4146574735641479,-0.2452290058135986
-0.0235586166381835,0.2869759202003479,-0.1216268986463546,-0.5584820508956909,-0.072814904153347,-0.1565334051847458,0.0,0.0,0.1615799665451049,-0.5415537357330322
-0.0249590873718261,0.2749401032924652,-0.1329157650470733,-0.5352925658226013,-0.0798779726028442,-0.1412611901760101,0.0,0.0,0.0715503692626953,-0.9285025596618652
-0.0264605525881052,0.2633939981460571,-0.1446278989315033,-0.5134637355804443,-0.0853434354066848,-0.1093090623617172,0.0,0.0,-0.21741384267807,-0.752562403678894
-0.0280677787959575,0.2516514360904693,-0.1562356650829315,-0.522152841091156,-0.0897984951734542,-0.0891010016202926,0.0,0.0,-0.308968186378479,-0.2451226115226745
-0.0297303199768066,0.2397058755159378,-0.1614693999290466,-0.5312106013298035,-0.094542421400547,-0.0948783308267593,0.0,0.0,-0.2789602279663086,0.1948564052581787
-0.0314481742680072,0.2275572568178177,-0.1666947603225708,-0.5402688384056091,-0.0995913594961166,-0.100978672504425,0.0,0.0,-0.023972749710083,-0.1864271163940429
-0.0332213416695594,0.2152058035135269,-0.1719107627868652,-0.549327552318573,-0.1049606129527092,-0.1073848977684974,0.0,0.0,0.5817686319351196,0.4980998039245605
-0.0348776802420616,0.20319364964962,-0.1605079621076584,-0.5342409610748291,-0.110047310590744,-0.1017337292432785,0.0,0.0,0.5152097940444946,0.0578042268753051
-0.0365188606083393,0.192006766796112,-0.1586251705884933,-0.4976085424423218,-0.115506574511528,-0.1091854125261306,0.0,0.0,-0.060451865196228,0.1747727394104004
-0.038215447217226,0.1806171685457229,-0.1638064980506897,-0.5066683888435364,-0.1213271468877792,-0.1164113730192184,0.0,0.0,0.5989181995391846,0.5224553346633911
-0.0397199615836143,0.1699573546648025,-0.1435236185789108,-0.4743522107601166,-0.1282215118408203,-0.137887492775917,0.0,0.0,0.1322947740554809,-0.5640062093734741
-0.0412200912833213,0.1594157069921493,-0.1439552903175354,-0.4690474569797516,-0.1342459768056869,-0.1204892769455909,0.0,0.0,0.7140172719955444,-0.2967050075531006
-0.0427587516605854,0.1494679301977157,-0.1471676230430603,-0.4427413940429687,-0.1409182101488113,-0.1334445774555206,0.0,0.0,0.2929360866546631,-0.5875938534736633
-0.0442309379577636,0.1403218805789947,-0.1414494663476944,-0.4070492386817932,-0.146676704287529,-0.115169957280159,0.0,0.0,-0.1838769912719726,0.4550740718841553
-0.045758344233036,0.1309733539819717,-0.1465482115745544,-0.4161109626293182,-0.1528501212596893,-0.1234686747193336,0.0,0.0,0.4185357093811035,-0.1046380996704101
-0.0473422035574913,0.122459590435028,-0.1512894928455352,-0.3791355788707733,-0.1599415987730026,-0.1418296098709106,0.0,0.0,-0.1947181224822998,-0.4779295921325683
-0.0489808097481727,0.1137437671422958,-0.1563452929258346,-0.3881993889808655,-0.1674650162458419,-0.1504683196544647,0.0,0.0,0.8623976707458496,0.1106928586959838
-0.0505926124751567,0.1060918867588043,-0.1529486626386642,-0.3410302698612213,-0.1757072806358337,-0.1648453772068023,0.0,0.0,0.1291598081588745,0.0750213861465454
-0.052225112915039,0.0990089252591133,-0.1543135195970535,-0.3158760070800781,-0.1846579164266586,-0.1790130287408828,0.0,0.0,0.201774001121521,-0.1362295746803283
-0.0538627617061138,0.092263638973236,-0.1543353199958801,-0.3009944558143616,-0.1941457241773605,-0.1897564530372619,0.0,0.0,0.001713752746582,-0.0945184230804443
-0.0555534362792968,0.0858742594718933,-0.1588636487722396,-0.285343587398529,-0.2044204175472259,-0.2054939717054367,0.0,0.0,0.2719893455505371,0.1084957122802734
-0.057329274713993,0.0799115300178527,-0.1664067804813385,-0.2665968835353851,-0.2156964540481567,-0.2255209684371948,0.0,0.0,0.1807559728622436,-0.0023842453956604
-0.0589743629097938,0.0744762271642685,-0.1532485485076904,-0.2432539463043213,-0.2270931452512741,-0.2279336750507354,0.0,0.0,0.5247030258178711,-0.3831552267074585
-0.0605404861271381,0.0693190172314643,-0.1451706886291504,-0.2310193926095962,-0.2387036979198455,-0.2322110682725906,0.0,0.0,0.838687539100647,-0.2767296433448791
-0.0618014335632324,0.065141424536705,-0.1149505525827407,-0.1875201314687729,-0.2500479221343994,-0.2268847972154617,0.0,0.0,0.650794267654419,-0.2681548595428467
-0.0629447922110557,0.0618988834321498,-0.1026389449834823,-0.1461502462625503,-0.2619825899600982,-0.2386933118104934,0.0,0.0,0.3157960176467895,-0.3724620342254638
-0.0638536438345909,0.059397991746664,-0.079271949827671,-0.113275334239006,-0.2738801538944244,-0.2379512041807174,0.0,0.0,-0.2072852849960327,-0.9329773783683776
-0.0648756027221679,0.0567229352891445,-0.0917384028434753,-0.1208888813853263,-0.2846181988716125,-0.2147604972124099,0.0,0.0,0.2872353792190552,-0.6723861694335938
-0.0658251792192459,0.0547945350408554,-0.0853746384382247,-0.0876077860593795,-0.2944898605346679,-0.1974330991506576,0.0,0.0,0.4719185829162597,-0.7870490550994873
-0.06662168353796,0.0536798797547817,-0.0712420493364334,-0.0512598529458045,-0.3031643033027649,-0.1734889149665832,0.0,0.0,-0.0527815818786621,-0.8135105967521667
-0.0675215721130371,0.0523854121565818,-0.0825157612562179,-0.0591111667454242,-0.3109097778797149,-0.1549093574285507,0.0,0.0,0.0748933553695678,-0.6750996708869934
-0.0684840232133865,0.05153139680624,-0.0895391553640365,-0.0394087359309196,-0.3178706467151642,-0.13921719789505,0.0,0.0,0.3869047164916992,-0.533462643623352
-0.0695110335946083,0.05116518586874,-0.0963108912110328,-0.0176944192498922,-0.3245170414447784,-0.1329280138015747,0.0,0.0,0.1813613176345825,-0.9538933038711548
-0.070545770227909,0.0512148961424827,-0.0984811037778854,0.0010799973970279,-0.3297254145145416,-0.1041677221655845,0.0,0.0,0.2371710538864135,-0.8410397171974182
-0.0715402588248252,0.0516501292586326,-0.0956351310014724,0.0184667371213436,-0.3337102234363556,-0.0796960890293121,0.0,0.0,-0.3399581909179687,-0.8729721307754517
-0.0726339370012283,0.0519029013812541,-0.1063932329416275,0.0105459503829479,-0.3368165791034698,-0.0621273145079612,0.0,0.0,-0.4149782657623291,-0.9250288009643556
-0.0738299340009689,0.0519884452223777,-0.1176596134901046,0.0033473200164735,-0.3388439118862152,-0.0405465364456176,0.0,0.0,-0.4313618540763855,-0.9291829466819764
-0.0751347541809082,0.0519158467650413,-0.1298087835311889,-0.0033861584961414,-0.3395513892173767,-0.014149347320199,0.0,0.0,-0.470139741897583,-0.944392204284668
