x_pos,y_pos,x_vel,y_vel,angle,ang_vel,leg_1,leg_2,main_booster,lat_booster
-0.0014258384471759,1.403059720993042,-0.1442846059799194,-0.349359393119812,0.0015120188472792,0.0298075731843709,0.0,0.0,-0.0858861804008483,0.6831505298614502
-0.0026951790787279,1.3946541547775269,-0.1267447620630264,-0.3735814690589905,0.0013263766886666,-0.0037124715745449,0.0,0.0,0.1283236742019653,0.0123214721679687
-0.0037749290931969,1.386097073554993,-0.1080382019281387,-0.3803125023841858,0.0013897488825023,0.0012673233868554,0.0,0.0,0.2841742038726806,0.2601890563964844
-0.0048490525223314,1.377557396888733,-0.1068261116743087,-0.3795456290245056,0.0008218846051022,-0.0113584464415907,0.0,0.0,-0.7059115171432495,0.4053875207901001
-0.0058238981291651,1.368452548980713,-0.0967321544885635,-0.4046575427055359,7.102247764123604e-05,-0.0150186493992805,0.0,0.0,-0.0427174568176269,0.1036403179168701
-0.0066995620727539,1.3587828874588013,-0.0866265818476677,-0.429764837026596,-0.0008605988696217,-0.0186342597007751,0.0,0.0,0.0779722929000854,-0.0481279492378234
-0.0074903490021824,1.3491134643554688,-0.0778799504041671,-0.4297538101673126,-0.0020401130896061,-0.0235924553126096,0.0,0.0,-0.7738983631134033,-0.3819239735603332
-0.0081816669553518,1.338878870010376,-0.0677548199892044,-0.45486781001091,-0.0033940025605261,-0.0270802266895771,0.0,0.0,-0.7755938172340393,-0.3558292388916015
-0.0087733268737792,1.3280795812606812,-0.0576222650706768,-0.4799755215644836,-0.0049191950820386,-0.0305066965520381,0.0,0.0,-0.903797209262848,-0.8299727439880371
-0.0093307495117187,1.3167208433151243,-0.0556943714618682,-0.5048277974128723,-0.0049660038203001,-0.0009364007273688,0.0,0.0,-0.7197123169898987,-0.7986809015274048
-0.009842300787568,1.304798245429993,-0.0523230023682117,-0.5298895835876465,-0.0038220612332224,0.0228812005370855,0.0,0.0,-0.5274706482887268,-0.8048943281173706
-0.0103101730346679,1.2923095226287842,-0.049211386591196,-0.5550549030303955,-0.0014319511828944,0.0478066951036453,0.0,0.0,-0.8389485478401184,-0.810202956199646
-0.0107284542173147,1.2792600393295288,-0.0453580506145954,-0.5799747109413147,0.0020584263838827,0.0698138922452926,0.0,0.0,-0.3077071905136108,-0.7818659543991089
-0.0111016277223825,1.2656384706497192,-0.0420744940638542,-0.60541832447052,0.0067660678178071,0.0941613614559173,0.0,0.0,-0.7126443982124329,0.0593198537826538
-0.0113750454038381,1.2514522075653076,-0.031946562230587,-0.6305291652679443,0.0113212177529931,0.0911114141345024,0.0,0.0,-0.7578181028366089,-0.405281662940979
-0.0115487100556492,1.236701250076294,-0.0218202881515026,-0.6556398868560791,0.0157279707491397,0.0881427973508834,0.0,0.0,-0.8682131171226501,-0.0018612742424011
-0.0116227148100733,1.221385478973389,-0.0116974273696541,-0.6807507276535034,0.0199895016849041,0.0852382630109787,0.0,0.0,-0.7959840893745422,-0.3416570425033569
-0.0115968706086277,1.2055050134658811,-0.001579268486239,-0.7058613896369934,0.0241093020886182,0.0824032500386238,0.0,0.0,-0.6393169164657593,-0.1000193953514099
-0.0114712715148925,1.1890597343444824,0.0085327755659818,-0.7309720516204834,0.0280908457934856,0.0796382501721382,0.0,0.0,-0.6389451026916504,0.2185018062591552
-0.011246109381318,1.1720495223999023,0.0186372492462396,-0.7560826539993286,0.0319376625120639,0.0769430547952652,0.0,0.0,-0.6112353205680847,-0.045020580291748
-0.0109211923554539,1.1544744968414309,0.0287326332181692,-0.7811933159828186,0.0356532037258148,0.0743171721696853,0.0,0.0,0.1400365829467773,0.6155099868774414
-0.0104498863220214,1.1367921829223633,0.0447271652519702,-0.7859507203102112,0.038031879812479,0.0475777722895145,0.0,0.0,0.0200663805007934,-0.0689259767532348
-0.0098116872832179,1.1190531253814695,0.0611584484577178,-0.7884754538536072,0.0406595207750797,0.0525576695799827,0.0,0.0,0.0923123359680175,0.1068799495697021
-0.0090363500639796,1.1010611057281494,0.0747789219021797,-0.7997208833694458,0.0433801263570785,0.054417211562395,0.0,0.0,-0.0488219261169433,-0.7357994914054871
-0.0082338331267237,1.0825015306472778,0.0757990330457687,-0.8250022530555725,0.0477916225790977,0.0882378667593002,0.0,0.0,-0.2464205026626587,0.3269710540771484
-0.0073314667679369,1.063355803489685,0.0858881473541259,-0.8510648012161255,0.0520886145532131,0.0859397873282432,0.0,0.0,0.4639679193496704,0.2314064502716064
-0.006360244937241,1.044609785079956,0.0928728133440017,-0.8333059549331665,0.056291177868843,0.0840510874986648,0.0,0.0,0.2594507932662964,0.62994384765625
-0.0053863525390625,1.0262426137924194,0.0947099328041076,-0.8164206147193909,0.0589436590671539,0.0530496537685394,0.0,0.0,-0.0577644109725952,-0.3488835096359253
-0.0043138503096997,1.0073105096817017,0.1046733632683754,-0.8415282368659973,0.0614937208592891,0.0510011315345764,0.0,0.0,0.4003422260284424,0.088399052619934
-0.0031861304305493,0.988430678844452,0.1103765368461608,-0.8392059803009033,0.0638626962900161,0.0473793931305408,0.0,0.0,0.2617216110229492,0.4525282382965088
-0.0019873618148267,0.969955027103424,0.1175155788660049,-0.8212386965751648,0.0662026405334472,0.0467987060546875,0.0,0.0,-0.0975946187973022,0.6596493721008301
-0.0006451606750488,0.9509152173995972,0.1330941170454025,-0.8462651371955872,0.0673082545399665,0.0221124552190303,0.0,0.0,-0.0831980109214782,-0.2972432971000671
0.0007943153614178,0.9313104748725892,0.1429266631603241,-0.8713722229003906,0.0683256834745407,0.0203485134989023,0.0,0.0,-0.2083944082260131,-0.6408230662345886
0.0022752762306481,0.911129117012024,0.1457241177558899,-0.8970576524734497,0.0706705600023269,0.0468974038958549,0.0,0.0,-0.4314386248588562,-0.463392972946167
0.0038528442382812,0.8903828263282776,0.1554704308509826,-0.922165036201477,0.0729337707161903,0.0452639460563659,0.0,0.0,-0.1010849475860595,-0.6211731433868408
0.00547876348719,0.8690711855888367,0.1591791212558746,-0.9473565816879272,0.0763167217373848,0.0676591992378234,0.0,0.0,0.1081266403198242,-0.6135108470916748
0.0071092606522142,0.8476404547691345,0.1584987044334411,-0.95271235704422,0.0808186307549476,0.0900383293628692,0.0,0.0,0.1979697942733764,-0.2839961647987366
0.0088177677243947,0.8264737129211426,0.1662503182888031,-0.9410027861595154,0.08537557721138,0.0911391526460647,0.0,0.0,-0.1090078949928283,-0.1721710562705993
0.010620784945786,0.8047420978546143,0.1757688820362091,-0.966111421585083,0.0898626968264579,0.0897425934672355,0.0,0.0,0.0399229526519775,-0.6295518279075623
0.0124536510556936,0.7830143570899963,0.1775338947772979,-0.9660345315933228,0.0955603569746017,0.1139533370733261,0.0,0.0,0.2985750436782837,-0.8587487936019897
0.0141574861481785,0.7616197466850281,0.163064569234848,-0.9513577222824096,0.1028179600834846,0.1451522558927536,0.0,0.0,0.9210946559906006,0.2015700340270996
0.0160337444394826,0.7405912280082703,0.1797104775905609,-0.9351657032966614,0.110677421092987,0.1571893841028213,0.0,0.0,0.6967642307281494,0.0649396181106567
0.0180648807436227,0.7194952368736267,0.1947983801364898,-0.9382362365722656,0.1189388781785965,0.1652289777994156,0.0,0.0,0.8492469787597656,-0.2856242060661316
0.0202264785766601,0.6987363696098328,0.2073873579502105,-0.9233432412147522,0.1276571750640869,0.17436583340168,0.0,0.0,0.9295318126678468,-0.1728183627128601
0.022386360913515,0.6779159903526306,0.2075012922286987,-0.9260976314544678,0.1361008882522583,0.1688741892576217,0.0,0.0,0.7927305698394775,0.6835983991622925
0.0246926303952932,0.6570854187011719,0.2234496772289276,-0.9264774918556212,0.1432555615901947,0.1430937945842743,0.0,0.0,0.9896671772003174,0.2513884305953979
0.0270813945680856,0.6365052461624146,0.2314232140779495,-0.9154101014137268,0.1506994068622589,0.1488766819238662,0.0,0.0,0.851980447769165,-0.3126823902130127
0.0292905811220407,0.6167184114456177,0.2141019403934478,-0.8801203370094299,0.1575117409229278,0.1362468749284744,0.0,0.0,0.9122927188873292,0.3452517986297607
0.0312887206673622,0.5976823568344116,0.1937613487243652,-0.8466975092887878,0.1635669618844986,0.1211044415831565,0.0,0.0,0.9408817291259766,0.873894453048706
0.0333130843937397,0.5789737701416016,0.1982345283031463,-0.8319622278213501,0.167775273323059,0.0841663479804992,0.0,0.0,0.8697986602783203,0.0948281288146972
0.0354698188602924,0.5606968998908997,0.2107631266117096,-0.8128670454025269,0.1726914942264557,0.0983245745301246,0.0,0.0,0.4040204286575317,0.2865104675292969
0.0375489220023155,0.5427678227424622,0.203272134065628,-0.7973933815956116,0.1773401051759719,0.0929722264409065,0.0,0.0,0.5356588363647461,0.3659662008285522
0.0397311225533485,0.5249111652374268,0.2131560146808624,-0.794246256351471,0.1824191957712173,0.1015819460153579,0.0,0.0,0.8840324878692627,0.7405257225036621
0.0418825149536132,0.5078551769256592,0.2115884274244308,-0.7584825754165649,0.1859795451164245,0.0712068825960159,0.0,0.0,0.4395265579223633,-0.0100518465042114
0.0441538803279399,0.4908967018127441,0.223037987947464,-0.7542313933372498,0.1901042312383651,0.082493782043457,0.0,0.0,0.6799579858779907,-0.091895580291748
0.046307660639286,0.4740515649318695,0.2117562741041183,-0.7491393685340881,0.1937449127435684,0.0728131979703903,0.0,0.0,0.8670674562454224,-0.7181038856506348
0.0484097488224506,0.4579909145832062,0.2049311846494674,-0.714509904384613,0.1990563720464706,0.1062295883893966,0.0,0.0,0.8892990350723267,0.5325931310653687
0.0506265647709369,0.4425637722015381,0.2170183956623077,-0.6862822771072388,0.2037497460842132,0.0938676372170448,0.0,0.0,0.5728150606155396,0.1105371713638305
0.0528130531311035,0.42774498462677,0.2137031555175781,-0.6593032479286194,0.2087425142526626,0.0998549610376358,0.0,0.0,-0.1742259263992309,0.1572029590606689
0.0550545677542686,0.4123616218566894,0.2192402184009552,-0.6844121217727661,0.2137071937322616,0.0992936640977859,0.0,0.0,0.6753871440887451,0.4548044204711914
0.0573184974491596,0.3969804644584656,0.2212618589401245,-0.6843557953834534,0.2188855856657028,0.103567823767662,0.0,0.0,0.9021143913269044,0.2585005760192871
0.0593413338065147,0.3821794688701629,0.19772669672966,-0.6585047841072083,0.2235051840543747,0.0923920422792434,0.0,0.0,0.5343930721282959,0.8357391357421875
0.0614903457462787,0.3675788044929504,0.211836501955986,-0.6493863463401794,0.226605087518692,0.0619983673095703,0.0,0.0,0.7922669649124146,-0.2828407883644104
0.0635531395673751,0.3533938527107239,0.2031274288892746,-0.6309331059455872,0.2298017591238021,0.0639334470033645,0.0,0.0,0.432062029838562,-0.2963268756866455
0.0655770301818847,0.3391537666320801,0.1992241889238357,-0.6333878636360168,0.2330099195241928,0.0641632378101348,0.0,0.0,0.9550457000732422,-0.3636857271194458
0.0673255920410156,0.325318843126297,0.1723822653293609,-0.6152792572975159,0.2355222105979919,0.0502460002899169,0.0,0.0,0.9586728811264038,-0.0699297189712524
0.068885900080204,0.3124078512191772,0.1534523516893386,-0.5742369294166565,0.2381355762481689,0.05226731300354,0.0,0.0,0.5122730731964111,-0.05995774269104
0.0704745277762413,0.299348771572113,0.1559612900018692,-0.5808759331703186,0.241081416606903,0.0589169338345527,0.0,0.0,0.9584518671035768,0.8676214218139648
0.0719336494803428,0.2872456312179565,0.1446875631809234,-0.5381171703338623,0.2423234581947326,0.0248408280313015,0.0,0.0,0.9307215213775636,0.1155928373336792
0.0731611251831054,0.275343507528305,0.1220312714576721,-0.529100239276886,0.2430446445941925,0.0144238071516156,0.0,0.0,0.9729654788970948,0.8681734800338745
0.0741456001996994,0.2640385925769806,0.0997129678726196,-0.502231776714325,0.2417591363191604,-0.0257098618894815,0.0,0.0,0.968132495880127,0.8222099542617798
0.0750510245561599,0.2532877326011657,0.0933688133955001,-0.4773558676242828,0.2388877421617508,-0.0574278123676776,0.0,0.0,0.989014744758606,0.2336493730545044
0.0755567550659179,0.2433987408876419,0.0541079528629779,-0.4389374852180481,0.2352906763553619,-0.0719414576888084,0.0,0.0,0.9612233638763428,0.7077528238296509
0.0760343521833419,0.233997493982315,0.0525013320147991,-0.4170859754085541,0.2304880321025848,-0.0960531011223793,0.0,0.0,0.991500735282898,0.9498645067214966
0.0764155387878418,0.2247233539819717,0.0448299869894981,-0.4111522734165191,0.2236893028020858,-0.1359744668006897,0.0,0.0,0.9425328969955444,0.1535879373550415
0.0767654404044151,0.2154704481363296,0.0413479320704937,-0.4102908074855804,0.2172549366950988,-0.1286870837211609,0.0,0.0,0.902921199798584,0.8708310127258301
0.0770308524370193,0.2062266916036605,0.0347180292010307,-0.4096483886241913,0.2089929729700088,-0.1652392745018005,0.0,0.0,0.9657717943191528,0.7374534606933594
0.0771112442016601,0.1978252977132797,0.0177513118833303,-0.3720541298389435,0.1992131173610687,-0.1955974400043487,0.0,0.0,0.8537766933441162,0.2354148626327514
0.0770593658089637,0.1902327090501785,0.0041225305758416,-0.3362239599227905,0.1898446530103683,-0.1873696446418762,0.0,0.0,0.8447809219360352,-0.1520334482192993
0.0766683593392372,0.183385282754898,-0.0291878692805767,-0.3030912280082702,0.1798926591873169,-0.1990398615598678,0.0,0.0,0.4309761524200439,0.7466009855270386
0.0761140808463096,0.1763726323843002,-0.0438057743012905,-0.3103061318397522,0.1682477444410324,-0.2328989207744598,0.0,0.0,-0.1450744271278381,0.9704387187957764
0.0755871757864952,0.1688263267278671,-0.0389697104692459,-0.3338969945907593,0.154519110918045,-0.274572342634201,0.0,0.0,-0.361207365989685,0.1133239269256591
0.075003907084465,0.1607174724340438,-0.0445642545819282,-0.3590199053287506,0.1407860666513443,-0.2746608853340149,0.0,0.0,-0.5672855377197266,0.3459713459014892
0.0743607506155967,0.1520462781190872,-0.0505253188312053,-0.3841429054737091,0.1270480304956436,-0.2747608125209808,0.0,0.0,-0.4632608890533447,-0.1656897664070129
0.0736541748046875,0.1428126245737075,-0.0568302273750305,-0.40926593542099,0.1133042499423027,-0.2748755812644958,0.0,0.0,0.2041411399841308,-0.6624265313148499
0.0728518515825271,0.1336515545845031,-0.0678209587931633,-0.4062629640102386,0.1009780541062355,-0.2465244233608245,0.0,0.0,0.3216582536697387,0.021843671798706
0.0719711333513259,0.1243389919400215,-0.0757088810205459,-0.4130989611148834,0.0887317657470703,-0.2449257671833038,0.0,0.0,0.4969831705093384,-0.8486440181732178
0.0710135474801063,0.1150058358907699,-0.0852295756340026,-0.4142154157161712,0.0782977938652038,-0.2086794078350067,0.0,0.0,0.6548223495483398,-0.7127382755279541
0.0700407996773719,0.1059765219688415,-0.0884923785924911,-0.4008718430995941,0.0696078315377235,-0.1737989634275436,0.0,0.0,0.7025928497314453,-0.3133015632629394
0.0691059082746505,0.0970062837004661,-0.0853602066636085,-0.3983203470706939,0.0615704432129859,-0.1607477068901062,0.0,0.0,0.759527325630188,-0.7059908509254456
0.0679800063371658,0.0886691212654113,-0.1058606952428817,-0.3702799677848816,0.054908849298954,-0.1332317739725113,0.0,0.0,0.5971730947494507,0.4858921766281128
0.0667622536420822,0.0808683261275291,-0.1151609271764755,-0.3464726209640503,0.0483703278005123,-0.1307704746723175,0.0,0.0,0.7853643894195557,0.6606271266937256
0.0656237602233886,0.0736001804471015,-0.1062430515885353,-0.3228034079074859,0.0408503785729408,-0.1503987610340118,0.0,0.0,0.8666540384292603,-0.3130421638488769
0.0644989982247352,0.0663275346159935,-0.1053783074021339,-0.3230520784854889,0.0338385999202728,-0.1402359157800674,0.0,0.0,0.9122276306152344,-0.3766001462936401
0.0632068663835525,0.0593711696565151,-0.1218031421303749,-0.3090229630470276,0.0265245903283357,-0.1462800949811935,0.0,0.0,0.6433148384094238,0.2096275091171264
0.0618882179260253,0.0531407222151756,-0.1248379573225975,-0.2768012285232544,0.0195771493017673,-0.1389488726854324,0.0,0.0,0.2775976657867431,-0.0144621133804321
0.0604534149169921,0.047005470842123,-0.1363307535648346,-0.272599846124649,0.0125214839354157,-0.1411132514476776,0.0,0.0,0.3167763948440552,-0.3647823333740234
0.0588209144771099,0.0412551723420619,-0.1556097567081451,-0.2555248439311981,0.0049802036955952,-0.1508254557847976,0.0,0.0,0.8321425914764404,-0.1540161967277526
0.057189367711544,0.0361021868884563,-0.1559373289346695,-0.2290150225162506,-0.0021434521768242,-0.1424730122089386,0.0,0.0,0.735153317451477,0.6521803140640259
0.055457592010498,0.0315718278288841,-0.1644691079854965,-0.2013862878084182,-0.0107396719977259,-0.1719245165586471,0.0,0.0,0.4325348138809204,-0.3068097829818725
0.0535674095153808,0.0274525973945856,-0.179943561553955,-0.1831691414117813,-0.0197005905210971,-0.1792183220386505,0.0,0.0,0.3762549161911011,-0.1002734899520874
0.0515701286494731,0.0233922339975833,-0.1905204206705093,-0.1806081980466842,-0.0287922006100416,-0.181832417845726,0.0,0.0,0.4530963897705078,0.6443908214569092
0.0494313240051269,0.019564613699913,-0.2031109780073166,-0.1703566014766693,-0.0394286438822746,-0.2127289026975631,0.0,0.0,0.3989462852478027,-0.1567350625991821
0.0470866188406944,0.0158458575606346,-0.2230639159679412,-0.1656116843223571,-0.0506931953132152,-0.2252910882234573,0.0,0.0,0.4650527238845825,0.3375874757766723
0.0447714813053607,0.0125114060938358,-0.220522329211235,-0.1486041843891143,-0.0615638792514801,-0.2174135893583297,0.0,0.0,0.3704243898391723,0.1164668798446655
0.0424287803471088,0.0090671274811029,-0.2234863042831421,-0.1535553187131881,-0.0722416639328002,-0.2135554850101471,0.0,0.0,0.3493446111679077,-0.2635638117790222
0.0401513092219829,0.0059788678772747,-0.2174664288759231,-0.1377843767404556,-0.0824156999588012,-0.2034808099269867,1.0,0.0,0.8462064266204834,0.8739330768585205
0.0381052009761333,0.0039717531763017,-0.2031559944152832,-0.089544653892517,-0.082838237285614,-0.0071246661245822,1.0,0.0,0.2256830930709839,0.9435546398162842
0.0364886298775672,0.002719304524362,-0.1734067499637603,-0.055066168308258,-0.0711743384599685,0.2333260327577591,1.0,0.0,-0.459105372428894,0.9631191492080688
0.0350967422127723,0.001228783163242,-0.1605853140354156,-0.0653752237558364,-0.0499721355736255,0.424092948436737,1.0,0.0,-0.0526341795921325,0.962132453918457
0.0338760390877723,-0.0005828881403431,-0.1498007774353027,-0.0798345953226089,-0.0225273873656988,0.5489498376846313,1.0,0.0,0.4187299013137817,0.980858325958252
0.0328381545841693,-0.0018604063661769,-0.1321293413639068,-0.0566045269370079,0.0054854340851306,0.5603102445602417,1.0,0.0,0.3206735849380493,0.995436191558838
0.031837273389101,-0.0024782801046967,-0.1059946864843368,-0.0275194235146045,0.0112193971872329,0.1145657673478126,1.0,1.0,-0.5201190114021301,0.9728293418884276
0.0309038162231445,-0.002723290817812,-0.0894631594419479,-0.0109830070286989,0.0069628772325813,-0.0856624394655227,1.0,1.0,-0.394426167011261,0.981753706932068
0.0301179885864257,-0.002507283585146,-0.0723427012562751,0.0096106203272938,0.0008076478843577,-0.1231031417846679,1.0,1.0,-0.9342923760414124,0.9911925792694092
0.0295446403324604,-0.0018190646078437,-0.0535111799836158,0.0305843278765678,-0.0029728242661803,-0.0756146535277366,1.0,1.0,-0.9327556490898132,0.9810936450958252
0.0292075164616107,-0.0010652208002284,-0.0394638814032077,0.0335064977407455,0.0026934170164167,0.1133198142051696,1.0,1.0,-0.4978364706039428,0.9970567226409912
0.0289488788694143,-0.0008699917816556,-0.0274131298065185,0.0086686583235859,0.0042094234377145,0.0303095486015081,1.0,1.0,-0.8186179399490356,0.9606051445007324
0.0288189891725778,-0.0008722806232981,-0.0130024803802371,-0.0001048678532242,0.0042122947052121,4.807563163922168e-05,1.0,1.0,-0.8781998753547668,0.3165184259414673
0.0287425033748149,-0.0008736395975574,-0.0076678381301462,-6.324003334157169e-05,0.0042141443118453,2.8954649678780697e-05,1.0,1.0,-0.7869566082954407,-0.1828275918960571
0.0287193302065134,-0.0008736395975574,-0.0023282296024262,-1.4878791887440457e-07,0.004214433953166,4.263291231154653e-08,1.0,1.0,-0.7444207668304443,0.0523182153701782
