x_pos,y_pos,x_vel,y_vel,angle,ang_vel,leg_1,leg_2,main_booster,lat_booster
-0.0015593528514727,1.4032374620437622,-0.1580657958984375,-0.3414444923400879,0.001903549185954,0.037559799849987,0.0,0.0,-0.459547758102417,0.2014602422714233
-0.00315523147583,1.3951914310455322,-0.1615761071443557,-0.3576108813285827,0.0038714718539267,0.0393631234765052,0.0,0.0,0.1401509046554565,0.8734750747680664
-0.0046126367524266,1.387170672416687,-0.1461709439754486,-0.3564740121364593,0.0042891968041658,0.0083552338182926,0.0,0.0,-0.0577225685119628,0.6285464763641357
-0.0060672760009765,1.3787611722946167,-0.1449949592351913,-0.3737521469593048,0.0038316487334668,-0.009151809848845,0.0,0.0,0.1227084398269653,0.7879068851470947
-0.0073976516723632,1.3706331253051758,-0.1312174350023269,-0.3612468838691711,0.0020289693493396,-0.036056812852621,0.0,0.0,0.0861176252365112,0.2355639934539795
-0.0086757661774754,1.3626538515090942,-0.1265535354614257,-0.3546318709850311,0.0007897356408648,-0.0247871372848749,0.0,0.0,-0.1727862358093261,0.7583751678466797
-0.009933853521943,1.35428786277771,-0.1232237070798873,-0.3718238472938537,-0.0017589951166883,-0.0509794168174266,0.0,0.0,-0.3365920782089233,0.876183032989502
-0.0111432075500488,1.345537543296814,-0.1163241118192672,-0.3889151811599731,-0.0063305697403848,-0.0914401113986969,0.0,0.0,0.2675797939300537,-0.0600913763046264
-0.0123954769223928,1.3373637199401855,-0.1207090765237808,-0.3633048832416534,-0.0108005106449127,-0.0894069448113441,0.0,0.0,-0.5908619165420532,0.3727576732635498
-0.01368551235646,1.3288030624389648,-0.1246394664049148,-0.3805080056190491,-0.0151218110695481,-0.0864336043596267,0.0,0.0,0.1784648895263672,0.3124803304672241
-0.0149456020444631,1.3204905986785889,-0.122090958058834,-0.3694925308227539,-0.018998809158802,-0.0775467306375503,0.0,0.0,-0.3795984983444214,0.3441447019577026
-0.0162437446415424,1.3117910623550415,-0.1260559558868408,-0.3866926729679107,-0.0227196961641311,-0.0744243636727333,0.0,0.0,0.2889071702957153,0.167728304862976
-0.0174659732729196,1.30351984500885,-0.1191167086362838,-0.3676609396934509,-0.0258003324270248,-0.0616179928183555,0.0,0.0,-0.732524573802948,0.5005607604980469
-0.0186826698482036,1.2948553562164309,-0.1176015138626098,-0.3851641416549682,-0.0298253204673528,-0.0805069580674171,0.0,0.0,-0.600079357624054,0.2796683311462402
-0.0199376102536916,1.285804271697998,-0.1216041594743728,-0.4023560583591461,-0.033683493733406,-0.0771703124046325,0.0,0.0,-0.3100131750106811,0.5737524032592773
-0.0211777687072753,1.2763569355010986,-0.1189244240522384,-0.4200013279914856,-0.0387193001806736,-0.1007249355316162,0.0,0.0,-0.5396420955657959,0.607394814491272
-0.022397231310606,1.2665269374847412,-0.1155415773391723,-0.4370736479759216,-0.0450629219412803,-0.126883789896965,0.0,0.0,-0.6233898997306824,-0.0147929787635803
-0.0236552245914936,1.256310224533081,-0.1195659413933754,-0.4542707800865173,-0.0512312576174736,-0.1233779788017273,0.0,0.0,-0.8002033233642578,0.3085076808929443
-0.0249516479671001,1.2457072734832764,-0.1235982626676559,-0.4714678823947906,-0.0572224743664264,-0.1198350936174392,0.0,0.0,0.0266480445861816,0.0488306283950805
-0.0263166427612304,1.235248565673828,-0.1303928792476654,-0.4650740921497345,-0.063268169760704,-0.1209248900413513,0.0,0.0,0.2538166046142578,-0.5627728700637817
-0.0276222229003906,1.2252557277679443,-0.1259929239749908,-0.4443317949771881,-0.0677969232201576,-0.0905830934643745,0.0,0.0,-0.4916567802429199,0.7438571453094482
-0.028907012194395,1.2148656845092771,-0.1225620657205581,-0.462058424949646,-0.0736521482467651,-0.1171153038740158,0.0,0.0,-0.6254943609237671,0.7838211059570312
-0.0301552768796682,1.2040798664093018,-0.1171933636069297,-0.4797637164592743,-0.0812166854739189,-0.1513043940067291,0.0,0.0,-0.942537486553192,-0.0072916150093078
-0.0314420685172081,1.1929075717926023,-0.1212442070245742,-0.4969626665115356,-0.0885924696922302,-0.1475289613008499,0.0,0.0,-0.3612164258956909,-0.1481614708900451
-0.0327673926949501,1.1813488006591797,-0.1252977848052978,-0.5141615271568298,-0.0957786068320274,-0.1437355577945709,0.0,0.0,0.7074365615844727,-0.9583736062049866
-0.034306526184082,1.170508861541748,-0.1485539376735687,-0.4821277856826782,-0.1010961458086967,-0.1063505187630653,0.0,0.0,0.5313963890075684,-0.1171729564666748
-0.0358129516243934,1.160286545753479,-0.1454954147338867,-0.4546819925308227,-0.1062054187059402,-0.1021854653954505,0.0,0.0,0.1458295583724975,-0.2436873912811279
-0.0373875610530376,1.1505458354949951,-0.1520901620388031,-0.4333209693431854,-0.1115408688783645,-0.1067091673612594,0.0,0.0,-0.5904098153114319,0.6704062223434448
-0.0389592163264751,1.1404167413711548,-0.1509392261505127,-0.4506561458110809,-0.1177276149392128,-0.1237349137663841,0.0,0.0,-0.6102086901664734,0.3904255628585815
-0.0405695922672748,1.1299011707305908,-0.1550093591213226,-0.4678497612476349,-0.123719111084938,-0.1198299080133438,0.0,0.0,0.3330426216125488,0.2012569904327392
-0.0421192161738872,1.1200127601623535,-0.1492161899805069,-0.4399686157703399,-0.1294446140527725,-0.114510104060173,0.0,0.0,-0.192040205001831,0.8751659393310547
-0.0436482429504394,1.109721302986145,-0.1458174288272857,-0.458037793636322,-0.1364976316690445,-0.1410601437091827,0.0,0.0,0.4260950088500976,0.9587223529815674
-0.0451265349984169,1.1000818014144895,-0.1389670372009277,-0.4292638897895813,-0.1453312784433365,-0.1766734421253204,0.0,0.0,-0.8663663864135742,0.2849931716918945
-0.046643353998661,1.0900559425354004,-0.1430196911096573,-0.4464602172374725,-0.1539663672447204,-0.1727018058300018,0.0,0.0,-0.8944372534751892,0.4808785915374756
-0.0481984131038188,1.079643726348877,-0.1470656245946884,-0.4636561274528503,-0.1624022424221038,-0.1687173992395401,0.0,0.0,-0.4677790999412536,0.8767590522766113
-0.049720574170351,1.0688347816467283,-0.1421810090541839,-0.4815302491188049,-0.1724431216716766,-0.2008174955844879,0.0,0.0,-0.8342734575271606,0.526451587677002
-0.0512418746948242,1.0576270818710327,-0.1413154453039169,-0.4994179904460907,-0.1832943707704544,-0.2170252501964569,0.0,0.0,-0.8613708019256592,0.1230896711349487
-0.0528013221919536,1.046033501625061,-0.145336702466011,-0.516616940498352,-0.1939448416233062,-0.2130093872547149,0.0,0.0,-0.0834910869598388,-0.0636494755744934
-0.0543985366821289,1.0340540409088137,-0.1493473798036575,-0.533815324306488,-0.20439413189888,-0.2089858502149582,0.0,0.0,0.2586618661880493,-0.6009630560874939
-0.0559626594185829,1.0223766565322876,-0.1474956721067428,-0.520257294178009,-0.2133904695510864,-0.1799271553754806,0.0,0.0,-0.440737247467041,-0.2863868474960327
-0.0575646385550498,1.0103129148483276,-0.1514812409877777,-0.5374525785446167,-0.2221850454807281,-0.1758919358253479,0.0,0.0,0.1108953952789306,-0.7340192198753357
-0.0590906143188476,0.9983636736869812,-0.1456574499607086,-0.5321403741836548,-0.2292197346687317,-0.1406939327716827,0.0,0.0,-0.3678325414657593,-0.891231894493103
-0.0607131011784076,0.9860379695892334,-0.1569913476705551,-0.5486348271369934,-0.2345536053180694,-0.1066778302192688,0.0,0.0,-0.76475590467453,-0.7869216799736023
-0.0624237060546875,0.9733416438102722,-0.1673035323619842,-0.5648839473724365,-0.2383610606193542,-0.0761491507291793,0.0,0.0,0.878706693649292,-0.847927451133728
-0.0642082244157791,0.960777997970581,-0.1764906346797943,-0.5587052702903748,-0.2403618544340133,-0.0400156639516353,0.0,0.0,-0.9391169548034668,-0.173764944076538
-0.0660298317670822,0.9478268623352052,-0.1803912222385406,-0.575893759727478,-0.2421601563692093,-0.0359658896923065,0.0,0.0,0.6635243892669678,-0.1360524296760559
-0.0677206963300705,0.9351216554641724,-0.1677954196929931,-0.5648956894874573,-0.2434718012809753,-0.0262335147708654,0.0,0.0,-0.9725520014762878,-0.0755361318588256
-0.0694480910897255,0.9220287203788756,-0.171652615070343,-0.582084059715271,-0.2445809543132782,-0.0221830774098634,0.0,0.0,-0.5466225147247314,-0.57166588306427
-0.0712643638253212,0.9085733294487,-0.1821278482675552,-0.5979360342025757,-0.2440746575593948,0.0101258475333452,0.0,0.0,-0.5133323073387146,-0.1675710678100586
-0.0731167793273925,0.8947304487228394,-0.1859348565340042,-0.6151243448257446,-0.243366003036499,0.0141733046621084,0.0,0.0,-0.863728940486908,-0.4124590158462524
-0.0750049576163292,0.8805001378059387,-0.1897139996290207,-0.6323125958442688,-0.2424550950527191,0.018218208104372,0.0,0.0,-0.924898326396942,0.0579249858856201
-0.0769286155700683,0.865882158279419,-0.1934632807970047,-0.6495009064674377,-0.2413421273231506,0.0222593583166599,0.0,0.0,-0.5935769081115723,-0.5179130434989929
-0.0789204612374305,0.8508862853050232,-0.2013147622346878,-0.666143000125885,-0.2391741126775741,0.0433601662516593,0.0,0.0,-0.8981149792671204,0.0179221630096435
-0.0809471160173416,0.8355026841163635,-0.2049979716539383,-0.6833317279815674,-0.2368045449256897,0.0473912470042705,0.0,0.0,-0.966158092021942,-0.3850419521331787
-0.0830081924796104,0.8197320103645325,-0.2086446285247802,-0.7005205154418945,-0.2342337518930435,0.0514158122241497,0.0,0.0,0.3028546571731567,-0.4221808910369873
-0.0850904434919357,0.80414217710495,-0.2106127738952636,-0.6925027370452881,-0.2318107187747955,0.0484610870480537,0.0,0.0,-0.5332571864128113,-0.3896846771240234
-0.0872063636779785,0.7881649136543274,-0.2141788899898529,-0.70969158411026,-0.2291872650384903,0.0524694919586181,0.0,0.0,-0.8450429439544678,-0.7360625267028809
-0.0893985778093338,0.7718185782432556,-0.2231438606977462,-0.725897490978241,-0.2252178639173507,0.079388178884983,0.0,0.0,-0.4083110094070434,0.1852242946624755
-0.0916235893964767,0.7550850510597229,-0.2266189306974411,-0.7430874109268188,-0.2210490703582763,0.0833759382367134,0.0,0.0,-0.0970861315727233,0.2861700057983398
-0.0938808470964431,0.7379645705223083,-0.2300439327955246,-0.7602773904800415,-0.2166815102100372,0.0873516276478767,0.0,0.0,0.6759113073348999,-0.365548312664032
-0.0960383415222168,0.7209902405738831,-0.2205048501491546,-0.7537201046943665,-0.2118756026029586,0.0961178094148635,0.0,0.0,0.6855535507202148,0.4766135215759277
-0.0981764793395996,0.7047106027603149,-0.2183023244142532,-0.7229031324386597,-0.2073455899953842,0.0906001403927803,0.0,0.0,0.5204734802246094,-0.0142492651939392
-0.1001359969377517,0.6887074708938599,-0.2011565715074539,-0.7105299234390259,-0.2020932286977768,0.1050475686788559,0.0,0.0,0.6175426244735718,0.1155841350555419
-0.1019823104143142,0.6731922626495361,-0.1901481598615646,-0.6888223886489868,-0.1965384632349014,0.1110955476760864,0.0,0.0,-0.0954169631004333,0.5031037330627441
-0.1038188934326171,0.6572745442390442,-0.1883590072393417,-0.7068352103233337,-0.1918151974678039,0.0944649875164032,0.0,0.0,0.0273114442825317,0.3534133434295654
-0.1056897193193435,0.6415330767631531,-0.1916109472513198,-0.6990431547164917,-0.1872543394565582,0.0912171453237533,0.0,0.0,-0.0660827159881591,0.3011976480484009
-0.1075882911682128,0.6254044771194458,-0.1945942640304565,-0.7162341475486755,-0.1825009286403656,0.0950683206319809,0.0,0.0,0.9112157821655272,0.5049614906311035
-0.1093153953552246,0.6093437671661377,-0.1769272238016128,-0.7132947444915771,-0.1782718300819397,0.0845822840929031,0.0,0.0,0.6619217395782471,0.7555153369903564
-0.1108273491263389,0.5941484570503235,-0.1541518867015838,-0.6749947667121887,-0.1753043979406356,0.0593487508594989,0.0,0.0,0.2392244338989257,-0.4108269214630127
-0.1123723983764648,0.5791088342666626,-0.1573234945535659,-0.6680954098701477,-0.1724749207496643,0.056589525192976,0.0,0.0,0.3463481664657593,0.0084258317947387
-0.113920971751213,0.5645167231559753,-0.1575301736593246,-0.6482293009757996,-0.1698046028614044,0.0534064248204231,0.0,0.0,-0.4743090867996216,0.647270679473877
-0.1154402717947959,0.5495250821113586,-0.1534165441989898,-0.6661273241043091,-0.1683112978935241,0.0298659447580575,0.0,0.0,0.2494096755981445,0.1297242641448974
-0.1169713959097862,0.5351150631904602,-0.1543338149785995,-0.6403042078018188,-0.1670850962400436,0.0245241727679967,0.0,0.0,0.2438265085220337,0.1275626420974731
-0.1183974295854568,0.5209472179412842,-0.1442675143480301,-0.6294986605644226,-0.1654213219881057,0.0332750491797924,0.0,0.0,-0.0309721827507019,0.4725394248962402
-0.11984433978796,0.5063921213150024,-0.1465296447277069,-0.6466887593269348,-0.1635779291391372,0.0368677489459514,0.0,0.0,0.8388252258300781,0.5421000719070435
-0.1211310401558876,0.4919495582580566,-0.1298251450061798,-0.6417663097381592,-0.1624184846878051,0.0231888480484485,0.0,0.0,0.6303097009658813,0.7019820213317871
-0.1223619431257247,0.4776034355163574,-0.1229440197348594,-0.6376194357872009,-0.1625640988349914,-0.0029123187996447,0.0,0.0,0.5590825080871582,-0.2810139656066894
-0.1234971061348915,0.4639800488948822,-0.1135046929121017,-0.6054850816726685,-0.1625736951828003,-0.0001917866466101,0.0,0.0,0.0910565853118896,0.6843914985656738
-0.1244481056928634,0.4507458806037903,-0.093959555029869,-0.5883082747459412,-0.1637175381183624,-0.0228768847882747,0.0,0.0,0.7737283706665039,0.8777384757995605
-0.1253335922956466,0.4384477138519287,-0.0855941921472549,-0.5469177961349487,-0.1666767448186874,-0.0591842643916606,0.0,0.0,0.0947567224502563,0.5533765554428101
-0.1262482702732086,0.4260942339897156,-0.087402231991291,-0.5495030879974365,-0.1707422733306884,-0.0813106968998909,0.0,0.0,0.1901338100433349,-0.5684502124786377
-0.1270911246538162,0.4142037630081177,-0.0815913677215576,-0.5287786722183228,-0.1734469830989837,-0.0540942922234535,0.0,0.0,-0.0785430073738098,-0.4682759046554565
-0.1279458105564117,0.4019261598587036,-0.0829311162233352,-0.5459692478179932,-0.1759945452213287,-0.050951100885868,0.0,0.0,0.0583254098892211,-0.6181901693344116
-0.128821849822998,0.3899284601211548,-0.0864029675722122,-0.5333744883537292,-0.1771974265575409,-0.0240574944764375,0.0,0.0,0.652381420135498,-0.6437951922416687
-0.1296463906764984,0.3785963058471679,-0.0826655924320221,-0.5036261081695557,-0.1769877672195434,0.0041931765154004,0.0,0.0,0.4376524686813354,0.9031593799591064
-0.1302349120378494,0.367583155632019,-0.0574850365519523,-0.4896393120288849,-0.1783546358346939,-0.0273373518139123,0.0,0.0,0.3939211368560791,-0.0094225406646728
-0.13075952231884,0.3566037714481354,-0.0513231083750724,-0.4881069958209991,-0.1794881522655487,-0.022670617327094,0.0,0.0,0.5763765573501587,-0.5460317730903625
-0.1311704665422439,0.345786452293396,-0.0414359085261821,-0.4807299375534057,-0.1791524738073349,0.0067136795260012,0.0,0.0,0.7429590225219727,-0.1313615441322326
-0.1313260048627853,0.335429698228836,-0.016728376969695,-0.4601582586765289,-0.1779678016901016,0.0236937515437603,0.0,0.0,-0.1675707101821899,-0.4561700820922851
-0.1314848959445953,0.3246858417987823,-0.0171908531337976,-0.4773487746715545,-0.1766574531793594,0.0262070801109075,0.0,0.0,0.6108995676040649,-0.5829693675041199
-0.1315677613019943,0.3146544694900512,-0.0108764255419373,-0.4455333650112152,-0.1740704029798507,0.0517410710453987,0.0,0.0,0.5762569904327393,-0.3920763731002807
-0.1314972937107086,0.3052976131439209,0.004214541055262,-0.4155313074588775,-0.1712328791618347,0.0567505732178688,0.0,0.0,-0.4149264097213745,-0.1507919430732727
-0.1314267218112945,0.2955537736415863,0.0041181957349181,-0.4327227175235748,-0.1682877540588379,0.0589025914669036,0.0,0.0,0.2747434377670288,-0.5765141248703003
-0.131273940205574,0.285779595375061,0.0109055917710065,-0.4339220821857452,-0.1639239341020584,0.0872763618826866,0.0,0.0,0.5610826015472412,-0.5031911134719849
-0.1311322152614593,0.2763520181179046,0.0088527388870716,-0.4184238016605377,-0.158601239323616,0.106453999876976,0.0,0.0,-0.4832692742347717,0.2744088172912597
-0.1309870779514312,0.2665379047393799,0.0091045061126351,-0.4356172978878021,-0.1531921327114105,0.1081824898719787,0.0,0.0,0.1557128429412841,0.6558712720870972
-0.1307435929775238,0.2569193840026855,0.0201932415366172,-0.4270690977573395,-0.149041399359703,0.0830142349004745,0.0,0.0,0.1298213005065918,-0.2238698601722717
-0.1304980218410492,0.2477399855852127,0.0207232143729925,-0.4075937569141388,-0.145213782787323,0.0765523165464401,0.0,0.0,-0.4577105045318603,0.1190422773361206
-0.1302460730075836,0.2381738722324371,0.0212996825575828,-0.4247864782810211,-0.141323983669281,0.077795922756195,0.0,0.0,0.008743405342102,-0.0781779885292053
-0.129954531788826,0.2289081662893295,0.025347501039505,-0.411451905965805,-0.137531965970993,0.0758402347564697,0.0,0.0,-0.2605034112930298,0.4341486692428589
-0.1296547949314117,0.2192557156085968,0.0261245463043451,-0.4286448359489441,-0.1336954832077026,0.0767294839024543,0.0,0.0,0.2151596546173095,0.2238820791244506
-0.1293151825666427,0.2097648531198501,0.0301519986242055,-0.421483427286148,-0.1299084424972534,0.075740709900856,0.0,0.0,0.5517146587371826,0.105094313621521
-0.1290012300014495,0.2007486224174499,0.0280792117118835,-0.4004355370998382,-0.1266025155782699,0.0661180764436721,0.0,0.0,0.0400904417037963,-0.6234930157661438
-0.1287900954484939,0.1918645650148391,0.0166501644998788,-0.3944733738899231,-0.1221632361412048,0.0887856855988502,0.0,0.0,-0.3663874268531799,0.3335275650024414
-0.1285675019025802,0.1825940012931823,0.0177867505699396,-0.4116671979427337,-0.1177176460623741,0.0889118164777755,0.0,0.0,0.2645840644836426,0.358943223953247
-0.1282528936862945,0.1733493208885193,0.0267668254673481,-0.4105137586593628,-0.1130584254860878,0.093184545636177,0.0,0.0,0.5241818428039551,0.4411301612854004
-0.1277132034301757,0.1647445112466812,0.0486778877675533,-0.382044643163681,-0.1077936813235282,0.1052947416901588,0.0,0.0,0.2278752326965332,-0.1487046480178833
-0.1271146833896637,0.1566160470247268,0.0546417832374572,-0.3608969151973724,-0.1026310250163078,0.1032532304525375,0.0,0.0,0.1537946462631225,0.0311628580093383
-0.1263419091701507,0.1489764004945755,0.0716439336538314,-0.3391661643981933,-0.0970406457781791,0.111807607114315,0.0,0.0,-0.3100115060806274,-0.6618074774742126
-0.125600054860115,0.1409571766853332,0.0674370676279068,-0.3559881746768951,-0.0903410464525222,0.1339916586875915,0.0,0.0,0.1147722005844116,0.5602023601531982
-0.1247540488839149,0.1333749592304229,0.0790224149823188,-0.3366612493991852,-0.0848177447915077,0.1104660257697105,0.0,0.0,0.0161892175674438,-0.7836323976516724
-0.1238693222403526,0.1261397898197174,0.0813652575016021,-0.3211784660816192,-0.0777776837348938,0.1408013105392456,0.0,0.0,-0.1961709856986999,0.94075345993042
-0.1228845566511154,0.1185037195682525,0.0935836285352706,-0.3391318321228027,-0.0729343146085739,0.0968675091862678,0.0,0.0,0.0576391220092773,-0.3921579122543335
-0.1219324097037315,0.1110819429159164,0.0907612964510917,-0.3296462297439575,-0.0685328468680381,0.0880291908979415,0.0,0.0,0.3656654357910156,-0.2983238101005554
-0.1210400611162185,0.1039213016629219,0.0853713676333427,-0.3180784881114959,-0.0647103786468505,0.0764494761824607,0.0,0.0,-0.0559728741645813,0.1760684251785278
-0.1201303452253341,0.0963740646839141,0.0872018784284591,-0.3352724909782409,-0.0609841719269752,0.0745240449905395,0.0,0.0,0.7146925926208496,0.4559314250946045
-0.1191423386335372,0.0892667844891548,0.0950150489807128,-0.3157297074794769,-0.0572373569011688,0.0749363154172897,0.0,0.0,0.3197958469390869,-0.433736503124237
-0.118015669286251,0.0821941941976547,0.1084993109107017,-0.3141835927963257,-0.0531193502247333,0.0823601558804512,0.0,0.0,0.6923091411590576,0.1746648550033569
-0.1167338341474533,0.0757762789726257,0.1236717477440834,-0.2850870788097381,-0.0486578792333602,0.0892293080687522,0.0,0.0,0.2376558780670166,0.6376152038574219
-0.1153326034545898,0.0698780640959739,0.1369891613721847,-0.2620445191860199,-0.0455549992620945,0.0620573535561561,0.0,0.0,0.4493649005889892,0.3534142971038818
