x_pos,y_pos,x_vel,y_vel,angle,ang_vel,leg_1,leg_2,main_booster,lat_booster
-0.0015015602111816,1.4033669233322144,-0.1522557139396667,-0.3356997370719909,0.0018723208922892,0.0369418337941169,0.0,0.0,-0.1264920830726623,0.5969498157501221
-0.0029314993880689,1.3955764770507812,-0.14365816116333,-0.3462423384189605,0.0025322923902422,0.0132010523229837,0.0,0.0,0.1483380794525146,0.7842977046966553
-0.0041741370223462,1.387944221496582,-0.1235877647995948,-0.3392167687416076,0.0018625138327479,-0.0133966375142335,0.0,0.0,-0.4817763566970825,0.2747722864151001
-0.0053980825468897,1.380053997039795,-0.1218372583389282,-0.3506729006767273,0.0013135613407939,-0.0109804198145866,0.0,0.0,-0.2944058179855346,0.3795537948608398
-0.0066044805571436,1.371906280517578,-0.1202043890953064,-0.3621207773685455,0.0008866761345416,-0.0085383336991071,0.0,0.0,-0.190395712852478,0.1042344570159912
-0.0077943801879882,1.3635010719299316,-0.1186872571706771,-0.3735689222812652,0.0005838534561917,-0.00605697510764,0.0,0.0,-0.341341495513916,0.2789016962051391
-0.0089690210297703,1.3548381328582764,-0.117284394800663,-0.385017842054367,0.0004067286499775,-0.0035429142881184,0.0,0.0,0.0332275629043579,0.7365729808807373
-0.0099637983366847,1.346526861190796,-0.0980385616421699,-0.369392991065979,-0.0010174456983804,-0.0284860488027334,0.0,0.0,-0.3930111527442932,0.3917875289916992
-0.0109455110505223,1.3379578590393066,-0.0968533605337143,-0.3808473646640777,-0.0023123226128518,-0.0258998814970254,0.0,0.0,-0.5890588164329529,0.244016408920288
-0.0119150159880518,1.3291311264038086,-0.0957759618759155,-0.3922948241233825,-0.0034772106446325,-0.0232999753206968,0.0,0.0,-0.6142719388008118,0.5809154510498047
-0.0128212925046682,1.3200472593307495,-0.0882403329014778,-0.4037408828735351,-0.0058261868543922,-0.0469839796423912,0.0,0.0,-0.7055842876434326,0.0029122829437255
-0.013717365451157,1.310705542564392,-0.0873656645417213,-0.4151903390884399,-0.0080416994169354,-0.0443146452307701,0.0,0.0,-0.9040122032165528,0.1288349628448486
-0.0146043775603175,1.3011064529418943,-0.086590364575386,-0.4266398251056671,-0.0101234838366508,-0.0416396595537662,0.0,0.0,-0.8329649567604065,0.533510684967041
-0.0154362674802541,1.2912441492080688,-0.0800315961241722,-0.4383499324321747,-0.0132494485005736,-0.0625252872705459,0.0,0.0,-0.66359543800354,0.1895817518234253
-0.0162609107792377,1.281124472618103,-0.0794411450624466,-0.4497998356819153,-0.0162386335432529,-0.0597890801727771,0.0,0.0,-0.9362139701843262,-0.6544631719589233
-0.0171215049922466,1.2707403898239136,-0.0842488631606102,-0.4615337550640106,-0.018028849735856,-0.035807330161333,0.0,0.0,-0.9228148460388184,0.0734856128692627
-0.0179766658693552,1.2600986957550049,-0.0838366672396659,-0.4729833304882049,-0.0196814872324466,-0.0330558493733406,0.0,0.0,-0.8168714046478271,-0.7813743352890015
-0.0188742633908987,1.2491941452026367,-0.0894245207309722,-0.4846503436565399,-0.0200109388679265,-0.0065899640321731,0.0,0.0,-0.7623009085655212,0.0793651342391967
-0.0197679512202739,1.2380318641662598,-0.0891755372285842,-0.496099442243576,-0.0202013999223709,-0.0038097356446087,0.0,0.0,-0.6573082804679871,-0.3286250829696655
-0.0206583980470895,1.2266120910644531,-0.08900036662817,-0.5075486898422241,-0.0202513672411441,-0.0009991475380957,0.0,0.0,-0.5263596177101135,0.415385365486145
-0.0215463638305664,1.2149347066879272,-0.0888952389359474,-0.5189979076385498,-0.0201602969318628,0.0018216728931292,0.0,0.0,0.1869597434997558,0.2974332571029663
-0.0224178321659564,1.2034761905670166,-0.0874123349785804,-0.5092697739601135,-0.0198883842676877,0.0054384833201766,0.0,0.0,-0.6338915228843689,0.4499666690826416
-0.0232879631221294,1.191759705543518,-0.087435096502304,-0.5207226276397705,-0.0194742772728204,0.0082829846069216,0.0,0.0,-0.886216938495636,0.2946392297744751
-0.0241574291139841,1.1797857284545898,-0.0875153020024299,-0.532170832157135,-0.0189173370599746,0.011139640584588,0.0,0.0,-0.7646977305412292,0.3215686082839966
-0.0250268932431936,1.1675540208816528,-0.0876488164067268,-0.5436184406280518,-0.0182170756161212,0.0140065755695104,0.0,0.0,-0.858153223991394,0.5870720148086548
-0.025861645117402,1.155045509338379,-0.0834351927042007,-0.5559366345405579,-0.0182576365768909,-0.000811344187241,0.0,0.0,-0.8293119072914124,0.0164108276367187
-0.0266971588134765,1.1422792673110962,-0.083659715950489,-0.5673837065696716,-0.0181537996977567,0.0020767808891832,0.0,0.0,-0.2148500680923462,-0.4344078302383423
-0.0275339130312204,1.1292556524276731,-0.0839239284396171,-0.578830897808075,-0.0179051402956247,0.0049731712788343,0.0,0.0,-0.6040018796920776,0.6901180744171143
-0.0283292774111032,1.115978717803955,-0.0788496658205986,-0.5900887846946716,-0.01858601719141,-0.0136175351217389,0.0,0.0,-0.7250264286994934,-0.8017832636833191
-0.0291922576725482,1.1024432182312012,-0.0874211564660072,-0.6015681624412537,-0.0174714922904968,0.0222902260720729,0.0,0.0,-0.8444427251815796,-0.0417695045471191
-0.0300572402775287,1.088650107383728,-0.0877781435847282,-0.6130154728889465,-0.0162112023681402,0.0252056512981653,0.0,0.0,-0.9281916618347168,0.7716529369354248
-0.0308714862912893,1.0745936632156372,-0.08149054646492,-0.6247349381446838,-0.0161415301263332,0.0013935531023889,0.0,0.0,-0.8730279207229614,-0.2068418264389038
-0.0316882133483886,1.060279369354248,-0.0818874686956405,-0.6361820697784424,-0.0159256421029567,0.0043174838647246,0.0,0.0,-0.9431522488594056,-0.3991111516952514
-0.0325075164437294,1.0457077026367188,-0.0822978168725967,-0.6476292014122009,-0.015563421882689,0.0072441757656633,0.0,0.0,-0.8031477332115173,-0.1565701961517334
-0.0333295837044715,1.0308783054351809,-0.0827172547578811,-0.6590763926506042,-0.015054783783853,0.0101726856082677,0.0,0.0,-0.769298791885376,-0.4263373613357544
-0.0341544151306152,1.015791416168213,-0.083141453564167,-0.6705235242843628,-0.014399672858417,0.0131021840497851,0.0,0.0,-0.830376386642456,0.5294935703277588
-0.0349418632686138,1.0004433393478394,-0.0785406306385994,-0.6821394562721252,-0.0146053377538919,-0.0041132704354822,0.0,0.0,-0.4307056665420532,-0.8159231543540955
-0.0357925407588481,0.9848453402519226,-0.0865439027547836,-0.6932336688041687,-0.0131442965939641,0.0292209032922983,0.0,0.0,-0.3228673934936523,0.4563592672348022
-0.0366458892822265,0.9689897298812866,-0.0869568586349487,-0.7046810388565063,-0.0115369092673063,0.0321480520069599,0.0,0.0,-0.0397360324859619,0.5602080821990967
-0.037455178797245,0.9528764486312866,-0.0815337225794792,-0.7161415219306946,-0.0109495883807539,0.0117463776841759,0.0,0.0,-0.7502205967903137,0.1536400318145752
-0.0382669456303119,0.9365054965019226,-0.08191829174757,-0.7275887131690979,-0.0102162128314375,0.0146675873547792,0.0,0.0,0.2421960830688476,-0.0211109519004821
-0.0389840118587017,0.9204660654067992,-0.073034681379795,-0.712857186794281,-0.0089077167212963,0.0261697582900524,0.0,0.0,0.2336668968200683,-0.4657930731773376
-0.0396284088492393,0.904519259929657,-0.066250666975975,-0.7087342739105225,-0.007118044886738,0.0357933863997459,0.0,0.0,-0.7584559917449951,0.3283188343048095
-0.0402745231986045,0.8883150219917297,-0.0665623918175697,-0.7201817035675049,-0.0051830634474754,0.0386992320418357,0.0,0.0,-0.0823317170143127,0.4788516759872436
-0.0409218780696392,0.8718532919883728,-0.0668420046567916,-0.7316293716430664,-0.0031031647231429,0.041598230600357,0.0,0.0,-0.31060791015625,0.6799829006195068
-0.0415122993290424,0.8551267385482788,-0.0598201230168342,-0.7434002161026001,-0.0023341081105172,0.0153810027986764,0.0,0.0,-0.1236753463745117,-0.635948896408081
-0.0421484932303428,0.8381394147872925,-0.0656995773315429,-0.7549934387207031,-0.0002845005947165,0.0409922376275062,0.0,0.0,-0.1315828561782837,0.617751955986023
-0.0427451133728027,0.8209010362625122,-0.0608709827065467,-0.7661470770835876,0.0009095735731534,0.0238812211900949,0.0,0.0,0.6916249990463257,-0.3505767583847046
-0.0434780120849609,0.8046154975891113,-0.0740038752555847,-0.7238036394119263,0.001618318259716,0.0141748683527112,0.0,0.0,-0.326208233833313,0.0277132987976074
-0.0442101471126079,0.7880723476409912,-0.0740679204463958,-0.7352510094642639,0.002469633007422,0.0170259494334459,0.0,0.0,-0.666637122631073,-0.488798439502716
-0.0449408516287803,0.7712715864181519,-0.0740785151720047,-0.7466983795166016,0.0034628608264029,0.0198645703494548,0.0,0.0,0.2062751054763794,0.1856203079223632
-0.0457135215401649,0.7550200819969177,-0.0782239288091659,-0.7222962975502014,0.0044028391130268,0.0187996309250593,0.0,0.0,-0.6480575799942017,-0.1467669010162353
-0.0464838035404682,0.7385108470916748,-0.0781181305646896,-0.7337436676025391,0.0054833721369504,0.0216105096042156,0.0,0.0,-0.5313377976417542,0.8050580024719238
-0.0471868515014648,0.7217521071434021,-0.0699158459901809,-0.7448316812515259,0.0050940597429871,-0.0077862041071057,0.0,0.0,-0.4315953254699707,-0.1327714323997497
-0.0478861816227436,0.7047359347343445,-0.0696818232536315,-0.7562791109085083,0.0048436853103339,-0.0050074122846126,0.0,0.0,0.1662992238998413,0.1141601800918579
-0.0486502647399902,0.6879605650901794,-0.0759688466787338,-0.7455719113349915,0.0044193407520651,-0.008487107232213,0.0,0.0,0.1807281970977783,0.1702421903610229
-0.0493443496525287,0.6717824935913086,-0.0694414973258972,-0.7190285325050354,0.0044428603723645,0.000470682804007,0.0,0.0,-0.5883423686027527,0.144858717918396
-0.0500327125191688,0.6553468108177185,-0.0689954385161399,-0.7304759621620178,0.0046025160700082,0.0031930946279317,0.0,0.0,0.2663079500198364,0.8503262996673584
-0.0505845062434673,0.6396097540855408,-0.0538152530789375,-0.6994179487228394,0.0032611915376037,-0.0268265157938003,0.0,0.0,-0.0448232889175415,0.5901961326599121
-0.0510880462825298,0.6236206293106079,-0.0480981916189193,-0.710625410079956,0.0010284797754138,-0.0446541607379913,0.0,0.0,-0.4668532013893127,0.4611091613769531
-0.0515834800899028,0.6073740124702454,-0.047420147806406,-0.7220732569694519,-0.0010715168900787,-0.041999764740467,0.0,0.0,-0.2324286699295044,0.4262157678604126
-0.0520700439810752,0.5908697843551636,-0.0466611161828041,-0.7335209250450134,-0.0030400608666241,-0.0393709577620029,0.0,0.0,0.3553653955459595,0.2719020843505859
-0.0524441711604595,0.5747440457344055,-0.0360314771533012,-0.7167033553123474,-0.0044098296202719,-0.0273952726274728,0.0,0.0,0.1733173131942749,0.7413015365600586
-0.0527282729744911,0.5590143799781799,-0.0256681926548481,-0.6991089582443237,-0.007105354219675,-0.0539107248187065,0.0,0.0,-0.0517634749412536,0.2656240463256836
-0.0530009269714355,0.5430271029472351,-0.0246577281504869,-0.7105568051338196,-0.0096737816929817,-0.0513686127960681,0.0,0.0,0.0017992258071899,0.4589056968688965
-0.0533328056335449,0.5273211002349854,-0.030367711558938,-0.6980679035186768,-0.0124640157446265,-0.0558043830096721,0.0,0.0,0.224259614944458,0.860546350479126
-0.0535572059452533,0.5123172402381897,-0.0180183835327625,-0.6668814420700073,-0.0168288666754961,-0.0872969701886177,0.0,0.0,-0.5380542874336243,-0.1927348971366882
-0.0537675842642784,0.4970560371875763,-0.0167477317154407,-0.67833012342453,-0.0210718158632516,-0.0848588570952415,0.0,0.0,-0.6729349493980408,-0.0171312689781188
-0.0539632812142372,0.4815374314785003,-0.0153892859816551,-0.6897786855697632,-0.0251948125660419,-0.0824600085616111,0.0,0.0,-0.3933156728744507,-0.3473526835441589
-0.054143238812685,0.4657614529132843,-0.0139428321272134,-0.7012272477149963,-0.0291999522596597,-0.0801029056310653,0.0,0.0,0.980518102645874,-0.5817683935165405
-0.054446030408144,0.4509546756744385,-0.0271732546389102,-0.6581432223320007,-0.0322649590671062,-0.0612999685108661,0.0,0.0,0.3020309209823608,0.5180826187133789
-0.0546482093632221,0.4366235136985779,-0.0162508767098188,-0.6370328068733215,-0.0361876599490642,-0.0784540474414825,0.0,0.0,0.1232639551162719,-0.6228097677230835
-0.0549585334956646,0.4229104816913605,-0.028289470821619,-0.6095352172851562,-0.0389000438153743,-0.0542476065456867,0.0,0.0,0.2090764045715332,0.0194998979568481
-0.0551795959472656,0.4095702469348907,-0.0197261609137058,-0.5929630994796753,-0.0412556789815425,-0.0471126511693,0.0,0.0,0.5754798650741577,0.0596275329589843
-0.0553976073861122,0.3965334296226501,-0.0193656105548143,-0.5794844031333923,-0.0436549112200737,-0.0479847602546215,0.0,0.0,0.3812944889068603,-0.0687483549118042
-0.0555261597037315,0.3836425244808197,-0.0107962805777788,-0.5729884505271912,-0.0456890985369682,-0.0406837910413742,0.0,0.0,0.0108048915863037,-0.8058871030807495
-0.0557103157043457,0.3708031177520752,-0.018072510138154,-0.5706501007080078,-0.0460277497768402,-0.0067729586735367,0.0,0.0,0.3823666572570801,0.5436599254608154
-0.0558059699833393,0.3587030470371246,-0.0082144290208816,-0.5378235578536987,-0.0473694056272506,-0.0268330033868551,0.0,0.0,-0.0776114463806152,-0.3018175363540649
-0.0558786392211914,0.34634530544281,-0.0059967781417071,-0.5492706298828125,-0.0486194603145122,-0.0250012278556823,0.0,0.0,-0.3270670175552368,0.2550369501113891
-0.0559273734688758,0.3337300419807434,-0.0036989401560276,-0.5607177019119263,-0.049781896173954,-0.0232485607266426,0.0,0.0,0.3090368509292602,0.6607277393341064
-0.0560000427067279,0.3212481141090393,-0.0046526254154741,-0.5548398494720459,-0.0523686334490776,-0.0517349243164062,0.0,0.0,0.7696099281311035,-0.6013122200965881
-0.0560041442513465,0.3097824156284332,0.0008038083324208,-0.50962895154953,-0.0535591654479503,-0.0238104090094566,0.0,0.0,0.536287784576416,-0.2804602384567261
-0.0560474395751953,0.2988682687282562,-0.0027696394827216,-0.4851298034191131,-0.0551113486289978,-0.0310435984283685,0.0,0.0,0.7223577499389648,0.4811383485794067
-0.0560823455452919,0.2887596189975738,-0.0017133008223026,-0.4493400752544403,-0.0568586513400077,-0.0349461808800697,0.0,0.0,0.0487219095230102,0.5526423454284668
-0.0560291297733783,0.279057890176773,0.0081397928297519,-0.4312948882579803,-0.0596546232700347,-0.0559194274246692,0.0,0.0,-0.3436724543571472,-0.7422237396240234
-0.0559982284903526,0.2691033184528351,0.0045880582183599,-0.4424861669540405,-0.061128731817007,-0.0294823795557022,0.0,0.0,-0.0545016527175903,-0.7331143617630005
-0.0559946075081825,0.2588891088962555,0.0003839514101855,-0.4539691805839538,-0.0611499771475791,-0.0004251083009876,0.0,0.0,-0.2528359889984131,-0.0368428230285644
-0.0559617988765239,0.2484171986579895,0.0032522857654839,-0.46541628241539,-0.0611246339976787,0.0005071351188234,0.0,0.0,0.4782267808914184,0.199438214302063
-0.0557367317378521,0.2384405881166458,0.0218279771506786,-0.4433755576610565,-0.0604500472545623,0.0134916454553604,0.0,0.0,-0.1497014760971069,-0.7581996917724609
-0.0555276870727539,0.2282048612833023,0.0190166346728801,-0.4548478424549103,-0.0585831925272941,0.0373370535671711,0.0,0.0,-0.0221002101898193,-0.4674650430679321
-0.0552879348397254,0.2177115529775619,0.0220589898526668,-0.4662953019142151,-0.0566893108189106,0.0378774181008338,0.0,0.0,0.3000993728637695,-0.4760400056838989
-0.0549589172005653,0.207852616906166,0.0308549162000417,-0.4380998909473419,-0.0546627566218376,0.040531076490879,0.0,0.0,0.2741529941558838,-0.4148859977722168
-0.0544742569327354,0.198498785495758,0.0459527410566806,-0.4156352877616882,-0.0521789342164993,0.0496763363480567,0.0,0.0,-0.3208423852920532,-0.6627424955368042
-0.0540015213191509,0.1888839602470398,0.0436484664678573,-0.4272021055221557,-0.048592735081911,0.0717238932847976,0.0,0.0,-0.0173592567443847,0.1737197637557983
-0.0534964576363563,0.1790117770433426,0.0468828491866588,-0.438650518655777,-0.045008111745119,0.0716926902532577,0.0,0.0,0.4048560857772827,-0.1982178688049316
-0.052853774279356,0.1699767410755157,0.0603137612342834,-0.4014444053173065,-0.0410995632410049,0.0781710222363472,0.0,0.0,-0.0523116588592529,-0.8973442316055298
-0.0522518157958984,0.1606886535882949,0.0543778128921985,-0.4126535356044769,-0.0353531427681446,0.1149284392595291,0.0,0.0,0.175431489944458,-0.8874093294143677
-0.0517695434391498,0.1520093828439712,0.0406865738332271,-0.3855863511562347,-0.0279090870171785,0.1488809138536453,0.0,0.0,-0.3263675570487976,0.1980595588684082
-0.051253892481327,0.1430733352899551,0.0440632589161396,-0.3970383703708648,-0.0204960908740758,0.1482598632574081,0.0,0.0,0.2675256729125976,0.2425811290740966
-0.0507337562739849,0.1347448974847793,0.0447349920868873,-0.3700708746910095,-0.0133113879710435,0.1436940431594848,0.0,0.0,-0.2683247327804565,0.3016773462295532
-0.0501798614859581,0.1261595338582992,0.0481632128357887,-0.3815225958824157,-0.0061720442026853,0.1427869498729705,0.0,0.0,0.32275390625,0.48418128490448
-0.0496093742549419,0.1179156377911567,0.0499613173305988,-0.3663873374462127,0.0008228798978962,0.1398986279964447,0.0,0.0,-0.0974992513656616,0.574749231338501
-0.0489681251347065,0.1094151809811592,0.058028794825077,-0.3778106272220611,0.006837286055088,0.120288074016571,0.0,0.0,0.6299259662628174,0.0306372642517089
-0.0484447479248046,0.1014312133193016,0.0470070540904998,-0.3548787832260132,0.0120994476601481,0.1052431687712669,0.0,0.0,0.3563206195831299,-0.1419547796249389
-0.0478074066340923,0.0940764546394348,0.0580725371837616,-0.3269345164299011,0.0176921114325523,0.1118529886007309,0.0,0.0,-0.2599886655807495,0.7328550815582275
-0.0470718368887901,0.0864596962928772,0.0695927590131759,-0.3385743498802185,0.0216015335172414,0.078188307583332,0.0,0.0,0.357000470161438,-0.5121788382530212
-0.0462274551391601,0.079532153904438,0.0792273730039596,-0.307972103357315,0.0267515070736408,0.1029998064041137,0.0,0.0,-0.1976106762886047,0.8056187629699707
-0.0452877059578895,0.072356566786766,0.0904054269194603,-0.3189864158630371,0.0302705038338899,0.0703799724578857,0.0,0.0,0.3666589260101318,-0.5424397587776184
-0.0442502982914447,0.0659935101866722,0.0988846719264984,-0.2829088866710663,0.035064049065113,0.0958708897233009,0.0,0.0,-0.3860864043235779,-0.5770030617713928
-0.0432188995182514,0.0593711696565151,0.0973668172955513,-0.2944726049900055,0.0407611019909381,0.1139412373304367,0.0,0.0,0.4773458242416382,0.7095011472702026
-0.0421348586678504,0.0535958372056484,0.1041856259107589,-0.2568016648292541,0.0449292995035648,0.0833638757467269,0.0,0.0,-0.203606367111206,0.2999753952026367
-0.0410173423588275,0.047563087195158,0.1076378598809242,-0.2682500183582306,0.0489899553358554,0.0812133699655532,0.0,0.0,0.3863263130187988,-0.6400201320648193
-0.0398617759346962,0.0418479777872562,0.1101348772644996,-0.2541922330856323,0.0543555691838264,0.1073119640350341,0.0,0.0,0.6382112503051758,-0.562394380569458
-0.038881205022335,0.0367806777358055,0.0919562429189682,-0.2254479676485061,0.0603912994265556,0.1207145452499389,0.0,0.0,0.06732177734375,0.4505120515823364
-0.0379708297550678,0.0319465510547161,0.0854359418153762,-0.2150861620903015,0.0659249275922775,0.1106728464365005,0.0,0.0,0.2154673337936401,0.8722963333129883
-0.0370050445199012,0.0274802781641483,0.0928756147623062,-0.1986684948205948,0.0695893019437789,0.0732874572277069,0.0,0.0,-0.0983169674873352,0.2995017766952514
-0.0360075011849403,0.0227564424276351,0.096177652478218,-0.2101162225008011,0.0731293186545372,0.0708004087209701,0.0,0.0,0.5435372591018677,0.3894740343093872
-0.0348814018070697,0.0182911735028028,0.1085810512304306,-0.1986598670482635,0.077106773853302,0.0795493274927139,0.0,0.0,0.6426845788955688,-0.6624037027359009
-0.033724308013916,0.0145943025127053,0.1102547049522399,-0.1645960360765457,0.0825081095099449,0.1080266013741493,0.0,0.0,0.2304127216339111,0.2868626117706299
-0.0325678810477256,0.0115404464304447,0.1102360039949417,-0.136034294962883,0.0878643840551376,0.1071252822875976,0.0,0.0,-0.0552935600280761,-0.7037150263786316
-0.0314310081303119,0.0082150073722004,0.1071560829877853,-0.1481953114271164,0.0943437963724136,0.1295883059501648,0.0,1.0,0.9468218088150024,0.8007912635803223
