x_pos,y_pos,x_vel,y_vel,angle,ang_vel,leg_1,leg_2,main_booster,lat_booster
-0.0016197204822674,1.4030942916870115,-0.1636847406625747,-0.3478156924247741,0.0015339710516855,0.0302420891821384,0.0,0.0,-0.123690664768219,0.3784711360931396
-0.003335952758789,1.3947614431381226,-0.1728368103504181,-0.3703528642654419,0.0027287134435027,0.0238976515829563,0.0,0.0,-0.0901644229888916,0.7024393081665039
-0.005080890841782,1.3858929872512815,-0.1736879497766494,-0.394152820110321,0.00192833004985,-0.0160089787095785,0.0,0.0,0.2269951105117797,0.8512111902236938
-0.0069570541381835,1.3770480155944824,-0.1847140938043594,-0.3931090533733368,-0.000943845603615,-0.0574489943683147,0.0,0.0,-0.4813027381896972,0.6077277660369873
-0.0088706016540527,1.367674708366394,-0.1866742670536041,-0.4165991246700287,-0.0055694226175546,-0.0925198420882225,0.0,0.0,-0.0988528728485107,0.8251993656158447
-0.0107994079589843,1.3577699661254885,-0.1858773380517959,-0.4402532279491424,-0.0124920317903161,-0.1384653598070144,0.0,0.0,-0.1346725225448608,0.8096585273742676
-0.0127614019438624,1.347334861755371,-0.1873369812965393,-0.4638858139514923,-0.0212478246539831,-0.1751324087381363,0.0,0.0,0.3048955202102661,0.7370871305465698
-0.0146160125732421,1.3371329307556152,-0.1750444322824478,-0.4535904824733734,-0.0315506719052791,-0.2060761153697967,0.0,0.0,-0.2726422548294067,0.7597154378890991
-0.0165053363889455,1.3264081478118896,-0.1767354905605316,-0.4769580960273742,-0.0436142794787883,-0.2412942945957183,0.0,0.0,0.0892809629440307,0.8394958972930908
-0.0184009559452533,1.3158743381500244,-0.1754101514816284,-0.4686411321163177,-0.0576254539191722,-0.280249536037445,0.0,0.0,-0.4628483057022095,0.8141224384307861
-0.0203156471252441,1.3048079013824463,-0.1751751899719238,-0.4925553202629089,-0.073763720691204,-0.322794646024704,0.0,0.0,0.0004248619079589,-0.2393543124198913
-0.022255515679717,1.2936886548995972,-0.1776373386383056,-0.4950728714466095,-0.0899786427617073,-0.3243288695812225,0.0,0.0,-0.4536513090133667,-0.2312902212142944
-0.0242862701416015,1.2820430994033811,-0.1864640861749649,-0.5186647176742554,-0.1064718589186668,-0.3298945426940918,0.0,0.0,-0.0402560234069824,-0.8251688480377197
-0.0264649391174316,1.269872784614563,-0.2024654895067215,-0.5420806407928467,-0.1217901483178138,-0.3063940107822418,0.0,0.0,-0.3721832633018493,0.2492144107818603
-0.0287328716367483,1.2571756839752195,-0.2111557722091674,-0.5656689405441284,-0.1373824775218963,-0.3118751347064972,0.0,0.0,0.3641717433929443,-0.2948262095451355
-0.0309660919010639,1.2442981004714966,-0.2078634202480316,-0.5738368630409241,-0.1528197228908538,-0.3087729513645172,0.0,0.0,0.1045247316360473,-0.893001139163971
-0.0331614501774311,1.2317428588867188,-0.2056474238634109,-0.5594896078109741,-0.1667121052742004,-0.2778730690479278,0.0,0.0,0.4641667604446411,-0.5865082740783691
-0.0352992042899131,1.2191239595413208,-0.2011468708515167,-0.5623101592063904,-0.1793868988752365,-0.2535188198089599,0.0,0.0,0.5869100093841553,-0.7887334823608398
-0.0373437888920307,1.2071114778518677,-0.1933454573154449,-0.5352696776390076,-0.1905595064163208,-0.2234724014997482,0.0,0.0,-0.1561517119407653,-0.5011458396911621
-0.0395170226693153,1.1945830583572388,-0.207116812467575,-0.5581587553024292,-0.2008542865514755,-0.2059136927127838,0.0,0.0,0.352799654006958,0.1455423831939697
-0.0415486320853233,1.182400465011597,-0.19319649040699,-0.5428408980369568,-0.2109193056821823,-0.2013186961412429,0.0,0.0,0.2557709217071533,-0.64468914270401
-0.0436326973140239,1.170191526412964,-0.199502632021904,-0.5439072847366333,-0.2199294120073318,-0.1802183091640472,0.0,0.0,-0.0359308123588562,-0.8124603033065796
-0.0458468422293663,1.157469630241394,-0.2135502398014068,-0.5666161775588989,-0.2279088944196701,-0.1596038043498993,0.0,0.0,0.8843121528625488,-0.7918353080749512
-0.0480376258492469,1.1447219848632812,-0.2127203941345214,-0.5675503611564636,-0.2343626022338867,-0.1290858089923858,0.0,0.0,0.9701535701751708,-0.6030368208885193
-0.0503497123718261,1.132646083831787,-0.2253303080797195,-0.5376472473144531,-0.2403410822153091,-0.1195801645517349,0.0,0.0,0.5248816013336182,-0.7260573506355286
-0.0527858734130859,1.1210441589355469,-0.2386816293001175,-0.5164511799812317,-0.2453575432300567,-0.1003291234374046,0.0,0.0,0.1572909355163574,-0.504811704158783
-0.05520810931921,1.1096701622009275,-0.2380748987197876,-0.5062117576599121,-0.2495817691087722,-0.0844844579696655,0.0,0.0,0.8544487953186035,-0.1229889392852783
-0.0576161369681358,1.099167823791504,-0.2357626259326934,-0.4676362872123718,-0.2547159194946289,-0.102683737874031,0.0,0.0,-0.0294163227081298,0.231561541557312
-0.0600944533944129,1.0881364345550537,-0.2425767183303833,-0.4912066161632538,-0.2600768804550171,-0.1072192415595054,0.0,0.0,-0.4956938028335571,-0.4512877464294433
-0.0626407638192176,1.0765759944915771,-0.2491672784090042,-0.5147771239280701,-0.2656596004962921,-0.1116542220115661,0.0,0.0,0.9142136573791504,-0.374344527721405
-0.0649740248918533,1.065897822380066,-0.2277692556381225,-0.4756083786487579,-0.2713584005832672,-0.1139760836958885,0.0,0.0,-0.3967761397361755,-0.5023708343505859
-0.0674140900373458,1.0547058582305908,-0.2393507957458496,-0.4982977509498596,-0.2761211097240448,-0.0952539891004562,0.0,0.0,0.4420262575149536,-0.3279393911361694
-0.0697928443551063,1.0440237522125244,-0.2327154576778412,-0.4757414162158966,-0.2814216315746307,-0.1060105189681053,0.0,0.0,0.7636938095092773,-0.4106938242912292
-0.0721874237060546,1.033395767211914,-0.2338035553693771,-0.4734522402286529,-0.2872348427772522,-0.1162646636366844,0.0,0.0,0.7573769092559814,-0.1292304992675781
-0.0744306594133377,1.023191213607788,-0.218573659658432,-0.454678475856781,-0.2931590676307678,-0.1184836477041244,0.0,0.0,-0.0769915580749511,-0.837544322013855
-0.0767849907279014,1.0124911069869995,-0.2311227321624755,-0.4764273464679718,-0.2976097166538238,-0.0890134945511818,0.0,0.0,-0.2090506553649902,-0.9265599846839904
-0.0792609229683876,1.0012909173965454,-0.2450176775455474,-0.4983204007148742,-0.300274521112442,-0.0532963499426841,0.0,0.0,0.9100959300994872,0.5055860280990601
-0.0814377814531326,0.9907875657081604,-0.2140790969133377,-0.4675590693950653,-0.3039930760860443,-0.074371188879013,0.0,0.0,0.2046401500701904,-0.6484451293945312
-0.083549216389656,0.9806782603263856,-0.2086310684680938,-0.4498266279697418,-0.3065896034240722,-0.0519308075308799,0.0,0.0,0.3412489891052246,-0.4063715934753418
-0.0855268463492393,0.97073495388031,-0.1952167451381683,-0.4424696862697601,-0.3092299103736877,-0.0528059899806976,0.0,0.0,0.6316738128662109,-0.3847510814666748
-0.0874042510986328,0.961409032344818,-0.1845791041851043,-0.4151648283004761,-0.312498390674591,-0.065369889140129,0.0,0.0,-0.2714754343032837,0.2274409532546997
-0.0893108397722244,0.9515533447265624,-0.187388613820076,-0.4387324452400207,-0.3158974647521972,-0.067981407046318,0.0,0.0,0.110521912574768,-0.5448769330978394
-0.091150663793087,0.9414495229721068,-0.181780532002449,-0.4495454132556915,-0.3181893527507782,-0.0458385869860649,0.0,0.0,0.0391114950180053,-0.5138988494873047
-0.0928807258605957,0.9312751293182372,-0.1718173772096634,-0.4524562656879425,-0.3194279372692108,-0.0247711651027202,0.0,0.0,0.4203951358795166,-0.8566825985908508
-0.0946521759033203,0.9209722876548768,-0.1774844229221344,-0.4578268229961395,-0.3190721571445465,0.0071154907345771,0.0,0.0,0.67258620262146,-0.4503273367881775
-0.0962863937020301,0.910599648952484,-0.1638747602701187,-0.460905522108078,-0.3185891211032867,0.0096605978906154,0.0,0.0,0.6274349689483643,-0.6922113299369812
-0.0977815613150596,0.9003155827522278,-0.1513990759849548,-0.4566662013530731,-0.316639631986618,0.0389896556735038,0.0,0.0,0.647463321685791,-0.650187611579895
-0.0991850867867469,0.8907739520072937,-0.1431982219219207,-0.4234556853771209,-0.3136925995349884,0.058940727263689,0.0,0.0,0.9304323196411132,-0.6155115962028503
-0.100507453083992,0.8821206092834473,-0.1358140707015991,-0.3838194906711578,-0.3099790215492248,0.0742715522646904,0.0,0.0,0.5130486488342285,-0.6577266454696655
-0.1017538085579872,0.8736345171928406,-0.1294349133968353,-0.3761401772499084,-0.3050115406513214,0.0993497222661972,0.0,0.0,0.2885311841964721,-0.3808472156524658
-0.1027519255876541,0.8652055263519287,-0.1050835475325584,-0.3735203742980957,-0.2995563745498657,0.109103038907051,0.0,0.0,-0.7383744716644287,-0.4731672406196594
-0.1037381142377853,0.8562469482421875,-0.1038898676633834,-0.3970866203308105,-0.294119268655777,0.1087418347597122,0.0,0.0,-0.8794517517089844,-0.3187162280082702
-0.1047085747122764,0.8467586636543274,-0.1023145467042923,-0.4206525087356567,-0.2886885106563568,0.1086150780320167,0.0,0.0,-0.4921097755432129,-0.198736310005188
-0.1056593880057334,0.8367404937744141,-0.1003668755292892,-0.4442181289196014,-0.283252477645874,0.1087207645177841,0.0,0.0,-0.8943002223968506,-0.0838944911956787
-0.1065868362784385,0.826192319393158,-0.0980572551488876,-0.4677834808826446,-0.2777996957302093,0.1090558767318725,0.0,0.0,-0.6768752336502075,-0.2685973644256592
-0.1074873954057693,0.815114438533783,-0.095396988093853,-0.4913485944271087,-0.2723188698291778,0.1096167787909507,0.0,0.0,-0.8535710573196411,-0.3911657333374023
-0.1083575263619422,0.8035065531730652,-0.0923981592059135,-0.5149134993553162,-0.2667989134788513,0.1103988662362098,0.0,0.0,-0.9422752857208252,-0.2205867171287536
-0.109193705022335,0.791368842124939,-0.089073471724987,-0.5384781956672668,-0.2612290680408478,0.1113970652222633,0.0,0.0,-0.7646763324737549,-0.0057366490364074
-0.1099929809570312,0.7787009477615356,-0.0854360610246658,-0.5620428323745728,-0.255598783493042,0.1126054972410202,0.0,0.0,-0.627691924571991,-0.5821650624275208
-0.1108012199401855,0.7655277848243713,-0.0877169221639633,-0.584290623664856,-0.2485673129558563,0.1406293958425521,0.0,0.0,-0.7856647968292236,0.4232971668243408
-0.1115662604570388,0.7518246173858643,-0.0834952369332313,-0.6078563928604126,-0.2414554059505462,0.1422385722398758,0.0,0.0,-0.5833737254142761,-0.0534296631813049
-0.1122853308916091,0.7375919222831726,-0.0790016502141952,-0.6314221024513245,-0.2342535406351089,0.1440376341342926,0.0,0.0,-0.7277624011039734,-0.4259868860244751
-0.1129558533430099,0.722829282283783,-0.0742498263716697,-0.6549876928329468,-0.2269525825977325,0.1460192203521728,0.0,0.0,-0.4199484586715698,0.3261871337890625
-0.1135752648115158,0.7075369954109192,-0.0692532658576965,-0.6785534024238586,-0.2195437997579574,0.14817576110363,0.0,0.0,-0.6680922508239746,-0.009687066078186
-0.114141084253788,0.6917147040367126,-0.0640252530574798,-0.7021191120147705,-0.2120188176631927,0.150499552488327,0.0,0.0,-0.7147157192230225,0.6712172031402588
-0.1146099120378494,0.675349771976471,-0.0533954314887523,-0.7264114618301392,-0.2054422050714492,0.1315318644046783,0.0,0.0,-0.1522690653800964,0.1964548826217651
-0.1150206550955772,0.6584548354148865,-0.0477426536381244,-0.7499760389328003,-0.1987338364124298,0.1341672837734222,0.0,0.0,0.6054737567901611,0.4521771669387817
-0.1152372360229492,0.6414241790771484,-0.0288313962519168,-0.7559687495231628,-0.1915175318717956,0.1443263888359069,0.0,0.0,0.7738915681838989,-0.4289413690567016
-0.1151890754699707,0.6252052187919617,-0.0026372442953288,-0.7198964357376099,-0.1840211153030395,0.1499281823635101,0.0,0.0,-0.0298450589179992,-0.0954235196113586
-0.1150773018598556,0.608456552028656,0.0035614934749901,-0.7434622049331665,-0.1763724237680435,0.1529735624790191,0.0,0.0,0.8027596473693848,0.2417614459991455
-0.1148691177368164,0.5922954678535461,0.0134840188547968,-0.717418372631073,-0.1690288335084915,0.1468715816736221,0.0,0.0,0.3250483274459839,0.458804726600647
-0.1144859343767166,0.5763364434242249,0.0307086054235696,-0.7084461450576782,-0.161407008767128,0.1524365842342376,0.0,0.0,0.4478505849838257,0.6123243570327759
-0.1139885932207107,0.5609679222106934,0.0434235669672489,-0.6823718547821045,-0.1550976783037185,0.1261867433786392,0.0,0.0,-0.0246938467025756,-0.0488318800926208
-0.1134216338396072,0.5450694561004639,0.0502016171813011,-0.7059362530708313,-0.148613691329956,0.1296793520450592,0.0,0.0,0.493364930152893,-0.2499489784240722
-0.1127615943551063,0.5291722416877747,0.0594634637236595,-0.705906867980957,-0.142091304063797,0.1304480284452438,0.0,0.0,0.7594590187072754,-0.4236003160476684
-0.1119089126586914,0.5132437348365784,0.0782120749354362,-0.7072771191596985,-0.1350500285625457,0.1408254206180572,0.0,0.0,0.7487508058547974,-0.459619402885437
-0.1109678298234939,0.497326135635376,0.0870082229375839,-0.7068225741386414,-0.1279754042625427,0.1414922177791595,0.0,0.0,0.7459796667098999,-0.4270620346069336
-0.1098543182015419,0.4821274280548095,0.1040870919823646,-0.6748903393745422,-0.12074975669384,0.1445129811763763,0.0,0.0,0.0810065269470214,-0.6094100475311279
-0.1085905060172081,0.4671980440616607,0.117617167532444,-0.6628419160842896,-0.1120288744568824,0.1744174361228943,0.0,0.0,-0.0054975748062133,-0.3357170820236206
-0.1072505936026573,0.4517392218112945,0.1250037848949432,-0.6864098906517029,-0.1031090095639228,0.1783967912197113,0.0,0.0,0.5317084789276123,-0.0259988903999328
-0.1059216484427452,0.4362276792526245,0.1242560520768165,-0.6888301968574524,-0.0945419371128082,0.1713416278362274,0.0,0.0,0.813711404800415,-0.1963564753532409
-0.1043891906738281,0.4214763343334198,0.1441875249147415,-0.6550685167312622,-0.0855649635195732,0.1795393526554107,0.0,0.0,0.1696658134460449,-0.2311980128288269
-0.1028152480721473,0.4068136513233185,0.148457258939743,-0.6511841416358948,-0.0767120644450187,0.1770579516887664,0.0,0.0,0.5473895072937012,0.0029088258743286
-0.1011650115251541,0.3925771415233612,0.1561036109924316,-0.6323043704032898,-0.0678864270448684,0.1765130907297134,0.0,0.0,0.1470637321472168,-0.503300130367279
-0.0994511619210243,0.3785454630851745,0.1612479090690612,-0.6232011318206787,-0.0578640885651111,0.2004467546939849,0.0,0.0,-0.0450571775436401,-0.0295069217681884
-0.097657486796379,0.3639847040176391,0.1690095961093902,-0.6467718482017517,-0.047627106308937,0.2047398090362548,0.0,0.0,0.6565701961517334,0.358454942703247
-0.0957434624433517,0.3494076728820801,0.1807137131690979,-0.6475594639778137,-0.0370635613799095,0.2112705260515213,0.0,0.0,0.8446223735809326,0.3457412719726562
-0.0936286002397537,0.334970086812973,0.2000927925109863,-0.6414256691932678,-0.0258025676012039,0.2252198457717895,0.0,0.0,0.4966117143630981,0.458141565322876
-0.0912859886884689,0.3207745552062988,0.2220103293657302,-0.6307430267333984,-0.0137051213532686,0.2419489175081253,0.0,0.0,0.6817226409912109,0.0220251083374023
-0.088714599609375,0.306650161743164,0.2439994513988495,-0.6276809573173523,-0.0007298839627765,0.2595047950744629,0.0,0.0,0.5361831188201904,0.3730779886245727
-0.086066149175167,0.2930457293987274,0.2514921724796295,-0.6046889424324036,0.0124437129124999,0.2634718120098114,0.0,0.0,0.5231668949127197,-0.0228797793388366
-0.0833160430192947,0.2799628973007202,0.2613089382648468,-0.5816256999969482,0.0259732119739055,0.2705899477005005,0.0,0.0,0.7718725204467773,0.1764030456542968
-0.0803688019514083,0.2674306333065033,0.2801662087440491,-0.5573061108589172,0.0403455346822738,0.2874467968940735,0.0,0.0,0.6232067346572876,-0.1740697622299194
-0.0772532448172569,0.2548578679561615,0.2963139712810516,-0.5592696666717529,0.0554021410644054,0.3011322617530823,0.0,0.0,0.3819522857666015,-0.3679909706115722
-0.0741227120161056,0.2423924505710601,0.2977909445762634,-0.5546539425849915,0.0704821869730949,0.3016011416912079,0.0,0.0,0.6628966331481934,-0.0343604683876037
-0.0708860382437706,0.2307085394859314,0.3078052103519439,-0.5201065540313721,0.0861837491393089,0.314031571149826,0.0,0.0,0.8753786087036133,-0.3248565793037414
-0.0676488876342773,0.2194599956274032,0.3077677488327026,-0.5009273886680603,0.1019910126924514,0.3161453604698181,0.0,0.0,0.2171179056167602,0.1307772397994995
-0.0644802078604698,0.2085454016923904,0.3011491298675537,-0.4862399399280548,0.1176028773188591,0.3122375011444092,0.0,0.0,0.5685229301452637,0.2998427152633667
-0.0612247474491596,0.1981058269739151,0.3092388212680816,-0.4653460085391998,0.1338260322809219,0.3244631886482239,0.0,0.0,0.6345961093902588,0.2219014167785644
-0.0580385215580463,0.1882328540086746,0.3023704886436462,-0.4403381049633026,0.1500336229801178,0.3241513967514038,0.0,0.0,0.469595193862915,0.0638493299484252
-0.0549423210322856,0.1788050085306167,0.2935130894184112,-0.4207195937633514,0.1661304384469986,0.3219364285469055,0.0,0.0,-0.5260260701179504,0.4652302265167236
-0.0517641082406044,0.1688508540391922,0.3015359044075012,-0.4443076252937317,0.1824570596218109,0.3265320658683777,0.0,0.0,0.1133818626403808,0.6179001331329346
-0.0486160293221473,0.158958151936531,0.2996841371059418,-0.4416064321994781,0.1976501047611236,0.3038607537746429,0.0,0.0,0.1544021368026733,0.3157358169555664
-0.0455611236393451,0.1490460783243179,0.2906681299209595,-0.4425818622112274,0.2125866711139679,0.2987317442893982,0.0,0.0,0.3962218761444092,0.3311110734939575
-0.0424653068184852,0.1395263075828552,0.2941744327545166,-0.4253917634487152,0.2281670272350311,0.3116075396537781,0.0,0.0,-0.1437045931816101,0.1400318145751953
-0.0392881408333778,0.1294801831245422,0.3021314442157745,-0.448979377746582,0.243976891040802,0.3161973357200622,0.0,0.0,0.9127987623214722,0.2803628444671631
-0.0360805504024028,0.1202546656131744,0.3042631149291992,-0.4128473997116089,0.2607927322387695,0.3363165557384491,0.0,0.0,0.5740689039230347,0.0914806127548217
-0.033004093915224,0.1115666031837463,0.2911009192466736,-0.3891717493534088,0.2777365148067474,0.3388755917549133,0.0,0.0,0.100909948348999,-0.0123243331909179
-0.0299121849238872,0.1032135561108589,0.292082667350769,-0.3746012449264526,0.2953483462333679,0.3522369265556335,0.0,0.0,0.4694979190826416,-0.0132780671119689
-0.0268256179988384,0.0951047018170356,0.2911098599433899,-0.3640586733818054,0.3135017454624176,0.3630681335926056,0.0,0.0,0.6007933616638184,-0.063191533088684
-0.0239105224609375,0.087596446275711,0.273889422416687,-0.3376211524009704,0.3318499028682709,0.3669629395008087,0.0,0.0,0.4813323020935058,-0.0987100005149841
-0.021095085889101,0.0805913060903549,0.2635549008846283,-0.315582811832428,0.3506759107112884,0.3765199780464172,0.0,0.0,0.1609319448471069,0.3484469652175903
-0.018259048461914,0.0735446065664291,0.2652810215950012,-0.3177737593650818,0.3699892163276672,0.3862664401531219,0.0,0.0,0.6573010683059692,0.3610944747924804
-0.0156841278076171,0.0667742118239402,0.2396293878555297,-0.305640697479248,0.3889595866203308,0.3794075846672058,0.0,0.0,0.8627420663833618,0.6573348045349121
-0.0133482934907078,0.0602236129343509,0.2172845602035522,-0.2956956923007965,0.4064186513423919,0.3491818308830261,0.0,0.0,0.8813939094543457,0.5486416816711426
-0.0111737251281738,0.0540417283773422,0.2021699398756027,-0.2792219519615173,0.4228917360305786,0.3294618725776672,0.0,0.0,0.6672730445861816,0.5736087560653687
-0.0090770721435546,0.0481144040822982,0.1953185498714447,-0.2678180038928985,0.4384659230709076,0.3114841282367706,0.0,0.0,0.6733276844024658,0.4676697254180908
-0.0069398880004882,0.0422401539981365,0.1987175047397613,-0.2658552825450897,0.4548719525337219,0.3281205594539642,0.0,1.0,0.9977048635482788,0.9997014999389648
-0.0049595832824707,0.0381136983633041,0.1969900727272033,-0.1848495006561279,0.4521318674087524,-0.0605863742530345,0.0,1.0,0.989326238632202,0.994049310684204
-0.0034210204612463,0.0357426255941391,0.1739629209041595,-0.099089428782463,0.4300262629985809,-0.4423474371433258,0.0,1.0,0.9713141918182372,-0.052809715270996
-0.0020280838944017,0.0341365188360214,0.1720494925975799,-0.0618074908852577,0.3946153521537781,-0.7083439826965332,0.0,1.0,0.7737815380096436,-0.9012401103973388
