x_pos,y_pos,x_vel,y_vel,angle,ang_vel,leg_1,leg_2,main_booster,lat_booster
-0.0014751434791833,1.403125524520874,-0.1488480865955352,-0.3464342355728149,0.0011882757535204,0.02339768409729,0.0,0.0,-0.4957960844039917,0.9388034343719482
-0.0028229714371263,1.394850254058838,-0.133354976773262,-0.3677857518196106,-0.0002256542502436,-0.0282805059105157,0.0,0.0,-0.3103444576263428,0.624692440032959
-0.0040647508576512,1.386070728302002,-0.1206588372588157,-0.3901959359645843,-0.0037068598903715,-0.0696306154131889,0.0,0.0,0.0062258243560791,0.3225455284118652
-0.0053331376984715,1.3772493600845337,-0.1224078685045242,-0.3920802175998688,-0.0080990474671125,-0.0878516882658004,0.0,0.0,0.1983954906463623,-0.521382749080658
-0.0064930915832519,1.3686394691467283,-0.1122608035802841,-0.3826891481876373,-0.0117989536374807,-0.0740049257874488,0.0,0.0,-0.5795969367027283,-0.5728349685668945
-0.007646179292351,1.359530329704285,-0.1118722930550575,-0.4048805236816406,-0.0151942754164338,-0.0679126530885696,0.0,0.0,-0.5256790518760681,-0.0718232989311218
-0.0087589267641305,1.3499224185943604,-0.1072636023163795,-0.4270626604557037,-0.0191633515059947,-0.0793888494372367,0.0,0.0,-0.3155611753463745,0.2569093704223633
-0.0098328590393066,1.3398158550262451,-0.1028048023581504,-0.4492475092411041,-0.0237085707485675,-0.0909124910831451,0.0,0.0,0.0288423299789428,0.1453602313995361
-0.0108648296445608,1.3299922943115234,-0.0979785695672035,-0.4366908967494964,-0.0288680884987115,-0.1031998619437217,0.0,0.0,-0.4857223033905029,-0.6807854771614075
-0.0119147300720214,1.319676637649536,-0.1005546003580093,-0.4585659205913543,-0.033256821334362,-0.0877825692296028,0.0,0.0,-0.1626977324485778,-0.0306090116500854
-0.0129306791350245,1.3088624477386477,-0.0965677127242088,-0.4807498753070831,-0.0382282733917236,-0.0994381979107856,0.0,0.0,-0.2529016733169555,0.3859623670578003
-0.0139142032712697,1.2975499629974363,-0.092741273343563,-0.5029364228248596,-0.0437827482819557,-0.1110996380448341,0.0,0.0,0.3826737403869629,-0.5404314398765564
-0.0147657394409179,1.286613941192627,-0.0803182572126388,-0.4861936569213867,-0.0485651269555091,-0.0956565737724304,0.0,0.0,-0.869053304195404,-0.7441062331199646
-0.0156403537839651,1.2751760482788086,-0.08335742354393,-0.5084856748580933,-0.0526270009577274,-0.0812445282936096,0.0,0.0,0.0603669881820678,-0.0496826767921447
-0.016369342803955,1.2640252113342283,-0.0686346217989921,-0.4957474172115326,-0.0568477995693683,-0.0844234675168991,0.0,0.0,-0.9412904381752014,-0.7857747077941895
-0.0171236041933298,1.252370834350586,-0.071865439414978,-0.5181102752685547,-0.0603792741894722,-0.0706361085176467,0.0,0.0,-0.7493305802345276,-0.8791691064834595
-0.0179070476442575,1.2402331829071045,-0.0755396634340286,-0.5395686626434326,-0.0631469264626503,-0.0553582906723022,0.0,0.0,0.0022226572036743,-0.8070143461227417
-0.0186162944883108,1.2279267311096191,-0.0691930726170539,-0.5470272898674011,-0.0648714900016784,-0.0344943180680274,0.0,0.0,-0.832758367061615,-0.7232122421264648
-0.019352626055479,1.2151330709457395,-0.0725158676505088,-0.568655252456665,-0.0659733414649963,-0.0220390502363443,0.0,0.0,-0.6878175735473633,-0.7581663131713867
-0.0201378818601369,1.2018471956253052,-0.0785416662693023,-0.5904834270477295,-0.0659493952989578,0.000479077512864,0.0,0.0,-0.6532620191574097,-0.6651289463043213
-0.0209468845278024,1.1880714893341064,-0.0813996344804763,-0.612226665019989,-0.0654640793800354,0.0097073446959257,0.0,0.0,-0.2584151029586792,-0.6341990828514099
-0.0217896457761526,1.1737985610961914,-0.0854279026389122,-0.6343042254447937,-0.064323179423809,0.0228201895952224,0.0,0.0,0.184333324432373,-0.3845658898353576
-0.0225005149841308,1.159602403640747,-0.0720922872424125,-0.6309050917625427,-0.0633284747600555,0.0198958907276392,0.0,0.0,-0.2877628803253174,-0.4764895439147949
-0.0231989864259958,1.1449072360992432,-0.0702774375677108,-0.6530964970588684,-0.0629104375839233,0.0083615407347679,0.0,0.0,-0.7235668301582336,-0.8293906450271606
-0.0239676479250192,1.1297235488891602,-0.0787637904286384,-0.6747531294822693,-0.061025746166706,0.0376973152160644,0.0,0.0,-0.188957929611206,-0.4076642990112304
-0.0247278213500976,1.1140198707580566,-0.0773530527949333,-0.6978923082351685,-0.0597130917012691,0.0262532886117696,0.0,0.0,-0.7702480554580688,-0.5214954614639282
-0.025521183386445,1.0978244543075562,-0.0811264589428901,-0.7197281718254089,-0.057937029749155,0.0355209745466709,0.0,0.0,-0.3816818594932556,0.2638783454895019
-0.026308249682188,1.0811303853988647,-0.0799268037080764,-0.7419131994247437,-0.0567266047000885,0.0242085047066211,0.0,0.0,0.0383824110031127,-0.4623559713363647
-0.0271446220576763,1.064673662185669,-0.0839166641235351,-0.7313987612724304,-0.056457906961441,0.0053741238079965,0.0,0.0,-0.0989099144935607,-0.5198795795440674
-0.028020191937685,1.047719955444336,-0.0883464366197586,-0.7534694671630859,-0.0556777194142341,0.0156035795807838,0.0,0.0,0.1796073913574218,-0.8847007155418396
-0.0289140697568655,1.0311875343322754,-0.0913973227143287,-0.7347062230110168,-0.0536829121410846,0.0398960039019584,0.0,0.0,-0.060342788696289,-0.6457851529121399
-0.0298647880554199,1.0141572952270508,-0.0980004295706749,-0.7567993998527527,-0.0507889054715633,0.0578802153468132,0.0,0.0,0.4261271953582763,-0.211749255657196
-0.030851935967803,0.997670352458954,-0.1007573381066322,-0.7326833009719849,-0.0487716048955917,0.0403461121022701,0.0,0.0,0.4287319183349609,0.5102667808532715
-0.0318446159362793,0.9811487793922424,-0.0995835810899734,-0.7342814803123474,-0.0484606251120567,0.0062196492217481,0.0,0.0,0.5482566356658936,0.1408039331436157
-0.0327962860465049,0.965008020401001,-0.0950100570917129,-0.7173729538917542,-0.0486171469092369,-0.0031304466538131,0.0,0.0,0.2071845531463623,-0.5400920510292053
-0.0337528213858604,0.949202597141266,-0.0960772112011909,-0.7024506330490112,-0.0482024699449539,0.0082935523241758,0.0,0.0,-0.108553946018219,0.0720026493072509
-0.0347142219543457,0.9328984618186952,-0.0960203185677528,-0.7246348261833191,-0.0483159162104129,-0.0022686310112476,0.0,0.0,0.1597931385040283,-0.1981739997863769
-0.0356286987662315,0.9168940782546996,-0.0909356847405433,-0.7113186120986938,-0.0488285198807716,-0.0102522363886237,0.0,0.0,0.1578925848007202,-0.473477840423584
-0.0365485176444053,0.901277720928192,-0.0908112078905105,-0.6940953731536865,-0.049985896795988,-0.0231477674096822,0.0,0.0,-0.3045296669006347,-0.806491494178772
-0.037536334246397,0.8851683139801025,-0.0986501947045326,-0.7159799337387085,-0.0501251295208931,-0.0027844065334647,0.0,0.0,-0.5954649448394775,-0.0422950387001037
-0.0385324470698833,0.868560254573822,-0.0989487692713737,-0.7381642460823059,-0.0507697239518165,-0.0128922443836927,0.0,0.0,-0.506528913974762,-0.7799668908119202
-0.0395862571895122,0.8514551520347595,-0.1054742783308029,-0.7602184414863586,-0.0506798513233661,0.0017974700313061,0.0,0.0,0.4557267427444458,-0.3196917772293091
-0.0405499450862407,0.8342588543891907,-0.0963592156767845,-0.7642797231674194,-0.0506864972412586,-0.0001329235965386,0.0,0.0,0.6599197387695312,-0.5559180378913879
-0.0414336211979389,0.8173534870147705,-0.0892703682184219,-0.7513177394866943,-0.0497937947511673,0.0178538374602794,0.0,0.0,-0.184005856513977,-0.4447901844978332
-0.0423275008797645,0.7999494671821594,-0.0898119285702705,-0.7735018134117126,-0.0493797920644283,0.0082802474498748,0.0,0.0,0.269848108291626,0.2609721422195434
-0.0431840904057025,0.7824288606643677,-0.0857654362916946,-0.778695285320282,-0.0492737740278244,0.0021202322095632,0.0,0.0,0.111383318901062,-0.3743544816970825
-0.0439957603812217,0.76485675573349,-0.080995000898838,-0.7809906601905823,-0.0494417026638984,-0.0033584118355065,0.0,0.0,0.3350481986999511,-0.2354306578636169
-0.0448759086430072,0.7478018999099731,-0.0869535356760025,-0.7580273747444153,-0.0504856780171394,-0.0208795722573995,0.0,0.0,0.4652191400527954,-0.3943328857421875
-0.0458494201302528,0.7313043475151062,-0.09528748691082,-0.7332952618598938,-0.052521776407957,-0.0407221540808677,0.0,0.0,-0.2302133440971374,-0.7683384418487549
-0.0468970313668251,0.7143107652664185,-0.1038548946380615,-0.7553015947341919,-0.0534151419997215,-0.0178673304617404,0.0,0.0,0.4323173761367798,-0.0246041417121887
-0.0478050224483013,0.6975499987602234,-0.0900495648384094,-0.744949996471405,-0.0541641190648078,-0.0149795766919851,0.0,0.0,0.1948883533477783,-0.5858399868011475
-0.0487873069941997,0.6811000108718872,-0.0981464684009552,-0.7311189770698547,-0.0542496964335441,-0.0017113337526097,0.0,0.0,-0.2673113346099853,-0.3538722991943359
-0.0497803688049316,0.664151132106781,-0.0988024324178695,-0.7533029317855835,-0.0547481924295425,-0.0099701797589659,0.0,0.0,0.4996640682220459,-0.5659227967262268
-0.0507855415344238,0.6477965712547302,-0.1007574573159217,-0.7268622517585754,-0.0545156151056289,0.0046517727896571,0.0,0.0,0.0530050992965698,-0.4056510329246521
-0.0516890510916709,0.6314007639884949,-0.0906277149915695,-0.7286885380744934,-0.0542377345263958,0.0055575538426637,0.0,0.0,0.0756106376647949,0.1790378093719482
-0.0526474937796592,0.6149707436561584,-0.0954484269022941,-0.7302368879318237,-0.0546318851411342,-0.0078827245160937,0.0,0.0,0.6449999809265137,0.0663020610809326
-0.0534780509769916,0.5992228388786316,-0.0827202126383781,-0.6999213695526123,-0.0549672096967697,-0.006706316024065,0.0,0.0,-0.0652885437011718,-0.7248915433883667
-0.0543609634041786,0.5829826593399048,-0.0887102931737899,-0.7217712998390198,-0.0545540414750576,0.0082632387056946,0.0,0.0,0.508577823638916,0.2343906164169311
-0.0551424026489257,0.567363977432251,-0.0785121247172355,-0.694146454334259,-0.0541789010167121,0.0075026741251349,0.0,0.0,-0.4058220386505127,-0.3887118101119995
-0.0559304244816303,0.5512465238571167,-0.0788366571068763,-0.7163301706314087,-0.0541468895971775,0.0006400024285539,0.0,0.0,0.7593560218811035,0.3787112236022949
-0.0566484443843364,0.5352164506912231,-0.0717563778162002,-0.7124500870704651,-0.0541951209306716,-0.0009645270183682,0.0,0.0,0.7400412559509277,-0.1051638126373291
-0.057436753064394,0.5198026299476624,-0.0779583677649498,-0.6850923895835876,-0.0550534054636955,-0.0171659346669912,0.0,0.0,0.3401877880096435,-0.2724652290344238
-0.0581056587398052,0.5045099854469299,-0.0661708116531372,-0.6797004342079163,-0.0557588189840316,-0.0141084073111414,0.0,0.0,0.3521685600280761,0.5379172563552856
-0.0586855895817279,0.4894652366638183,-0.0559449978172779,-0.668731153011322,-0.0577868819236755,-0.0405611917376518,0.0,0.0,-0.3076239824295044,0.2092618942260742
-0.0592668540775775,0.4739217460155487,-0.0557834394276142,-0.690915048122406,-0.0601033717393875,-0.0463298335671424,0.0,0.0,0.786374568939209,-0.4483624696731567
-0.0599431991577148,0.4588483572006225,-0.0643946453928947,-0.6700621247291565,-0.0633162409067154,-0.0642574578523635,0.0,0.0,0.1568000316619873,0.5515916347503662
-0.0605198852717876,0.44417405128479,-0.053070705384016,-0.6523929238319397,-0.0678612887859344,-0.0909010618925094,0.0,0.0,0.3436239957809448,0.1173467636108398
-0.0610108375549316,0.4293502867221832,-0.0445596203207969,-0.6590465307235718,-0.0723523050546646,-0.0898201018571853,0.0,0.0,0.2116944789886474,0.1317510604858398
-0.0614322647452354,0.414962500333786,-0.0374530367553234,-0.6396922469139099,-0.0769951120018959,-0.0928559154272079,0.0,0.0,0.8905950784683228,-0.7424653768539429
-0.061981201171875,0.4009031355381012,-0.051188837736845,-0.6250529885292053,-0.0806595385074615,-0.073288694024086,0.0,0.0,0.8244888782501221,-0.5943551063537598
-0.0626170188188552,0.3874843716621399,-0.0605569295585155,-0.5965548157691956,-0.0836491361260414,-0.059792049229145,0.0,0.0,0.1404701471328735,0.0752574205398559
-0.0631860718131065,0.3742063641548157,-0.0537780411541461,-0.5903113484382629,-0.0867507010698318,-0.0620312765240669,0.0,0.0,0.4292620420455932,-0.6848325133323669
-0.0638564079999923,0.3615521192550659,-0.0648637488484382,-0.5625422596931458,-0.0889083221554756,-0.0431522689759731,0.0,0.0,0.7261834144592285,0.3528964519500732
-0.0643835067749023,0.3492902219295501,-0.0506930872797966,-0.5450946688652039,-0.0908992439508438,-0.0398186668753623,0.0,0.0,-0.4889393448829651,-0.7725327014923096
-0.0649598091840744,0.3365322053432464,-0.0570883937180042,-0.567055344581604,-0.0914442986249923,-0.0109009630978107,0.0,0.0,-0.5586678981781006,-0.1798487901687622
-0.0655189529061317,0.3232753574848175,-0.0551892295479774,-0.5892388224601746,-0.092156745493412,-0.0142489373683929,0.0,0.0,0.9667973518371582,-0.5688461661338806
-0.066106416285038,0.310129165649414,-0.0588983483612537,-0.5842646360397339,-0.0920090675354003,0.0029536997899413,0.0,0.0,0.9578654766082764,-0.5357680320739746
-0.0666383728384971,0.2979002296924591,-0.0542443767189979,-0.5434455275535583,-0.0909701809287071,0.0207779370248317,0.0,0.0,0.7698545455932617,0.7273213863372803
-0.0669164657592773,0.2864644527435303,-0.0274678766727447,-0.5082789659500122,-0.0913117304444313,-0.0068309404887259,0.0,0.0,-0.015748918056488,0.3029133081436157
-0.0671688094735145,0.2745296955108642,-0.0247537530958652,-0.5304620265960693,-0.0917810797691345,-0.0093873487785458,0.0,0.0,0.7854328155517578,-0.3725135326385498
-0.0674994438886642,0.2626498639583587,-0.0318146310746669,-0.5280678868293762,-0.0930158272385597,-0.0246950816363096,0.0,0.0,0.2622474431991577,-0.0377426147460937
-0.0677128806710243,0.2511688470840454,-0.0201314855366945,-0.5103438496589661,-0.0942176207900047,-0.0240357536822557,0.0,0.0,0.642627477645874,-0.7763568162918091
-0.0680115669965744,0.2400675863027572,-0.0299053937196731,-0.4933854639530182,-0.094178706407547,0.0007784602348692,0.0,0.0,0.6478115320205688,0.1936511993408203
-0.0682660117745399,0.2294846624135971,-0.0251428391784429,-0.4703718423843384,-0.0944854170083999,-0.0061339768581092,0.0,0.0,0.6821609735488892,-0.8213308453559875
-0.0684938430786132,0.2194812446832656,-0.0240165162831544,-0.4445197284221649,-0.0932622030377388,0.0244641304016113,0.0,0.0,-0.411801278591156,0.4734086990356445
-0.068682000041008,0.2089787870645523,-0.0199726074934005,-0.4667025208473205,-0.0921161696314811,0.022920960560441,0.0,0.0,0.4109067916870117,-0.8577508926391602
-0.068846508860588,0.1984118074178695,-0.0192881543189287,-0.4694704115390777,-0.0893070325255394,0.0561825856566429,0.0,0.0,0.2050284147262573,0.2556641101837158
-0.0688731223344802,0.1877756714820861,-0.0057432982139289,-0.4725365340709686,-0.0862479507923126,0.0611814931035041,0.0,0.0,0.425086498260498,0.1738159656524658
-0.0686840042471885,0.177360400557518,0.0152828637510538,-0.4626986086368561,-0.0826583951711654,0.0717914700508117,0.0,0.0,0.3127654790878296,-0.0948903560638427
-0.0683095902204513,0.1669009327888488,0.0333520248532295,-0.4646427035331726,-0.0786069184541702,0.0810296237468719,0.0,0.0,0.6780800819396973,0.1397291421890258
-0.0678295120596885,0.1570844799280166,0.0439865216612815,-0.4360841512680053,-0.0746268257498741,0.0796017125248909,0.0,0.0,0.4910774230957031,-0.6981848478317261
-0.0672687515616417,0.1478012353181839,0.0506292283535003,-0.412325382232666,-0.0692367255687713,0.1078021749854087,0.0,0.0,0.1045401096343994,-0.4878284931182861
-0.0665380507707595,0.1386781483888626,0.0672717839479446,-0.4052160382270813,-0.0634960606694221,0.1148133054375648,0.0,0.0,-0.3037500381469726,-0.8772141933441162
-0.0658069625496864,0.1290527433156967,0.0658577531576156,-0.4275036156177521,-0.0563339293003082,0.1432427018880844,0.0,0.0,0.7901579141616821,-0.4468051195144653
-0.0650411620736122,0.1197601407766342,0.0696300417184829,-0.412759393453598,-0.0494612492620945,0.1374537050724029,0.0,0.0,0.7303831577301025,-0.81137615442276
-0.0641340240836143,0.1113302782177925,0.0819553807377815,-0.3743959069252014,-0.0408116541802883,0.1729919910430908,0.0,0.0,0.5642712116241455,-0.7410049438476562
-0.0632228851318359,0.1032149195671081,0.0809299200773239,-0.3604362607002258,-0.0307522136718034,0.2011889964342117,0.0,0.0,0.2578932046890259,0.550555944442749
-0.0622859969735145,0.0955176204442977,0.0848374515771865,-0.3419478237628937,-0.0220156591385602,0.1747311055660247,0.0,0.0,-0.0354494452476501,0.769650936126709
-0.0612102523446083,0.0873235762119293,0.1005186885595321,-0.3640921711921692,-0.0150446705520153,0.1394196897745132,0.0,0.0,0.835282564163208,-0.7372143268585205
-0.0601737014949321,0.0798894241452217,0.0952760130167007,-0.3303478360176086,-0.0067639700137078,0.1656139642000198,0.0,0.0,0.1240510940551757,0.9148237705230712
-0.0590540878474712,0.0727275013923645,0.1054269820451736,-0.3182922303676605,-0.000323044398101,0.1288185715675354,0.0,0.0,0.2750024795532226,-0.604707658290863
-0.0579282753169536,0.0656416714191436,0.1048821061849594,-0.3149455487728119,0.0072722458280622,0.151905819773674,0.0,0.0,0.5672255754470825,0.6955037117004395
-0.056795883923769,0.0589129775762558,0.1072002872824668,-0.2990937232971191,0.0132323056459426,0.1192012056708335,0.0,0.0,0.5492868423461914,0.3713036775588989
-0.055732250213623,0.0524194575846195,0.1009971499443054,-0.2886571288108825,0.0185319390147924,0.1059927195310592,0.0,0.0,0.6440658569335938,0.2594969272613525
-0.0544959083199501,0.0465026460587978,0.1177906990051269,-0.2630518674850464,0.0243115834891796,0.1155925989151001,0.0,0.0,0.2905060052871704,0.6256420612335205
-0.0530816093087196,0.0405176021158695,0.1367520540952682,-0.2660861313343048,0.0289342906326055,0.0924539715051651,0.0,0.0,0.8757375478744507,-0.7475555539131165
-0.0514886863529682,0.0353436581790447,0.1527048945426941,-0.2300968766212463,0.0354381240904331,0.1300766766071319,0.0,0.0,0.8071932792663574,-0.9284944534301758
-0.0499417297542095,0.0309461932629346,0.1463042348623275,-0.1956668347120285,0.0437324456870555,0.1658866703510284,0.0,0.0,0.2480326890945434,-0.8521714210510254
-0.0482798591256141,0.0270315259695053,0.1559936553239822,-0.1743121147155761,0.0538061112165451,0.2014730870723724,0.0,0.0,0.0134041309356689,-0.6277815699577332
-0.0465452186763286,0.0231521222740411,0.161974087357521,-0.1728677749633789,0.0651740059256553,0.2273577898740768,0.0,0.0,0.1567804813385009,-0.955062747001648
-0.044839572161436,0.0196329206228256,0.1571716666221618,-0.1570432186126709,0.0784248039126396,0.265015959739685,0.0,0.0,-0.1280434131622314,-0.1806767582893371
-0.0430426597595214,0.0156169747933745,0.166325956583023,-0.1792398244142532,0.0916574746370315,0.2646538317203522,0.0,0.0,0.1391736268997192,-0.3183499574661255
-0.0411269180476665,0.0115840770304203,0.1779925376176834,-0.1801262348890304,0.105126179754734,0.2693739831447601,0.0,0.0,0.2740154266357422,-0.3438432216644287
-0.0393842682242393,0.0084559777751564,0.1802588552236557,-0.1386290043592453,0.0991647765040397,-0.1192498356103897,0.0,1.0,0.7221956253051758,0.3374587297439575
-0.0380406379699707,0.0062123630195856,0.1607069373130798,-0.0981757938861846,0.073049820959568,-0.5223127603530884,0.0,1.0,0.1641629934310913,-0.6546170115470886
-0.0369385704398155,0.0044100261293351,0.1472761929035186,-0.0787189900875091,0.0363440029323101,-0.734190821647644,0.0,1.0,0.4006154537200928,-0.8937301635742188
-0.0358735099434852,0.0027614331338554,0.140359491109848,-0.0727913603186607,0.0029152119532227,-0.6685761213302612,0.0,1.0,0.1880089044570922,-0.734309196472168
-0.0347608551383018,0.0010091996518895,0.1435289680957794,-0.0781215205788612,-0.028933921828866,-0.636983335018158,0.0,0.0,0.3533992767333984,-0.9507943391799928
-0.0334311500191688,0.0003328537859488,0.1439580619335174,-0.0303321480751037,-0.0396802090108394,-0.2147897183895111,1.0,0.0,-0.0438500046730041,-0.7065728306770325
-0.0320413596928119,-0.0001561307872179,0.1299351155757904,-0.021650930866599,-0.0302767883986234,0.1886739730834961,1.0,0.0,-0.6011247038841248,-0.9585067629814148
