x_pos,y_pos,x_vel,y_vel,angle,ang_vel,leg_1,leg_2,main_booster,lat_booster
-0.0014670372474938,1.403257131576538,-0.1482488512992859,-0.3405737578868866,0.0013794703409075,0.0271826926618814,0.0,0.0,-0.5145847201347351,0.926437258720398
-0.0027973174583166,1.3952456712722778,-0.1320030391216278,-0.3560608029365539,0.0003797042008955,-0.0199966393411159,0.0,0.0,-0.2306272387504577,-0.0999510884284973
-0.0040682791732251,1.3868664503097534,-0.1257316321134567,-0.3724075555801391,-0.0009737410000525,-0.0270716454833745,0.0,0.0,-0.0794039368629455,-0.1467323899269104
-0.0052792550995945,1.3781198263168335,-0.1193653121590614,-0.3887351751327514,-0.0026816353201866,-0.0341612473130226,0.0,0.0,-0.0143746137619018,0.4349863529205322
-0.0064292908646166,1.3690061569213867,-0.1129126399755477,-0.4050592482089996,-0.0047435802407562,-0.0412428751587867,0.0,0.0,-0.3561713099479675,-0.240489661693573
-0.0075176237151026,1.359525203704834,-0.1063824146986007,-0.4213826954364776,-0.0071594538167119,-0.0483220070600509,0.0,0.0,-0.46310555934906,0.5025527477264404
-0.0085052493959665,1.3496768474578855,-0.0950074568390846,-0.4377292990684509,-0.010886637493968,-0.0745505541563034,0.0,0.0,-0.0167842507362365,0.0035490989685058
-0.0094300266355276,1.3394615650177002,-0.0883453115820884,-0.4540538489818573,-0.0149665214121341,-0.0816051065921783,0.0,0.0,-0.6595442295074463,-0.2515275478363037
-0.0102911945432424,1.3288792371749878,-0.0816313028335571,-0.4703788161277771,-0.0193991921842098,-0.0886616632342338,0.0,0.0,-0.5612248778343201,-0.6551362872123718
-0.0111398696899414,1.3179354667663574,-0.0813494697213172,-0.4864386916160583,-0.0228838622570037,-0.0696997195482254,0.0,0.0,-0.2406705617904663,-0.1768771409988403
-0.0119241718202829,1.3066247701644895,-0.0745596811175346,-0.5027633905410767,-0.026720393449068,-0.0767375007271766,0.0,0.0,-0.7259867191314697,-0.4174578189849853
-0.0126439090818166,1.2949469089508057,-0.0677414909005165,-0.5190885663032532,-0.0309069566428661,-0.083738699555397,0.0,0.0,-0.3384628295898437,-0.9414218664169312
-0.0133567806333303,1.282909870147705,-0.0681895017623901,-0.535050094127655,-0.0339786037802696,-0.0614384897053241,0.0,0.0,-0.2658164501190185,-0.9587851762771606
-0.0140719413757324,1.2705001831054688,-0.0697575584053993,-0.5515819191932678,-0.035716027021408,-0.0347514301538467,0.0,0.0,-0.4581068158149719,-0.8043918609619141
-0.0147706028074026,1.2577344179153442,-0.0689844712615013,-0.5673919320106506,-0.0365770049393177,-0.0172215607017278,0.0,0.0,-0.6889284253120422,-0.6090506315231323
-0.0154437068849802,1.2445964813232422,-0.0670888125896453,-0.5839141011238098,-0.0367954969406127,-0.0043702227994799,0.0,0.0,-0.8178156614303589,-0.7956032752990723
-0.0161001197993755,1.2311033010482788,-0.0663082003593444,-0.5996777415275574,-0.036138217896223,0.0131468726322054,0.0,0.0,-0.5765685439109802,-0.6156395673751831
-0.0167291648685932,1.2172398567199707,-0.0641628876328468,-0.6161226630210876,-0.0348901003599166,0.0249644443392753,0.0,0.0,-0.4350699186325073,-0.6884899139404297
-0.017339039593935,1.2030181884765625,-0.0630798712372779,-0.6320254802703857,-0.0328339263796806,0.0411276891827583,0.0,0.0,-0.6999586224555969,-0.6388891935348511
-0.0179422385990619,1.188431978225708,-0.0635024309158325,-0.6482070088386536,-0.0296763088554143,0.0631579905748367,0.0,0.0,-0.7745792269706726,-0.4298378229141235
-0.0184815414249897,1.1734788417816162,-0.0567887127399444,-0.6645323038101196,-0.0268536899238824,0.0564572513103485,0.0,0.0,-0.4888305068016052,-0.5113072395324707
-0.0189972873777151,1.1581573486328125,-0.0550929605960845,-0.6808967590332031,-0.0233663897961378,0.0697521865367889,0.0,0.0,-0.269719123840332,-0.5151475667953491
-0.0194820407778024,1.14246928691864,-0.0524834804236888,-0.6971912980079651,-0.0194048061966896,0.0792389065027237,0.0,0.0,-0.4616031646728515,-0.3290486335754394
-0.0199045184999704,1.126414179801941,-0.0459225848317146,-0.7135165333747864,-0.0157683696597814,0.0727350264787674,0.0,0.0,-0.5427324175834656,0.0035191774368286
-0.0202652923762798,1.1099920272827148,-0.0394236892461776,-0.7298418283462524,-0.0124529339373111,0.0663146302103996,0.0,0.0,-0.5415279269218445,-0.0830121040344238
-0.0205649379640817,1.0931812524795532,-0.0330105870962142,-0.7471204400062561,-0.0094542810693383,0.0599732585251331,0.0,0.0,-0.7098156809806824,0.3622758388519287
-0.0208042152225971,1.0760035514831543,-0.0266465153545141,-0.7634429931640625,-0.0067673879675567,0.0537375919520854,0.0,0.0,-0.2113267183303833,0.3470460176467895
-0.0209836959838867,1.0584585666656494,-0.020364424213767,-0.7797654271125793,-0.0043871398083865,0.0476049557328224,0.0,0.0,-0.3295834064483642,0.4688887596130371
-0.0211043357849121,1.040546417236328,-0.0141702350229024,-0.7960878014564514,-0.0023080604150891,0.0415813848376274,0.0,0.0,-0.1469920873641967,0.1550081968307495
-0.0211669914424419,1.02226722240448,-0.0080697555094957,-0.8124097585678101,-0.0005243914783932,0.0356734097003936,0.0,0.0,0.4676783084869385,0.2721965312957763
-0.0211554523557424,1.0047489404678345,-0.000442614138592,-0.7785915732383728,0.0010468472028151,0.0314249247312545,0.0,0.0,-0.1232485771179199,0.3860210180282593
-0.0210878364741802,0.986863374710083,0.0054535022936761,-0.7949134707450867,0.0023352177813649,0.025767583400011,0.0,0.0,-0.4296629428863525,-0.2080294489860534
-0.0209650993347167,0.9686106443405152,0.0112392352893948,-0.8112351894378662,0.0033474916126579,0.0202455651015043,0.0,0.0,0.5859072208404541,-0.1528829336166381
-0.020850945264101,0.9505096673965454,0.0109621863812208,-0.8044888973236084,0.0038077409844845,0.0092048374935984,0.0,0.0,0.5258694887161255,0.4629426002502441
-0.0206708908081054,0.9329105019569396,0.0177246313542127,-0.7821878790855408,0.0040759304538369,0.0053639286197721,0.0,0.0,-0.5395282506942749,0.0249204635620117
-0.0204392429441213,0.9149439930915833,0.0231482125818729,-0.7985094785690308,0.0040903924964368,0.0002891536860261,0.0,0.0,-0.3684182167053222,0.1320142745971679
-0.020157242193818,0.8966101408004761,0.028441309928894,-0.8148309588432312,0.0038592400960624,-0.0046229683794081,0.0,0.0,0.1669753789901733,0.3988264799118042
-0.0198012348264455,0.8787158727645874,0.0359563454985618,-0.795301616191864,0.0035153662320226,-0.0068778009153902,0.0,0.0,-0.4904975295066833,0.0270051956176757
-0.0193971637636423,0.8604543805122375,0.0409749895334243,-0.8116231560707092,0.0029431500006467,-0.0114444326609373,0.0,0.0,-0.0401558876037597,0.1577988862991333
-0.0189466476440429,0.8418256640434265,0.0458500906825065,-0.8279446959495544,0.0021517158020287,-0.0158286057412624,0.0,0.0,-0.1411186456680297,0.3693149089813232
-0.0184511188417673,0.8228296637535095,0.0505777597427368,,0.0011505148140713,-0.0200241059064865,0.0,0.0,0.053312063217163,-0.084433913230896
-0.0178334228694438,0.8039671778678894,0.0626170486211776,-0.838331937789917,0.0003132643760181,-0.016744926571846,0.0,0.0,-0.3574180603027344,0.2929282188415527
-0.0171733852475881,0.7847375273704529,0.0670391619205474,-0.854653537273407,-0.0007140316884033,-0.0205455794930458,0.0,0.0,-0.0142053365707397,-0.5510025024414062
-0.0165089610964059,0.7651395201683044,0.0667347162961959,-0.8710232377052307,-0.00100605818443,-0.0058407592587172,0.0,0.0,0.4060215950012207,0.7425634860992432
-0.015784740447998,0.7455413937568665,0.0744431316852569,-0.8710305094718933,-0.0030043441802263,-0.0399657674133777,0.0,0.0,0.2498383522033691,-0.5009350776672363
-0.0150238033384084,0.7259502410888672,0.0771783366799354,-0.8707247376441956,-0.0040803188458085,-0.021519323810935,0.0,0.0,-0.3101722598075866,-0.1000971794128418
-0.014226627536118,0.7059917449951172,0.0809545740485191,-0.8870465159416199,-0.005303852725774,-0.0244708489626646,0.0,0.0,0.1437684297561645,-0.5949037671089172
-0.013525390997529,0.686539351940155,0.0704486295580864,-0.86455237865448,-0.00561996223405,-0.0063221873715519,0.0,0.0,0.0852028131484985,0.0439627170562744
-0.0128751751035451,0.6674970984458923,0.0658759847283363,-0.8463307023048401,-0.0064644361846148,-0.01688938960433,0.0,0.0,-0.2256639003753662,-0.7001230120658875
-0.0122507093474268,0.6480860710144043,0.0619506016373634,-0.8627111911773682,-0.0059817424044013,0.0096539044752717,0.0,0.0,0.4104840755462646,-0.6126405596733093
-0.0115078929811716,0.6290380954742432,0.0723830312490463,-0.8465672731399536,-0.0041069802828133,0.0374950058758258,0.0,0.0,0.4283598661422729,-0.2655465006828308
-0.0107838632538914,0.6105786561965942,0.0708319917321205,-0.820415735244751,-0.0025534965097904,0.0310695469379425,0.0,0.0,-0.5142620205879211,-0.3204140067100525
-0.0100330356508493,0.5917520523071289,0.0735910460352897,-0.8367375731468201,-0.0010795566486194,0.0294789522886276,0.0,0.0,0.683007001876831,-0.6424704790115356
-0.0093033788725733,0.5737830996513367,0.0702353864908218,-0.7986185550689697,0.001612136256881,0.053833931684494,0.0,0.0,-0.2796977162361145,-0.1410059928894043
-0.0085501670837402,0.5554470419883728,0.0726538151502609,-0.8149408102035522,0.0042471787892282,0.0527008697390556,0.0,0.0,0.6307882070541382,-0.6326693892478943
-0.0079291341826319,0.5374377369880676,0.0584397315979003,-0.8004273176193237,0.0078583164140582,0.0722226575016975,0.0,0.0,0.0215131044387817,0.3331074714660644
-0.0072334287688136,0.5198012590408325,0.0656766295433044,-0.7838701009750366,0.0117042735219001,0.0769190862774849,0.0,0.0,0.2468966245651245,0.1498210430145263
-0.0064205168746411,0.5025630593299866,0.0769256874918937,-0.7661835551261902,0.0160090308636426,0.0860951691865921,0.0,0.0,0.3581300973892212,0.5074172019958496
-0.0054945945739746,0.485980749130249,0.0891084223985672,-0.7370359897613525,0.0194512084126472,0.0688436180353164,0.0,0.0,-0.2576791048049927,-0.2340939044952392
-0.0045526502653956,0.4690312445163727,0.0907000824809074,-0.7533586621284485,0.0228920150548219,0.0688163265585899,0.0,0.0,0.5291099548339844,-0.3654299974441528
-0.0035569190513342,0.4522303342819214,0.0958651155233383,-0.7467692494392395,0.0265611633658409,0.0733830630779266,0.0,0.0,0.4830076694488525,-0.548862636089325
-0.0027054785750806,0.4360037446022033,0.0805374085903167,-0.7212697863578796,0.0311064347624778,0.090905413031578,0.0,0.0,0.7094583511352539,0.5528593063354492
-0.0016786574851721,0.4202194809913635,0.098792515695095,-0.7016083598136902,0.0349472612142562,0.0768163949251174,0.0,0.0,0.3545241355895996,-0.5215252041816711
-0.000679588294588,0.4048213958740234,0.0948841720819473,-0.6844881772994995,0.0399133190512657,0.0993211716413497,0.0,0.0,-0.2631095647811889,-0.2056813240051269
0.0003283500554971,0.3890563547611236,0.0957208722829818,-0.7008119821548462,0.0449280254542827,0.100293792784214,0.0,0.0,0.7071131467819214,-0.1634043455123901
0.0011886596912518,0.3738309144973755,0.0814986005425453,-0.6768293380737305,0.0494088046252727,0.0896156653761863,0.0,0.0,0.6982656717300415,0.4047378301620483
0.0020339966285973,0.3595581352710724,0.0798217803239822,-0.634508490562439,0.0540582835674285,0.0929895788431167,0.0,0.0,-0.0232641100883483,0.2267476320266723
0.0028843879699707,0.344918429851532,0.0802573710680008,-0.6508322954177856,0.0587828904390335,0.0944923236966133,0.0,0.0,0.7849805355072021,0.7562425136566162
0.0037757873069494,0.3313097655773163,0.0857320204377174,-0.6049692630767822,0.0621512867510318,0.0673681050539016,0.0,0.0,0.4164190292358398,-0.1400977373123169
0.0045642852783203,0.317933976650238,0.0757321193814277,-0.5946081280708313,0.0652376785874366,0.0617275536060333,0.0,0.0,0.4343142509460449,-0.0919384360313415
0.0052368165925145,0.3050633668899536,0.0644023865461349,-0.5721548199653625,0.0680539608001709,0.0563257522881031,0.0,0.0,0.5368356704711914,0.5742554664611816
0.0059469221159815,0.2927008867263794,0.0691411346197128,-0.5495290756225586,0.0699064508080482,0.037049826234579,0.0,0.0,0.1376922130584716,-0.3192890882492065
0.0065279006958007,0.280832290649414,0.0565244853496551,-0.5275692343711853,0.0714612826704979,0.031096214428544,0.0,0.0,0.3387717008590698,-0.2179054021835327
0.007133865263313,0.2693030834197998,0.0586311593651771,-0.512505054473877,0.0734106749296188,0.0389881506562233,0.0,0.0,0.6756105422973633,0.2391587495803833
0.0076749799773097,0.2579964101314544,0.0521724447607994,-0.5026151537895203,0.0753271877765655,0.0383302718400955,0.0,0.0,0.464144229888916,0.6211892366409302
0.0083069801330566,0.2467599511146545,0.0622323527932167,-0.4994457364082336,0.0762785226106643,0.0190268214792013,0.0,0.0,0.6122720241546631,-0.4483810663223266
0.0088797565549612,0.2356483787298202,0.0563277006149292,-0.4938991665840149,0.0772237554192543,0.0189047511667013,0.0,0.0,0.2177807092666626,0.3503215312957763
0.0093976017087697,0.2250432819128036,0.0507177338004112,-0.471390813589096,0.0782821401953697,0.0211675986647605,0.0,0.0,0.8757214546203613,-0.5257230997085571
0.009893131442368,0.2154678702354431,0.0470009371638298,-0.4257093966007232,0.0808137580752372,0.0506324991583824,0.0,0.0,0.0285199880599975,0.1088042259216308
0.0102733615785837,0.2062777578830719,0.0356365144252777,-0.4085800945758819,0.0831731632351875,0.0471880659461021,0.0,0.0,0.6416242122650146,-0.3353604674339294
0.0104929925873875,0.1971965879201889,0.0200283676385879,-0.403716504573822,0.0850929543375969,0.038395807147026,0.0,0.0,0.8782546520233154,-0.4620313644409179
0.0106766698881983,0.1890974640846252,0.0160516593605279,-0.3600959181785583,0.0873838290572166,0.0458173900842666,0.0,0.0,-0.2662773132324219,0.7253426313400269
0.0109022138640284,0.1806374937295913,0.021296888589859,-0.376073271036148,0.0886350348591804,0.0250241663306951,0.0,0.0,0.2947428226470947,-0.9287185668945312
0.0109522817656397,0.1725917905569076,0.001732055330649,-0.3577849268913269,0.091870941221714,0.06471848487854,0.0,0.0,0.2000520229339599,0.0323374271392822
0.0109411235898733,0.1649366915225982,-0.0045015849173069,-0.3404404520988464,0.0952352955937385,0.0672870427370071,0.0,0.0,0.5611679553985596,0.5365177392959595
0.0110023496672511,0.1577543169260025,0.0034090101253241,-0.3193903565406799,0.0979276895523071,0.0538477674126625,0.0,0.0,0.2786965370178222,0.2483727931976318
0.0110502243041992,0.1506033241748809,0.0018138268496841,-0.3180224597454071,0.10087850689888,0.0590162575244903,0.0,0.0,0.787498950958252,0.6822457313537598
0.0112109184265136,0.1437550336122512,0.0140270795673131,-0.3045054078102112,0.1029011532664299,0.0404530130326747,0.0,0.0,0.6312555074691772,-0.6707887053489685
0.0114130023866891,0.1373972743749618,0.0162968654185533,-0.2828434705734253,0.1067840307950973,0.0776574462652206,0.0,0.0,0.6523053646087646,0.4771207571029663
0.0117067340761423,0.1312832683324813,0.0246310830116271,-0.2720779776573181,0.1114907190203666,0.0941341742873191,0.0,0.0,0.3227970600128174,-0.5540029406547546
0.011880206875503,0.1256953328847885,0.0113269183784723,-0.2488172501325607,0.1174705773591995,0.1195971518754959,0.0,0.0,-0.0645113587379455,0.86301589012146
0.0121203418821096,0.1197597831487655,0.0196378789842128,-0.2641505300998688,0.121817834675312,0.0869450122117996,0.0,0.0,0.1986132860183715,0.5775607824325562
0.0124423028901219,0.1142067536711692,0.0286296755075454,-0.247096836566925,0.1253724843263626,0.0710926875472068,0.0,0.0,0.1903373003005981,-0.0193377137184143
0.0128042222931981,0.1086506471037864,0.0320963338017463,-0.2472875416278839,0.1294455230236053,0.0814609974622726,0.0,0.0,-0.0474734902381897,-0.5823174715042114
0.0131145473569631,0.1027165949344635,0.0254852436482906,-0.2642269730567932,0.1349663436412811,0.1104163751006126,0.0,0.0,0.5887935161590576,-0.8667344450950623
0.0133331296965479,0.0976642444729805,0.0142806293442845,-0.2252535820007324,0.1425294280052185,0.1512615084648132,0.0,0.0,-0.2018460631370544,0.6262331008911133
0.0135985370725393,0.0922556221485138,0.0199833940714597,-0.2410255968570709,0.1490712761878967,0.1308366507291793,0.0,0.0,0.183029294013977,0.7582660913467407
0.0137381553649902,0.0873230770230293,0.0088481018319725,-0.2197433859109878,0.154175579547882,0.1020859703421592,0.0,0.0,-0.1165187954902648,0.2076513767242431
0.0138794900849461,0.0820241048932075,0.0088366288691759,-0.2360694855451584,0.1594607830047607,0.1057038903236389,0.0,0.0,0.3507466316223144,0.7393028736114502
0.0139348981902003,0.0772744491696357,0.0016321461880579,-0.2115193158388137,0.1633719652891159,0.0782236978411674,0.0,0.0,0.0869735479354858,0.5202839374542236
0.013895034790039,0.0728863552212715,-0.0069130300544202,-0.195354014635086,0.1663091778755188,0.0587438717484474,0.0,0.0,-0.1392464637756347,0.3771239519119262
0.0138607025146484,0.0681314766407013,-0.006555019877851,-0.2116788029670715,0.1694236397743225,0.0622895061969757,0.0,0.0,0.2448304891586303,0.9143943786621094
0.0137272831052541,0.0636732205748558,-0.0147483628243207,-0.1983054429292678,0.1708294600248336,0.0281164497137069,0.0,0.0,0.1748911142349243,0.8258051872253418
0.0134817119687795,0.0593820437788963,-0.0244031362235546,-0.1907005757093429,0.1706739068031311,-0.0031111582648009,0.0,0.0,0.1569278240203857,0.9208972454071044
0.0133171081542968,0.0555140115320682,-0.0146466419100761,-0.1717069894075393,0.1688600331544876,-0.0362775437533855,0.0,0.0,-0.1326841115951538,0.839241623878479
0.0132367135956883,0.051290426403284,-0.0045532481744885,-0.1873235702514648,0.1653672903776168,-0.0698546469211578,0.0,0.0,0.5209212303161621,0.9198038578033448
0.0132734300568699,0.0478016249835491,0.0086712054908275,-0.15451081097126,0.1603689789772033,-0.0999663099646568,0.0,0.0,0.0793306827545166,0.7278205156326294
0.0132830617949366,0.0447127185761928,0.0072732092812657,-0.1366177499294281,0.154060497879982,-0.1261696368455886,0.0,0.0,-0.2476212382316589,0.4623223543167114
0.0133090019226074,0.0412573926150798,0.008756211027503,-0.1529447436332702,0.1479132771492004,-0.1229442954063415,0.0,0.0,0.0436186790466308,0.689510703086853
0.0134077072143554,0.0380033366382122,0.017205512151122,-0.1439172327518463,0.1405933648347854,-0.1463982164859771,0.0,0.0,0.2146445512771606,0.3316545486450195
0.0134370801970362,0.0352733470499515,0.0101591544225811,-0.1206689774990081,0.133403792977333,-0.1437913626432418,0.0,0.0,-0.1329945921897888,-0.0092471241950988
0.0134885786101222,0.0321770757436752,0.0122212087735533,-0.1369965523481369,0.1263655871152877,-0.1407640427350998,0.0,0.0,-0.1827359199523925,0.2258131504058838
0.013564109802246,0.0287144519388675,0.0144868493080139,-0.1533238440752029,0.1194750890135765,-0.1378102451562881,0.0,0.0,0.1078319549560546,-0.7149096131324768
0.0134674068540334,0.0254771336913108,-0.0042311623692512,-0.1434534341096878,0.1140652447938919,-0.1081969887018203,0.0,0.0,0.16311776638031,-0.0344551801681518
0.0132678030058741,0.0223978850990533,-0.0142259746789932,-0.1364295482635498,0.1083771735429763,-0.1137614697217941,0.0,0.0,0.2814424037933349,0.3020253181457519
0.013034725561738,0.0196013078093528,-0.0176338125020265,-0.1238914057612419,0.1027474626898765,-0.1125944107770919,0.0,0.0,-0.0349953770637512,0.3789359331130981
0.0128341671079397,0.0164380893111228,-0.0145108448341488,-0.1402167826890945,0.0972490236163139,-0.1099688187241554,0.0,0.0,0.6967588663101196,0.152955412864685
0.0127660753205418,0.0134790753945708,-0.0020259744487702,-0.1312100738286972,0.0924977958202362,-0.0950243845582008,0.0,0.0,0.1802700757980346,0.1333482265472412
0.0127590177580714,0.0108924247324466,0.003643526462838,-0.1146994456648826,0.0881908163428306,-0.0861395522952079,0.0,0.0,-0.0446857810020446,-0.5285494923591614
0.0127509115263819,0.0079385973513126,0.0024026501923799,-0.131094142794609,0.0850088968873024,-0.0636381804943084,0.0,0.0,0.2697886228561401,-0.3827645778656006
0.0127308843657374,0.0056240651756525,0.0172855090349912,-0.10191560536623,0.0658051073551178,-0.3842177093029022,0.0,1.0,0.6096529960632324,0.14520263671875
