x_pos,y_pos,x_vel,y_vel,angle,ang_vel,leg_1,leg_2,main_booster,lat_booster
-0.0015563011402264,1.4029672145843506,-0.1575531214475631,-0.3534547090530395,0.0017221164889633,0.0339673832058906,0.0,0.0,0.9226888711475084,-0.0039090778854478
-0.003087043762207,1.395185947418213,-0.1549978554248809,-0.345836728811264,0.0036213321145623,0.0379886403679847,0.0,0.0,0.8677258592838026,0.7087066750111739
-0.0044353483244776,1.3874281644821167,-0.1356776803731918,-0.3447974026203155,0.0044650062918663,0.0168752074241638,0.0,0.0,0.5734975148233219,-0.2011240978573047
-0.0059349061921238,1.3797260522842407,-0.1501964330673217,-0.3423164486885071,0.0046982481144368,0.0046652313321828,0.0,0.0,0.3869025343100674,-0.1214061790025775
-0.0073654176667332,1.3721885681152344,-0.1437503695487976,-0.3349974751472473,0.0053858156315982,0.0137525517493486,0.0,0.0,0.984155598240436,-0.1133258090368671
-0.0086722373962402,1.364973783493042,-0.1321093738079071,-0.3206661641597748,0.0067983036860823,0.0282526053488254,0.0,0.0,0.4417921158991553,-0.7530773353813992
-0.0101021770387887,1.3578569889068604,-0.1458275616168975,-0.3163221776485443,0.0096026891842484,0.0560929700732231,0.0,0.0,0.130534601457755,-0.2685993440888833
-0.0114734647795557,1.3507484197616575,-0.1403979361057281,-0.315954327583313,0.0128361377865076,0.0646746978163719,0.0,0.0,-0.125880678410138,0.3025298571552322
-0.0128849986940622,1.3429830074310305,-0.1443623602390289,-0.3451617062091827,0.0160141587257385,0.0635664016008377,0.0,0.0,0.0980601253382211,-0.3698121973178945
-0.0143457408994436,1.33528470993042,-0.1492306143045425,-0.3421835005283355,0.019137293100357,0.0624683313071727,0.0,0.0,-0.0903583514713373,-0.9968953388105142
-0.0159155838191509,1.3269282579421997,-0.1618007272481918,-0.3714706301689148,0.0239040292799472,0.0953433066606521,0.0,0.0,0.7251380751779894,0.2273901279741889
-0.0174673087894916,1.3187447786331177,-0.1602937877178192,-0.3637996912002563,0.0289727598428726,0.1013838201761245,0.0,0.0,0.4929228992226799,0.060600640598011
-0.0189627651125192,1.3108572959899902,-0.1551945060491562,-0.3506752550601959,0.0345543585717678,0.1116422414779663,0.0,0.0,0.6243591831128168,0.6425479632216402
-0.0203898437321186,1.302836775779724,-0.1471935510635376,-0.3565760850906372,0.0389958620071411,0.0888383239507675,0.0,0.0,0.8182567875645392,0.5007425959065275
-0.0216930396854877,1.2955363988876345,-0.1342694461345672,-0.3245692849159241,0.0429058261215686,0.0782065466046333,0.0,0.0,-0.0106800818606358,0.2100340856207144
-0.0230413433164358,1.28757905960083,-0.1387465298175811,-0.3537840843200683,0.0467826537787914,0.0775432735681533,0.0,0.0,0.2491395946711043,0.1090520933254285
-0.024361515417695,1.2799410820007324,-0.1363949477672577,-0.3396034240722656,0.0511196367442607,0.0867475122213363,0.0,0.0,0.2068967113875695,0.3162727677317541
-0.0256380084902048,1.2720643281936646,-0.1324915736913681,-0.3502562344074249,0.0559188909828662,0.0959933996200561,0.0,0.0,-0.3983315872968309,0.9401128153365726
-0.0268754009157419,1.263546586036682,-0.1263806521892547,-0.3786658346652984,0.058525875210762,0.0521444156765937,0.0,0.0,-0.802403467746174,0.7452815474743213
-0.0281091686338186,1.25437593460083,-0.1246941834688186,-0.4076362550258636,0.0598344281315803,0.0261736549437046,0.0,0.0,0.2931934454801295,0.5785666170151668
-0.029270838946104,1.2454475164413452,-0.1165413632988929,-0.3968320488929748,0.0602022781968116,0.0073576136492192,0.0,0.0,-0.9684499332190508,0.2555438880500871
-0.0304804798215627,1.2358617782592771,-0.1213359981775283,-0.4260438978672027,0.0605629980564117,0.0072149895131587,0.0,0.0,-0.7856146076308754,0.3836166426755245
-0.0317386612296104,1.225619196891785,-0.1261767596006393,-0.4552460014820099,0.0609213635325431,0.0071675404906272,0.0,0.0,0.2137290796185509,-0.6633486684053765
-0.0330543518066406,1.2150557041168213,-0.1333516538143158,-0.4695555567741394,0.0626890361309051,0.0353565886616706,0.0,0.0,-0.2499231370691925,-0.6256504727680893
-0.0344804748892784,1.2038313150405884,-0.1459462195634842,-0.4990072250366211,0.0660020411014556,0.066265620291233,0.0,0.0,0.7480988912009103,0.9308409205237754
-0.0361025817692279,1.193038821220398,-0.1634302884340286,-0.4797256886959076,0.0672084912657737,0.0241290982812643,0.0,0.0,-0.3167586529911794,0.7958749887644099
-0.0377114303410053,1.1816004514694214,-0.160512313246727,-0.5083521008491516,0.0668370053172111,-0.0074298297986388,0.0,0.0,-0.0169508535317828,-0.1326151482488408
-0.039370346814394,1.1695051193237305,-0.1655403673648834,-0.537554919719696,0.0664884522557258,-0.006970933638513,0.0,0.0,0.1423664262369421,-0.1993658667380164
-0.0412051193416118,1.1575453281402588,-0.1827369630336761,-0.5315113067626953,0.0657506212592125,-0.0147565547376871,0.0,0.0,-0.7933347360816907,-0.3964395956381341
-0.043090533465147,1.1449284553527832,-0.1878235787153244,-0.5607141852378845,0.0650462284684181,-0.0140878809615969,0.0,0.0,-0.8522097689218573,0.561693940309376
-0.0449811927974224,1.1316654682159424,-0.1872244775295257,-0.5893869996070862,0.0632262155413627,-0.0364004671573638,0.0,0.0,-0.8072421550750732,0.9638736248016356
-0.0468562133610248,1.117746114730835,-0.1840188652276992,-0.6184885501861572,0.0597809217870235,-0.0689057782292366,0.0,0.0,-0.6926339268684387,0.590064287185669
-0.0487423911690712,1.1031794548034668,-0.1841511726379394,-0.6472452282905579,0.055370882153511,-0.088201068341732,0.0,0.0,-0.9674103856086732,0.3866221904754638
-0.0506796836853027,1.0879557132720947,-0.1893277913331985,-0.6764497756958008,0.0510164052248001,-0.0870897471904754,0.0,0.0,-0.7267569899559021,0.5573301315307617
-0.0526230819523334,1.072080135345459,-0.1888490617275238,-0.705409586429596,0.0455839559435844,-0.1086489930748939,0.0,0.0,-0.7940065860748291,0.8625638484954834
-0.0545479767024517,1.055559158325195,-0.1852624416351318,-0.7340598702430725,0.0384493879973888,-0.1426910758018493,0.0,0.0,-0.8611686825752258,0.0515625476837158
-0.0565242767333984,1.038381814956665,-0.1904837936162948,-0.7632669806480408,0.0313876681029796,-0.1412345767021179,0.0,0.0,-0.7999146580696106,-0.3206755518913269
-0.0585521683096885,1.0205482244491575,-0.1957159340381622,-0.7924739718437195,0.024404551833868,-0.1396621763706207,0.0,0.0,-0.7862578630447388,-0.7399423122406006
-0.060694120824337,1.0020639896392822,-0.2087946683168411,-0.8214429616928101,0.0190728493034839,-0.1066341027617454,0.0,0.0,0.5757516622543335,-0.2229893207550048
-0.0628717392683029,0.9837933778762816,-0.2125772684812545,-0.8119713664054871,0.0139559805393219,-0.1023373827338218,0.0,0.0,-0.5339527726173401,0.0776282548904419
-0.0651008635759353,0.9648659825325012,-0.2178290337324142,-0.8411762714385986,0.0089350389316678,-0.1004189401865005,0.0,0.0,0.8073792457580566,0.4822911024093628
-0.0672515854239463,0.9461427330970764,-0.2107241153717041,-0.8321266174316406,0.0046402523294091,-0.0858956128358841,0.0,0.0,-0.7494744062423706,0.2257726192474365
-0.0694538131356239,0.926762580871582,-0.2159781754016876,-0.8613308668136597,0.0004527561541181,-0.0837502554059028,0.0,0.0,0.355562686920166,0.0924882888793945
-0.0716260895133018,0.9073761701583862,-0.2134836167097091,-0.8616172075271606,-0.0032451229635626,-0.0739571452140808,0.0,0.0,0.8944358825683594,0.4821125268936157
-0.0738951712846756,0.887839674949646,-0.2230626791715622,-0.8682992458343506,-0.0070402617566287,-0.075902834534645,0.0,0.0,0.2716708183288574,0.9070894718170166
-0.0761010199785232,0.8680219054222107,-0.2150616198778152,-0.8808290958404541,-0.012489809654653,-0.1089908853173255,0.0,0.0,0.5860998630523682,0.7559424638748169
-0.0782279968261718,0.8481844663619995,-0.2059119641780853,-0.881733775138855,-0.0191952791064977,-0.1341091841459274,0.0,0.0,0.7972254753112793,-0.1258777379989624
-0.080510713160038,0.8290545344352722,-0.22104012966156,-0.8503352403640747,-0.0263322181999683,-0.1427390426397323,0.0,0.0,0.3487188816070556,0.3938386440277099
-0.0829353332519531,0.8102369904518127,-0.234870433807373,-0.8364821076393127,-0.0338310748338699,-0.1499772071838379,0.0,0.0,-0.6067473292350769,-0.0114879012107849
-0.08541040122509,0.7907633185386658,-0.2400608360767364,-0.8656890988349915,-0.0411859340965747,-0.147097110748291,0.0,0.0,0.8676984310150146,0.9205676317214966
-0.0876568779349327,0.7715848684310913,-0.2158206701278686,-0.8526411056518555,-0.0499096922576427,-0.1744753718376159,0.0,0.0,0.4864022731781006,-0.4507321715354919
-0.0899719223380088,0.7527471780776978,-0.2225929200649261,-0.8375539779663086,-0.058719877153635,-0.1762037128210067,0.0,0.0,0.2462954521179199,0.5473029613494873
-0.0921835899353027,0.7337406873703003,-0.211503654718399,-0.845137357711792,-0.0682787001132965,-0.1911768466234207,0.0,0.0,0.9355947971343994,-0.3040715456008911
-0.0943770408630371,0.7154764533042908,-0.2098659574985504,-0.812204897403717,-0.0776583701372146,-0.1875935643911361,0.0,0.0,0.5890388488769531,-0.3446711301803589
-0.096440315246582,0.6972405910491943,-0.1976744085550308,-0.8109512329101562,-0.0862093120813369,-0.1710186749696731,0.0,0.0,0.9224362373352052,-0.8841536045074463
-0.0986964255571365,0.6791885495185852,-0.218699648976326,-0.8027242422103882,-0.0930651128292083,-0.1371160298585891,0.0,0.0,0.8822159767150879,0.6430730819702148
-0.1007507294416427,0.6618188619613647,-0.1977011263370514,-0.7724876403808594,-0.1007321029901504,-0.1533398032188415,0.0,0.0,0.3467786312103271,-0.7344810962677002
-0.102729894220829,0.6446056365966797,-0.1920294761657714,-0.765437126159668,-0.1065721437335014,-0.116800770163536,0.0,0.0,0.8964968919754028,-0.2963984608650207
-0.1045703887939453,0.6281315684318542,-0.1787530481815338,-0.732571005821228,-0.1118354946374893,-0.1052670329809188,0.0,0.0,0.1562285423278808,-0.6399693489074707
-0.1065054908394813,0.6118442416191101,-0.1895948052406311,-0.7241844534873962,-0.1157219260931015,-0.0777285397052764,0.0,0.0,0.2717264890670776,0.8833299875259399
-0.1083399802446365,0.5952969789505005,-0.177982822060585,-0.7358709573745728,-0.1211559325456619,-0.1086804047226905,0.0,0.0,0.5055797100067139,-0.6165359020233154
-0.1102896705269813,0.5790744423866272,-0.1907140761613845,-0.7213544845581055,-0.1253870278596878,-0.0846222043037414,0.0,0.0,0.610741376876831,0.4297813177108764
-0.1121017485857009,0.5629224181175232,-0.1777060776948928,-0.7181631922721863,-0.1288699805736541,-0.0696590691804885,0.0,0.0,0.3255105018615722,0.088479995727539
-0.1138760596513748,0.5468411445617676,-0.1742167770862579,-0.7150066494941711,-0.1320720165967941,-0.064040370285511,0.0,0.0,0.9828205108642578,-0.0252271890640258
-0.1156211867928505,0.5308159589767456,-0.1715399026870727,-0.7124937176704407,-0.1350349634885788,-0.0592592842876911,0.0,0.0,0.9316482543945312,-0.2447410821914672
-0.1174593940377235,0.5151899456977844,-0.1803738325834274,-0.6948087215423584,-0.1384698301553726,-0.0686976611614227,0.0,0.0,-0.1239432096481323,0.2784554958343506
-0.1193394660949707,0.4989065527915954,-0.1847593635320663,-0.7240101099014282,-0.1417052894830703,-0.0647091343998909,0.0,0.0,0.8980896472930908,0.0590336322784423
-0.1211195960640907,0.4824447929859161,-0.1754104197025299,-0.7318834066390991,-0.144303485751152,-0.0519637763500213,0.0,0.0,0.9638946056365968,-0.554244875907898
-0.122802734375,0.4668404161930084,-0.1671244204044342,-0.6936436891555786,-0.145488902926445,-0.023708451539278,0.0,0.0,0.9056164026260376,0.538794755935669
-0.1245176345109939,0.4514024257659912,-0.1690965145826339,-0.6863696575164795,-0.1478829085826873,-0.0478803589940071,0.0,0.0,0.8539911508560181,-0.0056844353675842
-0.126260370016098,0.4364572167396545,-0.1716000139713287,-0.6645018458366394,-0.1505486667156219,-0.0533153340220451,0.0,0.0,0.5671482086181641,0.5224401950836182
-0.127879336476326,0.421714723110199,-0.1584630906581878,-0.6555721759796143,-0.1539715528488159,-0.0684576034545898,0.0,0.0,0.1447827816009521,0.6827962398529053
-0.1294893324375152,0.4072006940841675,-0.1562946289777755,-0.645561933517456,-0.1586705148220062,-0.0939791798591613,0.0,0.0,-0.5656346678733826,-0.1516318321228027
-0.1311333626508712,0.3920294642448425,-0.1599085479974746,-0.6747636198997498,-0.1631621271371841,-0.089832529425621,0.0,0.0,0.7706136703491211,0.0353908538818359
-0.1327774971723556,0.376830130815506,-0.1599706709384918,-0.6760209202766418,-0.1676131188869476,-0.0890194401144981,0.0,0.0,0.5789957046508789,-0.5621560215950012
-0.1343765258789062,0.3614206612110138,-0.1569523066282272,-0.6851998567581177,-0.1705599278211593,-0.058936346322298,0.0,0.0,0.9826555252075196,-0.087087333202362
-0.135973259806633,0.345965564250946,-0.1567664295434951,-0.6872298717498779,-0.1734738647937774,-0.0582783222198486,0.0,0.0,0.9903720617294312,0.0953233242034912
-0.1374427825212478,0.3312674760818481,-0.1442172229290008,-0.6535705924034119,-0.1762260496616363,-0.055043626576662,0.0,0.0,0.9484918117523192,-0.4849514365196228
-0.138677030801773,0.3173079192638397,-0.1213154047727584,-0.6206759810447693,-0.1783332824707031,-0.0421448722481727,0.0,0.0,0.8530642986297607,0.0698397159576416
-0.1398966759443283,0.3040776252746582,-0.1194999814033508,-0.5883111357688904,-0.180814728140831,-0.0496285781264305,0.0,0.0,0.6319046020507812,-0.3309923410415649
-0.1412056982517242,0.2907071113586426,-0.1280488520860672,-0.594595193862915,-0.1836796104907989,-0.057297796010971,0.0,0.0,0.8242578506469727,0.7486016750335693
-0.1422690451145172,0.2779435217380523,-0.1022980585694313,-0.5677751302719116,-0.1877292990684509,-0.0809936970472335,0.0,0.0,0.8491328954696655,-0.7319903373718262
-0.1434082090854644,0.2655223309993744,-0.1112789288163185,-0.5523896813392639,-0.1903808712959289,-0.0530312471091747,0.0,0.0,0.6050441265106201,0.4652338027954101
-0.1444911956787109,0.2534286379814148,-0.1056221276521682,-0.537842869758606,-0.193072885274887,-0.0538403987884521,0.0,0.0,0.7710679769515991,0.1108374595642089
-0.1454567909240722,0.2417846322059631,-0.0940320342779159,-0.5178415775299072,-0.1956191807985305,-0.0509255602955818,0.0,0.0,0.7002359628677368,-0.4606128931045532
-0.1462296545505523,0.2303379625082016,-0.0753646567463874,-0.5089952945709229,-0.1975462287664413,-0.0385408774018287,0.0,0.0,0.7841057777404785,-0.5089406967163086
-0.1469525396823883,0.2187763601541519,-0.0716653019189834,-0.5139337778091431,-0.1981731802225113,-0.0125391632318496,0.0,0.0,0.9762057065963744,0.3109745979309082
-0.1474785804748535,0.2072326242923736,-0.0526879355311393,-0.5130416750907898,-0.1980849206447601,0.001765243941918,0.0,0.0,0.9985790252685548,0.3133450746536255
-0.147698312997818,0.1959947496652603,-0.0230828858911991,-0.4993146359920501,-0.1969726830720901,0.0222450383007526,0.0,0.0,0.9853744506835938,0.1885876655578613
-0.147662729024887,0.1847472786903381,0.0014850484440103,-0.499612420797348,-0.1948861330747604,0.0417312197387218,0.0,0.0,0.9952094554901124,0.5573215484619141
-0.147413820028305,0.1741707175970077,0.0237425602972507,-0.469919741153717,-0.1937391906976699,0.0229384563863277,0.0,0.0,0.9951779842376708,-0.476816713809967
-0.1469484269618988,0.1642741560935974,0.045033760368824,-0.439649224281311,-0.1922228336334228,0.0303270276635885,0.0,0.0,0.9432878494262696,-0.7464625239372253
-0.1462287008762359,0.1548495888710022,0.0684160217642784,-0.4184114336967468,-0.1886432021856308,0.071592777967453,0.0,0.0,0.6942170858383179,-0.6940233707427979
-0.1453814506530761,0.1452376246452331,0.0793368965387344,-0.4265252351760864,-0.1832368969917297,0.108126163482666,0.0,0.0,0.9521245956420898,-0.7520477175712585
-0.1445379257202148,0.1358885914087295,0.0774247199296951,-0.4146743416786194,-0.1762870997190475,0.1389963328838348,0.0,0.0,0.5020949840545654,-0.4971959590911865
-0.1434668600559234,0.1270209103822708,0.099619522690773,-0.3932512998580932,-0.1687910854816436,0.149920180439949,0.0,0.0,0.824478030204773,-0.3850445747375488
-0.1422989815473556,0.118432343006134,0.1092356219887733,-0.3808764517307281,-0.1612256169319152,0.1513093709945678,0.0,0.0,0.8507504463195801,-0.6304261684417725
-0.1411649733781814,0.1105601638555526,0.1047666072845459,-0.3489597141742706,-0.1525918990373611,0.1726742535829544,0.0,0.0,0.7871124744415283,-0.3295724987983703
-0.1398012191057205,0.1031292974948883,0.1270970851182937,-0.3293364942073822,-0.1433375477790832,0.1850866824388504,0.0,0.0,0.5201699733734131,-0.6100020408630371
-0.1384148597717285,0.096093401312828,0.1280579268932342,-0.3117237985134125,-0.1327974945306778,0.2108011543750763,0.0,0.0,0.5496573448181152,0.1698884963989257
-0.1369857788085937,0.0894611924886703,0.132499560713768,-0.2938700318336487,-0.1224347501993179,0.2072550505399704,0.0,0.0,0.1926568746566772,-0.4875266551971435
-0.1355015784502029,0.0827115401625633,0.1378964930772781,-0.2991544902324676,-0.1119751557707786,0.2091917544603347,0.0,0.0,0.5146176815032959,-0.193386435508728
-0.1340308189392089,0.0761457085609436,0.1368581801652908,-0.2910793125629425,-0.1018321514129638,0.2028602063655853,0.0,0.0,0.3088185787200928,0.5608630180358887
-0.1325700730085373,0.0695548355579376,0.1370681524276733,-0.2923403680324554,-0.0929035097360611,0.1785726249217987,0.0,0.0,0.537487268447876,0.0389376878738403
-0.1309137344360351,0.063292846083641,0.1559842228889465,-0.2777385711669922,-0.0833441615104675,0.1911870390176773,0.0,0.0,0.6454684734344482,-0.1132850050926208
-0.1291286498308181,0.056916557252407,0.1684017479419708,-0.2828568816184997,-0.0733291283249855,0.2003007680177688,0.0,0.0,0.3706742525100708,0.3343148231506347
-0.1271377503871917,0.05081807076931,0.188223510980606,-0.2705439925193786,-0.0625861138105392,0.2148606479167938,0.0,0.0,0.4220458269119262,-0.4921512603759765
-0.1250837296247482,0.0450657717883586,0.1944531202316284,-0.2552345395088196,-0.0517645440995693,0.2164316624403,0.0,0.0,0.7015171051025391,-0.289141833782196
-0.1227947250008583,0.0399648509919643,0.2170911282300949,-0.2263385206460952,-0.0400952473282814,0.2333860695362091,0.0,0.0,0.7524316310882568,-0.8301968574523926
-0.1204133033752441,0.0351291522383689,0.22432641685009,-0.2146089375019073,-0.0264430437237024,0.2730440497398376,0.0,0.0,0.8539862632751465,-0.3683754801750183
-0.1179697960615158,0.0310129262506961,0.2303874045610427,-0.1827527433633804,-0.0126637369394302,0.2755862772464752,0.0,0.0,0.8643972873687744,-0.8076617121696472
-0.1154568642377853,0.0275825597345829,0.2353848218917846,-0.1524037718772888,0.0030396995134651,0.3140686154365539,0.0,0.0,0.6584925651550293,-0.8278000950813293
-0.1128727942705154,0.0241851657629013,0.2405204027891159,-0.1511264890432357,0.0207042377442121,0.3532906472682953,0.0,0.0,0.6884801387786865,-0.844703197479248
-0.1104573234915733,0.021078024059534,0.2220203131437301,-0.1384767740964889,0.0399707481265068,0.3853304088115692,0.0,0.0,0.6431026458740234,0.0065135955810546
-0.1081393212080001,0.0180783849209547,0.2127447128295898,-0.1339325904846191,0.0588041841983795,0.3766692578792572,0.0,0.0,0.5373233556747437,0.2214877605438232
-0.1058203727006912,0.0152102084830403,0.212793618440628,-0.1283308863639831,0.0777007192373275,0.3779305815696716,0.0,0.0,0.0669981241226196,-0.258469820022583
-0.1034586876630783,0.0122072072699666,0.2168531715869903,-0.1345831602811813,0.096828818321228,0.3825618624687195,0.0,0.0,0.3189517259597778,0.6099450588226318
-0.1009087562561035,0.0089986063539981,0.2365755140781402,-0.1438995152711868,0.1151136457920074,0.3656968474388122,0.0,1.0,0.6061387062072754,0.909578800201416
-0.0984046906232833,0.0065992809832096,0.2467946261167526,-0.1072696968913078,0.1173422411084175,0.042773813009262,0.0,1.0,-0.4554487466812134,0.2033096551895141
-0.0961454361677169,0.0040746424347162,0.2429337054491043,-0.1109694167971611,0.1004093885421752,-0.3387159705162048,0.0,1.0,-0.4263532161712646,-0.4572677612304687
-0.0940835028886795,0.0013641095720231,0.2397512197494506,-0.1185707226395607,0.067085213959217,-0.6665652990341187,0.0,1.0,0.79913330078125,-0.7428171038627625
