x_pos,y_pos,x_vel,y_vel,angle,ang_vel,leg_1,leg_2,main_booster,lat_booster
-0.0015069007640704,1.4032522439956665,-0.1528019309043884,-0.3408000767230987,0.0018853670917451,0.0372001267969608,0.0,0.0,-0.4732328653335571,0.7844171524047852
-0.0029304504860192,1.3952313661575315,-0.1426161229610443,-0.35648113489151,0.0021339738741517,0.004973332863301,0.0,0.0,-0.303000271320343,0.623692512512207
-0.0042779920622706,1.386833429336548,-0.1335384547710418,-0.3732449114322662,0.0009419771376997,-0.0238423515111207,0.0,0.0,0.1120527982711792,0.6314215660095215
-0.0056500434875488,1.3785653114318848,-0.1346292942762375,-0.3674706518650055,-0.0016012541018426,-0.0508695244789123,0.0,0.0,-0.0923551321029663,0.0251879692077636
-0.0070063592866063,1.3699249029159546,-0.1330534517765045,-0.3840246200561523,-0.0041382280178368,-0.0507443323731422,0.0,0.0,-0.1974212527275085,0.3923296928405761
-0.0083470344543457,1.3609120845794678,-0.1314797848463058,-0.4005734622478485,-0.0066999229602515,-0.0512388162314891,0.0,0.0,-0.2166691422462463,0.8177139759063721
-0.0096105579286813,1.3515266180038452,-0.1221379041671752,-0.4171584248542785,-0.0108742611482739,-0.0834942683577537,0.0,0.0,0.0102890729904174,0.5594704151153564
-0.0107086179777979,1.3423616886138916,-0.1045445576310157,-0.4073763191699981,-0.0160784926265478,-0.1040940508246421,0.0,0.0,-0.3930234313011169,-0.0506843924522399
-0.0117921829223632,1.33282470703125,-0.1029770597815513,-0.4239329993724823,-0.0213959198445081,-0.1063582077622413,0.0,0.0,-0.3704333305358886,0.4392218589782715
-0.0128614427521824,1.32291579246521,-0.1014166101813316,-0.4404833018779754,-0.026855319738388,-0.1091979369521141,0.0,0.0,-0.1123968362808227,-0.225545048713684
-0.013917064294219,1.3126351833343506,-0.0998647063970565,-0.4570356011390686,-0.0324844978749752,-0.1125940084457397,0.0,0.0,-0.8933152556419373,-0.0698300004005432
-0.0149592403322458,1.3019826412200928,-0.0983225926756858,-0.4735883474349975,-0.0383105240762233,-0.1165310740470886,0.0,0.0,-0.3170061111450195,0.170582890510559
-0.0159882549196481,1.290958046913147,-0.0967915803194046,-0.4901415407657623,-0.0443594120442867,-0.1209887042641639,0.0,0.0,-0.3408620357513428,-0.2993240356445312
-0.0170045848935842,1.279561996459961,-0.0952729657292366,-0.5066952705383301,-0.0506560876965522,-0.1259450614452362,0.0,0.0,-0.0416784286499023,-0.8510278463363647
-0.0180596355348825,1.2678070068359375,-0.1001821532845497,-0.5226410627365112,-0.0559287630021572,-0.1054631099104881,0.0,0.0,0.6025221347808838,-0.9450871348381042
-0.0190418250858783,1.2560968399047852,-0.0946554392576217,-0.520587146282196,-0.0594630576670169,-0.0706920996308326,0.0,0.0,-0.1292536258697509,0.1057546138763427
-0.0200125686824321,1.244014859199524,-0.093191847205162,-0.5371434688568115,-0.0633140280842781,-0.0770263373851776,0.0,0.0,-0.3677457571029663,-0.8520433306694031
-0.0210238453000783,1.231558322906494,-0.0982079654932022,-0.5537441968917847,-0.0662090927362442,-0.0579065196216106,0.0,0.0,-0.2632249593734741,-0.7870312333106995
-0.0220762249082326,1.218742609024048,-0.1032787710428237,-0.5696775913238525,-0.0681455582380294,-0.03873261064291,0.0,0.0,-0.4033572077751159,-0.0288800597190856
-0.0231184009462595,1.2055548429489136,-0.1018784418702125,-0.5862302184104919,-0.070454865694046,-0.0461901128292083,0.0,0.0,-0.0788688063621521,-0.8214057683944702
-0.0242013931274414,1.1920065879821775,-0.1068744212388992,-0.602215588092804,-0.0718634277582168,-0.0281739477068185,0.0,0.0,-0.522417426109314,-0.7094731330871582
-0.0253299716860055,1.1780881881713867,-0.1124224290251731,-0.6186169385910034,-0.0722936764359474,-0.0086054615676403,0.0,0.0,-0.6639870405197144,0.1437186002731323
-0.0264494903385639,1.1637977361679075,-0.1110967770218849,-0.6351697444915771,-0.0731425285339355,-0.0169786773622035,0.0,0.0,-0.4080407619476318,-0.3421031236648559
-0.0275603290647268,1.1491354703903198,-0.1097956150770187,-0.6517227292060852,-0.0744222998619079,-0.0255978498607873,0.0,0.0,-0.492156445980072,-0.4885036945343017
-0.0286629684269428,1.134101152420044,-0.1085203066468238,-0.6682760119438171,-0.0761451348662376,-0.034459613263607,0.0,0.0,0.2347774505615234,-0.8507884740829468
-0.0299104694277048,1.1194870471954346,-0.1241679564118385,-0.6495422124862671,-0.0767203643918037,-0.0115045914426445,0.0,0.0,-0.219338059425354,-0.1055078506469726
-0.0311505310237407,1.1045013666152954,-0.1229535192251205,-0.6660932898521423,-0.0777598842978477,-0.0207903981208801,0.0,0.0,0.2332807779312133,0.0947504043579101
-0.0324328429996967,1.090076208114624,-0.126252070069313,-0.6412163972854614,-0.0797241926193237,-0.0392860397696495,0.0,0.0,0.1349146366119384,-0.7454281449317932
-0.0338266380131244,1.0761003494262695,-0.1383224874734878,-0.621202826499939,-0.0807768329977989,-0.0210525803267955,0.0,0.0,-0.9581343531608582,-0.4760411381721496
-0.035214327275753,1.0617527961730957,-0.1372029334306717,-0.6377542018890381,-0.0823189988732338,-0.030843436717987,0.0,0.0,-0.151518166065216,-0.0403158664703369
-0.0365961082279682,1.0470335483551023,-0.1361167430877685,-0.6543057560920715,-0.0843577310442924,-0.0407743379473686,0.0,0.0,0.4033354520797729,-0.6385480165481567
-0.0380639061331748,1.032510757446289,-0.1453581899404525,-0.6455390453338623,-0.0857697650790214,-0.0282407961785793,0.0,0.0,-0.6503643989562988,-0.5957319736480713
-0.0395797714591026,1.0176286697387695,-0.1510108113288879,-0.6614588499069214,-0.0863391906023025,-0.0113886808976531,0.0,0.0,-0.3113298416137695,0.589369535446167
-0.0410497672855854,1.0023642778396606,-0.1448458731174469,-0.6785483956336975,-0.0884743183851242,-0.0427024438977241,0.0,0.0,-0.581243097782135,-0.1378365755081176
-0.0425155647099018,0.9867280721664428,-0.1438998132944107,-0.6951006054878235,-0.0911282524466514,-0.0530787892639637,0.0,0.0,-0.6691238880157471,-0.3909106850624084
-0.0439775474369525,0.9707204699516296,-0.142990157008171,-0.7116531133651733,-0.0943053662776947,-0.063542254269123,0.0,0.0,-0.1651128530502319,-0.982824206352234
-0.0455172546207904,0.954347550868988,-0.1522879600524902,-0.7277894616127014,-0.0959670320153236,-0.0332334637641906,0.0,0.0,0.6708905696868896,-0.8463274240493774
-0.0470037460327148,0.9387626051902772,-0.1482153981924057,-0.6926987171173096,-0.0963987931609153,-0.0086356811225414,0.0,0.0,-0.6296722888946533,-0.4025013446807861
-0.0484877601265907,0.9228057861328124,-0.1474166810512542,-0.7092511057853699,-0.0973645225167274,-0.0193148013204336,0.0,0.0,-0.6015771627426147,-0.5371735692024231
-0.0500096306204795,0.906484067440033,-0.151710569858551,-0.7254437804222107,-0.0978463590145111,-0.0096365977078676,0.0,0.0,-0.1177588701248169,-0.6578827500343323
-0.0515904426574707,0.889805018901825,-0.1586048901081085,-0.7412500381469727,-0.097321793437004,0.0104916030541062,0.0,0.0,-0.3268576264381408,-0.5991916656494141
-0.0532073974609375,0.8727588057518005,-0.1626350581645965,-0.7575560212135315,-0.0963899791240692,0.0186359696090221,0.0,0.0,0.4658217430114746,-0.2277514934539795
-0.0547107681632041,0.8557437062263489,-0.1511289775371551,-0.7561719417572021,-0.0956035405397415,0.0157287511974573,0.0,0.0,-0.2843449115753174,-0.2025917768478393
-0.0562135688960552,0.8383569717407227,-0.1505166888236999,-0.7727243304252625,-0.0953631550073623,0.0048076529055833,0.0,0.0,0.7923059463500977,-0.2836160063743591
-0.0577295310795307,0.8210821151733398,-0.1510817408561706,-0.767808198928833,-0.0958745703101158,-0.0102283041924238,0.0,0.0,0.4835114479064941,-0.5712890625
-0.0592178329825401,0.8038777709007263,-0.1490083932876587,-0.7646237015724182,-0.095694676041603,0.0035977065563201,0.0,0.0,-0.2263784408569336,-0.3604460954666137
-0.060706615447998,0.7863019704818726,-0.1485051810741424,-0.7811761498451233,-0.0960655733942985,-0.00741798710078,0.0,0.0,-0.0466276407241821,-0.5401829481124878
-0.0622463226318359,0.7683674693107605,-0.1543360948562622,-0.7970648407936096,-0.0957088097929954,0.0071353083476424,0.0,0.0,0.6429226398468018,-0.2173678874969482
-0.0638438239693641,0.7512505650520325,-0.1589283496141433,-0.7608053684234619,-0.0965155512094497,-0.0161349307745695,0.0,0.0,-0.1226047873497009,-0.3173840045928955
-0.0654428452253341,0.7337619662284851,-0.1585293412208557,-0.7773578763008118,-0.097876451909542,-0.0272180791944265,0.0,0.0,0.5807595252990723,-0.041833758354187
-0.06685371696949,0.7166973948478699,-0.1398035734891891,-0.7585119009017944,-0.0991575717926025,-0.0256219990551471,0.0,0.0,0.1928149461746215,-0.439098060131073
-0.0682557076215744,0.7000612616539001,-0.1381460130214691,-0.7395185232162476,-0.1011868119239807,-0.0405847355723381,0.0,0.0,0.1156020164489746,-0.2131592631340026
-0.0695564299821853,0.6834903955459595,-0.1278109103441238,-0.7366347908973694,-0.1034310683608055,-0.0448852069675922,0.0,0.0,-0.5845762491226196,-0.7983914017677307
-0.0709219947457313,0.6665651202201843,-0.1353330016136169,-0.7523195147514343,-0.1046460717916488,-0.0243001393973827,0.0,0.0,0.322732925415039,0.0695024728775024
-0.0721313506364822,0.6498318910598755,-0.1197041049599647,-0.7437827587127686,-0.1058668196201324,-0.0244147591292858,0.0,0.0,0.3918558359146118,0.2022730112075805
-0.0733822807669639,0.6333321928977966,-0.1229244843125343,-0.7334792017936707,-0.1080179139971733,-0.0430223383009433,0.0,0.0,0.1617932319641113,-0.3095466494560241
-0.0745107680559158,0.6172860264778137,-0.1104295402765274,-0.7133399844169617,-0.1104215383529663,-0.0480723269283771,0.0,0.0,0.4783306121826172,-0.7755300402641296
-0.0755007714033126,0.6017586588859558,-0.0977954789996147,-0.6901953816413879,-0.1116187870502471,-0.02394525334239,0.0,0.0,-0.4576081037521362,-0.7757587432861328
-0.0765478163957595,0.5858767032623291,-0.1043062657117843,-0.7058947682380676,-0.1120160669088363,-0.0079456102102994,0.0,0.0,0.2802910804748535,-0.8102622628211975
-0.0776612311601638,0.5705599188804626,-0.1119296327233314,-0.6807000637054443,-0.1114215329289436,0.0118905697017908,0.0,0.0,-0.0117737650871276,0.0767488479614257
-0.0787792205810546,0.554871678352356,-0.1118391901254654,-0.6972532868385315,-0.1113860458135604,0.0007099850336089,0.0,0.0,0.7201244831085205,0.0849900245666503
-0.0799246802926063,0.5399179458618164,-0.1135384887456893,-0.6646845936775208,-0.1123926118016243,-0.0201312657445669,0.0,0.0,-0.127901017665863,-0.0260390043258667
-0.0810752883553505,0.5245927572250366,-0.1134874671697616,-0.6812378764152527,-0.1139582023024559,-0.0313117653131485,0.0,0.0,0.6579892635345459,-0.3733544945716858
-0.0821377784013748,0.5098088383674622,-0.1042177826166153,-0.6572204232215881,-0.1159733682870864,-0.0403031669557094,0.0,0.0,0.4161825180053711,-0.4876784086227417
-0.083159253001213,0.4951642751693725,-0.0995883271098136,-0.6510704755783081,-0.1185163185000419,-0.0508591122925281,0.0,0.0,0.5668823719024658,-0.6961559057235718
-0.0843025222420692,0.4810162186622619,-0.1123399138450622,-0.6289620995521545,-0.120485819876194,-0.0393901765346527,0.0,0.0,-0.4276348948478699,0.5598926544189453
-0.0854053497314453,0.4664950370788574,-0.1065805926918983,-0.6456892490386963,-0.1241683810949325,-0.0736512243747711,0.0,0.0,0.6355183124542236,0.1000920534133911
-0.0863975510001182,0.4520183801651001,-0.0953291207551956,-0.6437320113182068,-0.1280331164598465,-0.0772947743535041,0.0,0.0,0.6743109226226807,-0.8002553582191467
-0.0873169898986816,0.4384731650352478,-0.0891696065664291,-0.6022512912750244,-0.130798265337944,-0.0553029589354991,0.0,0.0,0.1094876527786254,-0.7836676836013794
-0.0883349403738975,0.4250524044036865,-0.09998320043087,-0.5966396331787109,-0.1326047331094741,-0.0361293256282806,0.0,0.0,0.7219288349151611,0.1363847255706787
-0.0893605202436447,0.4123285710811615,-0.0997354239225387,-0.5657548308372498,-0.1354107707738876,-0.0561206750571727,0.0,0.0,-0.6084622740745544,-0.5998601317405701
-0.0904365554451942,0.3992438316345215,-0.1053735986351966,-0.5817514061927795,-0.137635201215744,-0.044488713145256,0.0,0.0,0.5751221179962158,-0.0942233800888061
-0.0915298461914062,0.3870093822479248,-0.1059692725539207,-0.544065535068512,-0.1409834772348404,-0.0669654458761215,0.0,0.0,-0.8811830878257751,0.3256909847259521
-0.0926291495561599,0.3744038343429565,-0.1060198321938514,-0.5606210231781006,-0.1448867172002792,-0.0780651122331619,0.0,0.0,-0.0798861384391784,0.7465938329696655
-0.0936800017952919,0.3614095747470855,-0.0991990193724632,-0.5781071186065674,-0.1507564932107925,-0.1173953860998153,0.0,0.0,0.3049031496047973,-0.9515533447265624
-0.0947121605277061,0.3484181761741638,-0.0987154096364975,-0.5778583288192749,-0.1552481353282928,-0.0898328274488449,0.0,0.0,0.3288182020187378,-0.7024294137954712
-0.0957915335893631,0.335472822189331,-0.1042535901069641,-0.5757350921630859,-0.1589343696832656,-0.0737245976924896,0.0,0.0,-0.2792158722877502,-0.8375504016876221
-0.0969422310590744,0.3221799433231354,-0.1125360876321792,-0.5910694003105164,-0.1614680588245391,-0.0506736151874065,0.0,0.0,0.7576156854629517,-0.2868010997772217
-0.0978751182556152,0.3097802698612213,-0.0905969738960266,-0.5513909459114075,-0.1641582995653152,-0.0538048036396503,0.0,0.0,0.7623238563537598,-0.101431667804718
-0.0987891182303428,0.2983291149139404,-0.0876184627413749,-0.5093626976013184,-0.1679514795541763,-0.0758636593818664,0.0,0.0,-0.6786081790924072,-0.5039236545562744
-0.0997570008039474,0.286514014005661,-0.0936746075749397,-0.5254698991775513,-0.1710692942142486,-0.0623559951782226,0.0,0.0,-0.4398349523544311,-0.781302809715271
-0.1007861122488975,0.2743495106697082,-0.1007199063897132,-0.5408993363380432,-0.1732687056064605,-0.0439881309866905,0.0,0.0,0.4691367149353027,0.4832994937896728
-0.1018209457397461,0.2625934183597564,-0.1003293991088867,-0.5228619575500488,-0.1764297783374786,-0.0632213130593299,0.0,0.0,0.0746126174926757,-0.8084609508514404
-0.1028865799307823,0.2511485517024994,-0.1044770628213882,-0.5089118480682373,-0.1785285770893097,-0.0419756174087524,0.0,0.0,0.3307693004608154,-0.6623861193656921
-0.1039186492562294,0.2401841729879379,-0.1018768399953842,-0.4874643981456756,-0.1798565238714218,-0.0265591889619827,0.0,0.0,-0.5870453715324402,-0.1585667729377746
-0.1049551963806152,0.2288488745689392,-0.1017933338880539,-0.5040205717086792,-0.1817236393690109,-0.037342369556427,0.0,0.0,0.5669715404510498,0.7027513980865479
-0.1058593764901161,0.2175930291414261,-0.0866591334342956,-0.5007244944572449,-0.1854931712150573,-0.0753907784819603,0.0,0.0,0.4185718297958374,-0.7967358827590942
-0.1066784858703613,0.2064629346132278,-0.0793397426605224,-0.4949947297573089,-0.1880802810192108,-0.0517418198287487,0.0,0.0,0.8170344829559326,-0.8542526960372925
-0.1072750091552734,0.1958560496568679,-0.0585878379642963,-0.4715540111064911,-0.1891553252935409,-0.0215010084211826,0.0,0.0,0.8118702173233032,-0.8197945952415466
-0.1076931953430175,0.1854800581932068,-0.0421806648373603,-0.4611068964004516,-0.1887917816638946,0.007270835340023,0.0,0.0,0.6063940525054932,-0.1293994784355163
-0.1079828292131424,0.1758109480142593,-0.0287708099931478,-0.4297653138637543,-0.1889794468879699,-0.0037533012218773,0.0,0.0,0.4846243858337402,-0.908659815788269
-0.1081856712698936,0.1667930632829666,-0.0214370768517255,-0.4006468653678894,-0.1878262013196945,0.0230650920420885,0.0,0.0,0.1018238067626953,-0.966129183769226
-0.1082852333784103,0.1580570787191391,-0.0125049157068133,-0.3879462778568268,-0.1852669566869735,0.0511848255991935,0.0,0.0,-0.1639821529388427,-0.9380172491073608
-0.1084486991167068,0.1489574462175369,-0.0199357364326715,-0.4039815068244934,-0.181661769747734,0.072104163467884,0.0,0.0,0.2948471307754516,-0.7875906825065613
-0.1086488738656044,0.1401030868291854,-0.0246279258280992,-0.3929702639579773,-0.1770409643650055,0.0924160182476043,0.0,0.0,0.6922062635421753,-0.7366803288459778
-0.1086573600769043,0.132181778550148,-0.0066294833086431,-0.3513812124729156,-0.1712494492530822,0.1158306375145912,0.0,0.0,-0.5868653655052185,-0.7508720755577087
-0.1087272614240646,0.1239053308963775,-0.0138418152928352,-0.3670706152915954,-0.1643950343132019,0.1370886117219925,0.0,0.0,0.7958836555480957,-0.0834713578224182
-0.1087893471121788,0.1165708899497985,-0.0119438655674457,-0.3253518939018249,-0.158660426735878,0.1146922931075096,0.0,0.0,0.0647182464599609,-0.4337753057479858
-0.1087247878313064,0.1095183938741684,0.0009459300199523,-0.3128670454025268,-0.1531541645526886,0.110125221312046,0.0,0.0,-0.161503791809082,-0.5544861555099487
-0.1087062805891037,0.1021099165081977,-0.004393913783133,-0.3286374807357788,-0.146918773651123,0.1247077733278274,0.0,0.0,0.4236950874328613,-0.3738616704940796
-0.1086626052856445,0.0953035429120063,-0.0010796503629535,-0.3019776344299316,-0.1414869576692581,0.108636662364006,0.0,0.0,0.2086851596832275,0.4490904808044433
-0.1085838302969932,0.08867097645998,0.0029736799187958,-0.2943257987499237,-0.1366051584482193,0.0976359248161315,0.0,0.0,0.2943965196609497,0.3105082511901855
-0.1085292845964431,0.0823859572410583,0.0014375415630638,-0.2789707481861114,-0.1326034814119339,0.0800334960222244,0.0,0.0,0.1315400600433349,0.8928635120391846
-0.1084744483232498,0.0762708038091659,0.0037417076528072,-0.2716296017169952,-0.1308656185865402,0.0347572565078735,0.0,0.0,0.2585587501525879,0.391545295715332
-0.1082648262381553,0.0705824494361877,0.019280282780528,-0.2526688873767853,-0.1291926801204681,0.0334589965641498,0.0,0.0,0.0132167339324951,0.522019624710083
-0.107940100133419,0.0648385882377624,0.032192438840866,-0.255261480808258,-0.128924161195755,0.0053702336736023,0.0,0.0,0.3409390449523926,0.3604458570480346
-0.1074147224426269,0.059621438384056,0.0521450340747833,-0.2318372875452041,-0.1285271644592285,0.0079403249546885,0.0,0.0,0.5220203399658203,-0.2106611728668213
-0.1068135276436805,0.0551002360880374,0.0602264292538166,-0.2009507566690445,-0.128631517291069,-0.0020871753804385,0.0,0.0,0.2472198009490966,-0.3393292427062988
-0.1060170158743858,0.0511463023722171,0.0796409994363784,-0.1757313162088394,-0.1286284327507019,6.183590448927134e-05,0.0,0.0,-0.1610257625579834,-0.6445185542106628
-0.1052584648132324,0.0468292348086833,0.0751010626554489,-0.1918028146028518,-0.1278780698776245,0.015007384121418,0.0,0.0,-0.0666780471801757,0.0765085220336914
-0.1044930443167686,0.0421405173838138,0.0761511623859405,-0.2083546668291092,-0.1274897754192352,0.0077659962698817,0.0,0.0,0.2618191242218017,-0.0241050720214843
-0.1035976409912109,0.0379661433398723,0.0892787128686904,-0.1855057775974273,-0.1272335797548294,0.0051240185275673,0.0,0.0,0.386899471282959,0.0171114206314086
-0.1025782600045204,0.0339797362685203,0.1017029285430908,-0.1771516501903534,-0.1269943714141845,0.0047839125618338,0.0,0.0,0.3921710252761841,-0.7450234293937683
-0.101656436920166,0.0304311364889144,0.0909310951828956,-0.1576111167669296,-0.1257539242506027,0.0248088631778955,0.0,0.0,0.047913908958435,-0.60113525390625
-0.1008224487304687,0.0270212274044752,0.0813675969839096,-0.1513826996088028,-0.1237288489937782,0.0405014529824256,0.0,0.0,0.2661173343658447,-0.4220494031906128
-0.0999414473772049,0.0238855462521314,0.0864226147532463,-0.1392238885164261,-0.122055247426033,0.0334718264639377,0.0,0.0,0.0191045999526977,-0.5826417803764343
-0.0990375503897667,0.0208719596266746,0.087769903242588,-0.1337231546640396,-0.1194503158330917,0.0520983822643756,0.0,0.0,-0.1405403614044189,-0.0757007598876953
-0.0981223136186599,0.0174865815788507,0.0891426876187324,-0.1502740085124969,-0.1170799881219863,0.0474065020680427,0.0,0.0,0.4938366413116455,-0.8080712556838989
-0.0970880538225174,0.0146478749811649,0.0994743108749389,-0.1258610934019088,-0.1131621971726417,0.0783561617136001,0.0,0.0,0.0167235136032104,-0.6589924097061157
-0.0960189849138259,0.0121893975883722,0.1018173918128013,-0.1088894307613372,-0.1081017404794693,0.1012090891599655,0.0,0.0,0.0998870134353637,-0.7734753489494324
