x_pos,y_pos,x_vel,y_vel,angle,ang_vel,leg_1,leg_2,main_booster,lat_booster
-0.0015254974132403,1.40349280834198,-0.1550140678882599,-0.330105572938919,0.0021984053310006,0.0433982200920581,0.0,0.0,-0.8488120597867099,-0.9501226873651524
-0.0031214714981615,1.395952224731445,-0.1639270186424255,-0.3351512551307678,0.006482483819127,0.0856902077794075,0.0,0.0,0.4834651729484127,0.8004336037940079
-0.0045250891707837,1.3888198137283323,-0.1437370777130127,-0.3170154392719269,0.0098305866122245,0.0669683441519737,0.0,0.0,0.3652383038413811,0.5552538827813378
-0.0059979436919093,1.3821722269058228,-0.1497340649366378,-0.2954689562320709,0.0122480690479278,0.0483538843691349,0.0,0.0,-0.9590578864531828,0.6201766068901569
-0.0074134827591478,1.375395894050598,-0.1429269611835479,-0.3011807799339294,0.0135993128642439,0.0270276870578527,0.0,0.0,0.6597094914694932,0.9069826502834056
-0.0086129186674952,1.369309425354004,-0.1201737895607948,-0.270503431558609,0.0138294165953993,0.004602609667927,0.0,0.0,0.5754349852589538,0.9216526223168608
-0.009773445315659,1.3639183044433594,-0.1148345097899437,-0.2395958602428436,0.0126230465248227,-0.0241293460130691,0.0,0.0,-0.6602469276936462,-0.5645342589251158
-0.0109692569822072,1.3583964109420776,-0.1196346133947372,-0.2454169690608978,0.0126809868961572,0.0011587516637519,0.0,0.0,0.7422163862106095,0.5148244722697348
-0.0121510503813624,1.3540725708007812,-0.1175917536020279,-0.1921630352735519,0.0121000139042735,-0.011620607227087,0.0,0.0,0.3528711811721621,-0.7931403055625976
-0.013405037112534,1.3505128622055054,-0.1268265843391418,-0.1582219004631042,0.0135115683078765,0.028233477845788,0.0,0.0,0.3643321850017627,0.6418815056767493
-0.0145384790375828,1.3475608825683594,-0.1140686646103859,-0.1312084197998047,0.0142271611839532,0.0143131986260414,0.0,0.0,-0.0758059207378114,-0.574358832518531
-0.0157135967165231,1.344475269317627,-0.1196843758225441,-0.1371666342020034,0.0163692869246006,0.0428467504680156,0.0,0.0,0.0748259336052832,0.524671413826606
-0.0167630203068256,1.341946363449097,-0.1066569089889526,-0.1124101802706718,0.0180664137005805,0.0339457765221595,0.0,0.0,0.8324207308235716,0.5378677950386123
-0.0176973342895507,1.3398749828338623,-0.0947411358356475,-0.0920791327953338,0.0193564053624868,0.0258022584021091,0.0,0.0,-0.4215606546113535,0.9571608477976292
-0.0185403823852539,1.3376843929290771,-0.0836660414934158,-0.0973462387919426,0.0187218412756919,-0.0126922037452459,0.0,0.0,-0.4492174157119553,0.7520453672714922
-0.0193148609250783,1.3353557586669922,-0.0754485726356506,-0.1034823805093765,0.016743779182434,-0.0395646020770072,0.0,0.0,0.9435608695288786,-0.916896634056004
-0.0200016982853412,1.3344178199768066,-0.0692902877926826,-0.0416894108057022,0.0173479467630386,0.0120841413736343,0.0,0.0,0.9810073494894108,-0.9700260491474196
-0.0205856319516897,1.3340165615081787,-0.0617167651653289,-0.0178736541420221,0.0206387396901845,0.0658218562602996,0.0,0.0,-0.637472264028041,0.6048878266934314
-0.0211157798767089,1.3334914445877075,-0.0553596019744873,-0.0233805384486913,0.0229487977921962,0.0462052561342716,0.0,0.0,-0.6851261226353569,-0.5778611477753115
-0.0216995235532522,1.3328325748443604,-0.0624371990561485,-0.0293464083224535,0.0269754640758037,0.0805405974388122,0.0,0.0,-0.1460497738914041,0.5248212173627564
-0.0222347266972064,1.3320481777191162,-0.0567282624542713,-0.0349204502999782,0.0301499813795089,0.0634960010647773,0.0,0.0,-0.3990801102238592,0.9920622949766296
-0.0226914398372173,1.3311303853988647,-0.0472704283893108,-0.0408257432281971,0.0317272469401359,0.0315480567514896,0.0,0.0,0.3216057537427419,0.6241986573569134
-0.0229997634887695,1.3307409286499023,-0.0318047180771827,-0.0173305738717317,0.0326897501945495,0.0192519631236791,0.0,0.0,0.1443063829206545,-0.7042131819576813
-999.0,1.330536127090454,-0.0346212871372699,-0.0091679226607084,0.0355237759649753,0.05668555945158,0.0,0.0,-0.1406718112752969,0.6642918392983086
-0.0235962867736816,1.3302037715911863,-0.0301520321518182,-0.0148245282471179,0.0377533510327339,0.0445955134928226,0.0,0.0,-0.685233544922893,0.7343041335804299
-0.0238322261720895,1.329724907875061,-0.0251374058425426,-0.0213215928524732,0.0392803065478801,0.0305393524467945,0.0,0.0,0.255293027767616,-0.7680729509345439
-0.0241487510502338,1.3299434185028076,-0.0351510122418403,0.0096141789108514,0.0427406430244445,0.069206453859806,0.0,0.0,0.2350467918763223,-0.8035765026493349
-0.024668026715517,1.330952286720276,-0.0573439672589302,0.0446790680289268,0.0480933003127574,0.1070532798767089,0.0,0.0,0.588803643528413,-0.7449703208659773
-0.0254214294254779,1.332938313484192,-0.082401268184185,0.0880258753895759,0.0550651475787162,0.1394368708133697,0.0,0.0,0.5055578525284874,-0.9212187242484056
-0.0262948032468557,1.3354480266571045,-0.0966180711984634,0.1111748591065406,0.0642408356070518,0.1835137456655502,0.0,0.0,-0.4744096875394603,-0.782283919004316
-0.0272295959293842,1.3378307819366455,-0.1046675443649292,0.1053815707564354,0.0753145888447761,0.2214754074811935,0.0,0.0,-0.7601355314254761,0.9223175048828124
-0.0281018260866403,1.340085506439209,-0.0971775278449058,0.099677138030529,0.0851780697703361,0.197269394993782,0.0,0.0,-0.6958757042884827,0.7468345165252686
-0.0289244651794433,1.3422236442565918,-0.0913185626268386,0.094486579298973,0.0941394045948982,0.1792267113924026,0.0,0.0,-0.6330001950263977,0.8542531728744507
-0.0296874996274709,1.344232201576233,-0.0841840431094169,0.0887555032968521,0.1019607633352279,0.1564276069402694,0.0,0.0,-0.4480180144309997,0.933290719985962
-0.0303759574890136,1.3461236953735352,-0.0751800015568733,0.083625815808773,0.1082454994320869,0.1256948411464691,0.0,0.0,-0.5730746388435364,0.8132539987564087
-0.0309996604919433,1.347901463508606,-0.0673898831009864,0.0786344558000564,0.1132270619273185,0.0996314287185669,0.0,0.0,-0.4780848026275635,0.5280900001525879
-0.0315840728580951,1.3495522737503052,-0.0628085285425186,0.0730340331792831,0.1175669804215431,0.0867983177304267,0.0,0.0,-0.6175341010093689,0.5852687358856201
-0.0321204178035259,1.3510853052139282,-0.0571129918098449,0.0678577572107315,0.1210221722722053,0.0691038519144058,0.0,0.0,-0.5636499524116516,0.4023944139480591
-0.0326572433114051,1.352487325668335,-0.0575023666024208,0.0619998686015605,0.1248300597071647,0.0761576145887374,0.0,0.0,-0.4065117239952087,0.3218190670013428
-0.0331942550837993,1.3537585735321045,-0.0578737333416938,0.056141722947359,0.1289836317300796,0.0830712020397186,0.0,0.0,-0.5894540548324585,0.7264822721481323
-0.0336851105093956,1.3549139499664309,-0.0523921176791191,0.0510622337460517,0.1322786659002304,0.0659006088972091,0.0,0.0,-0.6047693490982056,0.3682022094726562
-0.0341760627925396,1.3559383153915403,-0.0527249388396739,0.0452043563127517,0.1359034776687622,0.0724960640072822,0.0,0.0,-0.6035381555557251,0.6092033386230469
-0.0346107482910156,1.3568365573883057,-0.0460155233740806,0.0396842844784259,0.1384386271238327,0.0507030375301837,0.0,0.0,-0.6040194630622864,0.5023363828659058
-0.0349992737174034,1.357612133026123,-0.0405414476990699,0.0343161895871162,0.1401158720254898,0.0335445031523704,0.0,0.0,-0.6314328908920288,0.22297203540802
-0.0353875160217285,1.3582565784454346,-0.0408102609217166,0.0284591075032949,0.1420936286449432,0.0395553484559059,0.0,0.0,-0.5731602311134338,0.7375917434692383
-0.03571243211627,1.3587760925292969,-0.0331812724471092,0.0230154432356357,0.1427773833274841,0.0136754410341382,0.0,0.0,-0.5112847089767456,0.5223146677017212
-0.0359915718436241,1.3591710329055786,-0.0277222897857427,0.0175749473273754,0.1425895988941192,-0.0037555613089352,0.0,0.0,-0.6385684013366699,0.634318470954895
-0.0362303741276264,1.3594502210617063,-0.0229127779603004,0.0125036686658859,0.1416307836771011,-0.0191766787320375,0.0,0.0,-0.4810140132904053,0.1133062839508056
-0.0364684090018272,0.0,-0.0230863839387893,0.006647306960076,0.1409218460321426,-0.0141788590699434,0.0,0.0,-0.6334401369094849,0.1113022565841674
-0.0367053970694541,1.3596152067184448,-0.0232349000871181,0.0007911711581982,0.1404478549957275,-0.0094798235222697,0.0,0.0,-0.5389750599861145,0.7344484329223633
-0.036870289593935,1.35951566696167,-0.0144138690084218,-0.0042305770330131,0.1383752524852752,-0.0414519384503364,0.0,0.0,-0.483399748802185,0.4770140647888183
-0.0370342247188091,1.3592848777770996,-0.0145111847668886,-0.0100865997374057,0.1365049183368683,-0.0374065563082695,0.0,0.0,-0.729863703250885,0.5560657978057861
-0.0371452346444129,1.358930230140686,-0.0080907363444566,-0.0154867367818951,0.1335077434778213,-0.059943564236164,0.0,0.0,-0.542725682258606,0.518985390663147
-0.0372145660221576,1.3584574460983276,-0.0030430848710238,-0.0206718519330024,0.129631832242012,-0.0775183588266372,0.0,0.0,-0.6923779845237732,-0.2406678199768066
-0.0372826568782329,1.3578535318374634,-0.0030625846702605,-0.02652801387012,0.1259024441242218,-0.0745877921581268,0.0,0.0,-0.5300717353820801,-0.2711734771728515
-0.0373494140803813,1.3571178913116455,-0.0030563657637685,-0.0323838256299495,0.1222993806004524,-0.0720611065626144,0.0,0.0,-0.5558797717094421,0.0743052959442138
-0.0374148376286029,1.3562510013580322,-0.0030246512033045,-0.0382393077015876,0.1188017651438713,-0.0699521824717521,0.0,0.0,-0.478926420211792,-0.3155709505081177
-0.0374788269400596,1.355252981185913,-0.002967752283439,-0.0440944842994213,0.1153881028294563,-0.0682729035615921,0.0,0.0,-0.6635187864303589,-0.0572099685668945
-0.037541389465332,1.3541234731674194,-0.0028860685415565,-0.0499493740499019,0.1120364516973495,-0.0670331418514251,0.0,0.0,-0.70621657371521,-0.3764498829841614
-0.0376026146113872,1.3528623580932615,-0.0027800800744444,-0.055804006755352,0.1087244376540184,-0.0662403553724289,0.0,0.0,-0.7922726273536682,-0.3186846971511841
-0.0376623161137104,1.3514697551727295,-0.0026503389235585,-0.0616584010422229,0.105429470539093,-0.0658994391560554,0.0,0.0,-0.6391982436180115,-0.7112687230110168
-0.0377861037850379,1.3499386310577393,-0.0107163125649094,-0.0679273530840873,0.1037821173667907,-0.0329473130404949,0.0,0.0,-0.8421468734741211,0.0092955827713012
-0.0379083640873432,1.348275899887085,-0.0105410926043987,-0.0737806558609008,0.102106399834156,-0.0335142947733402,0.0,0.0,-0.8671928644180298,0.3555876016616821
-0.0380292907357215,1.3464815616607666,-0.0103441467508673,-0.0796337649226188,0.1003798171877861,-0.03453179448843,0.0,0.0,-0.910106599330902,0.4183641672134399
-0.0381486900150775,1.344555377960205,-0.0101262452080845,-0.0854867249727249,0.0985801294445991,-0.0359939709305763,0.0,0.0,-0.8645857572555542,0.3634035587310791
-0.0382666587829589,1.3424975872039795,-0.0098881907761096,-0.091339536011219,0.0966855064034462,-0.0378926023840904,0.0,0.0,-0.7849545478820801,0.3172405958175659
-0.0383832938969135,1.3403077125549316,-0.0096308132633566,-0.0971922054886818,0.0946746617555618,-0.0402170568704605,0.0,0.0,-0.8661916851997375,0.2795579433441162
-0.0384984984993934,1.3379861116409302,-0.0093549573794007,-0.1030447781085968,0.0925269350409507,-0.0429547168314456,0.0,0.0,-0.7722257971763611,0.537971019744873
-0.0385684967041015,1.3355450630187988,-0.0035413303412497,-0.1082778349518776,0.0890999287366867,-0.0685398802161216,0.0,0.0,-0.8767802715301514,-0.3878198862075805
-0.0386371612548828,1.332972526550293,-0.003231008304283,-0.114130824804306,0.0854969769716262,-0.0720590353012085,0.0,0.0,-0.9314832091331482,-0.6661800742149353
-0.0387652404606342,1.3302627801895142,-0.0105162421241402,-0.1202947124838829,0.0832285359501838,-0.0453688353300094,0.0,0.0,-0.8055278062820435,0.4577419757843017
-0.0388920791447162,1.3274215459823608,-0.0101750334724783,-0.126146987080574,0.0807484537363052,-0.0496015883982181,0.0,0.0,-0.8427628874778748,0.0201203823089599
-0.0390175804495811,1.3244482278823853,-0.0098195867612957,-0.1319992840290069,0.0780402794480323,-0.0541635975241661,0.0,0.0,-0.8488392233848572,0.0015314817428588
-0.0391419418156147,1.321343183517456,-0.0094507122412323,-0.1378516256809234,0.0750884786248207,-0.0590360462665557,0.0,0.0,-0.9014270305633544,0.244204044342041
-0.0392650589346885,1.318106174468994,-0.0090692015364766,-0.1437040269374847,0.071878470480442,-0.0642000883817672,0.0,0.0,-0.9481363296508788,-0.0027408599853515
-0.0393870361149311,1.3147374391555786,-0.0086758164688944,-0.1495565772056579,0.0683966279029846,-0.0696370750665664,0.0,0.0,-0.946538507938385,-0.4269064664840698
-0.0395077690482139,1.3112369775772097,-0.0082712974399328,-0.1554092466831207,0.0646301880478859,-0.0753287225961685,0.0,0.0,-0.960659682750702,0.7539732456207275
-0.0395689979195594,1.3076171875,-0.0005178352585062,-0.160641923546791,0.0590855777263641,-0.1108923703432083,0.0,0.0,-0.8870680928230286,-0.5742582678794861
-0.0396687500178813,1.303868293762207,-0.0050508799031376,-0.1664365381002426,0.0542233400046825,-0.0972447842359542,0.0,0.0,-0.9802855253219604,0.2750701904296875
-0.0397672653198242,1.299987554550171,-0.0046170647256076,-0.1722903847694397,0.0490435175597667,-0.1035964339971542,0.0,0.0,-0.995898962020874,-0.6541337966918945
-0.0399273857474327,1.2959641218185425,-0.0120341246947646,-0.178702175617218,0.0451191514730453,-0.0784875601530075,0.0,0.0,-0.9773649573326112,-0.7971481084823608
-0.0401453003287315,1.2918119430541992,-0.0189825557172298,-0.1844616830348968,0.0423376411199569,-0.055629801005125,0.0,0.0,-0.975515365600586,-0.1009390354156494
-0.0403622612357139,1.2875277996063232,-0.0185252353549003,-0.1903144270181656,0.0392125435173511,-0.0625019744038581,0.0,0.0,-0.9616132378578186,0.3870186805725097
-0.0405780784785747,1.2831122875213623,-0.0180611405521631,-0.1961674094200134,0.0357365198433399,-0.0695205330848693,0.0,0.0,-0.9816976189613342,0.5515353679656982
-0.0407501235604286,1.2785699367523191,-0.0122329127043485,-0.2017677128314972,0.0308271143585443,-0.0981881096959114,0.0,0.0,-0.998689591884613,-0.1442570090293884
-0.040921114385128,1.2738962173461914,-0.0117567237466573,-0.2076220959424972,0.0255539286881685,-0.1054641008377075,0.0,0.0,-0.9862178564071656,0.016876220703125
-0.041090965270996,1.2690911293029783,-0.0112752113491296,-0.2134769409894943,0.0199112854897975,-0.1128528863191604,0.0,0.0,-0.9903825521469116,0.3990285396575928
-0.041259765625,1.2641545534133911,-0.0107888123020529,-0.2193322777748108,0.0138940280303359,-0.120344839990139,0.0,0.0,-0.9937049746513368,0.086696982383728
-0.0414276123046875,1.259086847305298,-0.0102979466319084,-0.2251881808042526,0.0074974708259105,-0.1279311627149582,0.0,0.0,-0.994249701499939,-0.2902673482894897
-0.0415943153202533,1.2538878917694092,-0.0098030129447579,-0.231044664978981,0.0007172863697633,-0.1356037259101867,0.0,0.0,-0.9909951090812684,-0.1666960716247558
-0.041759967803955,1.2485580444335938,-0.0093043912202119,-0.2369018048048019,-0.0064504607580602,-0.1433550268411636,0.0,0.0,-0.9949556589126588,0.0426346063613891
-0.0419245734810829,1.2430970668792725,-0.0088024456053972,-0.2427596449851989,-0.0140093574300408,-0.1511782109737396,0.0,0.0,-0.9905113577842712,-0.6320894956588745
-0.0421277992427349,1.2375084161758425,-0.0132729513570666,-0.248466283082962,-0.0209655929356813,-0.1391247808933258,0.0,0.0,-0.988739252090454,0.1239986419677734
-0.042329978197813,1.2317888736724854,-0.01276536565274,-0.254324346780777,-0.0283192712813615,-0.1470735967159271,0.0,0.0,-0.9895161986351012,-0.627950131893158
-0.0425850860774517,1.22593891620636,-0.0190352462232112,,-0.0347154065966606,-0.1279226243495941,0.0,0.0,-0.998072624206543,-0.7722516059875488
-0.0428914055228233,1.2199697494506836,-0.0250880755484104,-0.2654303610324859,-0.0401928834617137,-0.1095496416091919,0.0,0.0,-0.9939550161361694,-0.1045702695846557
-0.0431967750191688,1.213869571685791,-0.0245742183178663,-0.2712875306606293,-0.0460753142833709,-0.1176486238837242,0.0,0.0,-0.9709787368774414,-0.1677137017250061
-0.0435009971261024,1.2076385021209717,-0.0240588635206222,-0.2771453559398651,-0.052364744246006,-0.1257889717817306,0.0,0.0,-0.9973159432411194,-0.5417786240577698
-0.0438406951725482,1.2012821435928345,-0.0281284153461456,-0.2827219665050506,-0.0581403411924839,-0.1155115514993667,0.0,0.0,-0.9916924834251404,0.6190826892852783
-0.0441345199942588,1.1947954893112185,-0.0220019295811653,-0.2885981500148773,-0.0654482617974281,-0.1461586058139801,0.0,0.0,-0.9968214631080629,-0.7079825401306152
-0.0444908142089843,1.1881895065307615,-0.0294402092695236,-0.29388427734375,-0.071564145386219,-0.1223178133368492,0.0,0.0,-0.9962009787559508,-0.4627070426940918
-0.0448459610342979,1.1814525127410889,-0.0289213862270116,-0.2997432053089142,-0.0780936256051063,-0.1305896937847137,0.0,0.0,-0.983138620853424,-0.1406875252723693
-0.0452001579105854,1.174585223197937,-0.0284023527055978,-0.3056028187274933,-0.0850379839539527,-0.1388871967792511,0.0,0.0,-0.9830603003501892,-0.8827450275421143
-0.0456403717398643,1.1675962209701538,-0.0388106778264045,-0.310930848121643,-0.0902008414268493,-0.1032574772834777,0.0,0.0,-0.8667265176773071,-0.1721373200416565
-0.0460795387625694,1.1604762077331543,-0.0382916405797004,-0.3167895376682281,-0.0957808047533035,-0.1115995422005653,0.0,0.0,-0.989215612411499,-0.7149480581283569
-0.0465686805546283,1.153226613998413,-0.0441595166921615,-0.3225187361240387,-0.100501075387001,-0.0944050997495651,0.0,0.0,-0.9895238876342772,0.4384053945541382
-0.0470568649470806,1.1458461284637451,-0.0436414517462253,-0.3283774256706238,-0.1056402474641799,-0.1027833595871925,0.0,0.0,-0.9674394130706788,0.0750417709350586
-0.0475440993905067,1.1383349895477295,-0.043124284595251,-0.3342366814613342,-0.1111990958452224,-0.1111768931150436,0.0,0.0,-0.989765763282776,-0.2267459630966186
-0.0480303764343261,1.130692958831787,-0.0426082499325275,-0.34009650349617,-0.1171782985329628,-0.1195840835571289,0.0,0.0,-0.9877280592918396,-0.4378507733345032
-0.0485156998038291,1.1229207515716553,-0.0420935750007629,-0.345956951379776,-0.1235784590244293,-0.1280033141374588,0.0,0.0,-0.9938489198684692,-0.748245358467102
-0.0490588173270225,1.1150363683700562,-0.0489810891449451,-0.3508696556091308,-0.1288850903511047,-0.1061325892806053,0.0,0.0,-0.9929221868515016,-0.6004651188850403
-0.0496429428458213,1.107034683227539,-0.0537420995533466,-0.3560374677181244,-0.1335328668355941,-0.0929551273584365,0.0,0.0,-0.6149717569351196,-0.546323835849762
-0.0502635017037391,1.098907232284546,-0.0579139068722724,-0.3616002798080444,-0.137658879160881,-0.0825204327702522,0.0,0.0,-0.6736094951629639,0.1485317945480346
-0.0508831962943077,1.0906490087509155,-0.0574062839150428,-0.3674598336219787,-0.1422076225280761,-0.0909746438264846,0.0,0.0,-0.9951663017272948,-0.5745958089828491
-0.0515567772090435,1.0822703838348389,-0.0637677833437919,-0.3727322816848755,-0.145786628127098,-0.0715800300240516,0.0,0.0,-0.8705772161483765,-0.3838810920715332
-0.0522295013070106,1.073760986328125,-0.0632650703191757,-0.3785918056964874,-0.1497888267040252,-0.0800444111227989,0.0,0.0,-0.6164202690124512,0.143425703048706
-0.0529014579951763,1.0651209354400637,-0.0627652332186698,-0.3844517171382904,-0.1542144417762756,-0.0885121673345565,0.0,0.0,-0.8818403482437134,-0.6012582778930664
-0.0536100380122661,1.0563535690307615,-0.0669449716806411,-0.3900744020938873,-0.1581244021654129,-0.0781995207071304,0.0,0.0,-0.8977341055870056,-0.872765302658081
-0.0543745979666709,1.0474729537963867,-0.0735846981406211,-0.3950014114379883,-0.1609916538000106,-0.0573450922966003,0.0,0.0,-0.9341121912002563,-0.1149972081184387
-0.0551384910941123,1.0384618043899536,-0.0730945914983749,-0.4008610844612121,-0.1642824858427047,-0.0658167526125907,0.0,0.0,-0.8538181781768799,-0.1387334465980529
-0.0559017173945903,1.0293197631835938,-0.0726083070039749,-0.4067211151123047,-0.1679968535900116,-0.0742876678705215,0.0,0.0,-0.8962112069129944,-0.330651044845581
