x_pos,y_pos,x_vel,y_vel,angle,ang_vel,leg_1,leg_2,main_booster,lat_booster
-0.0015761374961584,1.403188943862915,-0.1597092747688293,-0.3436061143875122,0.0018717298517003,0.0369299426674842,0.0,0.0,-0.3094168901443481,0.6431090831756592
-0.0031502724159508,1.3950425386428833,-0.1579288840293884,-0.3620647490024566,0.0023797925096005,0.0101630147546529,0.0,0.0,-0.206556499004364,0.4287800788879394
-0.004776859190315,1.3864600658416748,-0.1632359325885772,-0.3814433515071869,0.0029519814997911,0.0114446533843874,0.0,0.0,0.3040728569030761,0.6322312355041504
-0.0065109254792332,1.3780312538146973,-0.1725805699825287,-0.3746101260185241,0.0021330271847546,-0.0163806453347206,0.0,0.0,0.3808979988098144,0.92335307598114
-0.0081022260710597,1.3699880838394165,-0.1566376090049743,-0.3574755489826202,-0.000321889470797,-0.0491030551493167,0.0,0.0,-0.0141604542732238,0.7478237152099609
-0.0096728326752781,1.3615083694458008,-0.1528049111366272,-0.3768854737281799,-0.0045287306420505,-0.0841447710990905,0.0,0.0,0.1463534832000732,0.3758561611175537
-0.0113084791228175,1.3531944751739502,-0.159306138753891,-0.3695217669010162,-0.0087455874308943,-0.0843447893857956,0.0,0.0,0.2331634759902954,0.0013601779937744
-0.0128793716430664,1.345168113708496,-0.1534275710582733,-0.3567530810832977,-0.0123673686757683,-0.0724419951438903,0.0,0.0,0.1276057958602905,0.533991813659668
-0.0144607545807957,1.337568283081055,-0.1534583121538162,-0.3378181159496307,-0.0170015878975391,-0.0926927998661995,0.0,0.0,-0.3145626187324524,0.1013890504837036
-0.0160923954099416,1.3295331001281738,-0.1585450768470764,-0.3571793138980865,-0.0215719267725944,-0.0914150550961494,0.0,0.0,-0.4030846953392029,0.4135961532592773
-0.0177739150822162,1.3210628032684326,-0.1635912209749221,-0.3765336275100708,-0.0260799191892147,-0.0901682376861572,0.0,0.0,0.0211759805679321,0.8683310747146606
-0.0193760879337787,1.3126403093338013,-0.153993159532547,-0.374449610710144,-0.0322424173355102,-0.1232611313462257,0.0,0.0,0.2565518617630005,0.4958463907241821
-0.0209109298884868,1.3045755624771118,-0.1477923691272735,-0.3585662841796875,-0.037874449044466,-0.1126509085297584,0.0,0.0,-0.2615096569061279,0.0489842891693115
-0.0224942211061716,1.2960755825042725,-0.1526894271373748,-0.377928614616394,-0.0434466861188411,-0.1114547699689865,0.0,0.0,0.2940514087677002,0.3883233070373535
-0.0239867214113473,1.2881009578704834,-0.1442079097032547,-0.3545810878276825,-0.0484386719763278,-0.0998488143086433,0.0,0.0,-0.5166546106338501,0.3147889375686645
-0.0255263336002826,1.2796909809112549,-0.1489869505167007,-0.3739467263221741,-0.0533726699650287,-0.0986887961626052,0.0,0.0,-0.3862729668617248,0.6662065982818604
-0.0270477291196584,1.270848512649536,-0.1455755978822708,-0.3932447135448456,-0.0598732121288776,-0.1300227642059326,0.0,0.0,-0.6102222800254822,-0.24341881275177
-0.0286149028688669,1.2615710496902466,-0.1502078473567962,-0.4126042425632477,-0.066316895186901,-0.1288850605487823,0.0,0.0,-0.5782090425491333,0.7927582263946533
-0.0301540382206439,1.2518590688705444,-0.1456266790628433,-0.432034969329834,-0.074534073472023,-0.1643582731485366,0.0,0.0,-0.4101887941360473,0.3286281824111938
-0.0317373275756835,1.2417120933532717,-0.150088220834732,-0.4513969719409942,-0.0826969370245933,-0.1632719486951828,0.0,0.0,-0.222071886062622,0.2354105710983276
-0.0333636291325092,1.2311304807662964,-0.1544571816921234,-0.4707590043544769,-0.0908082574605941,-0.1622410714626312,0.0,0.0,-0.0819833278656005,0.884495735168457
-0.0349614135921001,1.220099925994873,-0.1498493701219558,-0.4908833801746368,-0.1006665676832199,-0.1971843391656875,0.0,0.0,-0.3149375915527344,0.4822535514831543
-0.036600112915039,1.208634853363037,-0.1540041863918304,-0.5102487206459045,-0.1104756891727447,-0.1961999982595443,0.0,0.0,-0.3087541460990906,0.7937695980072021
-0.0382097251713275,1.1967153549194336,-0.149369791150093,-0.5306501984596252,-0.1220088675618171,-0.2306839972734451,0.0,0.0,0.025214672088623,0.4905726909637451
-0.039896585047245,1.184972882270813,-0.1567548662424087,-0.5229104161262512,-0.1339054256677627,-0.2379527539014816,0.0,0.0,-0.2421758770942688,0.4166238307952881
-0.0416227355599403,1.1727752685546875,-0.1607186049222946,-0.543228030204773,-0.145761027932167,-0.2371120452880859,0.0,0.0,0.4861414432525635,0.169634461402893
-0.0432865135371685,1.1611130237579346,-0.1545625627040863,-0.5195226073265076,-0.1575631350278854,-0.2360418140888214,0.0,0.0,-0.4607600569725036,0.0129693746566772
-0.0449849143624305,1.1490168571472168,-0.1580687463283538,-0.538887619972229,-0.1693304926156997,-0.2353475540876388,0.0,0.0,0.3247020244598388,-0.6283220052719116
-0.0467735305428504,1.1374521255493164,-0.1681969612836837,-0.5152386426925659,-0.1800155937671661,-0.2137021720409393,0.0,0.0,-0.0710843205451965,0.0597254037857055
-0.048593234270811,1.1254534721374512,-0.1713611632585525,-0.5346015691757202,-0.1906722635030746,-0.2131332606077194,0.0,0.0,0.1878010034561157,-0.4176857471466064
-0.0503137595951557,1.1139132976531982,-0.1615417897701263,-0.5142828822135925,-0.2012415826320648,-0.2113864868879318,0.0,0.0,0.0047013759613037,-0.2154680490493774
-0.0520545952022075,1.102344989776611,-0.1634115278720855,-0.5156365633010864,-0.2120080590248108,-0.2153299301862716,0.0,0.0,-0.5461305379867554,-0.7073938846588135
-0.0538819320499897,1.0903689861297607,-0.1736997365951538,-0.5335901975631714,-0.2211331874132156,-0.1825029999017715,0.0,0.0,0.4936178922653198,-0.7331397533416748
-0.0557805076241493,1.078469157218933,-0.1822094768285751,-0.5300504565238953,-0.2288829535245895,-0.1549954563379287,0.0,0.0,0.9132416248321532,-0.8156540393829346
-0.0575777068734169,1.0672121047973633,-0.1737491935491562,-0.5012544989585876,-0.2349339723587036,-0.1210208162665367,0.0,0.0,-0.0097034573554992,-0.4728294014930725
-0.0593935027718544,1.055519938468933,-0.1756273806095123,-0.5206112265586853,-0.2409781962633133,-0.120884396135807,0.0,0.0,0.636698842048645,-0.9205064177513124
-0.0612173080444335,1.0440815687179563,-0.1782369315624237,-0.5090582370758057,-0.2452048063278198,-0.0845323055982589,0.0,0.0,0.6679730415344238,-0.3874191641807556
-0.0628311187028884,1.0333123207092283,-0.1573949009180069,-0.479306161403656,-0.2492548078298568,-0.0810000449419021,0.0,0.0,-0.6200835704803467,-0.5768374800682068
-0.0645017623901367,1.0221319198608398,-0.1643088907003402,-0.4973815083503723,-0.2520628571510315,-0.0561608858406543,0.0,0.0,-0.4159961938858032,-0.1754796504974365
-0.0661807060241699,1.0105160474777222,-0.1651388704776764,-0.5167362093925476,-0.254880279302597,-0.0563482046127319,0.0,0.0,0.5384259223937988,-0.3698580265045166
-0.0677786841988563,0.9995548725128174,-0.1565785259008407,-0.4877243936061859,-0.2581711411476135,-0.065818041563034,0.0,0.0,0.290907621383667,-0.6045642495155334
-0.0692188292741775,0.9887280464172364,-0.1421554088592529,-0.4815248250961303,-0.2600626945495605,-0.0378309190273284,0.0,0.0,-0.4485466480255127,-0.6793445348739624
-0.0707036033272743,0.9774758219718932,-0.1477363109588623,-0.5002319812774658,-0.2608302235603332,-0.0153503594920039,0.0,0.0,-0.0052548050880432,-0.3989295959472656
-0.0721857994794845,0.9657882452011108,-0.1474333703517913,-0.5195863842964172,-0.2616239190101623,-0.0158736407756805,0.0,0.0,0.4785350561141968,-0.4547071456909179
-0.0736292824149131,0.9540612101554872,-0.1433757245540619,-0.5213712453842163,-0.262616217136383,-0.0198460854589939,0.0,0.0,-0.7580111622810364,-0.8108459711074829
-0.0751228332519531,0.9419140219688416,-0.1498296558856964,-0.5397932529449463,-0.2621346116065979,0.0096320854499936,0.0,0.0,0.3153293132781982,-0.667574942111969
-0.0765125304460525,0.92984277009964,-0.1408019512891769,-0.5361663699150085,-0.2602561116218567,0.0375702902674675,0.0,0.0,-0.6862258315086365,-0.3985169529914856
-0.0778882056474685,0.917336404323578,-0.1393714249134063,-0.5555213093757629,-0.2584202587604522,0.0367175787687301,0.0,0.0,-0.730876088142395,-0.5368930697441101
-0.0792964920401573,0.9044191241264344,-0.1438826918601989,-0.5735638737678528,-0.2553014159202575,0.0623766854405403,0.0,0.0,-0.9381041526794434,-0.8094109296798706
-0.0807498916983604,0.8910894989967346,-0.1500116884708404,-0.5916188955307007,-0.250540941953659,0.0952093675732612,0.0,0.0,-0.7937880754470825,-0.3203601837158203
-0.0821815505623817,0.8773251175880432,-0.1477946490049362,-0.6109756231307983,-0.2458347231149673,0.0941244959831237,0.0,0.0,-0.1692030429840088,-0.5893193483352661
-0.0836379081010818,0.863148033618927,-0.1514898389577865,-0.6291223764419556,-0.2398790270090103,0.1191136613488197,0.0,0.0,-0.4867498874664306,-0.509732186794281
-0.085100270807743,0.8485453724861145,-0.1528633534908294,-0.6479465961456299,-0.2331452071666717,0.1346764266490936,0.0,0.0,-0.6090589165687561,-0.4243587255477905
-0.0865339264273643,0.8335078358650208,-0.1499428451061248,-0.6673053503036499,-0.2264762818813324,0.133378654718399,0.0,0.0,-0.647796094417572,0.4060783386230469
-0.0879367813467979,0.8180357217788696,-0.1468091309070587,-0.6866640448570251,-0.2198755294084549,0.1320150196552276,0.0,0.0,-0.3760332465171814,0.1718580722808838
-0.089306928217411,0.8021288514137268,-0.143473595380783,-0.7060227990150452,-0.2133461087942123,0.1305882930755615,0.0,0.0,-0.186096966266632,0.1209316253662109
-0.0906424522399902,0.7857872843742371,-0.1399476528167724,-0.7253814339637756,-0.2068910449743271,0.129101276397705,0.0,0.0,0.0136812925338745,0.5069352388381958
-0.0917252525687217,0.7695791125297546,-0.1137572675943374,-0.7196043133735657,-0.2013729959726333,0.1103613525629043,0.0,0.0,-0.4235657453536987,0.2332438230514526
-0.0927700996398925,0.7529361248016357,-0.109884425997734,-0.738961935043335,-0.1959348767995834,0.1087625175714492,0.0,0.0,-0.5252926349639893,0.3638182878494262
-0.0937754660844802,0.7358583807945251,-0.1058550104498863,-0.7583195567131042,-0.190579280257225,0.1071118861436843,0.0,0.0,0.3262338638305664,-0.2293316125869751
-0.0946431159973144,0.7187719345092773,-0.0922017470002174,-0.7587129473686218,-0.1851186007261276,0.109213650226593,0.0,0.0,-0.0089054107666015,0.3927340507507324
-0.0954684242606163,0.7012504935264587,-0.0878909826278686,-0.7780705690383911,-0.1797452121973037,0.1074676737189292,0.0,0.0,0.5503640174865723,0.2706929445266723
-0.0960495024919509,0.683979332447052,-0.0639073401689529,-0.7669118046760559,-0.1739251911640167,0.1164007633924484,0.0,0.0,0.7559013366699219,0.5341557264328003
-0.0964051261544227,0.6672187447547913,-0.0402895547449588,-0.7443722486495972,-0.1691929250955581,0.0946454480290412,0.0,0.0,-0.2605904936790466,0.0208555459976196
-0.0967151671648025,0.6500231623649597,-0.0356294736266136,-0.7637292146682739,-0.1645541191101074,0.092776209115982,0.0,0.0,0.5601840019226074,0.3270055055618286
-0.097002312541008,0.6332470774650574,-0.0327178053557872,-0.7451635599136353,-0.1605513542890548,0.0800548568367958,0.0,0.0,0.5596768856048584,-0.6297675967216492
-0.09713926166296,0.6172462701797485,-0.0189184360206127,-0.710593044757843,-0.1553319096565246,0.1043889075517654,0.0,0.0,-0.4635326266288757,-0.0502702593803405
-0.097227856516838,0.6008105278015137,-0.0139847565442323,-0.729950487613678,-0.1502110213041305,0.1024177446961402,0.0,0.0,0.0371057987213134,0.0507587194442749
-0.0971702560782432,0.5847308039665222,0.0006460492732003,-0.7141457200050354,-0.1451117247343063,0.1019858941435813,0.0,0.0,0.3061734437942505,-0.2750787734985351
-0.0970824211835861,0.5687878131866455,0.0041228993795812,-0.7081326246261597,-0.1404580324888229,0.093073584139347,0.0,0.0,-0.0452330708503723,-0.3472539186477661
-0.09694404900074,0.552409827709198,0.0092687364667654,-0.7274894714355469,-0.1359070837497711,0.0910188853740692,0.0,0.0,0.6280003786087036,-0.5647540092468262
-0.0966834053397178,0.5365117788314819,0.0203843768686056,-0.7060729265213013,-0.1302486062049865,0.1131696850061416,0.0,0.0,0.5266368389129639,-0.0275344848632812
-0.0963878631591796,0.5213626623153687,0.024531964212656,-0.6728636622428894,-0.1252458691596985,0.1000548973679542,0.0,0.0,0.0777386426925659,-0.1451457738876342
-0.0959455519914627,0.5063302516937256,0.0390805639326572,-0.6676842570304871,-0.1201275512576103,0.1023664250969886,0.0,0.0,-0.1875032186508178,-0.1593658924102783
-0.0954508781433105,0.4908628463745117,0.044434692710638,-0.6870412826538086,-0.1151163354516029,0.1002242937684059,0.0,0.0,0.2102893590927124,-0.4270741939544678
-0.0948263183236122,0.475306749343872,0.0572830364108085,-0.6909915208816528,-0.1099827364087104,0.1026722341775894,0.0,0.0,0.6808785200119019,-0.6159211993217468
-0.0941939353942871,0.4598382711410522,0.057019405066967,-0.6870415806770325,-0.1038160175085067,0.1233344078063964,0.0,0.0,0.8874609470367432,-0.3256756067276001
-0.0934236496686935,0.4452884793281555,0.0709747448563575,-0.6462504863739014,-0.0978031828999519,0.1202564984560012,0.0,0.0,-0.4126579165458679,-0.713584840297699
-0.0926475524902343,0.4303181767463684,0.070405937731266,-0.6648931503295898,-0.0906648337841034,0.1427673250436782,0.0,0.0,0.8283054828643799,0.0851361751556396
-0.0918590575456619,0.416281133890152,0.0723386630415916,-0.6234862804412842,-0.0842120125889778,0.1290563941001892,0.0,0.0,0.5376555919647217,-0.1455656290054321
-0.0911102294921875,0.4022852182388305,0.0690502822399139,-0.6217219233512878,-0.0784279555082321,0.1156813129782676,0.0,0.0,0.6863877773284912,-0.1191577315330505
-0.0902023315429687,0.3890562951564789,0.0848664939403534,-0.5876573324203491,-0.0725657269358635,0.1172444969415664,0.0,0.0,-0.2964975237846374,-0.4079429507255554
-0.0892395973205566,0.3753923177719116,0.0904674381017685,-0.6070147156715393,-0.0668163150548935,0.1149880737066268,0.0,0.0,0.2891771793365478,-0.4041337966918945
-0.0882289856672287,0.3620893657207489,0.0955534651875495,-0.5910086035728455,-0.0613781288266181,0.1087638363242149,0.0,0.0,0.0700225830078125,-0.2832985520362854
-0.087143138051033,0.3490302264690399,0.1032352000474929,-0.5801995992660522,-0.0560895502567291,0.1057715788483619,0.0,0.0,0.1678160429000854,0.3378825187683105
-0.0859172791242599,0.336146742105484,0.1170634850859642,-0.5724024176597595,-0.0506300553679466,0.1091897115111351,0.0,0.0,0.1727477312088012,-0.3454211354255676
-0.0846067443490028,0.3231909573078155,0.1255665123462677,-0.5756353735923767,-0.0452073402702808,0.1084546819329261,0.0,0.0,0.6226418018341064,-0.4244755506515503
-0.0831315964460372,0.3103866577148437,0.1417149007320404,-0.568916916847229,-0.0394780971109867,0.1145848408341407,0.0,0.0,0.5194530487060547,-0.3234558701515198
-0.0814446434378624,0.2979266345500946,0.1623735725879669,-0.553628146648407,-0.0332382023334503,0.1247977241873741,0.0,0.0,0.2542376518249511,-0.4586005210876465
-0.0795861259102821,0.2854753136634826,0.1791592687368393,-0.553259551525116,-0.0266243275254964,0.1322775781154632,0.0,0.0,0.6667767763137817,-0.4909905791282654
-0.0776570290327072,0.2737258076667785,0.1863529980182647,-0.5220974087715149,-0.0201527159661054,0.1294323951005935,0.0,0.0,0.3708897829055786,-0.5820230841636658
-0.0756770148873329,0.2624904215335846,0.1903226673603058,-0.4992651343345642,-0.0125801023095846,0.1514524221420288,0.0,0.0,0.0409668684005737,-0.3585889935493469
-0.0735571831464767,0.2514493763446808,0.204067200422287,-0.4906687140464782,-0.0047607421875,0.1563872396945953,0.0,0.0,-0.0225944519042968,-0.3827729225158691
-0.0713809952139854,0.2399736046791076,0.2098102867603302,-0.5100277066230774,0.0029422084335237,0.1540590226650238,0.0,0.0,0.3749464750289917,-0.8745607733726501
-0.0692688003182411,0.2286960929632187,0.2018275558948516,-0.5012711882591248,0.0122171472758054,0.1854984760284423,0.0,0.0,0.555722713470459,-0.8985987305641174
-0.0670916587114334,0.2182140201330185,0.2065125405788421,-0.465997040271759,0.0232792384922504,0.2212419211864471,0.0,0.0,0.0457543134689331,-0.6092745065689087
-0.0649313926696777,0.2078360170125961,0.2037474811077118,-0.4614797830581665,0.0354148559272289,0.242712065577507,0.0,0.0,-0.1613671779632568,-0.3842885494232178
-0.0627145767211914,0.1970243602991104,0.2095124423503875,-0.4808456301689148,0.0474335066974163,0.2403728514909744,0.0,0.0,0.4661691188812256,-0.5230082273483276
-0.060428999364376,0.1867128759622573,0.2152550667524337,-0.4587616324424743,0.0605821423232555,0.2629726529121399,0.0,0.0,0.459003210067749,-0.3174883127212524
-0.0581743232905864,0.1769557744264602,0.2125198096036911,-0.4342211782932281,0.0733950138092041,0.2562574744224548,0.0,0.0,0.4519357681274414,-0.4095250368118286
-0.0559840202331543,0.1677416414022445,0.2065597772598266,-0.4101742506027221,0.0857545360922813,0.2471902817487716,0.0,0.0,0.0488250255584716,-0.4815248250961303
-0.0537798888981342,0.1585643440485,0.2081299126148224,-0.4086281061172485,0.0979239866137504,0.2433888614177703,0.0,0.0,0.0848211050033569,-0.0760654807090759
-0.0516342148184776,0.1495315879583358,0.2027815282344818,-0.402269184589386,0.1096221432089805,0.2339629679918289,0.0,0.0,-0.0867950916290283,-0.1805258393287658
-0.0494320876896381,0.1400649696588516,0.2085595428943634,-0.4216333329677582,0.1212034374475479,0.2316260337829589,0.0,0.0,0.4421428442001343,-0.1444165706634521
-0.0471575744450092,0.1311152577400207,0.2155037224292755,-0.3987749516963959,0.133095696568489,0.2378449141979217,0.0,0.0,0.2754178047180176,-0.579611599445343
-0.044857881963253,0.1221517398953437,0.2168970853090286,-0.3995987176895141,0.1461327672004699,0.2607415318489074,0.0,0.0,0.7148571014404297,-0.2485687732696533
-0.0424680709838867,0.1139629185199737,0.2253433018922805,-0.365342229604721,0.1597497314214706,0.2723392844200134,0.0,0.0,0.2221328020095825,-0.2301884293556213
-0.040130041539669,0.1061868071556091,0.2203967273235321,-0.3470982015132904,0.1731720864772796,0.2684469223022461,0.0,0.0,0.0967442989349365,0.1964571475982666
-0.0377402305603027,0.098840057849884,0.2252908945083618,-0.3281770050525665,0.1869165003299713,0.2748878002166748,0.0,0.0,-0.1023640632629394,-0.7252766489982605
-0.0353432670235633,0.0910463407635688,0.224879577755928,-0.3483211398124695,0.2018160223960876,0.2979903221130371,0.0,0.0,0.1551194190979004,-0.0572912096977233
-0.0330095291137695,0.0836571753025055,0.2187357246875763,-0.3304707705974579,0.2165766060352325,0.2952119708061218,0.0,0.0,0.2613381147384643,-0.0609535574913024
-0.0307037346065044,0.0767308548092842,0.2158917635679245,-0.3100589215755462,0.2314361631870269,0.2971914410591125,0.0,0.0,0.0614515542984008,-0.4871523380279541
-0.0283591262996196,0.0698194801807403,0.21969735622406,-0.3095600306987762,0.2464203089475631,0.2996830642223358,0.0,0.0,-0.0086820125579833,-0.4159373044967651
-0.0259587280452251,0.0624752379953861,0.2254503667354583,-0.3289298117160797,0.2612899839878082,0.2973942756652832,0.0,0.0,0.7321990728378296,-0.5152316093444824
-0.023819351568818,0.0554075092077255,0.1988886296749115,-0.3168762922286987,0.2766892611980438,0.3079859614372253,0.0,0.0,0.6250007152557373,0.4837441444396972
-0.0217962265014648,0.0486983396112918,0.1875412762165069,-0.3010555207729339,0.2918770015239715,0.3037556409835815,0.0,0.0,0.7288439273834229,0.0477020740509033
-0.019852066412568,0.0423698984086513,0.179691880941391,-0.2842875719070434,0.3070774972438812,0.3040096461772918,0.0,0.0,0.7206183671951294,0.6606194972991943
-0.017774486914277,0.0362283550202846,0.1941863596439361,-0.2758916616439819,0.3211637139320373,0.2817248404026031,0.0,0.0,0.8529069423675537,-0.087544560432434
-0.0157797820866107,0.030796704813838,0.1855775415897369,-0.2445546090602874,0.3356438279151916,0.2896021008491516,0.0,1.0,0.9980465173721312,0.9994630813598632
-0.0139934541657567,0.0272479634732007,0.1772323846817016,-0.1591625064611435,0.3339912593364715,-0.0376522690057754,0.0,1.0,0.933679461479187,0.9899225234985352
