x_pos,y_pos,x_vel,y_vel,angle,ang_vel,leg_1,leg_2,main_booster,lat_booster
-0.0016477585304528,1.4031256437301636,-0.1668969541788101,-0.3464283347129822,0.0018927168566733,0.0373455695807933,0.0,0.0,-0.0549129843711853,0.0515648126602172
-0.0034188269637525,1.3948551416397097,-0.1790060251951217,-0.3675783574581146,0.0037626037374138,0.0374020263552665,0.0,0.0,0.4093892574310303,0.9200869798660278
-0.0051101683638989,1.3865967988967896,-0.1693460643291473,-0.3670460283756256,0.0039692409336566,0.0041331956163048,0.0,0.0,0.2087864875793457,0.8610249757766724
-0.0069548608735203,1.378384351730347,-0.1828698813915252,-0.3649901151657104,0.0023910615127533,-0.0315667167305946,0.0,0.0,-0.3999629616737366,0.8489786386489868
-0.0088351247832179,1.3696759939193726,-0.1843607276678085,-0.3870364427566528,-0.0012369047617539,-0.0725661739706993,0.0,0.0,-0.4562878608703613,0.780306339263916
-0.0107542993500828,1.3604676723480225,-0.1863010376691818,-0.4092706441879272,-0.0067830602638423,-0.1109334006905555,0.0,0.0,0.4843261241912842,0.6981725692749023
-0.0127487182617187,1.351538896560669,-0.1923544108867645,-0.3968841731548309,-0.0137906400486826,-0.1401645392179489,0.0,0.0,-0.1179742813110351,0.3526031970977783
-0.0148516651242971,1.3421117067337036,-0.2031644284725189,-0.4190717041492462,-0.0208434350788593,-0.1410690248012542,0.0,0.0,-0.7252458930015564,0.8238198757171631
-0.0169964786618948,1.3321932554244995,-0.2056721448898315,-0.4409633576869964,-0.0295515693724155,-0.1741784960031509,0.0,0.0,-0.2539019584655761,0.7275927066802979
-0.0191860198974609,1.3217791318893433,-0.2086364775896072,-0.463086724281311,-0.0397652089595794,-0.2042920589447021,0.0,0.0,-0.5184358358383179,0.6445173025131226
-0.0214161872863769,1.3108646869659424,-0.2111481726169586,-0.485446035861969,-0.0515158399939537,-0.2350339442491531,0.0,0.0,-0.1550232172012329,0.9559600353240968
-0.023657226935029,1.2994449138641355,-0.2100120782852172,-0.5080851912498474,-0.0654719024896621,-0.2791467308998108,0.0,0.0,-0.427562952041626,0.2119953632354736
-0.0259891506284475,1.2875288724899292,-0.2190068066120147,-0.5302788615226746,-0.0795239582657814,-0.2810669243335724,0.0,0.0,0.583820104598999,0.5331329107284546
-0.0282681472599506,1.2756075859069824,-0.2127524614334106,-0.5307130217552185,-0.0945520848035812,-0.3005900979042053,0.0,0.0,-0.4506385326385498,0.3640828132629394
-0.0306292530149221,1.2631902694702148,-0.2208736687898636,-0.5529143214225769,-0.1096956506371498,-0.3028989434242248,0.0,0.0,-0.3469767570495605,-0.3190809488296509
-0.0330679900944232,1.2502772808074951,-0.2285250127315521,-0.5751127004623413,-0.1249643415212631,-0.3054019510746002,0.0,0.0,-0.127091109752655,0.6690313816070557
-0.0355143547058105,1.236864447593689,-0.2275450527667999,-0.5976457595825195,-0.142001524567604,-0.3407745957374573,0.0,0.0,-0.4289751648902893,0.2278432846069336
-0.0380281433463096,1.222956657409668,-0.2341908663511276,-0.6198513507843018,-0.1591806560754776,-0.3436139225959778,0.0,0.0,-0.3990150690078735,-0.24263596534729
-0.0406041145324707,1.2085540294647217,-0.2403069287538528,-0.6420584917068481,-0.1765114516019821,-0.3466474115848541,0.0,0.0,0.0110715627670288,-0.6441781520843506
-0.043281365185976,1.1941957473754885,-0.2515538334846496,-0.6401509642601013,-0.1927706450223922,-0.3252134621143341,0.0,0.0,0.4878182411193847,-0.3504536151885986
-0.0457673072814941,1.1803058385849,-0.232842281460762,-0.6194562315940857,-0.2086625844240188,-0.317867636680603,0.0,0.0,0.3102792501449585,-0.7246536016464233
-0.0482726097106933,1.1664456129074097,-0.2360873222351074,-0.6181091070175171,-0.223263218998909,-0.2920388877391815,0.0,0.0,0.8429601192474365,-0.7287101745605469
-0.0505859367549419,1.152943730354309,-0.2185660600662231,-0.6020709276199341,-0.236225426197052,-0.259267508983612,0.0,0.0,0.8768999576568604,-0.4816845655441284
-0.0527730956673622,1.139434576034546,-0.2061517983675003,-0.6024713516235352,-0.2490124255418777,-0.25576251745224,0.0,0.0,0.4755582809448242,-0.952440857887268
-0.055058766156435,1.1263482570648191,-0.2176160812377929,-0.583514392375946,-0.2602069079875946,-0.2239097356796264,0.0,0.0,0.6964461803436279,-0.92722886800766
-0.057415772229433,1.1138896942138672,-0.2261524498462677,-0.5554400682449341,-0.2699673473834991,-0.1952089667320251,0.0,0.0,0.6013416051864624,-0.7096652388572693
-0.0596503242850303,1.1019768714904783,-0.2151287049055099,-0.5310155153274536,-0.2784938216209411,-0.1705295294523239,0.0,0.0,-0.356937050819397,-0.9085494875907898
-0.0619768127799034,1.0896117687225342,-0.2263212203979492,-0.5507861375808716,-0.284991055727005,-0.1299452483654022,0.0,0.0,0.9262354373931884,-0.919963240623474
-0.064282514154911,1.0781573057174685,-0.2255585491657257,-0.5100664496421814,-0.2901411354541778,-0.1030016988515853,0.0,0.0,0.4403296709060669,-0.9726659059524536
-0.0665586441755294,1.066854476928711,-0.2242909371852874,-0.5030128955841064,-0.2935692071914673,-0.0685614794492721,0.0,0.0,0.6860952377319336,0.5836074352264404
-0.0685117691755294,1.0562719106674194,-0.1906583160161972,-0.4712824821472168,-0.2983655631542206,-0.0959271639585495,0.0,0.0,-0.2648555040359497,-0.5715322494506836
-0.0704999938607215,1.045210838317871,-0.1952193975448608,-0.4923517405986786,-0.302097737789154,-0.0746437087655067,0.0,0.0,0.5758688449859619,-0.6296826601028442
-0.0723688155412674,1.0348128080368042,-0.1840918213129043,-0.4627185761928558,-0.3049807846546173,-0.057661198079586,0.0,0.0,0.2588943243026733,-0.1746341586112976
-0.0741759315133094,1.024332046508789,-0.1774653494358062,-0.466498851776123,-0.3083425760269165,-0.0672359839081764,0.0,0.0,0.4031805992126465,-0.3353832960128784
-0.0757772475481033,1.014108419418335,-0.1566968709230423,-0.4551101326942444,-0.311898410320282,-0.0711166113615036,0.0,0.0,0.4671840667724609,-0.6185716986656189
-0.0771645531058311,1.0043647289276123,-0.1363118141889572,-0.4335759878158569,-0.3144134283065796,-0.0503004677593708,0.0,0.0,-0.9699299931526184,-0.8429440259933472
-0.0785771384835243,0.9941512942314148,-0.1403050273656845,-0.4541400074958801,-0.315403938293457,-0.0198100544512271,0.0,0.0,-0.6516281962394714,-0.402794599533081
-0.0799431800842285,0.9834398627281188,-0.13539519906044,-0.4763230681419372,-0.3166614472866058,-0.0251503381878137,0.0,0.0,-0.4029902219772339,-0.859005868434906
-0.0813242942094802,0.9722734689712524,-0.1384458094835281,-0.4962154924869537,-0.3163115680217743,0.0069975606165826,0.0,0.0,-0.4438540935516357,-0.8844917416572571
-0.082712173461914,0.960641086101532,-0.1405270248651504,-0.5166141986846924,-0.3145123720169067,0.0359837673604488,0.0,0.0,0.5545942783355713,-0.574720025062561
-0.0839582458138465,0.9496320486068726,-0.1269623935222625,-0.4887841939926147,-0.3120658099651336,0.0489314459264278,0.0,0.0,0.4934815168380737,-0.6570335030555725
-0.0849276557564735,0.9387670159339904,-0.1005616635084152,-0.4821206033229828,-0.3083136677742004,0.0750426799058914,0.0,0.0,0.0337761640548706,-0.8399130702018738
-0.0857658386230468,0.9276735186576844,-0.0888209193944931,-0.491989403963089,-0.3031294643878937,0.1036843061447143,0.0,0.0,-0.1524767875671386,-0.7847601771354675
-0.0865811333060264,0.9161041378974916,-0.087567962706089,-0.5129469037055969,-0.2968875169754028,0.1248387470841407,0.0,0.0,-0.5092366337776184,-0.2183835506439209
-0.087320327758789,0.904037356376648,-0.0797093957662582,-0.5351328253746033,-0.2909200489521026,0.1193490996956825,0.0,0.0,0.0498508214950561,-0.3641992807388305
-0.0878911986947059,0.891765832901001,-0.06275375187397,-0.5442895293235779,-0.2850916385650635,0.1165687218308448,0.0,0.0,-0.8402400016784668,-0.6506560444831848
-0.0884243994951248,0.8790128231048584,-0.0598751679062843,-0.5655374526977539,-0.278352826833725,0.1347762644290924,0.0,0.0,-0.7659119367599487,0.0432673692703247
-0.0888717621564865,0.8657622933387756,-0.0510539710521698,-0.5877234935760498,-0.2718861401081085,0.1293341964483261,0.0,0.0,-0.9336116313934326,-0.4458787441253662
-0.0892308205366134,0.8520143628120422,-0.0419487915933132,-0.609908938407898,-0.2656899988651275,0.123922623693943,0.0,0.0,-0.888298511505127,-0.4702038764953613
-0.0894986167550087,0.8377689123153687,-0.0325770899653434,-0.6320940256118774,-0.2597625851631164,0.1185481548309326,0.0,0.0,-0.9733129143714904,0.0530025959014892
-0.0896726623177528,0.8230257630348206,-0.0229556374251842,-0.6542786955833435,-0.2541017234325409,0.1132174879312515,0.0,0.0,-0.9194374084472656,-0.3769314885139465
-0.0897507667541503,0.8077849745750427,-0.0131004843860864,-0.6764629483222961,-0.2487048506736755,0.1079371944069862,0.0,0.0,-0.8844423294067383,-0.6654665470123291
-0.0897728949785232,0.7920587658882141,-0.0083311889320611,-0.6979186534881592,-0.2424719631671905,0.1246576458215713,0.0,0.0,-0.9809630513191224,-0.5726858377456665
-0.0897373184561729,0.7758563756942749,-0.003462940454483,-0.7189692854881287,-0.2353427112102508,0.142585203051567,0.0,0.0,-0.9656039476394652,0.3641270399093628
-0.0895995125174522,0.7591562867164612,0.0070035061798989,-0.7411544919013977,-0.2284681499004364,0.137491300702095,0.0,0.0,-0.896733820438385,0.024704098701477
-0.0893576592206955,0.7419586777687073,0.0176467336714267,-0.763339102268219,-0.2218445986509323,0.1324708759784698,0.0,0.0,-0.9298502802848816,0.2097008228302002
-0.0890100449323654,0.7242633700370789,0.0284542236477136,-0.7855232954025269,-0.2154681384563446,0.1275292485952377,0.0,0.0,-0.7472315430641174,0.1727547645568847
-0.0885551422834396,0.7060704231262207,0.0394141003489494,-0.8077070713043213,-0.2093345522880554,0.1226715222001075,0.0,0.0,-0.5793285369873047,-0.0336084961891174
-0.0879915207624435,0.6873795390129089,0.0505151040852069,-0.8298903703689575,-0.2034394294023513,0.1179025322198867,0.0,0.0,-0.617956817150116,-0.0652519464492797
-0.0873178467154502,0.6681907773017883,0.061746597290039,-0.8520732522010803,-0.1977781057357788,0.1132268160581588,0.0,0.0,0.2422361373901367,-0.3830584287643432
-0.0864403694868087,0.648902177810669,0.0821677297353744,-0.8565357327461243,-0.1921676397323608,0.1122094541788101,0.0,0.0,0.3708729743957519,-0.6793437004089355
-0.0854819267988205,0.6300179958343506,0.0892824679613113,-0.8384655117988586,-0.1855724602937698,0.1319032460451126,0.0,0.0,-0.31024169921875,-0.4372316598892212
-0.0844099074602127,0.6106358766555786,0.1008465066552162,-0.860648512840271,-0.1791958808898925,0.1275314539670944,0.0,0.0,0.3922902345657348,-0.7711074948310852
-0.0831691771745681,0.5915297865867615,0.1163476854562759,-0.8482468724250793,-0.1714542061090469,0.1548334211111068,0.0,0.0,0.2387018203735351,-0.7988386750221252
-0.0818180069327354,0.572378933429718,0.1259864121675491,-0.850120484828949,-0.1623167246580124,0.1827496588230133,0.0,0.0,0.2314176559448242,-0.7342331409454346
-0.0804393738508224,0.5534226298332214,0.1275757402181625,-0.8414117097854614,-0.152035504579544,0.2056245058774948,0.0,0.0,0.5641162395477295,-0.4495059251785278
-0.0788008719682693,0.5351657867431641,0.1536518037319183,-0.8104038238525391,-0.1418565064668655,0.203580230474472,0.0,0.0,-0.1858484148979187,-0.8565096259117126
-0.0771034210920333,0.5164142847061157,0.1582342237234115,-0.8323484659194946,-0.1303942054510116,0.2292461693286895,0.0,0.0,0.5499386787414551,-0.6630857586860657
-0.075207233428955,0.4983695447444916,0.1768836081027984,-0.8009253144264221,-0.1177304610610008,0.2532752454280853,0.0,0.0,0.0012720823287963,-0.5842074155807495
-0.0732684135437011,0.4802726507186889,0.1802299618721008,-0.8032854199409485,-0.1041617915034294,0.2713732123374939,0.0,0.0,0.1651885509490966,-0.3101447224617004
-0.0712247863411903,0.4624018967151642,0.1911563575267791,-0.7933865785598755,-0.0910649597644805,0.2619365751743316,0.0,0.0,0.4812071323394775,-0.7877486944198608
-0.0690419226884841,0.4448741972446441,0.203603982925415,-0.7781787514686584,-0.0765164941549301,0.2909692823886871,0.0,0.0,0.8998165130615234,-0.1380813121795654
-0.0668122321367263,0.4283197522163391,0.2091210186481475,-0.7351006865501404,-0.0628131702542305,0.2740665376186371,0.0,0.0,0.4818167686462402,-0.6641428470611572
-0.064409926533699,0.4120428264141083,0.225059226155281,-0.7228527069091797,-0.0477979630231857,0.3003040552139282,0.0,0.0,0.7203327417373657,-0.2775020003318786
-0.0619022361934185,0.3958826065063476,0.2358791530132293,-0.7178238034248352,-0.0330926179885864,0.294106662273407,0.0,0.0,0.5727803707122803,-0.1648686528205871
-0.0591986663639545,0.3796871602535248,0.2553020417690277,-0.7195355892181396,-0.0182290598750114,0.2972711324691772,0.0,0.0,0.8638287782669067,0.1276435852050781
-0.0564026832580566,0.3635708689689636,0.2648456692695617,-0.7161651849746704,-0.0036653969436883,0.2912734150886535,0.0,0.0,0.8318830728530884,-0.190759003162384
-0.0534915924072265,0.3482776880264282,0.2765338122844696,-0.6797245740890503,0.010726542212069,0.2878387868404388,0.0,0.0,0.7274805307388306,-0.2697056531906128
-0.0503846183419227,0.3337690830230713,0.2958458662033081,-0.644999086856842,0.0253829341381788,0.2931278049945831,0.0,0.0,0.7578485012054443,-0.6403118968009949
-0.0473581328988075,0.3200681507587433,0.286957323551178,-0.6092703938484192,0.0408806353807449,0.3099540174007416,0.0,0.0,0.5966479778289795,-0.7635284066200256
-0.0444215759634971,0.3063313066959381,0.2767946720123291,-0.6110695004463196,0.0575358681380748,0.3331048488616943,0.0,0.0,0.5971534252166748,-0.226544439792633
-0.0413691513240337,0.2932469248771667,0.288334310054779,-0.5822640061378479,0.0742667615413665,0.3346179723739624,0.0,0.0,0.546027421951294,-0.2114319801330566
-0.0383303649723529,0.2804620862007141,0.2875292897224426,-0.5691057443618774,0.0904601737856864,0.323868453502655,0.0,0.0,0.3235146999359131,0.1455945968627929
-0.0352637283504009,0.2679868042469024,0.2906355261802673,-0.5555031895637512,0.1063573434948921,0.317943274974823,0.0,0.0,0.2269049882888794,0.4950206279754638
-0.0321407318115234,0.2557888329029083,0.2964325547218323,-0.5433356761932373,0.122125893831253,0.3153710663318634,0.0,0.0,0.8756020069122314,-0.2384628653526306
-0.0288799293339252,0.2440966218709945,0.3098701238632202,-0.521060049533844,0.1382702589035034,0.3228873610496521,0.0,0.0,0.7555938959121704,0.1343504190444946
-0.0255245212465524,0.2324544042348861,0.3193143308162689,-0.5190183520317078,0.1544543504714965,0.3236820697784424,0.0,0.0,0.456965684890747,-0.4042432308197021
-0.0220236778259277,0.2208616882562637,0.3335933089256286,-0.5170252323150635,0.170945256948471,0.3298180103302002,0.0,0.0,0.8226559162139893,-0.0979697704315185
-0.0183513648808002,0.2097462564706802,0.3501116633415222,-0.4960812330245971,0.1881202757358551,0.3435004949569702,0.0,0.0,0.780529260635376,-0.2552155256271362
-0.0144927976652979,0.1988040506839752,0.3681668043136596,-0.4886590540409088,0.2059283554553985,0.3561616837978363,0.0,0.0,0.882314920425415,-0.393860399723053
-0.0106979366391897,0.1886217445135116,0.3619433641433716,-0.4550872147083282,0.2236493527889251,0.3544201552867889,0.0,0.0,0.5879673957824707,-0.3969389200210571
-0.0069188117049634,0.1790206581354141,0.3603541851043701,-0.4294732213020324,0.2414551973342895,0.3561164736747741,0.0,0.0,0.6317179203033447,-0.3989226222038269
-0.0030615807045251,0.1699283272027969,0.36773282289505,-0.4071574211120605,0.2597814202308655,0.3665251135826111,0.0,0.0,0.8127052783966064,-0.2618898153305053
0.0009260177612304,0.1609032303094864,0.380400151014328,-0.4044771194458008,0.27857506275177,0.3758731484413147,0.0,0.0,0.8672233819961548,0.2641183137893677
0.004812812898308,0.1521890461444854,0.3707277178764343,-0.3908284306526184,0.2970534265041351,0.3695679008960724,0.0,0.0,0.9124976396560668,0.0212513208389282
0.008614826016128,0.1444558501243591,0.3619353771209717,-0.3475409150123596,0.3159479796886444,0.3778916001319885,0.0,0.0,0.9290168285369872,0.1929687261581421
0.012297248467803,0.1371627449989318,0.3502420783042907,-0.3281734585762024,0.3346830904483795,0.3747030198574066,0.0,0.0,0.8598761558532715,-0.2346538305282592
0.0156648643314838,0.1305744498968124,0.3195399045944214,-0.2969100773334503,0.3527400195598602,0.3611387610435486,0.0,0.0,0.5940144062042236,-0.0618557929992675
0.018989372998476,0.1244826167821884,0.3150112330913543,-0.2751441895961761,0.3711580634117126,0.3683602809906006,0.0,0.0,0.1770282983779907,-0.3816143274307251
0.0221941955387592,0.1186223104596138,0.3033484816551208,-0.2650168240070343,0.3893750011920929,0.3643387258052826,0.0,0.0,0.2125738859176635,0.1018519401550293
0.0252427104860544,0.1129949688911438,0.2881282269954681,-0.2547865509986877,0.407288908958435,0.3582779765129089,0.0,0.0,0.2404019832611084,-0.3239355087280273
0.028233241289854,0.1073762774467468,0.2825578153133392,-0.2545706033706665,0.4250964224338531,0.3561500906944275,0.0,0.0,0.3014247417449951,0.5652782917022705
0.0310832969844341,0.1018752455711364,0.2698991596698761,-0.249137744307518,0.4415128231048584,0.3283285498619079,0.0,0.0,0.2865619659423828,0.1440976858139038
0.0337578766047954,0.0963561832904815,0.2529819011688232,-0.2499318569898605,0.4573708772659302,0.3171605169773102,0.0,0.0,0.3499683141708374,0.3789446353912353
0.0363542549312114,0.0911888182163238,0.24492147564888,-0.2345750331878662,0.4736140668392181,0.3248635530471802,0.0,0.0,-0.1019205451011657,0.080979585647583
0.0390524864196777,0.0855255722999572,0.255239874124527,-0.2567703425884247,0.4898431301116943,0.3245812058448791,0.0,0.0,0.7601898908615112,0.508851170539856
0.0416472442448139,0.0805894434452056,0.2455790936946869,-0.2244038134813308,0.5054383277893066,0.3119042217731476,0.0,0.0,0.621414303779602,0.4582841396331787
0.0439522750675678,0.0761402696371078,0.2168342173099517,-0.2028629183769226,0.520916759967804,0.3095689713954925,0.0,0.0,0.5037050247192383,0.8874015808105469
0.0461507812142372,0.0723760947585105,0.2078295201063156,-0.1719561219215393,0.534640908241272,0.2744841575622558,0.0,0.0,-0.1915370225906372,0.8977634906768799
0.0485125556588172,0.0681750401854515,0.226138636469841,-0.1907243579626083,0.5462023615837097,0.2312285602092743,0.0,0.0,0.7962980270385742,0.8074474334716797
0.0505508407950401,0.0646632760763168,0.1953621655702591,-0.159540519118309,0.5560011863708496,0.1959769278764724,0.0,0.0,-0.1302958726882934,0.7359452247619629
0.0527324676513671,0.0607086978852748,0.2112579047679901,-0.1786419749259948,0.5640453100204468,0.1608829796314239,0.0,0.0,0.144904613494873,0.9069576263427734
0.0549510940909385,0.0567636340856552,0.2166566103696823,-0.1775482445955276,0.5701398253440857,0.1218893080949783,0.0,0.0,0.1211026906967163,0.7247263193130493
0.0570454597473144,0.0541837066411972,0.219080775976181,-0.1106946766376495,0.5585849285125732,-0.2315595895051956,0.0,1.0,0.9550118446350098,0.9724832773208618
0.0586880668997764,0.0527515523135662,0.1887084990739822,-0.0541186295449733,0.5294820070266724,-0.5835054516792297,0.0,1.0,0.9754045009613036,-0.5512837767601013
0.059798814356327,0.0519322268664836,0.1440870761871338,-0.0240448359400033,0.4920072853565216,-0.7495952248573303,0.0,1.0,0.835944414138794,-0.7285118103027344
0.060642622411251,0.0513713918626308,0.1150430589914321,-0.0143664292991161,0.4579401612281799,-0.6813431978225708,0.0,1.0,0.5393034219741821,-0.2728762626647949
0.0614429488778114,0.0508567653596401,0.1107021197676658,-0.0131768323481082,0.4244370460510254,-0.6700636148452759,0.0,0.0,-0.9996328949928284,-0.9338347315788268
0.0622687339782714,0.0498217903077602,0.1122235283255577,-0.0374060049653053,0.3925331830978393,-0.6380786895751953,0.0,0.0,-0.9983471035957336,-0.8512743711471558
0.0631142631173133,0.0482704006135463,0.113024815917015,-0.0613928437232971,0.3622791171073913,-0.6050820350646973,0.0,0.0,-0.997965931892395,-0.8697373867034912
0.0639843940734863,0.0461891517043113,0.1142953783273696,-0.0858694836497306,0.3336062133312225,-0.5734578371047974,0.0,0.0,-0.9938308596611024,-0.880224347114563
