x_pos,y_pos,x_vel,y_vel,angle,ang_vel,leg_1,leg_2,main_booster,lat_booster
-0.0015189170371741,1.4029655456542969,-0.1540221869945526,-0.3535332679748535,0.0018989014206454,0.0374681130051612,0.0,0.0,0.6552838629645676,0.789631465728824
-0.0029148100875318,1.3950650691986084,-0.1401362717151641,-0.3511317372322082,0.0024354292545467,0.0107322456315159,0.0,0.0,0.1362494612956026,0.6001610016384769
-0.0041572572663426,1.386918067932129,-0.1238975897431373,-0.3620884716510772,0.0020949905738234,-0.0068094520829617,0.0,0.0,0.1394566712381344,-0.7298791530835602
-0.0055465698242187,1.3786261081695557,-0.1400674432516098,-0.3685317039489746,0.0032213067170232,0.0225284863263368,0.0,0.0,0.1283892358417129,-0.8145728863525553
-0.0068949698470532,1.370346188545227,-0.1378131806850433,-0.3680075705051422,0.0061691245064139,0.0589616373181343,0.0,0.0,0.2197783452644555,-0.7467617563028277
-0.008185195736587,1.3620083332061768,-0.1337826400995254,-0.370595246553421,0.010876040905714,0.0941469147801399,0.0,0.0,-0.4271427767997635,-0.7912100907670234
-0.0095354076474905,1.353011131286621,-0.1415641009807586,-0.399940550327301,0.0173412207514047,0.1293154656887054,0.0,0.0,0.3304970848344857,-0.8441287687465303
-0.0108199119567871,1.3441414833068848,-0.1369732767343521,-0.394325703382492,0.0257712993770837,0.1686170250177383,0.0,0.0,0.0433977898016801,0.7820094870471019
-0.012060928158462,1.3354167938232422,-0.1311978697776794,-0.3879038095474243,0.0327799618244171,0.1401863396167755,0.0,0.0,-0.4828475284432423,-0.7494744771619696
-0.0133567806333303,1.326035737991333,-0.1383092999458313,-0.4171485006809234,0.0414116382598876,0.1726492941379547,0.0,0.0,0.0074605251611186,0.9227817770374368
-0.0145277027040719,1.3165491819381714,-0.1240908131003379,-0.4218332171440124,0.048336237668991,0.1385050266981125,0.0,0.0,0.4561726197878497,0.766553137970591
-0.0155869480222463,1.307109832763672,-0.1116402968764305,-0.4197277724742889,0.0539949424564838,0.1131845712661743,0.0,0.0,0.2729281130924514,0.7533609196621724
-0.0164986606687307,1.2978367805480957,-0.0956591814756393,-0.4122997522354126,0.0584467574954032,0.0890443101525306,0.0,0.0,0.6172951122850765,0.6567851988566525
-0.017300795763731,1.2884306907653809,-0.0836998894810676,-0.4181899726390838,0.061903528869152,0.0691416412591934,0.0,0.0,-0.2955601933073788,0.999746296108846
-0.0180017463862895,1.2783852815628052,-0.0712477415800094,-0.4465134441852569,0.0630466341972351,0.0228641238063573,0.0,0.0,-0.1929481169904578,-0.7038308534156258
-0.0187431331723928,1.2676684856414795,-0.0765912011265754,-0.4764018058776855,0.0654746517539024,0.0485649891197681,0.0,0.0,0.5959706697414353,0.7707381245396525
-0.0193270687013864,1.257559299468994,-0.0597200207412242,-0.4493528008460998,0.0667818486690521,0.0261464416980743,0.0,0.0,-0.5184798880367101,0.7568443933719056
-0.0198326110839843,1.2467923164367676,-0.0501379743218421,-0.4785197675228119,0.0663705989718437,-0.0082258824259042,0.0,0.0,0.710056298493013,-0.9767207314183592
-0.0203534122556448,1.236622929573059,-0.0539256259799003,-0.4520550072193146,0.0681961178779602,0.0365136861801147,0.0,0.0,-0.0951191438197878,-0.847788744672942
-0.0209457390010356,1.2257864475250244,-0.0631353929638862,-0.4818004071712494,0.0720707476139068,0.077499583363533,0.0,0.0,0.6785957672902656,0.6392579442718658
-0.021398639306426,1.2154598236083984,-0.0483940094709396,-0.4591161906719208,0.0751468166708946,0.0615266971290111,0.0,0.0,0.5272511720368291,-0.6808952203893839
-0.0219196323305368,1.2050776481628418,-0.0567368566989898,-0.4616698622703552,0.0797425806522369,0.0919234678149223,0.0,0.0,0.2776533680182484,0.7613455293227821
-0.0222970005124807,1.1946861743927002,-0.0411260575056076,-0.4620264172554016,0.0831016972661018,0.0671885162591934,0.0,0.0,-0.3886001774411765,0.717109958650639
-0.0226067546755075,1.183635950088501,-0.0328994393348693,-0.4912284314632416,0.0850094705820083,0.0381587632000446,0.0,0.0,-0.4335961422664993,0.8030983312634878
-0.0228642467409372,1.1719355583190918,-0.0265769623219966,-0.520067572593689,0.0858340859413147,0.0164936482906341,0.0,0.0,-0.2615338921193328,0.9053238619721546
-0.0230627059936523,1.1595667600631714,-0.0194313768297433,-0.5497002005577087,0.0854297801852226,-0.0080863181501626,0.0,0.0,-0.7598793485122637,-0.8812060250477428
-0.0233264919370412,1.146535873413086,-0.0278705023229122,-0.5792335271835327,0.0869081690907478,0.0295678172260522,0.0,0.0,0.9512535229763446,0.6828044945363034
-0.023783016949892,1.1342954635620115,-0.0454883985221385,-0.5440104007720947,0.086744911968708,-0.0032653131056576,0.0,0.0,-0.1784969328703092,0.7856311461012118
-0.0241875648498535,1.121409296989441,-0.0392003059387207,-0.5726523995399475,0.0854933336377143,-0.025031354278326,0.0,0.0,0.2759153623737649,-0.8048122955956133
-0.0247022621333599,1.1084134578704834,-0.051950354129076,-0.5776161551475525,0.0859668776392936,0.0094712255522608,0.0,0.0,-0.0356965491019052,-0.7786201229229079
-0.025273323059082,1.0947602987289429,-0.0592469051480293,-0.6069385409355164,0.0880805999040603,0.0422746203839778,0.0,0.0,-0.8728177985417693,-0.815154176931954
-0.0259133335202932,1.0804340839385986,-0.0681182146072387,-0.6369678378105164,0.0921696722507476,0.0817811787128448,0.0,0.0,-0.6149431634937694,0.9637874335610792
-0.0264849662780761,1.065467357635498,-0.0597562491893768,-0.6653441190719604,0.0947378352284431,0.051363281905651,0.0,0.0,-0.524223340084307,-0.7514790116817833
-0.0271184928715229,1.0498261451721191,-0.0677479803562164,-0.6954495906829834,0.0991042703390121,0.0873285457491874,0.0,0.0,-0.0571727693777066,-0.649800241923489
-0.0277986526489257,1.0335206985473633,-0.0738372057676315,-0.7250879406929016,0.1048700287938118,0.1153153926134109,0.0,0.0,0.9103357626472772,0.7826068347096651
-0.0284835807979106,1.0178805589675903,-0.0729215070605278,-0.6954323649406433,0.1092620342969894,0.087840124964714,0.0,0.0,-0.7100526079374967,-0.8816125717240018
-0.0292378421872854,1.001565933227539,-0.0818331837654113,-0.725580096244812,0.1156300231814384,0.1273597180843353,0.0,0.0,-0.4445495124342631,-0.8710538982117013
-0.0300540924072265,0.9845887422561646,-0.0898115634918212,-0.7551931142807007,0.1237622424960136,0.1626443415880203,0.0,0.0,0.3375413225093262,0.7085701309665127
-0.0309326164424419,0.9679808020591736,-0.09467613697052,-0.7387133240699768,0.1305597424507141,0.1359496414661407,0.0,0.0,-0.498002891540831,0.9937920668928863
-0.031727410852909,0.9507319331169128,-0.0843549817800521,-0.7670473456382751,0.1354165375232696,0.0971363186836242,0.0,0.0,-0.884276689210419,0.93666295858633
-0.0324604995548725,0.9328449964523317,-0.076773390173912,-0.7952955365180969,0.1388676017522812,0.0690212845802307,0.0,0.0,0.7363651990890503,0.9549754858016968
-0.0330491065979003,0.915160596370697,-0.0607546344399452,-0.7861526012420654,0.1407573968172073,0.0377958379685878,0.0,0.0,0.0942945480346679,0.990546703338623
-0.0335103049874305,0.8971480131149292,-0.0461503528058528,-0.800564169883728,0.1407880038022995,0.0006125184590928,0.0,0.0,0.76312255859375,0.943108320236206
-0.0338580124080181,0.8793532848358154,-0.0332323238253593,-0.7907294631004333,0.1392503231763839,-0.0307536087930202,0.0,0.0,0.6526713371276855,0.7097244262695312
-0.0342329964041709,0.8613318800926208,-0.0345781333744525,-0.8006840944290161,0.1363421231508255,-0.0581639222800731,0.0,0.0,0.5568035840988159,0.546338677406311
-0.0345603004097938,0.8431326150894165,-0.028958898037672,-0.8085131049156189,0.1325974613428115,-0.0748931616544723,0.0,0.0,0.8767087459564209,-0.307519793510437
-0.0348849296569824,0.8250436186790466,-0.0291662272065877,-0.8036695718765259,0.1293083131313324,-0.0657827854156494,0.0,0.0,0.9281983375549316,0.9179973602294922
-0.0354067794978618,0.8077394366264343,-0.0469039417803287,-0.768623948097229,0.1240507215261459,-0.1051518097519874,0.0,0.0,0.5631847381591797,-0.2610926032066345
-0.036145020276308,0.7908638715744019,-0.0680832788348198,-0.7495635747909546,0.118346020579338,-0.1140941381454467,0.0,0.0,-0.4057034254074096,0.909963607788086
-0.036813735961914,0.7733398079872131,-0.0595049671828746,-0.7782784104347229,0.1110228896141052,-0.1464628279209137,0.0,0.0,0.3383827209472656,0.7937893867492676
-0.0373408310115337,0.7558795809745789,-0.0440370701253414,-0.775385320186615,0.1024084761738777,-0.1722884327173233,0.0,0.0,0.1910312175750732,-0.6609286069869995
-0.0380209907889366,0.7385433316230774,-0.0607175827026367,-0.7700180411338806,0.0951753333210945,-0.14466293156147,0.0,0.0,0.000374436378479,0.9034876823425292
-0.038576602935791,0.7209679484367371,-0.0465615354478359,-0.7805910706520081,0.0862522572278976,-0.1784614622592926,0.0,0.0,0.3903100490570068,-0.191938579082489
-0.0391877181828022,0.7037381529808044,-0.052253920584917,-0.7652798295021057,0.0774705410003662,-0.1756340712308883,0.0,0.0,-0.4927855730056762,-0.9028615951538086
-0.0398529060184955,0.6858410239219666,-0.0591455623507499,-0.7950671911239624,0.0701707825064659,-0.1459949910640716,0.0,0.0,0.3979794979095459,-0.406312346458435
-0.0406274795532226,0.6678739190101624,-0.0698244124650955,-0.7981985211372375,0.0626234784722328,-0.1509461551904678,0.0,0.0,0.1818357706069946,-0.090929627418518
-0.0413714423775672,0.6501085162162781,-0.0672034621238708,-0.7892842888832092,0.0555123165249824,-0.1422231793403625,0.0,0.0,0.4287766218185425,0.464330792427063
-0.042029570788145,0.6325687766075134,-0.0593031346797943,-0.7793252468109131,0.0490767918527126,-0.128710389137268,0.0,0.0,0.1496757268905639,0.7598416805267334
-0.0425977706909179,0.6152456998825073,-0.0489516928791999,-0.7696736454963684,0.0413027815520763,-0.1554801911115646,0.0,0.0,-0.1097240447998046,-0.2158595323562622
-0.0431672111153602,0.5972647070884705,-0.0491983145475387,-0.7989603877067566,0.0336491055786609,-0.1530737429857254,0.0,0.0,0.9329007863998412,-0.575645387172699
-0.043734360486269,0.5792709589004517,-0.0504218116402626,-0.7995914220809937,0.0274392329156398,-0.1241974085569381,0.0,0.0,0.9511706829071044,0.4507611989974975
-0.0444439873099327,0.5618562698364258,-0.0642419010400772,-0.7738775014877319,0.020798023790121,-0.1328240483999252,0.0,0.0,0.796252965927124,0.47071373462677
-0.0450326912105083,0.544630765914917,-0.0528884604573249,-0.7655074000358582,0.0148924579843878,-0.1181116104125976,0.0,0.0,0.8407254219055176,0.1872354745864868
-0.0456070899963378,0.5277717113494873,-0.0516846887767314,-0.7492440938949585,0.0092205787077546,-0.1134377121925354,0.0,0.0,0.8677010536193848,-0.2440542578697204
-0.0461784377694129,0.5109341740608215,-0.0515495836734771,-0.7483140230178833,0.0036995261907577,-0.1104209050536155,0.0,0.0,0.8611218929290771,0.5799202919006348
-0.0468571670353412,0.4944367110729217,-0.060808889567852,-0.7332194447517395,-0.0032752845436334,-0.1394961774349212,0.0,0.0,0.7236223220825195,0.1375726461410522
-0.0475125312805175,0.4786201119422912,-0.058683268725872,-0.7029874324798584,-0.0100415889173746,-0.1353260427713394,0.0,0.0,-0.2992979288101196,0.3536193370819092
-0.0481699928641319,0.4621453285217285,-0.0589935295283794,-0.7322724461555481,-0.0167056731879711,-0.1332817524671554,0.0,0.0,0.7378067970275879,0.1924293041229248
-0.0487860664725303,0.4463582932949066,-0.0550964251160621,-0.7017325162887573,-0.0231389794498682,-0.1286659687757492,0.0,0.0,0.7616615295410156,-0.1951426863670349
-0.0494930259883403,0.4306734502315521,-0.0638091936707496,-0.6972293257713318,-0.029940165579319,-0.1360238194465637,0.0,0.0,0.9577887058258056,0.428668737411499
-0.0502870567142963,0.4155381917953491,-0.0720961838960647,-0.6728385090827942,-0.0371515341103076,-0.1442275941371917,0.0,0.0,0.4704279899597168,0.2905412912368774
-0.0510354042053222,0.4005735516548157,-0.0677576586604118,-0.6652870178222656,-0.0441463887691497,-0.1398972421884536,0.0,0.0,0.9154115915298462,0.3354644775390625
-0.0518921837210655,0.3864279389381408,-0.0779867321252822,-0.6289427280426025,-0.0517456829547882,-0.1519857496023178,0.0,0.0,0.3516731262207031,0.9112088680267334
-0.0525861755013465,0.3723210990428924,-0.0600158981978893,-0.6273215413093567,-0.0610184893012046,-0.185456246137619,0.0,0.0,-0.5895388722419739,-0.8412501215934753
-0.0533531196415424,0.3575562238693237,-0.0691853016614914,-0.6565425395965576,-0.0684452205896377,-0.1485344469547271,0.0,0.0,0.8645894527435303,-0.3811536431312561
-0.0540209785103797,0.3426742553710937,-0.0597178153693676,-0.6617609858512878,-0.0754414573311805,-0.1399246752262115,0.0,0.0,0.9449052810668944,-0.8811168670654297
-0.0547721870243549,0.3277352750301361,-0.0698094144463539,-0.6642318964004517,-0.0806937888264656,-0.1050464883446693,0.0,0.0,0.9769412279129028,-0.8899263739585876
-0.0555301681160926,0.3135745525360107,-0.0723389610648155,-0.62955641746521,-0.0841253623366355,-0.0686316043138504,0.0,0.0,0.9820001125335692,-0.7156110405921936
-0.0561615005135536,0.3002189397811889,-0.0614387802779674,-0.5936769247055054,-0.0858111083507537,-0.0337148159742355,0.0,0.0,0.9502277374267578,-0.8035225868225098
-0.056919764727354,0.2876811623573303,-0.0754787176847457,-0.5572547316551208,-0.0861487239599227,-0.0067526451312005,0.0,0.0,0.9219622611999512,0.342519998550415
-0.0577977187931537,0.2750797867774963,-0.0868046432733535,-0.5601197481155396,-0.0871277004480362,-0.0195794701576232,0.0,0.0,0.5475878715515137,-0.4058313369750976
-0.0585764870047569,0.2629210948944092,-0.0771210417151451,-0.5404320359230042,-0.0878813341259956,-0.0150727462023496,0.0,0.0,0.6784976720809937,-0.559808075428009
-0.0594612136483192,0.2509974837303161,-0.0885822996497154,-0.5299319624900818,-0.0877619013190269,0.0023884091060608,0.0,0.0,0.1384061574935913,0.6726315021514893
-0.0602972023189067,0.239114299416542,-0.0823612958192825,-0.528215229511261,-0.088992953300476,-0.0246208347380161,0.0,0.0,0.062671422958374,-0.7091715335845947
-0.0611608512699604,0.227256491780281,-0.0865778475999832,-0.5270007252693176,-0.0887800380587577,0.0042581711895763,0.0,0.0,0.6416897773742676,-0.549238383769989
-0.061927031725645,0.2155971825122833,-0.0782226249575614,-0.5181000828742981,-0.0871976763010025,0.0316474623978138,0.0,0.0,0.549931526184082,0.4353419542312622
-0.0626464858651161,0.2037559151649475,-0.0736677944660186,-0.526177167892456,-0.0854842290282249,0.0342687591910362,0.0,0.0,0.7529335021972656,0.7411391735076904
-0.0631674751639366,0.1918676495552063,-0.0525946132838726,-0.5283396244049072,-0.084997609257698,0.0097324373200535,0.0,0.0,0.8624676465988159,0.4923104047775268
-0.0634719878435134,0.1802616268396377,-0.0317307189106941,-0.5157540440559387,-0.0837245658040046,0.0254607796669006,0.0,0.0,0.9732153415679932,0.7162600755691528
-0.0635052695870399,0.1686656028032302,-0.0036335606127977,-0.5153592228889465,-0.0834255889058113,0.0059796804562211,0.0,0.0,0.9833682775497437,-0.6167396903038025
-0.0635224357247352,0.1577704697847366,-0.0032522908877581,-0.4841457605361938,-0.0819062665104866,0.0303864367306232,0.0,0.0,0.9288604259490968,-0.2885066270828247
-0.0634346008300781,0.1475360244512558,0.0070723528042435,-0.4547726809978485,-0.0802138522267341,0.0338482484221458,0.0,0.0,0.931592583656311,0.0798896551132202
-0.06314267963171,0.1377913802862167,0.0268023423850536,-0.4329692721366882,-0.0778462365269661,0.0473522469401359,0.0,0.0,0.7304449081420898,-0.6659184098243713
-0.0627665519714355,0.1278851628303527,0.033620573580265,-0.4400731325149536,-0.0738902539014816,0.0791194885969162,0.0,0.0,0.8626152276992798,-0.1583203077316284
-0.0624107345938682,0.1181857213377952,0.0318741537630558,-0.430908054113388,-0.0702149122953414,0.0735066160559654,0.0,0.0,0.8451824188232422,-0.2837368249893188
-0.06189651414752,0.10925954580307,0.0472698509693145,-0.3965305387973785,-0.0661130473017692,0.0820374861359596,0.0,0.0,0.6685793399810791,-0.468746542930603
-0.0613715164363384,0.100537359714508,0.0484743043780326,-0.3874782025814056,-0.0621346719563007,0.0795673280954361,0.0,0.0,0.6899670362472534,-0.6573601365089417
-0.0609891898930072,0.0923986732959747,0.0332297347486019,-0.3615227341651916,-0.0571833215653896,0.0990270525217056,0.0,0.0,0.4282573461532593,0.003344178199768
-0.0605009086430072,0.0844984650611877,0.0434851050376892,-0.3509262800216675,-0.0519059896469116,0.1055465787649154,0.0,0.0,0.7184334993362427,-0.631488561630249
-0.0600857734680175,0.0771220326423645,0.0350788161158561,-0.3276322484016418,-0.0455427803099155,0.1272641122341156,0.0,0.0,0.5766787528991699,0.5652905702590942
-0.0596820823848247,0.0701648071408271,0.0353122390806674,-0.3090651333332062,-0.0405435189604759,0.0999854579567909,0.0,0.0,0.3961515426635742,0.0829130411148071
-0.0592861175537109,0.0631811246275901,0.0346635915338993,-0.310263067483902,-0.0356739684939384,0.0973911434412002,0.0,0.0,0.6829919815063477,0.910991668701172
-0.0589327812194824,0.0564612969756126,0.0324681848287582,-0.2985935807228088,-0.0328508652746677,0.0564621202647686,0.0,0.0,0.7435591220855713,0.145557165145874
-0.0587239265441894,0.0499192103743553,0.0188041701912879,-0.2907150685787201,-0.0308011006563901,0.0409954562783241,0.0,0.0,0.8226015567779541,0.9213500022888184
-0.0582921020686626,0.0439030490815639,0.042792547494173,-0.2673784792423248,-0.0304068736732006,0.007884357124567,0.0,0.0,0.3269504308700561,0.6849610805511475
-0.0577463135123252,0.0376614443957805,0.0555155277252197,-0.2774251699447632,-0.0313310958445072,-0.0184846557676792,0.0,0.0,0.7257331609725952,-0.2335489392280578
-0.0570280067622661,0.031948622316122,0.0720974206924438,-0.2539071440696716,-0.0316016934812068,-0.0054117776453495,0.0,0.0,0.69077467918396,-0.1788961291313171
-0.056312084197998,0.0267688129097223,0.0720277428627014,-0.2302231043577194,-0.0320303551852703,-0.0085729332640767,0.0,0.0,0.1359902620315551,0.2237212657928466
-0.055483341217041,0.0218064412474632,0.082907348871231,-0.2205544263124466,-0.0320573188364505,-0.0005394358304329,0.0,0.0,0.3438196182250976,-0.4422049522399902
-0.0545814521610736,0.0168889854103326,0.089981809258461,-0.2185485661029815,-0.0318516939878463,0.0041124774143099,0.0,0.0,0.584428071975708,-0.0959048271179199
-0.0536656379699707,0.0124870156869292,0.0914699435234069,-0.1956414878368377,-0.0317346677184104,0.0023403612431138,0.0,0.0,0.2240146398544311,-0.6553263664245605
-0.0527368560433387,0.0083069177344441,0.0914201065897941,-0.1857540011405944,-0.0302956383675336,0.0287806242704391,0.0,0.0,0.3389277458190918,-0.6458780169487
-0.0517799369990825,0.0040209628641605,0.092861071228981,-0.190432608127594,-0.0275027398020029,0.055857878178358,0.0,0.0,0.366603136062622,-0.4418023824691772
-0.0509141907095909,-0.00015269756841,0.08428206294775,-0.1854541599750518,-0.0252402480691671,0.0452498383820056,1.0,0.0,0.8954095840454102,-0.3365058898925781
-0.0501466765999794,-0.0037095570005476,0.0658594220876693,-0.1581635922193527,-0.0137274833396077,0.2312253266572952,1.0,0.0,0.916539430618286,-0.457826554775238
-0.04937744140625,-0.0057217860594391,0.06804721057415,-0.0893908888101577,-0.0049634957686066,0.1752746999263763,1.0,1.0,0.4653162956237793,-0.8912636637687683
-0.048766516149044,-0.0065578841604292,0.0518999584019184,-0.0371698178350925,0.0040955306030809,0.1811584383249282,1.0,1.0,-0.237528920173645,-0.2388874888420105
-0.0482714660465717,-0.0069316052831709,0.0414850749075412,-0.01666203700006,0.0119951432570815,0.1579698175191879,1.0,1.0,-0.11927330493927,0.3239244222640991
-0.0478944778442382,-0.0068584345281124,0.0312185678631067,0.0031802179291844,0.0183656513690948,0.1273883283138275,1.0,1.0,-0.53648841381073,-0.0743993520736694
-0.0476415641605854,-0.0063656233251094,0.021221850067377,0.0218429341912269,0.0223700478672981,0.0800671577453613,1.0,1.0,-0.7498648762702942,0.3469992876052856
-0.0474059097468853,-0.005540182814002,0.0209162216633558,0.0366419218480587,0.0249684415757656,0.0519507154822349,1.0,1.0,-0.7466180920600891,0.1209552288055419
