x_pos,y_pos,x_vel,y_vel,angle,ang_vel,leg_1,leg_2,main_booster,lat_booster
-0.0014369010459631,1.4033796787261963,-0.1455641686916351,-0.3351330757141113,0.0016738538397476,0.033011607825756,0.0,0.0,-0.6422582864761353,0.7463037967681885
-0.0027237893082201,1.3956140279769895,-0.1286820471286773,-0.3451405465602875,0.0016691576456651,-9.301120007876308e-05,0.0,0.0,-0.4307517409324646,0.7916932106018066
-0.0038487433921545,1.3875974416732788,-0.110534131526947,-0.3562919199466705,-0.0002737414906732,-0.0388616248965263,0.0,0.0,-0.5324715375900269,0.2798769474029541
-0.0048885345458984,1.379335880279541,-0.1019993796944618,-0.3671782314777374,-0.0022355972323566,-0.0392407178878784,0.0,0.0,0.0034009218215942,0.3642120361328125
-0.0057648657821118,1.371423363685608,-0.0860125720500946,-0.3516688644886017,-0.0038357065059244,-0.0320052914321422,0.0,0.0,-0.6059862971305847,-0.3110665082931518
-0.0065578459762036,1.3632659912109375,-0.0776677280664444,-0.3625565767288208,-0.0054426044225692,-0.0321408435702323,0.0,0.0,-0.5377394556999207,-0.7392265200614929
-0.0073287962004542,1.3548643589019775,-0.0769973918795585,-0.3734095394611358,-0.0055315033532679,-0.0017781698843464,0.0,0.0,-0.865332841873169,0.0744795799255371
-0.0080183986574411,1.3462177515029907,-0.0688703879714012,-0.3842921257019043,-0.0056153698824346,-0.0016777059063315,0.0,0.0,-0.7747154235839844,-0.6817700266838074
-0.0086824418976902,1.3373342752456665,-0.0677265077829361,-0.39481982588768,-0.0043098763562738,0.0261121802031993,0.0,0.0,-0.7705143690109253,-0.1986050009727478
-0.0092674251645803,1.328205704689026,-0.0598434880375862,-0.4057027399539947,-0.0029877955093979,0.0264442656189203,0.0,0.0,-0.745681643486023,-0.2412411570549011
-0.0097746849060058,1.3188326358795166,-0.0520908236503601,-0.4165855646133423,-0.0016426128568127,0.0269063711166381,0.0,0.0,-0.8320138454437256,-0.1623027920722961
-0.0102056507021188,1.3092145919799805,-0.0444761626422405,-0.427468329668045,-0.0002691868576221,0.0274709351360797,0.0,0.0,-0.4599547386169433,-0.2921183109283447
-0.0105613712221384,1.2993515729904177,-0.0370072275400161,-0.4383511543273926,0.0011376899201422,0.0281401928514242,0.0,0.0,-0.8673281669616699,-0.6715068221092224
-0.0108904838562011,1.2892374992370603,-0.0355744883418083,-0.4495167136192322,0.0037622572854161,0.0524964854121208,0.0,0.0,-0.7169560790061951,-0.643595278263092
-0.0111866947263479,1.2788852453231812,-0.0333053395152092,-0.4601163566112518,0.0074074477888643,0.0729106068611145,0.0,0.0,-0.7285827994346619,-0.5387066602706909
-0.0114474296569824,1.2682814598083496,-0.0306876692920923,-0.4713035821914673,0.0119750639423727,0.0913603454828262,0.0,0.0,-0.8421285152435303,0.3950426578521728
-0.0116395950317382,1.2574331760406494,-0.0238901805132627,-0.482187956571579,0.0165949277579784,0.0924056395888328,0.0,0.0,-0.7111145853996277,-0.1556521654129028
-0.0117650981992483,1.2463403940200806,-0.0172786768525838,-0.4930726289749145,0.0212718676775693,0.0935472100973129,0.0,0.0,-0.5803253650665283,0.0940752029418945
-0.0118258474394679,1.2350029945373535,-0.0108617255464196,-0.5039573907852173,0.0260100364685058,0.0947717428207397,0.0,0.0,-0.9471278190612792,0.5529381036758423
-0.0117859840393066,1.2234221696853638,9.851613867795096e-05,-0.5147720575332642,0.0298623200505971,0.0770523324608802,0.0,0.0,-0.8434131741523743,0.0385937690734863
-0.0116853713989257,1.2115967273712158,0.006104614585638,-0.525656521320343,0.033784557133913,0.0784514397382736,0.0,0.0,-0.7764188051223755,0.788851261138916
-0.0114623066037893,1.1995253562927246,0.0198725573718547,-0.5365599393844604,0.0361822806298732,0.0479588136076927,0.0,0.0,-0.886477530002594,0.2881003618240356
-0.0111828800290822,1.1872093677520752,0.0254372116178274,-0.5474439859390259,0.0386581420898437,0.0495217069983482,0.0,0.0,-0.94197279214859,0.1206820011138916
-0.010849380865693,1.174648642539978,0.0307666007429361,-0.5583277940750122,0.0412148050963878,0.0511381328105926,0.0,0.0,-0.9031426310539246,-0.2298623919486999
-0.0104640964418649,1.1618430614471436,0.0358540527522563,-0.5692119598388672,0.0438561663031578,0.0528320558369159,0.0,0.0,-0.7989463210105896,-0.6281964778900146
-0.0100906370207667,1.148770809173584,0.0330062322318553,-0.5811274647712708,0.0481376498937606,0.0856299176812172,0.0,0.0,-0.9124904870986938,0.6977028846740723
-0.0096151353791356,1.1354620456695557,0.0445469766855239,-0.591593325138092,0.051113449037075,0.0595159828662872,0.0,0.0,-0.7877112030982971,0.3054338693618774
-0.009095286950469,1.1219089031219482,0.0488761402666568,-0.6024753451347351,0.0541849620640277,0.0614303536713123,0.0,0.0,-0.9408150911331176,0.6245136260986328
-0.0084953308105468,1.1081193685531616,0.0577704831957817,-0.6129531860351562,0.0563809983432292,0.0439208634197711,0.0,0.0,-0.8299914002418518,-0.2411984205245971
-0.0078564640134572,1.0940850973129272,0.0615609474480152,-0.6238349676132202,0.058679386973381,0.0459675975143909,0.0,0.0,-0.7117154598236084,0.4811735153198242
-0.0071813585236668,1.0798060894012451,0.0650753229856491,-0.6347169280052185,0.0610831789672374,0.0480759106576442,0.0,0.0,-0.5635663270950317,-0.3105496168136596
-0.0064728735014796,1.0652824640274048,0.0683100149035453,-0.6455989480018616,0.0635953247547149,0.0502433367073535,0.0,0.0,-0.7355576157569885,0.2486735582351684
-0.0057337759062647,1.0505142211914062,0.0712621361017227,-0.6564809083938599,0.0662186294794082,0.0524658188223838,0.0,0.0,-0.5244215130805969,-0.4431126117706299
-0.0049668313004076,1.0355013608932495,0.0739295333623886,-0.6673630475997925,0.068955659866333,0.0547406747937202,0.0,0.0,-0.7553512454032898,0.0153224468231201
-0.0041748047806322,1.020243763923645,0.0763108283281326,-0.6782453060150146,0.0718088969588279,0.0570646747946739,0.0,0.0,-0.6130861043930054,0.2973953485488891
-0.0033608437515795,1.004741907119751,0.0784053951501846,-0.6891276836395264,0.074780635535717,0.0594345927238464,0.0,0.0,-0.736120343208313,-0.1138513088226318
-0.0025274276267737,0.9889952540397644,0.0802133977413177,-0.7000100612640381,0.0778729990124702,0.0618471577763557,0.0,0.0,-0.7273339033126831,0.6909832954406738
-0.0016200065147131,0.9730160236358644,0.0889816433191299,-0.7102783918380737,0.0796231776475906,0.0350034609436988,0.0,0.0,-0.7839950919151306,0.4227490425109863
-0.0006988525274209,0.956792175769806,0.0902199894189834,-0.721160352230072,0.0814977511763572,0.0374914929270744,0.0,0.0,-0.4908537864685058,0.2767064571380615
0.0002331733703613,0.9403238296508788,0.0911768153309822,-0.7320424914360046,0.0834983363747596,0.0400120392441749,0.0,0.0,-0.3914741277694702,0.783399224281311
0.0012236594920977,0.9236236214637756,0.0981965959072113,-0.7422764301300049,0.084340400993824,0.0168414432555437,0.0,0.0,-0.0515932440757751,0.7535265684127808
0.0022911070846021,0.9066862463951112,0.1075940355658531,-0.7527273893356323,0.0835028141736984,-0.0167517066001892,0.0,0.0,-0.5917105674743652,0.1662677526473999
0.0033612251281738,0.8895041942596436,0.1077276095747947,-0.7636092305183411,0.0827950984239578,-0.0141543000936508,0.0,0.0,-0.6633499264717102,0.5237622261047363
0.004479503724724,0.8720822930335999,0.1136397123336792,-0.7742045521736145,0.0810030400753021,-0.0358411446213722,0.0,0.0,-0.2265616059303283,-0.5586151480674744
0.0055486680939793,0.8544034361839294,0.1073822155594825,-0.7856996059417725,0.080532282590866,-0.0094151180237531,0.0,0.0,-0.1168031692504882,0.7178505659103394
0.0066739083267748,0.8364800214767456,0.1144237518310546,-0.7964942455291748,0.0786567479372024,-0.037510834634304,0.0,0.0,-0.2936370968818664,-0.4494149684906006
0.0077916146256029,0.8183121085166931,0.1135321110486984,-0.8073763251304626,0.0769136846065521,-0.034861035645008,0.0,0.0,0.15005624294281,-0.7982730269432068
0.008701610378921,0.8007583022117615,0.0910858511924743,-0.780163586139679,0.0768255218863487,-0.001763098523952,0.0,0.0,-0.2120841741561889,0.7557017803192139
0.0096453670412302,0.7829718589782715,0.0955212190747261,-0.7904503345489502,0.0756946727633476,-0.0226169321686029,0.0,0.0,0.0174034833908081,0.912601351737976
0.0106075285002589,0.7654130458831787,0.0990570187568664,-0.7802488207817078,0.0728831365704536,-0.0562307760119438,0.0,0.0,-0.7164554595947266,0.2407503128051757
0.0115530015900731,0.7476096153259277,0.0972496643662452,-0.7911311984062195,0.070203810930252,-0.0535864755511283,0.0,0.0,-0.6693002581596375,0.1049393415451049
0.0124795911833643,0.7295617461204529,0.0952327400445938,-0.8020135760307312,0.0676561892032623,-0.0509524419903755,0.0,0.0,0.1800168752670288,-0.967661201953888
0.0133794788271188,0.7117404341697693,0.0904720351099968,-0.7920334935188293,0.067178837954998,-0.0095470128580927,0.0,0.0,-0.2301387190818786,0.6211516857147217
0.0143055915832519,0.6936852335929871,0.0942218676209449,-0.802383542060852,0.0655869618058204,-0.0318374969065189,0.0,0.0,-0.058926522731781,-0.7139315009117126
0.0151648521423339,0.6753783822059631,0.0863136500120163,-0.8136178255081177,0.0651943907141685,-0.0078513715416193,0.0,0.0,0.4605854749679565,-0.6277643442153931
0.0158288963139057,0.6574337482452393,0.0655985847115516,-0.7975746989250183,0.0659875646233558,0.0158639065921306,0.0,0.0,-0.0069240927696228,0.7489223480224609
0.0165328029543161,0.6392579674720764,0.0712064877152443,-0.8077727556228638,0.0651818290352821,-0.0161148663610219,0.0,0.0,0.6151041984558105,-0.3739670515060425
0.0172986984252929,0.6218376159667969,0.0766447633504867,-0.7742342352867126,0.0651251077651977,-0.0011342610232532,0.0,0.0,-0.8153648376464844,0.6424109935760498
0.0180900581181049,0.6041847467422485,0.0805189982056617,-0.7845112085342407,0.0637524873018264,-0.0274522192776203,0.0,0.0,0.3876963853836059,-0.6465071439743042
0.018684959039092,0.5872692465782166,0.0595946423709392,-0.7517968416213989,0.0636537745594978,-0.001974397804588,0.0,0.0,-0.238564133644104,0.4395338296890259
0.0192458145320415,0.570108950138092,0.0560630671679973,-0.762678325176239,0.0636744946241378,0.0004145648854319,0.0,0.0,-0.4082255959510803,0.1822168827056884
0.0197712890803813,0.5527040362358093,0.0524041429162025,-0.7735598087310791,0.0638125389814376,0.0027609530370682,0.0,0.0,0.1308529376983642,-0.2342737913131714
0.0203218460083007,0.5355923771858215,0.054411094635725,-0.7605469822883606,0.0644567161798477,0.0128833297640085,0.0,0.0,0.0237578153610229,0.1046048402786254
0.020824909210205,0.5188059210777283,0.0494647659361362,-0.7461001873016357,0.0652810707688331,0.0164873264729976,0.0,0.0,0.5271273851394653,0.4049121141433716
0.021272087469697,0.5023300051689148,0.0437423735857009,-0.7323029041290283,0.0662490427494049,0.0193591620773077,0.0,0.0,0.0081591606140136,0.2049003839492797
0.0215802192687988,0.4861417412757873,0.0300810001790523,-0.7195114493370056,0.0669750720262527,0.0145204113796353,0.0,0.0,-0.1206600666046142,0.6096717119216919
0.0218972209841012,0.4697208404541015,0.0321254208683967,-0.729797899723053,0.0665470212697982,-0.0085606342181563,0.0,0.0,0.0857776403427124,0.2194846868515014
0.0222136490046978,0.4533482789993286,0.0317163728177547,-0.7276667952537537,0.0664704889059066,-0.0015307167777791,0.0,0.0,0.1473170518875122,-0.243352472782135
0.0224669463932514,0.4376200735569,0.0252287238836288,-0.6990339159965515,0.0665798112750053,0.0021861265413463,0.0,0.0,0.4902710914611816,0.7438597679138184
0.0226139072328805,0.4222794771194458,0.0161437205970287,-0.6817393898963928,0.0651436820626258,-0.0287223700433969,0.0,0.0,0.1475163698196411,-0.0899862647056579
0.0226228721439838,0.4073919355869293,0.0025508122052997,-0.6615975499153137,0.0635054558515548,-0.0327646061778068,0.0,0.0,-0.0453337430953979,0.4838005304336548
0.0225873943418264,0.3922596275806427,-0.0019705740269273,-0.6724792122840881,0.0619570277631282,-0.0309686865657567,0.0,0.0,0.7935998439788818,0.4067503213882446
0.0223109237849712,0.3782423436641693,-0.0255183670669794,-0.6229051351547241,0.0598482154309749,-0.0421766079962253,0.0,0.0,0.3027260303497314,0.5071618556976318
0.0220646858215332,0.3646713495254516,-0.0216990169137716,-0.6030394434928894,0.0569580681622028,-0.0578029081225395,0.0,0.0,0.5518045425415039,0.051783800125122
0.0217203143984079,0.351403146982193,-0.0314499139785766,-0.5895863175392151,0.0540014654397964,-0.0591322369873523,0.0,0.0,0.158544659614563,0.4573515653610229
0.0213652607053518,0.3382355868816376,-0.0328179188072681,-0.5851303339004517,0.0513421669602394,-0.0531859099864959,0.0,0.0,0.529304027557373,0.2937796115875244
0.0209185592830181,0.3252917528152466,-0.0419142134487628,-0.5751888751983643,0.0486209355294704,-0.0544247105717659,0.0,0.0,0.8845343589782715,0.6973830461502075
0.020426083356142,0.3134684264659881,-0.0451351255178451,-0.5253522992134094,0.0445560105144977,-0.0812985822558403,0.0,0.0,0.3676462173461914,-0.2252957224845886
0.0199231151491403,0.3024169206619262,-0.0465620681643486,-0.491071879863739,0.0408642068505287,-0.0738359689712524,0.0,0.0,0.2284536361694336,0.7374838590621948
0.0193124767392873,0.2920369207859039,-0.0557923428714275,-0.4611975848674774,0.0356547571718692,-0.1041889786720275,0.0,0.0,-0.8136260509490967,0.154444932937622
0.0186550132930278,0.2814125120639801,-0.0605298392474651,-0.4720809757709503,0.0305052306503057,-0.1029904633760452,0.0,0.0,-0.6601793766021729,-0.5104823708534241
0.0179130546748638,0.2705464363098144,-0.0699987858533859,-0.4828579723834991,0.0263590943068265,-0.082922913134098,0.0,0.0,-0.7466628551483154,0.0944985151290893
0.0171243660151958,0.259435772895813,-0.0747217014431953,-0.4937404692173004,0.0222662109881639,-0.0818575024604797,0.0,0.0,-0.3391351103782654,-0.1122177839279174
0.0162891391664743,0.2480805218219757,-0.0794293284416198,-0.5046228766441345,0.0182233341038227,-0.0808577165007591,0.0,0.0,0.1535648107528686,-0.040062665939331
0.0153902051970362,0.2372127175331115,-0.0858004540205001,-0.4829703569412231,0.0141885606572031,-0.0806954056024551,0.0,0.0,0.0376983880996704,0.1040945053100586
0.0144947050139307,0.2266495376825332,-0.0857594981789588,-0.4694439470767975,0.0104506937786936,-0.0747575312852859,0.0,0.0,0.1924057006835937,0.037346601486206
0.0135679244995117,0.2162125259637832,-0.0890173241496086,-0.4638454020023346,0.0068323779851198,-0.0723663717508316,0.0,0.0,0.0806152820587158,0.2750552892684936
0.0126543994992971,0.2059265673160553,-0.0880085378885269,-0.4571442306041717,0.0035320844035595,-0.0660058110952377,0.0,0.0,-0.2691380977630615,0.4328460693359375
0.0116956708952784,0.1953958570957183,-0.0925634056329727,-0.4680260419845581,0.0002661439939402,-0.06531872600317,0.0,0.0,0.187544584274292,-0.3104360103607178
0.0107923503965139,0.1850457489490509,-0.0875289440155029,-0.4600070714950561,-0.0025048616807907,-0.055420022457838,0.0,0.0,0.5541236400604248,0.4083552360534668
0.0098411561921238,0.1755109578371048,-0.092317447066307,-0.4237748384475708,-0.0052719730883836,-0.0553422160446643,0.0,0.0,-0.2690373063087463,0.4961769580841064
0.0088461879640817,0.1657314896583557,-0.0967224836349487,-0.434656411409378,-0.0080132531002163,-0.054825484752655,0.0,0.0,-0.2339265346527099,0.1101980209350586
0.0078079225495457,0.1557073146104812,-0.1010683625936508,-0.4455379545688629,-0.010731347836554,-0.054362017661333,0.0,0.0,0.4773337841033935,0.3314611911773681
0.006820392794907,0.1458746939897537,-0.0964411422610282,-0.4370221793651581,-0.0130116697400808,-0.0456063412129879,0.0,0.0,0.5940723419189453,0.7318629026412964
0.0057994844391942,0.1365323215723037,-0.0982157662510871,-0.4152588248252868,-0.0168368909507989,-0.0765047520399093,0.0,0.0,0.4986026287078857,-0.028862178325653
0.0048273084685206,0.1281169801950454,-0.0937212854623794,-0.3740568459033966,-0.0202911961823701,-0.0690860301256179,0.0,0.0,0.0010632276535034,-0.1174292564392089
0.003807449247688,0.1199746429920196,-0.0984325408935546,-0.3619351983070373,-0.0237972792237997,-0.0701212882995605,0.0,0.0,0.367366075515747,0.6162881851196289
0.0026993751525878,0.1125829070806503,-0.1058000326156616,-0.3286080658435821,-0.0287402737885713,-0.0988600850105285,0.0,0.0,-0.3124705553054809,0.1792078018188476
0.0015524864429607,0.1049466952681541,-0.1097011566162109,-0.3394910097122192,-0.0336737856268882,-0.0986700430512428,0.0,0.0,-7.021427154541016e-05,0.6189541816711426
0.0004121780511923,0.0970682948827743,-0.1079075336456298,-0.350300520658493,-0.0397208668291568,-0.1209418177604675,0.0,0.0,0.4396374225616455,0.1694445610046386
-0.0008113860967569,0.0899278223514556,-0.1159013882279396,-0.3175379633903503,-0.0460955239832401,-0.1274929344654083,0.0,0.0,0.1403930187225341,-0.3520885705947876
-0.0020724297501146,0.0830593705177307,-0.1195771843194961,-0.3054811656475067,-0.0525452643632888,-0.1289950609207153,0.0,0.0,0.4176118373870849,-0.1977131962776184
-0.0034415244590491,0.076727494597435,-0.1299207657575607,-0.2816768586635589,-0.0594552084803581,-0.1381986439228058,0.0,0.0,0.118625521659851,0.5249671936035156
-0.0048944475129246,0.0706877335906028,-0.1370333582162857,-0.2687848508358001,-0.0676189586520195,-0.1632749438285827,0.0,0.0,0.1731486320495605,0.4419503211975097
-0.0062708854675292,0.0651600211858749,-0.1297520995140075,-0.2460537701845169,-0.0754343718290329,-0.1563081443309784,0.0,0.0,-0.0846722722053527,0.1737264394760131
-0.0076793669722974,0.0593882650136947,-0.1329654157161712,-0.2569397985935211,-0.0832503587007522,-0.1563198715448379,0.0,0.0,0.4043780565261841,0.0302141904830932
-0.0089421272277832,0.0543264709413051,-0.1189619526267051,-0.2253930121660232,-0.0904974266886711,-0.1449412852525711,0.0,0.0,0.1639657020568847,0.2070467472076416
-0.0102014541625976,0.0498394593596458,-0.1185393333435058,-0.1998866349458694,-0.0978211984038353,-0.146475464105606,0.0,0.0,-0.5545011758804321,0.7012497186660767
-0.0114205358549952,0.0451066121459007,-0.1127892509102821,-0.2109727561473846,-0.1068740636110305,-0.1810575872659683,0.0,0.0,0.0713732242584228,-0.4800878167152405
-0.0125779155641794,0.0406826101243495,-0.1068483963608741,-0.1972812265157699,-0.115701138973236,-0.1765415370464325,0.0,0.0,-0.1110098958015441,-0.6333763599395752
-0.0138114932924509,0.0360298007726669,-0.115761712193489,-0.2073988318443298,-0.1232498586177825,-0.1509740650653839,0.0,0.0,0.1295361518859863,-0.6492753624916077
-0.0150080677121877,0.0319408997893333,-0.1134433895349502,-0.182257130742073,-0.1294419169425964,-0.1238412111997604,0.0,0.0,-0.2491816878318786,0.4262049198150635
-0.0162286758422851,0.0276076644659042,-0.1158404499292373,-0.1931412667036056,-0.1356371790170669,-0.1239052861928939,0.0,0.0,0.493794322013855,0.5898610353469849
-0.0174691192805767,0.0238770339637994,-0.1163633093237876,-0.1665240228176117,-0.1432856917381286,-0.1529705673456192,0.0,0.0,0.0812340974807739,0.0671383142471313
-0.0187660213559865,0.0204204898327589,-0.121627926826477,-0.1544188559055328,-0.1513252258300781,-0.160790666937828,0.0,0.0,0.1697719097137451,-0.256299078464508
-0.0200379379093647,0.017315350472927,-0.1190736889839172,-0.1388540863990783,-0.1594370305538177,-0.1622362434864044,0.0,0.0,0.3347195386886596,-0.3949301242828369
-0.0211464874446392,0.0153732867911458,-0.1213678494095802,-0.0852680653333664,-0.1488331705331802,0.2122149765491485,1.0,0.0,-0.1562598943710327,0.955957293510437
-0.0220725052058696,0.0138162467628717,-0.1171945184469223,-0.0669512450695037,-0.1242588758468627,0.4915688931941986,1.0,0.0,-0.3356528878211975,0.7335870265960693
-0.0229435916990041,0.0119947763159871,-0.1094051599502563,-0.079247660934925,-0.1021115407347679,0.4429460167884826,1.0,0.0,-0.0498682260513305,0.8837763071060181
-0.023741340264678,0.0099317645654082,-0.1002602353692054,-0.0904156938195228,-0.0817976370453834,0.4062778949737549,1.0,0.0,-0.1440588235855102,0.9434850215911864
-0.02445306815207,0.0076389405876398,-0.0903894901275634,-0.1009634584188461,-0.0627855509519577,0.3802419602870941,1.0,0.0,0.1991580724716186,0.9872539043426514
