x_pos,y_pos,x_vel,y_vel,angle,ang_vel,leg_1,leg_2,main_booster,lat_booster
-0.0016209601890295,1.4030197858810425,-0.1643018424510955,-0.3511278927326202,0.0019759908318519,0.0389940626919269,0.0,0.0,-0.0109579198590006,0.8068992901494716
-0.0032718658912926,1.3945341110229492,-0.1654293835163116,-0.377140998840332,0.0023165070451796,0.0068114874884486,0.0,0.0,-0.3828753216293865,0.7480919959110424
-0.0049500465393066,1.385438084602356,-0.1664945930242538,-0.4042695462703705,0.0010052343131974,-0.0262277610599994,0.0,0.0,-0.3387599108808341,0.9393098948137611
-0.0066687585785984,1.3757342100143433,-0.1691938638687133,-0.4312817454338074,-0.0016340508591383,-0.0527908019721508,0.0,0.0,0.9332307730105398,-0.8000945598413034
-0.0083848955109715,1.3665724992752075,-0.1711110174655914,-0.4071865975856781,-0.002134142210707,-0.0100027453154325,0.0,0.0,-0.9441151969798164,-0.9510124452289688
-0.0102596282958984,1.356804609298706,-0.188627615571022,-0.4341243207454681,-0.0010020117042586,0.0226444825530052,0.0,0.0,0.2322445647554096,0.8011665266424881
-0.012191486544907,1.3470782041549685,-0.1928939372301101,-0.4322868585586548,-0.0012898565037176,-0.0057572270743548,0.0,0.0,0.1072336481370586,0.8404376567443433
-0.014041805639863,1.3373993635177612,-0.183315098285675,-0.4301719963550567,-0.0029799900949001,-0.0338054746389389,0.0,0.0,-0.9590992483700402,0.6241375725665166
-0.015945816412568,1.3271222114562988,-0.1876775920391082,-0.4567627310752868,-0.0056774728000164,-0.0539545640349388,0.0,0.0,-0.2162747278159673,-0.7281176166274449
-0.0180096626281738,1.316245675086975,-0.2053235471248626,-0.4834089577198028,-0.0067183468490839,-0.0208195243030786,0.0,0.0,0.5405647998502956,-0.7933855538758526
-0.0201454162597656,1.3055962324142456,-0.2145018875598907,-0.4733113348484039,-0.0058119031600654,0.0181303676217794,0.0,0.0,-0.9705023292051448,0.9735096159982608
-0.0222985260188579,1.2943388223648071,-0.2142682820558548,-0.5003265142440796,-0.0068347635678946,-0.0204591546207666,0.0,0.0,0.3574892570528998,0.6981836432502265
-0.0243766792118549,1.2833409309387207,-0.205819696187973,-0.488812118768692,-0.0087984064593911,-0.0392766892910003,0.0,0.0,0.1431663043089466,-0.9476452081361832
-0.0265741348266601,1.272097945213318,-0.2199186384677887,-0.4996854066848755,-0.0086304135620594,0.0033602248877286,0.0,0.0,0.3476200549669195,0.7981061321182177
-0.0286762230098247,1.261264681816101,-0.2092083990573883,-0.4814866185188293,-0.009624951519072,-0.0198927577584981,0.0,0.0,-0.1112739016040949,-0.9694138044198573
-0.0309444423764944,1.2498159408569336,-0.2276578843593597,-0.5088263750076294,-0.0087884562090039,0.016731234267354,0.0,0.0,-0.1618912848578615,-0.7645331388998198
-0.033362291753292,1.2377721071243286,-0.2440971583127975,-0.5352698564529419,-0.0065185027197003,0.0454034730792045,0.0,0.0,-0.0124147704041943,-0.7727356240320835
-0.0359303466975688,1.2251174449920654,-0.2605563104152679,-0.5624158978462219,-0.002807205542922,0.0742326751351356,0.0,0.0,0.950180125574906,-0.8078785694512444
-0.0385379791259765,1.213287115097046,-0.2666912078857422,-0.5257932543754578,0.0030625900253653,0.1174063459038734,0.0,0.0,0.5254273679813957,0.7980332577484354
-0.0412702560424804,1.2016355991363523,-0.2777070701122284,-0.5178647041320801,0.0074935625307261,0.0886273458600044,0.0,0.0,0.1742483652583533,0.8465409949604169
-0.0439377799630165,1.1901891231536863,-0.2698944211006164,-0.5087503790855408,0.0106002297252416,0.0621387735009193,0.0,0.0,-0.6962089031423553,0.9030789473722144
-0.0466352477669715,1.1781340837478638,-0.2713368535041809,-0.5357952117919922,0.0121731208637356,0.0314605608582496,0.0,0.0,-0.9133892855944404,0.9611953744915288
-0.0493427291512489,1.1654746532440186,-0.2702966332435608,-0.5626355409622192,0.0117257814854383,-0.0089476872235536,0.0,0.0,0.5494224162072192,-0.6827622105795934
-0.0521378517150878,1.1526423692703247,-0.2808956503868103,-0.5703334212303162,0.0130901988595724,0.0272907949984073,0.0,0.0,-0.5755260177452775,0.9289268642401932
-0.0549787506461143,1.1392090320587158,-0.2843431234359741,-0.5970398187637329,0.013353575952351,0.0052679507061839,0.0,0.0,0.3020178695160325,0.6206862755306491
-0.0580056197941303,1.125983476638794,-0.3017911314964294,-0.5877911448478699,0.012467348948121,-0.0177244879305362,0.0,0.0,-0.6227469866736259,0.7295352520547405
-0.061075210571289,1.1121591329574585,-0.3049097061157226,-0.6144043207168579,0.0104416692629456,-0.0405134782195091,0.0,0.0,0.8547918176638007,0.9505242735488056
-0.0643425956368446,1.0991283655166626,-0.3228277862071991,-0.5791228413581848,0.0065811402164399,-0.077210709452629,0.0,0.0,-0.8984911296715046,0.8724018160742084
-0.0676556602120399,1.0855008363723757,-0.3263427317142486,-0.605650007724762,0.0016891288105398,-0.0978403091430664,0.0,0.0,-0.1685595275958029,0.9074904817631224
-0.0709982886910438,1.0712659358978271,-0.3278796672821045,-0.632669985294342,-0.004613880533725,-0.1260600835084915,0.0,0.0,0.4013219409730784,0.8829899687307612
-0.074347972869873,1.0575134754180908,-0.327154278755188,-0.6112655997276306,-0.0123204626142978,-0.1541318893432617,0.0,0.0,0.3444118938365041,-0.8795453076550008
-0.0779325515031814,1.0436891317367554,-0.352699339389801,-0.6144712567329407,-0.0180093757808208,-0.1137782111763954,0.0,0.0,-0.1311286500196198,-0.6863906583551203
-0.0816754326224327,1.029268503189087,-0.3704424500465393,-0.6409696936607361,-0.0218078847974538,-0.075970247387886,0.0,0.0,-0.5836434103892967,0.9386078121193616
-0.0854476913809776,1.014232516288757,-0.3720330893993377,-0.6683460474014282,-0.026936586946249,-0.102573774755001,0.0,0.0,-0.3797642378777566,-0.9582083478037832
-0.089388370513916,0.9985970258712769,-0.391092449426651,-0.6949682831764221,-0.0298697631806135,-0.0586637333035469,0.0,0.0,-0.3475837558787904,-0.6807110319024823
-0.0934745818376541,0.9823641180992126,-0.4073337614536285,-0.7214868068695068,-0.0311472490429878,-0.0255496408790349,0.0,0.0,0.6700098303227993,0.8312739584649259
-0.0976025611162185,0.9662105441093444,-0.4101250767707824,-0.7179951071739197,-0.0337864309549331,-0.0527836196124553,0.0,0.0,-0.7848112410377486,0.8820904606968072
-0.1017472296953201,0.949455201625824,-0.4102552533149719,-0.744778573513031,-0.0379469767212867,-0.0832109078764915,0.0,0.0,0.2037420922678676,-0.8683776854108121
-0.1060598343610763,0.9330309629440308,-0.4291244447231293,-0.7300266027450562,-0.0400551781058311,-0.0421639196574687,0.0,0.0,0.9672861084070729,-0.9220254978803551
-0.1104674339294433,0.9170898795127868,-0.4408996701240539,-0.7084861397743225,-0.039916343986988,0.0027765170671045,0.0,0.0,-0.228877057352224,0.8869950265912847
-0.1149037331342697,0.9005480408668518,-0.4426452219486236,-0.7352215647697449,-0.0408856868743896,-0.0193869341164827,0.0,0.0,-0.7913906574249268,0.9724723100662231
-0.1193323135375976,0.8833934664726257,-0.439859390258789,-0.7625109553337097,-0.0438450723886489,-0.059187889099121,0.0,0.0,-0.6070348620414734,0.976699948310852
-0.1237545982003212,0.8656175136566162,-0.4372886717319488,-0.7901947498321533,-0.0487228371202945,-0.0975553393363952,0.0,0.0,-0.400189995765686,0.9859304428100586
-0.1281672418117523,0.8472285866737366,-0.4343579411506653,-0.8175309300422668,-0.0555480010807514,-0.1365032494068145,0.0,0.0,0.1883238554000854,0.9955198764801024
-0.1326033622026443,0.828537106513977,-0.4350462853908539,-0.8310716152191162,-0.064022310078144,-0.1694863140583038,0.0,0.0,0.6751928329467773,0.9811984300613404
-0.1369651854038238,0.8097265958786011,-0.4260435104370117,-0.8364906311035156,-0.0740523710846901,-0.2006015479564666,0.0,0.0,0.8891448974609375,0.9989578723907472
-0.1412074118852615,0.7910541296005249,-0.4125439524650574,-0.8305086493492126,-0.0856218561530113,-0.2313895970582962,0.0,0.0,0.7503464221954346,0.9970872402191162
-0.1454999893903732,0.7731163501739502,-0.4157378077507019,-0.7980575561523438,-0.0990279987454414,-0.2681230902671814,0.0,0.0,0.7824933528900146,0.96442449092865
-0.1498603820800781,0.7558664083480835,-0.4206768870353699,-0.767751157283783,-0.1142696663737297,-0.3048334419727325,0.0,0.0,0.5351037979125977,0.9922025203704834
-0.154177576303482,0.7387067079544067,-0.4146991670131683,-0.7640483975410461,-0.1311952918767929,-0.3385128378868103,0.0,0.0,0.6452351808547974,0.97939133644104
-0.1582468003034591,0.7217442393302917,-0.38849538564682,-0.755608856678009,-0.1495691388845443,-0.3674770295619964,0.0,0.0,0.5974060297012329,0.9905729293823242
-0.1622543334960937,0.7052409052848816,-0.3806178271770477,-0.7356192469596863,-0.1696806997060775,-0.4022316336631775,0.0,0.0,0.2493808269500732,0.9975531101226808
-0.1660886704921722,0.6885851621627808,-0.3617176115512848,-0.7428814172744751,-0.1914722472429275,-0.435831218957901,0.0,0.0,0.5144474506378174,0.993744969367981
-0.1697551757097244,0.6723930239677429,-0.3433377146720886,-0.7228294014930725,-0.214953601360321,-0.4696272909641266,0.0,0.0,0.9185059070587158,0.6853876113891602
-0.1731151640415191,0.6563531756401062,-0.312186598777771,-0.7165336608886719,-0.239067792892456,-0.4822840094566345,0.0,0.0,0.8486967086791992,-0.321739137172699
-0.1764990836381912,0.6405214071273804,-0.3145142197608948,-0.7076918482780457,-0.2633945941925049,-0.4865362644195556,0.0,0.0,0.7855434417724609,0.0248241424560546
-0.1796014755964279,0.625299334526062,-0.2872436642646789,-0.6808484792709351,-0.2869774401187897,-0.471656858921051,0.0,0.0,0.9604599475860596,-0.9318397641181946
-0.182410717010498,0.6105873584747314,-0.2604764401912689,-0.6580288410186768,-0.3080750703811645,-0.4219525456428528,0.0,0.0,0.8914587497711182,-0.9787625670433044
-0.1849474906921386,0.5966232419013977,-0.2356792688369751,-0.6245521306991577,-0.3267640173435211,-0.3737793564796448,0.0,0.0,0.799036979675293,-0.9043408036231996
-0.1873906105756759,0.5833589434623718,-0.2283015996217727,-0.5932343602180481,-0.3435004651546478,-0.334728866815567,0.0,0.0,0.7984292507171631,-0.975160539150238
-0.1897377073764801,0.5700606107711792,-0.2209728062152862,-0.5943788290023804,-0.3579248189926147,-0.2884873151779175,0.0,0.0,0.7734650373458862,-0.9577015042304992
-0.1920222342014312,0.5573238730430603,-0.2167100012302398,-0.5690537691116333,-0.3703215718269348,-0.2479356974363327,0.0,0.0,0.9448941946029664,-0.975428342819214
-0.1940229386091232,0.5447860360145569,-0.1907237619161605,-0.5596859455108643,-0.3802387118339538,-0.1983425319194793,0.0,0.0,0.9779889583587646,-0.9711227416992188
-0.1958026885986328,0.5326920747756958,-0.1707803308963775,-0.5394465327262878,-0.3878969848155975,-0.153165727853775,0.0,0.0,0.9773938655853271,-0.9864349365234376
-0.1974699944257736,0.5206904411315918,-0.1616435497999191,-0.5347984433174133,-0.3933204114437103,-0.1084688082337379,0.0,0.0,0.957721710205078,-0.9401317834854126
-0.1990861892700195,0.5091897249221802,-0.1582757085561752,-0.5120746493339539,-0.3969013690948486,-0.071618914604187,0.0,0.0,0.8525084257125854,-0.8577075004577637
-0.2003612071275711,0.4984437823295593,-0.1260262578725814,-0.4780090153217315,-0.3984822928905487,-0.0316185168921947,0.0,0.0,0.9882705211639404,-0.9345525503158568
-0.201459601521492,0.4875481426715851,-0.1104754358530044,-0.4840737283229828,-0.3977991044521332,0.0136637296527624,0.0,0.0,0.97489333152771,-0.8813675045967102
-0.2021753340959549,0.4774871468544006,-0.0741197317838668,-0.4464438557624817,-0.3950742781162262,0.0544963702559471,0.0,0.0,0.9819798469543456,-0.93187814950943
-0.2028348445892334,0.4677174687385559,-0.0702132284641265,-0.4330335557460785,-0.3905260562896728,0.0909647420048713,0.0,0.0,0.9735209941864014,-0.90915846824646
-0.2033368051052093,0.4585777819156647,-0.0561201497912406,-0.4045930802822113,-0.3842076063156128,0.1263690143823623,0.0,0.0,0.9530439376831056,-0.8250868320465088
-0.203554481267929,0.4498722553253174,-0.0294740162789821,-0.3848562240600586,-0.3760102987289428,0.1639460921287536,0.0,0.0,0.8395817279815674,-0.386075496673584
-0.2035237252712249,0.4419533908367157,-0.0041060335934162,-0.350078284740448,-0.3683983385562897,0.1522387564182281,0.0,0.0,0.8057237863540649,-0.6809473633766174
-0.2031931430101394,0.4342955648899078,0.0242878329008817,-0.3381145894527435,-0.3591234087944031,0.1854988038539886,0.0,0.0,-0.0680134892463684,-0.5924219489097595
-0.2028631269931793,0.426055759191513,0.0229256823658943,-0.3637318611145019,-0.3485240340232849,0.2119874060153961,0.0,0.0,0.0066428184509277,-0.3767626285552978
-0.2023753225803375,0.4174704551696777,0.0384573563933372,-0.3791046440601349,-0.3377048075199127,0.2163848578929901,0.0,0.0,-0.1721032261848449,-0.0010871291160583
-0.2018316686153412,0.4082820117473602,0.0439891889691352,-0.4059893190860748,-0.3268747329711914,0.2166023701429367,0.0,0.0,0.3199344873428345,-0.3273673057556152
-0.2010305821895599,0.3993936777114868,0.0697284638881683,-0.3927286863327026,-0.3160824477672577,0.2158464938402176,0.0,0.0,-0.2985008955001831,0.1486315727233886
-0.2001650333404541,0.3899022936820984,0.0761673972010612,-0.4196142852306366,-0.3053148984909057,0.2153517752885818,0.0,0.0,-0.5131711363792419,-0.1984685659408569
-0.1992308646440506,0.3798078298568725,0.0830345898866653,-0.4465003609657287,-0.2945902347564697,0.2144935131072998,0.0,0.0,-0.4146355390548706,-0.0244645476341247
-0.1982241570949554,0.3691103160381317,0.0903121754527092,-0.4733868241310119,-0.2839268445968628,0.2132679522037506,0.0,0.0,-0.0316072702407836,-0.4131561517715454
-0.1971413642168045,0.357809841632843,0.0979817658662796,-0.500273585319519,-0.2733432650566101,0.2116717994213104,0.0,0.0,0.4019169807434082,-0.241793692111969
-0.1959295272827148,0.3466465473175049,0.1113182753324508,-0.4943382143974304,-0.2632559239864349,0.2017477005720138,0.0,0.0,0.5044229030609131,-0.2204434871673584
-0.1945222914218902,0.3357935547828674,0.1311855018138885,-0.4806695878505707,-0.2535166144371032,0.1947860419750213,0.0,0.0,-0.0533773899078369,-0.5996752977371216
-0.1930749863386154,0.3243589103221893,0.1340888291597366,-0.5064084529876709,-0.2426740974187851,0.2168499678373336,0.0,0.0,0.5681605339050293,-0.3433072566986084
-0.1913251876831054,0.3130956888198852,0.1640680730342865,-0.4988243281841278,-0.2316034734249115,0.2214129269123077,0.0,0.0,0.4425203800201416,-0.8170162439346313
-0.1894562691450119,0.3016729950904846,0.1744872331619262,-0.5057779550552368,-0.2190344929695129,0.2513797581195831,0.0,0.0,0.3666943311691284,-0.4937223792076111
-0.1873452216386795,0.2901108264923095,0.1984933763742447,-0.5120550394058228,-0.2063025534152984,0.254639208316803,0.0,0.0,-0.2850919961929321,-0.8672609329223633
-0.1851877272129058,0.277962327003479,0.2020105421543121,-0.5380690097808838,-0.1924635022878646,0.2767810225486755,0.0,0.0,0.0555756092071533,-0.7203420400619507
-0.1828388273715973,0.2655651569366455,0.2198347151279449,-0.5490981936454773,-0.1773335039615631,0.3025999665260315,0.0,0.0,0.1929314136505127,-0.7725882530212402
-0.1803565025329589,0.2533910274505615,0.231831282377243,-0.5391973257064819,-0.1609022468328476,0.328624814748764,0.0,0.0,0.5166304111480713,-0.5241683721542358
-0.1776692420244217,0.2416539490222931,0.251411885023117,-0.5198637247085571,-0.1436066329479217,0.3459119200706482,0.0,0.0,-0.0637317895889282,-0.7080150246620178
-0.1749200820922851,0.2293291687965393,0.2567000091075897,-0.5461185574531555,-0.1254691481590271,0.3627496361732483,0.0,0.0,0.6385836601257324,-0.4445035457611084
-0.171924203634262,0.2168674767017364,0.2811806797981262,-0.5524059534072876,-0.1071684509515762,0.3660138845443725,0.0,0.0,0.8150895833969116,-0.6461048722267151
-0.1688725501298904,0.2046569138765335,0.2858900427818298,-0.5414206385612488,-0.0880506038665771,0.3823569715023041,0.0,0.0,0.6673696041107178,-0.6240915060043335
-0.1655910462141037,0.1931500285863876,0.3077020049095154,-0.5103398561477661,-0.0677991807460784,0.4050282835960388,0.0,0.0,0.7690058946609497,-0.820797324180603
-0.1622490882873535,0.1819655746221542,0.3124644160270691,-0.4962419271469116,-0.0463144965469837,0.4296938776969909,0.0,0.0,0.8638913631439209,-0.1014618873596191
-0.1588933914899826,0.1715370714664459,0.314848393201828,-0.4629777371883392,-0.0258432067930698,0.4094258844852447,0.0,0.0,0.9382401704788208,-0.3519948124885559
-0.1553009003400802,0.1617332845926284,0.3384180665016174,-0.4354955852031708,-0.00527846487239,0.4112950265407562,0.0,0.0,0.691421627998352,-0.7845460176467896
-0.1517122238874435,0.1524895280599594,0.3369626402854919,,0.0163384415209293,0.4323382973670959,0.0,0.0,0.839895486831665,-0.1309055685997009
-0.1481140106916427,0.1438952982425689,0.338774025440216,-0.3823241889476776,0.0371221601963043,0.4156745076179504,0.0,0.0,0.9081768989562988,-0.1693922877311706
-0.1444498002529144,0.1355622857809066,0.3459583222866058,-0.3709858357906341,0.0573527924716472,0.4046126008033752,0.0,0.0,0.8819065093994141,0.0644013881683349
-0.1408404409885406,0.1276438385248184,0.3415358662605285,-0.3527832925319671,0.0765359327197074,0.3836630582809448,0.0,0.0,0.8046467304229736,0.3545564413070678
-0.137321189045906,0.1199617013335228,0.3337763547897339,-0.3424570858478546,0.0945139676332473,0.3595609366893768,0.0,0.0,0.6426960229873657,-0.3087174296379089
-0.1336462944746017,0.1127604320645332,0.3493426144123077,-0.3213030695915222,0.1125227585434913,0.3601756691932678,0.0,0.0,0.7057023048400879,-0.1024256944656372
-0.129832461476326,0.1055364906787872,0.3634519875049591,-0.322514146566391,0.1303571164608001,0.3566871285438537,0.0,0.0,0.6035561561584473,-0.1419214010238647
-0.1258558332920074,0.098839983344078,0.379588633775711,-0.2993010282516479,0.1483647525310516,0.3601530492305755,0.0,0.0,0.5514302253723145,-0.2089099287986755
-0.1218883544206619,0.0926182568073272,0.379310667514801,-0.2783515155315399,0.1657852828502655,0.348410815000534,0.0,0.0,0.6569538116455078,-0.1011767983436584
-0.1178009957075119,0.0870980620384216,0.3911974728107452,-0.2473949044942855,0.1833705753087997,0.3517058193683624,0.0,0.0,0.5221357345581055,-0.3280198574066162
-0.113621138036251,0.0817827805876731,0.4006758630275726,-0.2384703606367111,0.200774997472763,0.3480884730815887,0.0,0.0,0.6594867706298828,-0.2842049598693847
-0.1094908714294433,0.0770685300230979,0.3963216841220855,-0.2118782550096511,0.2176316380500793,0.3371329307556152,0.0,0.0,0.2856490612030029,0.0190869569778442
-0.1053255051374435,0.072664625942707,0.4002029299736023,-0.1982258111238479,0.2341845482587814,0.3310579061508178,0.0,0.0,0.5838403701782227,-0.2556303143501282
-0.1010651588439941,0.0683260262012481,0.4099256098270416,-0.1954723298549652,0.250565230846405,0.327613890171051,0.0,0.0,0.4252204895019531,0.0927290916442871
-0.0969170555472374,0.0641201138496398,0.3997547030448913,-0.1895722895860672,0.2659215629100799,0.307126522064209,0.0,0.0,0.1236102581024169,-0.1341475844383239
-0.0928229317069053,0.0597826577723026,0.395355761051178,-0.1953939795494079,0.2803313136100769,0.2881956994533539,0.0,0.0,0.3925578594207763,-0.2359804511070251
-0.0887550339102745,0.0555183738470077,0.3934066891670227,-0.192152127623558,0.2941083014011383,0.2755398452281952,0.0,0.0,0.4570319652557373,-0.0491864681243896
-0.0846786499023437,0.0513349138200283,0.3947449922561645,-0.1885907649993896,0.3074367046356201,0.2665675580501556,0.0,0.0,0.2484999895095825,-0.302408218383789
-0.0804671272635459,0.0469800792634487,0.4083981513977051,-0.1963018625974655,0.3206616938114166,0.2644998133182525,0.0,0.0,0.148517370223999,-0.2244408726692199
-0.076217845082283,0.0427290312945842,0.4124789237976074,-0.1917451024055481,0.3336353003978729,0.2594722211360931,0.0,0.0,0.2176407575607299,-0.5108845829963684
-0.0720598250627517,0.0387102924287319,0.4029249548912048,-0.1816419810056686,0.3471207022666931,0.2697083353996277,0.0,0.0,-0.2296511530876159,-0.2924174070358276
-0.0677781105041503,0.0340865217149257,0.4158964157104492,-0.2085157036781311,0.3600325286388397,0.258236676454544,0.0,1.0,0.9899098873138428,0.967770218849182
