x_pos,y_pos,x_vel,y_vel,angle,ang_vel,leg_1,leg_2,main_booster,lat_booster
-0.0014575005043298,1.4034483432769775,-0.1477437019348144,-0.3320762515068054,0.0017905288841575,0.0353215858340263,0.0,0.0,-0.081177705834702,-0.7666669642161014
-0.0029033659957349,1.395819902420044,-0.1478231102228164,-0.3390487730503082,0.0049881641753017,0.0639593228697776,0.0,0.0,-0.1852116563008683,-0.5548190836654777
-0.0043163299560546,1.3880107402801514,-0.1454658806324005,-0.3470920324325561,0.0091102281585335,0.0824488773941993,0.0,0.0,-0.1794475945711955,-0.679091856025126
-0.0057262419722974,1.3800227642059326,-0.1468594223260879,-0.3550696671009063,0.0149157010018825,0.1161203607916832,0.0,0.0,-0.8440964627306788,-0.5083608193406475
-0.0071004866622388,1.3718599081039429,-0.1441776901483535,-0.3628662228584289,0.0215902868658304,0.1335041224956512,0.0,0.0,0.4336138405084662,0.8386622001935536
-0.00821771658957,1.3642337322235107,-0.1170711144804954,-0.3390287160873413,0.026879059150815,0.1057852506637573,0.0,0.0,0.1320514754632917,-0.8215351906703854
-0.0093607902526855,1.3570219278335571,-0.1213739514350891,-0.3206693530082702,0.0338675566017627,0.139782965183258,0.0,0.0,-0.3512643606877172,0.9101968781077214
-0.0103473663330078,1.3496416807174685,-0.1035283654928207,-0.3281299471855163,0.0386940874159336,0.0965393856167793,0.0,0.0,-0.2207308670890946,0.6341040714569447
-0.0112175941467285,1.3420953750610352,-0.0907563790678978,-0.3354911208152771,0.0423810221254825,0.0737454518675804,0.0,0.0,-0.3295249727845084,-0.8208744163057944
-0.0120851518586277,1.3343744277954102,-0.092224471271038,-0.3433205187320709,0.0477902106940746,0.1081939190626144,0.0,0.0,0.3469289929485848,-0.5053693782508129
-0.0128723140805959,1.3272069692611694,-0.0854735597968101,-0.3187837302684784,0.0544863529503345,0.1339347660541534,0.0,0.0,-0.563929898070606,0.769485950980607
-0.0135241504758596,1.3198678493499756,-0.0703213512897491,-0.3263816833496094,0.0595749169588089,0.10178042948246,0.0,0.0,0.5946827202475782,0.9076525014124036
-0.0139363287016749,1.3133876323699951,-0.0448405556380748,-0.2881622910499573,0.0631674230098724,0.0718565732240676,0.0,0.0,-0.4574213966029758,0.5277842172142186
-0.014234161004424,1.3067307472229004,-0.0323422662913799,-0.2959714829921722,0.0656949877738952,0.0505562648177146,0.0,0.0,-0.5466302040026134,0.5863977979721624
-0.0144076347351074,1.299909591674805,-0.0185514576733112,-0.3032122254371643,0.0668876245617866,0.0238550137728452,0.0,0.0,-0.0944570560873661,-0.6312932329834569
-0.0145536419004201,1.2929011583328247,-0.016946468502283,-0.3115957677364349,0.0692128986120224,0.0465098097920417,0.0,0.0,0.1429089974186472,-0.7699791085620298
-0.0146248815581202,1.286616325378418,-0.0112190023064613,-0.2795202136039734,0.0732684060931205,0.0811177790164947,0.0,0.0,0.3691699691466754,-0.9165355090648604
-0.0145881650969386,1.2806193828582764,-0.0024912585504353,-0.2668453156948089,0.0793761983513832,0.1221672296524047,0.0,0.0,0.8154875273279054,-0.8710136037369947
-0.014505386352539,1.2757799625396729,4.501349030761048e-05,-0.2155346125364303,0.0875402018427848,0.1632950603961944,0.0,0.0,-0.2490481409895246,0.6278581532507547
-0.0143122673034667,1.27077054977417,0.0120599130168557,-0.2230760008096695,0.0947287678718566,0.1437844038009643,0.0,0.0,0.6040894100764356,-0.558121433659607
-0.0140323638916015,1.2666929960250854,0.0191789288073778,-0.1818035989999771,0.1034786328673362,0.1750132441520691,0.0,0.0,0.7020266561585904,0.6466211938986444
-0.0136681552976369,1.2631264925003052,0.0287742968648672,-0.1590528935194015,0.1110798195004463,0.1520370990037918,0.0,0.0,0.3786011070725934,0.745924166185376
-0.0131080625578761,1.2600910663604736,0.0495722666382789,-0.1354032605886459,0.1174872294068336,0.1281598210334777,0.0,0.0,0.8514253414879149,0.7723092234661189
-0.0123756406828761,1.2574183940887451,0.06806580722332,-0.1192047372460365,0.1226518005132675,0.1033005118370056,0.0,0.0,-0.6253701999255348,0.626497184600842
-0.0115384105592966,1.254578709602356,0.0793843120336532,-0.1265727579593658,0.1269702166318893,0.086376205086708,0.0,0.0,-0.3492346786423366,-0.9039039629855572
-0.0107207298278808,1.2515301704406738,0.075073704123497,-0.1360765993595123,0.1336392760276794,0.1333808600902557,0.0,0.0,-0.918290948113905,-0.8614046135332047
-0.009903335943818,1.248298406600952,0.073210023343563,-0.1444237679243087,0.1421275734901428,0.1697663366794586,0.0,0.0,-0.365514406883358,-0.7627930913667209
-0.0090924259275197,1.2448841333389282,0.0706054046750068,-0.152777224779129,0.1525801569223404,0.209051638841629,0.0,0.0,-0.7130534805370599,0.5166186283633272
-0.0081836702302098,1.2413069009780884,0.0811165869235992,-0.1600171029567718,0.1623339653015136,0.1950765997171402,0.0,0.0,0.3154827170662486,-0.6149435774665768
-0.0073369024321436,1.2381117343902588,0.0736240074038505,-0.1432634145021438,0.1733998358249664,0.2213177382946014,0.0,0.0,0.6735291050479637,0.7894278575353265
-0.0064907073974609,1.2360392808914185,0.0750200003385543,-0.0932556837797164,0.1830310076475143,0.1926232129335403,0.0,0.0,-0.8241584897041321,0.9998652935028076
-0.0055098533630371,1.2338052988052368,0.0901229456067085,-0.1002948433160781,0.1910344660282135,0.160069391131401,0.0,0.0,-0.6973520517349243,0.9950113296508788
-0.0043974877335131,1.2314245700836182,0.1048856601119041,-0.1066386252641677,0.1974236667156219,0.1277841478586197,0.0,0.0,-0.6940810084342957,0.9999568462371826
-0.0031487464439123,1.2288806438446045,0.1201953887939453,-0.1137027218937873,0.2021394073963165,0.0943148955702781,0.0,0.0,-0.4934509992599487,0.8298525810241699
-0.0017685890197753,1.2261829376220703,0.1349228024482727,-0.1203222125768661,0.2052578330039978,0.0623687207698822,0.0,0.0,-0.0791667103767395,0.9332339763641356
-0.0002496719243936,1.2233396768569946,0.1506064534187317,-0.1265470534563064,0.2065556347370147,0.0259555988013744,0.0,0.0,-0.3252642154693603,0.999925136566162
0.0014090538024902,1.2203388214111328,0.1663710922002792,-0.1332972645759582,0.2060519456863403,-0.010073835030198,0.0,0.0,-0.3563421964645386,1.0
0.0032136917579919,1.2171956300735474,0.1829679608345031,-0.1393478959798813,0.203523114323616,-0.0505765490233898,0.0,0.0,-0.2358647584915161,0.995979070663452
0.0051531791687011,1.2139099836349487,0.1982023417949676,-0.1454468071460724,0.1992337256669998,-0.0857878923416137,0.0,0.0,-0.1538174152374267,0.9997286796569824
0.007237434387207,1.210474967956543,0.2146622687578201,-0.1518471837043762,0.1929595023393631,-0.1254845559597015,0.0,0.0,-0.0790160298347473,0.4397735595703125
0.0093852998688817,1.206864595413208,0.2209045886993408,-0.1596763879060745,0.1868046522140503,-0.1230970844626426,0.0,0.0,-0.038612961769104,0.9174048900604248
0.0116822244599461,1.2031015157699585,0.2379114329814911,-0.1662366986274719,0.1785526424646377,-0.1650401055812835,0.0,0.0,0.1094093322753906,0.5015122890472412
0.0141144748777151,1.1994986534118652,0.2521893978118896,-0.1590731889009475,0.1695582568645477,-0.1798876971006393,0.0,0.0,0.2667320966720581,-0.055155873298645
0.0166152957826852,1.19633948802948,0.2585846781730652,-0.1394561380147934,0.1610365658998489,-0.1704334467649459,0.0,0.0,0.3998210430145263,0.7020978927612305
0.0191552154719829,1.1933711767196655,0.263868123292923,-0.1308895498514175,0.151170551776886,-0.1973198801279068,0.0,0.0,0.4145377874374389,-0.9029348492622375
0.0216874126344919,1.1906371116638184,0.2611173391342163,-0.120727315545082,0.1432813704013824,-0.15778349339962,0.0,0.0,0.1016052961349487,-0.7727763056755066
0.0242231376469135,1.1881632804870603,0.2597837746143341,-0.1093700304627418,0.1370928734540939,-0.123769961297512,0.0,0.0,0.3845803737640381,0.715812087059021
0.0266738887876272,1.1865501403808594,0.2527856230735779,-0.0710046738386154,0.1294237673282623,-0.1533825099468231,0.0,0.0,0.6409282684326172,-0.5595232844352722
0.0288971904665231,1.1858952045440674,0.2291571646928787,-0.0285310931503772,0.1226294711232185,-0.135886013507843,0.0,0.0,0.5744552612304688,-0.598421037197113
0.0310498233884573,1.185772180557251,0.2208225727081298,-0.0050227334722876,0.1171028614044189,-0.1105325669050216,0.0,0.0,0.5765155553817749,0.432654857635498
0.0333308205008506,1.1863093376159668,0.2328971624374389,0.0242444109171628,0.1123336032032966,-0.0953848659992218,0.0,0.0,0.5861566066741943,0.8598127365112305
0.035593032836914,1.187732219696045,0.2327290326356887,0.0637087821960449,0.1058797612786293,-0.1290770769119262,0.0,0.0,0.6317605972290039,-0.5107991695404053
0.0379372611641883,1.1896435022354126,0.2394487410783767,0.0852957293391227,0.1008858978748321,-0.0998772382736206,0.0,0.0,0.6620941162109375,0.7325422763824463
0.040313433855772,1.192592978477478,0.2439969033002853,0.1315070390701294,0.0945625081658363,-0.1264679878950119,0.0,0.0,0.3286945819854736,-0.8997589945793152
0.042769432067871,1.1959584951400757,0.2499334514141082,0.1498488038778305,0.0902715623378753,-0.0858188644051551,0.0,0.0,0.3068757057189941,0.0128160715103149
0.0451656356453895,1.199695110321045,0.2441734373569488,0.166336715221405,0.0857592970132827,-0.0902455672621727,0.0,0.0,-0.1481584310531616,0.1698970794677734
0.0476090423762798,1.2032560110092163,0.2487686574459076,0.1585100144147873,0.0813763439655304,-0.0876590460538864,0.0,0.0,-0.017457365989685,0.5643061399459839
0.0501523986458778,1.2066502571105957,0.2600243687629699,0.1511583179235458,0.0757413730025291,-0.1126994714140892,0.0,0.0,-0.2022140026092529,-0.6121359467506409
0.0526964180171489,1.20987069606781,0.2588807046413421,0.1433416754007339,0.0713040009140968,-0.0887472480535507,0.0,0.0,0.6135873794555664,-0.0311775803565979
0.0551526062190532,1.2140556573867798,0.2503190636634826,0.1862122118473053,0.0666552931070327,-0.0929742902517318,0.0,0.0,0.3416039943695068,0.1147339344024658
0.0576690658926963,1.2185189723968506,0.2560101747512817,0.1985643208026886,0.0623329281806945,-0.0864471644163131,0.0,0.0,-0.0646293759346008,0.5206265449523926
0.0602559074759483,1.2228127717971802,0.2637882828712463,0.1910368800163269,0.057281594723463,-0.1010268926620483,0.0,0.0,-0.1758105754852295,-0.1351526975631714
0.0628762245178222,1.226930856704712,0.2670112252235412,0.1832100301980972,0.0523671470582485,-0.098289169371128,0.0,0.0,0.1142859458923339,-0.0042198300361633
0.0655217170715332,1.2314938306808472,0.2693041861057281,0.202958658337593,0.0476645603775978,-0.0940515249967575,0.0,0.0,-0.2520327568054199,0.0392531156539917
0.0681950598955154,1.235881209373474,0.2719524502754211,0.1951321810483932,0.0431019254028797,-0.09125267714262,0.0,0.0,-0.1925878524780273,0.0923386812210083
0.0708932876586914,1.2400929927825928,0.2742931842803955,0.1873058378696441,0.0386808477342128,-0.0884215980768203,0.0,0.0,-0.1383372545242309,-0.3692324161529541
0.073613166809082,1.244128942489624,0.2763141393661499,0.179479643702507,0.0344029702246189,-0.0855575948953628,0.0,0.0,-0.1335822343826294,-0.4056054353713989
0.0763513594865799,1.247989058494568,0.2780043482780456,0.171653613448143,0.030269956216216,-0.0826600641012191,0.0,0.0,-0.2315331101417541,0.2786835432052612
0.0791045203804969,1.251673460006714,0.2793543040752411,0.1638277322053909,0.0262835286557674,-0.0797287821769714,0.0,0.0,-0.0361139178276062,0.1162710189819336
0.0818691253662109,1.255182147026062,0.280356228351593,0.1560019999742508,0.0224453471601009,-0.0767638012766838,0.0,0.0,0.1619960069656372,-0.4280422925949096
0.084566593170166,1.2592270374298096,0.2737826704978943,0.1798256039619445,0.0184582807123661,-0.0797413289546966,0.0,0.0,-0.4874232411384582,0.922061800956726
0.0873451232910156,1.263100028038025,0.2836928367614746,0.1721954345703125,0.0126951783895492,-0.1152620315551757,0.0,0.0,0.2538210153579712,-0.9850838780403136
0.0899238586425781,1.267765998840332,0.2616129219532013,0.207403689622879,0.0090103400871157,-0.0736968666315078,0.0,0.0,-0.5099316835403442,-0.611152708530426
0.0924574881792068,1.272255539894104,0.2558569312095642,0.1995463222265243,0.0065470580011606,-0.0492653809487819,0.0,0.0,-0.6452070474624634,-0.5322626233100891
0.0949403792619705,1.276564359664917,0.2494930922985077,0.1915125101804733,0.0053575285710394,-0.0237907655537128,0.0,0.0,-0.3477009534835815,0.3431794643402099
0.0974134430289268,1.280697464942932,0.2483563870191574,0.1836882382631302,0.0043252068571746,-0.0206464491784572,0.0,0.0,-0.1212173700332641,0.7090651988983154
0.0999265685677528,1.2846477031707764,0.2535478472709656,0.1755689084529876,0.0021152880508452,-0.0441985577344894,0.0,0.0,-0.6023584008216858,-0.6119372248649597
0.1023739799857139,1.288427233695984,0.2455679923295974,0.1679815351963043,0.0012983080232515,-0.0163395348936319,0.0,0.0,-0.3034253120422363,-0.7759770750999451
0.104748249053955,1.2920384407043457,0.2367413491010666,0.1604959219694137,0.0019792343955487,0.0136185120791196,0.0,0.0,-0.5201807618141174,0.5309934616088867
0.1071337684988975,1.2954789400100708,0.238570362329483,0.1529146581888198,0.0019615434575825,-0.0003539143654052,0.0,0.0,-0.4132583141326904,0.3817777633666992
0.1094933524727821,1.298743486404419,0.2358073443174362,0.145090565085411,0.0021047964692115,0.0028650895692408,0.0,0.0,-0.4794548749923706,0.4147168397903442
0.1118239387869834,1.3018319606781006,0.2327553331851959,0.137266457080841,0.0024091291707009,0.0060863876715302,0.0,0.0,-0.4845939874649048,0.8623783588409424
0.1141797080636024,1.3047446012496948,0.2365510165691375,0.1294506341218948,0.001447987393476,-0.0192227400839328,0.0,0.0,-0.6944461464881897,-0.2810072898864746
0.1165012344717979,1.3074811697006226,0.2329641878604889,0.12162646651268,0.0006473746034316,-0.0160122662782669,0.0,0.0,-0.4166142344474792,-0.3087600469589233
0.1187860518693924,1.3100417852401731,0.2291321009397506,0.1138023287057876,6.60799014440272e-06,-0.0128153311088681,0.0,0.0,-0.6423414349555969,-0.1006272435188293
0.1210318580269813,1.3124263286590576,0.2250697165727615,0.1059782207012176,-0.0004752647946588,-0.0096376920118927,0.0,0.0,-0.5413870811462402,-0.2934557199478149
0.1232364624738693,1.3146347999572754,0.2207918465137481,0.09815414249897,-0.0007995145278982,-0.0064850323833525,0.0,0.0,-0.4120980501174927,-0.6282658576965332
0.1253558099269867,1.3166626691818235,0.2110354155302047,0.0901282802224159,8.913996862247586e-05,0.0177730806171894,0.0,0.0,-0.336962342262268,0.3261873722076416
0.1274300515651703,1.3185144662857056,0.2063694298267364,0.0823041275143623,0.0011320132762193,0.020857335999608,0.0,0.0,-0.6347756385803223,0.4229359626770019
0.1294574737548828,1.3201903104782104,0.2015299350023269,0.0744799375534057,0.0023269017692655,0.0238979738205671,0.0,0.0,-0.7109494805335999,-0.5999652147293091
0.1313884705305099,1.3216943740844729,0.1905160248279571,0.0668405294418335,0.0048755267634987,0.050972543656826,0.0,0.0,-0.4775952100753784,-0.3583022356033325
0.1332693994045257,1.3230223655700684,0.1853676438331604,0.0590158477425575,0.0075708637014031,0.053906749933958,0.0,0.0,-0.5214191675186157,0.1339176893234253
0.1350990235805511,1.3241745233535769,0.1800825893878936,0.0511910766363143,0.0104097686707973,0.0567780435085296,0.0,0.0,-0.3016805648803711,-0.6420658826828003
0.1368336677551269,1.325143575668335,0.1693691909313202,0.0430291555821895,0.0144519666209816,0.0808440521359443,0.0,0.0,-0.6406300663948059,0.4203748703002929
0.1385144293308258,1.3259366750717163,0.1638428419828415,0.0352035425603389,0.0186304748058319,0.0835701152682304,0.0,0.0,-0.8045345544815063,0.3468503952026367
0.1401402503252029,1.3265540599822998,0.1582105457782745,0.0273778066039085,0.022941168397665,0.086214005947113,0.0,0.0,-0.3557186126708984,0.1729539632797241
0.1417099982500076,1.326995611190796,0.1524810940027237,0.0195519290864467,0.0273796450346708,0.0887694358825683,0.0,0.0,-0.5475045442581177,0.2293233871459961
0.1432228088378906,1.327261447906494,0.1466627269983291,0.0117259239777922,0.0319411642849445,0.0912304371595382,0.0,0.0,-0.3799465298652649,0.2974566221237182
0.1446778327226638,1.3273515701293943,0.1407630145549774,0.0038997936062514,0.0366207100450992,0.0935911387205123,0.0,0.0,-0.4286950826644897,-0.1555581092834472
0.1460742950439453,1.327265977859497,0.1347889900207519,-0.0039264583028852,0.0414130091667175,0.0958460122346878,0.0,0.0,-0.2941458225250244,0.2949522733688354
0.1474113464355468,1.3270047903060913,0.1287470906972885,-0.0117528242990374,0.0463125072419643,0.0979898050427436,0.0,0.0,-0.4780083894729614,0.1695026159286499
0.148688405752182,1.3265678882598877,0.1226432472467422,-0.0195792969316244,0.0513133965432643,0.1000177636742591,0.0,0.0,-0.7083261013031006,-0.1030886173248291
0.149904727935791,1.3259553909301758,0.1164828762412071,-0.0274058692157268,0.0564096719026565,0.1019254326820373,0.0,0.0,-0.6084458231925964,-0.474908709526062
0.1510599106550216,1.325167179107666,0.1102709621191024,-0.0352325364947319,0.0615950971841812,0.1037089973688125,0.0,0.0,-0.5054023861885071,-0.8199390769004822
0.1520996987819671,1.324203610420227,0.0972957164049148,-0.0431195497512817,0.068207249045372,0.1322426944971084,0.0,0.0,-0.3451709151268005,-0.5094571113586426
0.153041273355484,1.32305645942688,0.0864814966917038,-0.0513515472412109,0.0758077204227447,0.1520095616579055,0.0,0.0,-0.1850801706314087,-0.6026264429092407
0.1538839340209961,1.3217347860336304,0.0755883604288101,-0.0592027269303798,0.0843875929713249,0.1715972125530243,0.0,0.0,-0.4631321430206299,-0.7460644245147705
0.1546017676591873,1.3202368021011353,0.061515986919403,-0.0671906322240829,0.0945712402462959,0.2036730498075485,0.0,0.0,-0.3465797901153564,-0.3988874554634094
0.1552561819553375,1.3185644149780271,0.0551085844635963,-0.0750238075852394,0.1048110127449035,0.2047954499721527,0.0,0.0,-0.4304490089416504,0.0180573463439941
0.155846506357193,1.316717267036438,0.0486719943583011,-0.0828570574522018,0.1151001304388046,0.2057821750640869,0.0,0.0,-0.307849645614624,-0.5331093072891235
0.156329721212387,1.3146936893463137,0.0368466302752494,-0.090864822268486,0.1265060752630233,0.22811920940876,0.0,0.0,-0.3591172695159912,0.56351637840271
0.1567964553833007,1.3125098943710327,0.0364292450249195,-0.097963199019432,0.1367068886756897,0.204016163945198,0.0,0.0,-0.5401392579078674,0.2892817258834839
0.1571982353925705,1.3101513385772705,0.0299203135073184,-0.1057962402701377,0.1469368785619735,0.2045997083187103,0.0,0.0,-0.5121107697486877,0.6596834659576416
0.1575758010149002,1.307628512382507,0.0285453349351882,-0.113070048391819,0.1561375707387924,0.1840136349201202,0.0,0.0,-0.5489875078201294,0.5693066120147705
0.1579231321811676,1.3049373626708984,0.0264086369425058,-0.1205058246850967,0.1644587814807891,0.1664244830608368,0.0,0.0,-0.7389547228813171,0.3943979740142822
0.1582047492265701,1.3020710945129397,0.0198453851044178,-0.1283357590436935,0.1727899610996246,0.1666235625743866,0.0,0.0,-0.6811574101448059,0.2708339691162109
0.1584205627441406,1.2990295886993408,0.0132676344364881,-0.1361656039953231,0.1811249852180481,0.1667004823684692,0.0,0.0,-0.7635639309883118,0.3106789588928222
0.1585702896118164,1.2958130836486816,0.0066768885590136,-0.1439953744411468,0.1894579380750656,0.1666588336229324,0.0,0.0,-0.4277079105377197,0.712836742401123
0.1587176322937011,1.2924426794052124,0.0081137092784047,-0.1506536155939102,0.196118488907814,0.1332111954689026,0.0,0.0,-0.57784503698349,0.8685989379882812
0.1588675528764724,1.2889257669448853,0.0102068912237882,-0.156949982047081,0.2009427100419998,0.0964839905500412,0.0,0.0,-0.6647360920906067,0.8257349729537964
0.1590230017900467,1.285245656967163,0.0125915054231882,-0.1639691442251205,0.2039200812578201,0.0595473125576972,0.0,0.0,-0.7700326442718506,-0.4111433625221252
0.159111887216568,1.2813893556594849,0.0059601673856377,-0.1717935502529144,0.2068738341331482,0.0590751878917217,0.0,0.0,-0.4326273798942566,0.6122269630432129
