x_pos,y_pos,x_vel,y_vel,angle,ang_vel,leg_1,leg_2,main_booster,lat_booster
-0.0015808105235919,1.4034159183502195,-0.159494087100029,-0.3335171639919281,0.0012633296428248,0.0248834900557994,0.0,0.0,-0.8507823123246745,-0.9759874043299026
-0.003289032028988,1.395721435546875,-0.1732946336269378,-0.3419747650623321,0.0037116054445505,0.0489707216620445,0.0,0.0,0.2947583788104477,0.9593347316800456
-0.0048582078889012,1.38828706741333,-0.1570162177085876,-0.3304144442081451,0.0037988906260579,0.0017458772053942,0.0,0.0,0.8082777512879427,0.8823678567941502
-0.0065604210831224,1.381461262702942,-0.1677019894123077,-0.3033731579780578,0.0013148710131645,-0.0496849976480007,0.0,0.0,-0.452373297632922,-0.6169492383570541
-0.0083562852814793,1.3744285106658936,-0.177484780550003,-0.3125630617141723,-0.0007540209917351,-0.0413819625973701,0.0,0.0,-0.1980705780261624,-0.758219717682973
-0.0102531434968113,1.367186427116394,-0.1882078647613525,-0.3218722343444824,-0.0022102971561253,-0.0291284080594778,0.0,0.0,-0.1105696682488384,0.6992440574331772
-0.0121512413024902,1.3597357273101809,-0.1864447146654129,-0.3311487138271332,-0.0055453549139201,-0.0667072683572769,0.0,0.0,-0.8269932818356549,0.7376784792084068
-0.0140306474640965,1.352078557014465,-0.1821691393852234,-0.3403544723987579,-0.0112474616616964,-0.1140526384115219,0.0,0.0,-0.7549124794102575,0.8650489535921411
-0.0158961303532123,1.344221830368042,-0.1785285472869873,-0.3492688238620758,-0.0191729366779327,-0.1585243046283722,0.0,0.0,0.368228971487232,0.6175697522190002
-0.0177540779113769,1.3370624780654907,-0.1760040521621704,-0.3183494806289673,-0.0288675464689731,-0.1939100474119186,0.0,0.0,0.013816589086572,-0.9402481571052684
-0.0196636207401752,1.3302438259124756,-0.182467371225357,-0.3032362759113312,-0.037257831543684,-0.1678209602832794,0.0,0.0,0.5649202986939916,-0.6848803003996825
-0.0215858463197946,1.3239654302597046,-0.1847252696752548,-0.279248982667923,-0.044677510857582,-0.1484070420265197,0.0,0.0,0.4531469344781416,-0.7710697089970203
-0.0234635360538959,1.3184006214141846,-0.181479275226593,-0.2475230246782302,-0.0508997254073619,-0.1244557276368141,0.0,0.0,0.4604837413191638,0.9650256249748412
-0.0252289772033691,1.31307852268219,-0.1678450256586074,-0.2368540167808532,-0.059513546526432,-0.172292411327362,0.0,0.0,0.7553175268953418,0.6394915655265043
-0.0267784111201763,1.3088486194610596,-0.1448366492986679,-0.1884230971336364,-0.069527581334114,-0.2002991139888763,0.0,0.0,0.7691664858502321,0.8910513118862815
-0.0281534194946289,1.3048572540283203,-0.1253042817115783,-0.1780046373605728,-0.0816255211830139,-0.2419805526733398,0.0,0.0,0.3126406970387259,0.7190514070332905
-0.0293402671813964,1.3016629219055176,-0.1046918183565139,-0.1427976638078689,-0.0955028012394905,-0.2775710523128509,0.0,0.0,0.3798650490679147,-0.7262710921978375
-0.0304678920656442,1.298713207244873,-0.0999281257390976,-0.1319685131311416,-0.1082597002387046,-0.2551611065864563,0.0,0.0,0.6865523792587038,0.6110949204225967
-0.0313965789973735,1.2967606782913208,-0.07855124771595,-0.0878755524754524,-0.12250267714262,-0.2848854959011078,0.0,0.0,0.0545788151907284,0.6363596382362557
-0.0323320403695106,1.2951422929763794,-0.0773856565356254,-0.0733290761709213,-0.1386214643716812,-0.322404682636261,0.0,0.0,-0.8559184804459476,-0.9484433115375416
-0.0333673469722271,1.2933385372161863,-0.0883601829409599,-0.0816378444433212,-0.1537789702415466,-0.3031773865222931,0.0,0.0,0.3548796411191663,-0.7337911567686985
-0.0344353690743446,1.2918751239776611,-0.0925874859094619,-0.0665737390518188,-0.1679906398057937,-0.2842593193054199,0.0,0.0,-0.0081816002149937,-0.9275358670624988
-0.0355998985469341,1.290219783782959,-0.103214718401432,-0.0751241147518158,-0.1812795251607895,-0.2658017575740814,0.0,0.0,0.5791100814992813,0.9257052903911748
-0.0366047844290733,1.288749933242798,-0.0850001722574234,-0.067297987639904,-0.1968680918216705,-0.3117993474006653,0.0,0.0,-0.3673660753032424,0.8201106998358807
-0.0375983230769634,1.2870638370513916,-0.0821435451507568,-0.0773147866129875,-0.2142423093318939,-0.3475153744220733,0.0,0.0,-0.5449172863181089,-0.7721384796541226
-0.0387047752737998,1.2851815223693848,-0.0948572978377342,-0.0860249698162078,-0.230212464928627,-0.3194032311439514,0.0,0.0,0.5948013604906233,0.7027802336244704
-0.0396279320120811,1.284104347229004,-0.0747007727622985,-0.0507372803986072,-0.248115986585617,-0.3580705523490906,0.0,0.0,0.7146938758292025,0.8377226399397618
-0.0404548645019531,1.2841098308563232,-0.062720313668251,-0.003260921454057,-0.268490731716156,-0.4074954986572265,0.0,0.0,0.9054509890006576,0.7136997100341514
-0.0411788932979106,1.2852545976638794,-0.0502634942531585,0.0466594472527504,-0.2912125587463379,-0.4544369578361511,0.0,0.0,0.6276618269133485,-0.8169133840626326
-0.04188022762537,1.2869243621826172,-0.0492235459387302,0.0698695331811904,-0.3128368854522705,-0.432486355304718,0.0,0.0,0.0913038391629437,0.9769791173646842
-0.0423498153686523,1.2891603708267212,-0.0237845350056886,0.0941973105072975,-0.3369648456573486,-0.482558399438858,0.0,0.0,0.5115928434862655,0.7594215303469489
-0.0427339561283588,1.2917711734771729,-0.0133552458137273,0.109959602355957,-0.3632961511611938,-0.5266263484954834,0.0,0.0,0.5843298344150307,0.7182309793391803
-0.0428982749581337,1.295285701751709,0.0104070818051695,0.1491366326808929,-0.3917719423770904,-0.5695161819458008,0.0,0.0,-0.0550056354344088,-0.7437665272484068
-0.0431487075984478,1.298634648323059,0.000372122216504,0.141595184803009,-0.4190668761730194,-0.5458987355232239,0.0,0.0,-0.6003205696730762,-0.8860778034693044
-0.0434841141104698,1.301829218864441,-0.009596174582839,0.1346553862094879,-0.4450756013393402,-0.5201743245124817,0.0,0.0,0.761896730423014,-0.9816086905042664
-0.0435422882437706,1.305960178375244,0.0163976363837718,0.176335409283638,-0.4695004820823669,-0.4884975850582123,0.0,0.0,0.8141729916336817,-0.880415504157379
-0.0434868820011615,1.310625433921814,0.0263367295265197,0.2001352459192276,-0.4926372468471527,-0.4627350270748138,0.0,0.0,0.655540831480744,-0.6786811115533348
-0.0430993065237998,1.3161121606826782,0.0583782084286212,0.2366665303707122,-0.5147441029548645,-0.4421372413635254,0.0,0.0,0.1787161704945852,-0.9910415246417468
-0.0425273887813091,1.3222748041152954,0.075150117278099,0.2669796645641327,-0.5352182388305664,-0.4094825685024261,0.0,0.0,-0.1160250235451805,0.98170668057277
-0.0419039726257324,1.3281776905059814,0.0823874622583389,0.2542352974414825,-0.5583581924438477,-0.4628006517887115,0.0,0.0,0.8563792871281097,-0.9295789728500156
-0.0410044677555561,1.3351635932922363,0.1085886359214782,0.3025569915771484,-0.5801798701286316,-0.4364330768585205,0.0,0.0,-0.9361332654953004,-0.8078059554100037
-0.0401625633239746,1.341989278793335,0.1017960160970687,0.2955037653446197,-0.6010971069335938,-0.4183444380760193,0.0,0.0,-0.9530328512191772,-0.797305166721344
-0.0393811240792274,1.34865140914917,0.0947059243917465,0.2883711159229278,-0.621051549911499,-0.3990897238254547,0.0,0.0,-0.9267377853393556,-0.7821762561798096
-0.0386548042297363,1.3551557064056396,0.0881936028599739,0.2815202176570892,-0.6400509476661682,-0.3799882531166076,0.0,0.0,-0.9369267225265504,-0.7672955989837646
-0.0379953384399414,1.3615083694458008,0.0802361294627189,0.275129109621048,-0.6577335596084595,-0.3536519408226013,0.0,0.0,-0.9669117331504822,-0.4858334064483642
-0.0373469367623329,1.367659568786621,0.0792823508381843,0.2658205926418304,-0.6758579611778259,-0.3624883592128753,0.0,0.0,-0.8841757774353027,-0.6370758414268494
-0.0367444977164268,1.373647928237915,0.0738333836197853,0.2587670981884002,-0.6931653022766113,-0.3461465239524841,0.0,0.0,-0.9672647714614868,-0.549700140953064
-0.0361873619258403,1.379487156867981,0.0683277696371078,0.2524288892745971,-0.7094488739967346,-0.3256718516349792,0.0,0.0,-0.9043666124343872,-0.4902923107147217
-0.0356382355093956,1.3851242065429688,0.0676618665456771,0.2431242763996124,-0.7261468768119812,-0.3339583873748779,0.0,0.0,-0.9189112186431884,-0.592413604259491
-0.0351324081420898,1.3906047344207764,0.0624413378536701,0.2364655137062072,-0.7418901920318604,-0.3148674368858337,0.0,0.0,-0.9294168949127196,-0.3790165781974792
-0.0346325859427452,1.395883083343506,0.0619500949978828,0.2271628379821777,-0.7580268383026123,-0.3227334320545196,0.0,0.0,-0.9603161215782166,-0.5578672885894775
-0.0341704376041889,1.4010095596313477,0.0572879016399383,0.2207706719636917,-0.7731713652610779,-0.3028900027275085,0.0,0.0,-0.9711554050445556,-0.4976527690887451
-0.0337125770747661,1.4059336185455322,0.0569571666419506,0.211470142006874,-0.7886859774589539,-0.3102920651435852,0.0,0.0,-0.8835781216621399,-0.1792097091674804
-0.0332581512629985,1.4106546640396118,0.0566992051899433,0.2021695673465728,-0.8045582175254822,-0.3174453377723694,0.0,0.0,-0.934842884540558,-0.3316807150840759
-0.032806109637022,1.415173053741455,0.0565100722014904,0.1928689926862716,-0.8207752108573914,-0.3243393003940582,0.0,0.0,-0.9238762259483336,-0.7353602647781372
-0.0324018485844135,1.419558048248291,0.0504387803375721,0.1876104772090912,-0.8353949785232544,-0.2923958003520965,0.0,0.0,-0.8618624806404114,-0.0677821040153503
-0.0319987311959266,1.4237394332885742,0.0503807552158832,0.1783136427402496,-0.8503320813179016,-0.2987422347068786,0.0,0.0,-0.8644605278968811,-0.2721507549285888
-0.031595803797245,1.427717208862305,0.0503795370459556,0.1690171211957931,-0.8655720949172974,-0.3047993779182434,0.0,0.0,-0.8400864005088806,-0.3282567262649536
-0.031192684546113,1.4314918518066406,0.0504309237003326,0.1597210317850113,-0.8810999989509583,-0.3105581402778625,0.0,0.0,-0.8037822246551514,-0.1960195302963256
-0.0307882316410541,1.4350626468658447,0.0505306795239448,0.1504254341125488,-0.896900475025177,-0.3160097301006317,0.0,0.0,-0.9150742888450624,0.3383429050445556
-0.0303821563720703,1.438429832458496,0.0506745390594005,0.1411304473876953,-0.9129577875137328,-0.3211463093757629,0.0,0.0,-0.9248574376106262,-0.541034460067749
-0.0300016403198242,1.441651701927185,0.0471585057675838,0.135232537984848,-0.9277879595756532,-0.2966033220291137,0.0,0.0,-0.7112311720848083,-0.501654863357544
-0.0296374317258596,1.4447050094604492,0.044930525124073,0.128028929233551,-0.941917359828949,-0.2825875282287597,0.0,0.0,-0.8402885794639587,-0.0443774461746215
-0.0292703621089458,1.4475537538528442,0.0451885126531124,0.1187399327754974,-0.9562543630599976,-0.2867403924465179,0.0,0.0,-0.8336090445518494,0.2842295169830322
-0.0288996696472167,1.450197696685791,0.0454737022519111,0.1094518452882766,-0.9707820415496826,-0.2905538082122803,0.0,0.0,-0.7908841967582703,0.0298515558242797
-0.0285250656306743,1.4526365995407104,0.0457817986607551,0.1001647561788559,-0.985483169555664,-0.2940238714218139,0.0,0.0,-0.6145210266113281,0.1226415634155273
-0.0281463619321584,1.454870343208313,0.0461085215210914,0.0908787325024604,-1.0003405809402466,-0.2971474528312683,0.0,0.0,-0.7369211316108704,0.5483554601669312
-0.0277411453425884,1.4568358659744265,0.0494399294257164,0.0779477283358573,-1.016818881034851,-0.3295653462409973,0.0,0.0,-0.3295004367828369,-0.2273414134979248
-0.0273307804018259,1.4585962295532229,0.0497861430048942,0.068661943078041,-1.0334182977676392,-0.3319893181324005,0.0,0.0,-0.763352632522583,0.2255644798278808
-0.0269149783998727,1.460151195526123,0.050138134509325,0.0593774877488613,-1.0501214265823364,-0.3340635895729065,0.0,0.0,-0.5490813851356506,-0.1021039485931396
-0.026493739336729,1.461500644683838,0.0504917576909065,0.0500944107770919,-1.0669108629226685,-0.3357890546321869,0.0,0.0,-0.3359657526016235,0.2471438646316528
-0.0260666850954294,1.462644100189209,0.0508428700268268,0.0408127680420875,-1.0837692022323608,-0.3371675908565521,0.0,0.0,-0.5217251181602478,0.4318420886993408
-0.0256339069455862,1.4635815620422363,0.0511873960494995,0.0315326079726219,-1.1006791591644287,-0.338202029466629,0.0,0.0,-0.748642086982727,0.5021466016769409
-0.0251758582890033,1.4642560482025146,0.0540691614151001,0.018911113962531,-1.118980050086975,-0.3660172522068023,0.0,0.0,-0.6107289791107178,0.3442928791046142
-0.0247117038816213,1.46472430229187,0.0543830506503582,0.0096322689205408,-1.1372987031936646,-0.366373598575592,0.0,0.0,-0.5055308938026428,0.2432248592376709
-0.0242416374385356,1.4649860858917236,0.0546783283352851,0.0003551080590113,-1.155618667602539,-0.3663994073867798,0.0,0.0,-0.4393910765647888,0.5405123233795166
-0.0237530712038278,1.464985966682434,0.0566853955388069,-0.0121372984722256,-1.1751750707626345,-0.391127347946167,0.0,0.0,-0.616269052028656,0.6614441871643066
-0.023235511034727,1.464713454246521,0.0598042234778404,-0.0253167320042848,-1.196282148361206,-0.4221425056457519,0.0,0.0,-0.468488335609436,0.6788585186004639
-0.0226859096437692,1.464155912399292,0.0632379576563835,-0.0392472743988037,-1.2192143201828003,-0.458644151687622,0.0,0.0,-0.5512606501579285,0.248906135559082
-0.0221294406801462,1.463391661643982,0.0633979588747024,-0.048523124307394,-1.2420847415924072,-0.4574072360992431,0.0,0.0,-0.3457511067390442,0.4360449314117431
-0.0215663909912109,1.4624199867248535,0.0635205656290054,-0.0577967390418052,-1.2648786306381226,-0.4558768272399902,0.0,0.0,-0.4865109324455261,0.4468965530395508
-0.0209973342716693,1.4612410068511963,0.063602328300476,-0.0670681297779083,-1.2875816822052002,-0.454061895608902,0.0,0.0,-0.5338487029075623,0.4148736000061035
-0.0204226486384868,1.4598541259765625,0.0636398717761039,-0.0763373151421547,-1.3101803064346311,-0.4519718587398529,0.0,0.0,-0.6374645829200745,0.5815436840057373
-0.0198307987302541,1.4582023620605469,0.0651484057307243,-0.088978536427021,-1.3339698314666748,-0.4757904410362243,0.0,0.0,-0.2811150550842285,0.5777039527893066
-0.0192216876894235,1.4562814235687256,0.0665989741683006,-0.1018806248903274,-1.3590338230133057,-0.5012798309326172,0.0,0.0,-0.4590246677398681,0.3283673524856567
-0.0186072345823049,1.454151630401611,0.0664688199758529,-0.1111456677317619,-1.383954644203186,-0.4984174370765686,0.0,0.0,-0.5029641389846802,0.6753722429275513
-0.0179825779050588,1.4517346620559692,0.0671492964029312,-0.1250591725111007,-1.410477638244629,-0.5304591655731201,0.0,0.0,-0.6859399676322937,0.4924440383911133
-0.0173532478511333,1.449108600616455,0.0668917372822761,-0.1343206912279129,-1.4368343353271484,-0.5271329879760742,0.0,0.0,-0.5706014037132263,0.7829872369766235
-0.0167096145451068,1.446164846420288,0.0678587853908538,-0.1500149071216583,-1.4654550552368164,-0.5724155902862549,0.0,0.0,-0.7672172784805298,0.5771243572235107
-0.0160586349666118,1.44293212890625,0.0679111033678054,-0.1640033572912216,-1.4956731796264648,-0.6043629050254822,0.0,0.0,-0.7087728977203369,0.7007569074630737
-0.015395164489746,1.439412236213684,0.0682898238301277,-0.1778547912836074,-1.5274360179901123,-0.6352599263191223,0.0,0.0,-0.7704552412033081,0.655692458152771
-0.0147212026640772,1.4356049299240112,0.0683558359742164,-0.1916880458593368,-1.5607243776321411,-0.6657679080963135,0.0,0.0,-0.7689952850341797,0.8021862506866455
-0.0140390396118164,1.4314783811569214,0.0680046677589416,-0.207387775182724,-1.596231460571289,-0.7101414799690247,0.0,0.0,-0.8739088773727417,0.7334754467010498
-0.0133576393127441,1.42704439163208,0.0665293708443641,-0.222329631447792,-1.6336665153503418,-0.7487040758132935,0.0,0.0,-0.8238649368286133,0.6927318572998047
-0.0126745225861668,1.4223270416259766,0.0651629120111465,-0.2357702255249023,-1.6724576950073242,-0.7758233547210693,0.0,0.0,-0.8773178458213806,0.8485608100891113
-0.0119854928925633,1.4172875881195068,0.063925452530384,-0.251467764377594,-1.7134414911270142,-0.8196765780448914,0.0,0.0,-0.9168631434440612,0.9009785652160645
-0.0112990383058786,1.41193687915802,0.0616445653140544,-0.2664063572883606,-1.7563470602035522,-0.8581121563911438,0.0,0.0,-0.8817357420921326,0.8553991317749023
-0.0106095317751169,1.4062936305999756,0.0597756989300251,-0.2801346182823181,-1.8006986379623413,-0.8870340585708618,0.0,0.0,-0.9634270071983336,0.9266690015792848
-0.0099276546388864,1.4003154039382937,0.0564380399882793,-0.2962728142738342,-1.8474326133728027,-0.9346830248832704,0.0,0.0,-0.9776172637939452,0.9007153511047363
-0.0092503549531102,1.394026756286621,0.0532834827899932,-0.3108096718788147,-1.8959389925003047,-0.9701281785964966,0.0,0.0,-0.9792076349258424,0.8919191360473633
-0.0085793491452932,1.3874317407608032,0.0497981905937194,-0.3249427080154419,-1.9460750818252563,-1.002724051475525,0.0,0.0,-0.9792174100875854,0.9029045104980468
-0.0079258922487497,1.3805224895477295,0.0449093095958232,-0.3394280970096588,-1.998047471046448,-1.0394511222839355,0.0,0.0,-0.989068865776062,0.9303185939788818
-0.0072872163727879,1.3733084201812744,0.0402272157371044,-0.3531459867954254,-2.0515596866607666,-1.070246934890747,0.0,0.0,-0.987439513206482,0.9447869062423706
-0.0066668512299656,1.36579430103302,0.0350980684161186,-0.3664234280586242,-2.106487512588501,-1.0985547304153442,0.0,0.0,-0.9916786551475524,0.957901120185852
-0.0060791969299316,1.3579338788986206,0.0278587080538272,-0.3821190595626831,-2.1638150215148926,-1.1465532779693604,0.0,0.0,-0.9975709915161132,0.9565637111663818
-0.0055331229232251,1.3497414588928225,0.0195916406810283,-0.3968220353126526,-2.2233147621154785,-1.18999981880188,0.0,0.0,-0.99826842546463,0.9736208915710448
-0.0050313947722315,1.3411930799484253,0.0106479162350296,-0.4124824702739715,-2.285337448120117,-1.2404580116271973,0.0,0.0,-0.9988091588020324,0.9574240446090698
-0.0045646666549146,1.3323137760162354,0.0029045478440821,-0.4263826906681061,-2.3491852283477783,-1.2769595384597778,0.0,0.0,-0.9989407062530518,0.9602677822113036
-0.0041504860855638,1.3230783939361572,-0.0070915250107645,-0.4413661956787109,-2.4154324531555176,-1.3249491453170776,0.0,0.0,-0.9988985657691956,0.974656343460083
-0.0037943839561194,1.3135021924972534,-0.017566991969943,-0.4551929235458374,-2.483816146850586,-1.3676776885986328,0.0,0.0,-0.9993754625320436,0.9482557773590088
-0.0034880638122558,1.3035906553268433,-0.0269428007304668,-0.4682776033878326,-2.553959608078003,-1.40287184715271,0.0,0.0,-0.9992893934249878,0.9569911956787108
-0.0032453536987304,1.293337106704712,-0.0378051437437534,-0.4813804030418396,-2.626076459884644,-1.4423409700393677,0.0,0.0,-0.9993884563446044,0.9318088293075562
-0.0030771256424486,1.2827544212341309,-0.0496112890541553,-0.4935352504253387,-2.700114727020264,-1.48077130317688,0.0,0.0,-0.9994874000549316,0.9239702224731444
-0.0029647827614098,1.2718558311462402,-0.0587514042854309,-0.5045298337936401,-2.775381565093994,-1.505343317985535,0.0,0.0,-0.999638855457306,0.935333490371704
-0.0029150010086596,1.2606472969055176,-0.0682465508580207,-0.5149919986724854,-2.8518497943878174,-1.5293716192245483,0.0,0.0,-0.9996948838233948,0.9517388343811036
-0.002946472261101,1.2491223812103271,-0.0796363949775695,-0.525497555732727,-2.92987322807312,-1.5604736804962158,0.0,0.0,-0.9996494054794312,0.9398937225341796
-0.003070259001106,1.237284541130066,-0.0918518528342247,-0.5355497598648071,-3.00955867767334,-1.5937178134918213,0.0,0.0,-0.9997261166572572,0.8906017541885376
-0.003300952957943,1.2251430749893188,-0.1052825227379798,-0.5448704361915588,-3.0910961627960205,-1.6307579278945925,0.0,0.0,-0.9998473525047302,0.8448712825775146
-0.0036355019547045,1.2126933336257937,-0.1177069544792175,-0.5540705323219299,-3.174278259277344,-1.6636476516723633,0.0,0.0,-0.999858021736145,0.8463091850280762
-0.0040722847916185,1.1999367475509644,-0.1291762441396713,-0.562921941280365,-3.2589032649993896,-1.6925060749053955,0.0,0.0,-0.999898076057434,0.8134315013885498
-0.0046173096634447,1.1868976354599,-0.140671506524086,-0.5704891085624695,-3.345017671585083,-1.7222967147827148,0.0,0.0,-0.9999126195907592,0.7386220693588257
