x_pos,y_pos,x_vel,y_vel,angle,ang_vel,leg_1,leg_2,main_booster,lat_booster
-0.0015839576954022,1.403075933456421,-0.160868614912033,-0.3486289381980896,0.0022090715356171,0.0436091348528862,0.0,0.0,0.5239784444912163,-0.3703164784493811
-0.0031821250449866,1.3953449726104736,-0.1626226603984832,-0.3436068892478943,0.0049903765320777,0.0556319542229175,0.0,0.0,0.975244297065786,0.5580818204457689
-0.0046303747221827,1.3877869844436646,-0.1474570631980896,-0.3359216749668121,0.0075872219167649,0.0519418008625507,0.0,0.0,0.345424932374752,0.1047305805254795
-0.006239891052246,1.3802895545959473,-0.1635195314884185,-0.3332298398017883,0.0101172551512718,0.0506056733429431,0.0,0.0,0.2317574016623482,0.0971284808633182
-0.0078195575624704,1.3729743957519531,-0.1613950878381729,-0.3251392245292663,0.0135077256709337,0.0678157955408096,0.0,0.0,-0.6514691914683777,-0.5450659826221347
-0.0094938278198242,1.3651098012924194,-0.1721020340919494,-0.3495945036411285,0.0181319750845432,0.0924934968352317,0.0,0.0,-0.2379402233080774,0.7677976908343311
-0.0111716268584132,1.356698513031006,-0.1713723689317703,-0.3738838136196136,0.0216944105923175,0.0712553113698959,0.0,0.0,-0.0911481332268338,-0.8972014355779523
-0.0129640577360987,1.3477399349212646,-0.1846153438091278,-0.3982444703578949,0.0269971136003732,0.1060637682676315,0.0,0.0,-0.3758446026440598,-0.5111281736401042
-0.0148595813661813,1.3382375240325928,-0.1963627636432647,-0.4224719107151031,0.0337345376610755,0.1347607374191284,0.0,0.0,0.2769962115908322,0.080541343229881
-0.0168365482240915,1.3290289640426636,-0.2049148380756378,-0.4094473123550415,0.0408728905022144,0.1427803784608841,0.0,0.0,0.058665412033086,0.6480670593312139
-0.0187776573002338,1.3198509216308594,-0.2005101144313812,-0.4081006050109863,0.0472098551690578,0.1267511695623397,0.0,0.0,0.8016691002506118,-0.9443047226412642
-0.0207963939756155,1.31098735332489,-0.2107338011264801,-0.3942380845546722,0.055971510708332,0.1752493679523468,0.0,0.0,-0.1098246876349227,-0.7673875545540597
-0.0229249950498342,1.3015766143798828,-0.223316878080368,-0.4186773598194122,0.0663309022784233,0.2072066515684127,0.0,0.0,0.4013026902962566,0.3711590361499278
-0.0250774379819631,1.2920761108398438,-0.2263836413621902,-0.4227794706821441,0.0773730278015136,0.220862478017807,0.0,0.0,0.1792675033769333,-0.8724500994584397
-0.0272904392331838,1.282923936843872,-0.2346516400575637,-0.4075093269348144,0.0906215533614158,0.2649946808815002,0.0,0.0,0.9468785275332632,0.0969004926147979
-0.0294690132141113,1.2737667560577393,-0.2322178333997726,-0.4079115092754364,0.1048838049173355,0.2852707803249359,0.0,0.0,0.3929372180307222,-0.3415715685744487
-0.0316701903939247,1.2651588916778564,-0.2354168593883514,-0.3837209641933441,0.1200987845659256,0.3043272495269775,0.0,0.0,0.6683531476347526,0.5862670975097549
-0.0337795242667198,1.2566006183624268,-0.2258357107639312,-0.3816398382186889,0.1349533647298813,0.2971183657646179,0.0,0.0,-0.7454712545069013,0.8855217541467997
-0.0358719825744628,1.2475217580795288,-0.2224731743335724,-0.404761403799057,0.148160770535469,0.2641720175743103,0.0,0.0,-0.7340306550938345,-0.3744966402958761
-0.0380271896719932,1.2378973960876465,-0.2291297614574432,-0.4291599690914154,0.1617775708436966,0.2723603844642639,0.0,0.0,0.578918101214116,-0.5735240271317702
-0.0402762405574321,1.2288169860839844,-0.2403624355792999,-0.4053335785865783,0.1772730946540832,0.309938371181488,0.0,0.0,-0.1179195015581267,-0.5906466133365117
-0.0426328666508197,1.2191765308380127,-0.2526372075080871,-0.4305722415447235,0.1943385154008865,0.3413391709327698,0.0,0.0,-0.9364223994691808,0.2709741519215622
-0.0450527183711528,1.2089927196502686,-0.2593001127243042,-0.4549826681613922,0.211812138557434,0.3495041131973266,0.0,0.0,-0.0731466614153342,-0.115217715518825
-0.0475357994437217,1.198265552520752,-0.2659592926502228,-0.4793991148471832,0.2296941876411438,0.3576732575893402,0.0,0.0,0.5508625182644853,0.8636192711740676
-0.0502990707755088,1.1878515481948853,-0.2923985123634338,-0.465431272983551,0.246034026145935,0.326826274394989,0.0,0.0,-0.8029790377049528,-0.9780207068833772
-0.0532156936824321,1.1768434047698977,-0.3104831576347351,-0.4925113618373871,0.2652331590652466,0.3839829266071319,0.0,0.0,-0.6056246197001034,0.2018496969563599
-0.0561951622366905,1.1652932167053225,-0.3170787096023559,-0.5169271230697632,0.2848420739173889,0.3921784162521362,0.0,0.0,0.0517448921641612,0.1435532691959252
-0.05946521833539,1.153922200202942,-0.3460386395454407,-0.509215772151947,0.3044751286506653,0.3926607966423034,0.0,0.0,0.8059698044307781,-0.6021358001690312
-0.0632442459464073,1.143135905265808,-0.3980143666267395,-0.4837428033351898,0.3253426253795624,0.4173499941825866,0.0,0.0,-0.6312727683141068,-0.5360351761041572
-0.0671275109052658,1.131785869598389,-0.4097644686698913,-0.5094249248504639,0.3477523326873779,0.4481940269470215,0.0,0.0,-0.0085446063222685,-0.2520322500431972
-0.071074292063713,1.1198956966400146,-0.4163221716880798,-0.5338532328605652,0.3705679178237915,0.4563115239143371,0.0,0.0,-0.8012398481369019,0.9930423498153688
-0.0750196427106857,1.1074965000152588,-0.4147179722785949,-0.5564485788345337,0.3920159041881561,0.4289604723453522,0.0,0.0,-0.554287850856781,0.9912848472595216
-0.078968808054924,1.094603180885315,-0.4136330187320709,-0.5783258676528931,0.4120888710021972,0.4014592170715332,0.0,0.0,-0.5423476696014404,0.9880516529083252
-0.0829150229692459,1.0812015533447266,-0.4118742048740387,-0.6007682681083679,0.4307447373867035,0.3731173872947693,0.0,0.0,-0.7357984185218811,0.9847229719161988
-0.0868525505065918,1.067309021949768,-0.409310519695282,-0.6223040223121643,0.4476949572563171,0.3390042185783386,0.0,0.0,-0.90632963180542,0.9833180904388428
-0.0907833129167556,1.052931547164917,-0.4069460928440094,-0.64351487159729,0.4629200398921966,0.3045016825199127,0.0,0.0,-0.729742705821991,0.9918575286865234
-0.094708539545536,1.038055658340454,-0.4048459529876709,-0.6653181314468384,0.4765646755695343,0.2728927731513977,0.0,0.0,-0.7885285019874573,0.9821866750717164
-0.0986255630850792,1.0226984024047852,-0.4023234248161316,-0.6862494349479675,0.4884024560451507,0.2367552518844604,0.0,0.0,-0.8212729692459106,0.9398705959320068
-0.1025468856096267,1.0068538188934326,-0.4013915956020355,-0.7075091004371643,0.4987707436084747,0.2073648869991302,0.0,0.0,-0.8621756434440613,0.9601497650146484
-0.1064610481262207,0.9905220866203308,-0.3990900814533233,-0.7286738753318787,0.5074101686477661,0.1727882623672485,0.0,0.0,-0.6571828722953796,0.9596418142318726
-0.1103851348161697,0.9736969470977784,-0.3989055156707763,-0.7502138018608093,0.5147600173950195,0.1469980180263519,0.0,0.0,-0.7104655504226685,0.924952268600464
-0.1142935752868652,0.956388771533966,-0.3955823481082916,-0.7710533738136292,0.5201436281204224,0.1076718717813491,0.0,0.0,-0.7183937430381775,0.4632670879364013
-0.1182623878121376,0.93853497505188,-0.4019498825073242,-0.7954484224319458,0.5259138941764832,0.1154050678014755,0.0,0.0,-0.8673610091209412,0.3361721038818359
-0.1222914680838584,0.920135736465454,-0.4082868695259094,-0.8198439478874207,0.5320682525634766,0.1230886951088905,0.0,0.0,-0.6323297619819641,-0.1186187267303466
-0.1263803541660308,0.9011910557746888,-0.4145904183387756,-0.8442398309707642,0.538604199886322,0.130718395113945,0.0,0.0,-0.7326235175132751,0.1640846729278564
-0.1305289268493652,0.8817009329795837,-0.4208573400974273,-0.8686360120773315,0.545518696308136,0.1382895410060882,0.0,0.0,-0.740851104259491,0.7249407768249512
-0.1346821784973144,0.8617103695869446,-0.4201582968235016,-0.8904363512992859,0.5511142015457153,0.1119097024202346,0.0,0.0,-0.770770788192749,0.824029803276062
-0.1388528794050216,0.8412225842475891,-0.4209694862365722,-0.9121684432029724,0.555637776851654,0.0904716700315475,0.0,0.0,-0.7929007411003113,0.7747788429260254
-0.1430443823337555,0.820232093334198,-0.4222404062747955,-0.9341909885406494,0.559228777885437,0.0718205571174621,0.0,0.0,-0.7899152636528015,0.7273778915405273
-0.1472466439008712,0.7987377047538757,-0.4223338067531585,-0.9561947584152222,0.5616880059242249,0.0491850897669792,0.0,0.0,-0.4246420860290527,0.9826600551605223
-0.1514259278774261,0.7767726182937622,-0.4181085526943207,-0.9762999415397644,0.561906635761261,0.0043724197894334,0.0,0.0,-0.5429865717887878,0.8439491987228394
-0.155613511800766,0.7543138861656189,-0.4178487658500671,-0.9977832436561584,0.5608397722244263,-0.0213367585092782,0.0,0.0,-0.4108091592788696,0.9243327379226683
-0.159783273935318,0.731372594833374,-0.4143653512001037,-1.0185171365737915,0.5577976703643799,-0.0608420483767986,0.0,0.0,-0.2350151538848877,0.98516845703125
-0.1639463454484939,0.7079544067382812,-0.4121488928794861,-1.039089560508728,0.5529707074165344,-0.0965397730469703,0.0,0.0,0.0577850341796875,0.9486747980117798
-0.1681671142578125,0.6845337748527527,-0.4164048731327057,-1.0386022329330444,0.5464054942131042,-0.131304457783699,0.0,0.0,0.0434505939483642,0.905867338180542
-0.1725957840681076,0.6609448194503784,-0.4358173310756683,-1.0455650091171265,0.5382775068283081,-0.1625596135854721,0.0,0.0,-0.3159288167953491,0.96292245388031
-0.1770062446594238,0.6368846297264099,-0.4321640133857727,-1.065837264060974,0.5280948877334595,-0.2036525011062622,0.0,0.0,0.0045306682586669,0.6887005567550659
-0.181547075510025,0.6129265427589417,-0.4441840052604675,-1.0609978437423706,0.5168197751045227,-0.2255028784275055,0.0,0.0,0.4632434844970703,0.1980161666870117
-0.1864418089389801,0.5894234776496887,-0.4800591468811035,-1.0410540103912354,0.5061635375022888,-0.2131257057189941,0.0,0.0,0.1780927181243896,-0.3361232280731201
-0.1917056143283844,0.5660707950592041,-0.5169574022293091,-1.03445303440094,0.495560735464096,-0.2120562493801117,0.0,0.0,0.4172526597976684,-0.5854830145835876
-0.1971654891967773,0.5425889492034912,-0.5379778146743774,-1.040780544281006,0.4865937829017639,-0.1793393194675445,0.0,0.0,0.3130353689193725,-0.8441286683082581
-0.2030728757381439,0.5191941857337952,-0.5844765901565552,-1.0375715494155884,0.4796096086502075,-0.1396838128566742,0.0,0.0,0.1982719898223877,-0.9502353668212892
-0.209170863032341,0.4957713782787323,-0.6055699586868286,-1.0395560264587402,0.4749065637588501,-0.0940610840916633,0.0,0.0,-0.3097952604293823,-0.963211178779602
-0.2153773754835128,0.4717534482479095,-0.618399977684021,-1.0666934251785278,0.4724096357822418,-0.0499384701251983,0.0,0.0,-0.8146491050720215,-0.9939733743667604
-0.2216918021440506,0.4471297562122345,-0.6312847137451172,-1.0943310260772705,0.4722358882427215,-0.0034749642945826,0.0,0.0,-0.933911681175232,-0.9968625903129578
-0.2281301468610763,0.4218955338001251,-0.646167516708374,-1.1223182678222656,0.4748245179653168,0.0517723970115184,0.0,0.0,-0.9707670211791992,-0.99007910490036
-0.234676644206047,0.3960734605789184,-0.6589747071266174,-1.1491408348083496,0.4796295762062073,0.096101090312004,0.0,0.0,-0.9901970028877258,-0.9625824689865112
-0.241313174366951,0.3696494102478027,-0.6697463393211365,-1.1765248775482178,0.4864145517349243,0.1356997936964035,0.0,0.0,-0.996857523918152,-0.959833025932312
-0.2480506896972656,0.3426384925842285,-0.6816999316215515,-1.2033168077468872,0.4953137636184692,0.1779833734035492,0.0,0.0,-0.996581733226776,-0.9437575340270996
-0.2548935413360595,0.3150171041488647,-0.6944155097007751,-1.2313069105148315,0.5067066550254822,0.227858230471611,0.0,0.0,-0.9975373148918152,-0.873542070388794
-0.261835902929306,0.2867962419986725,-0.7063174247741699,-1.2587977647781372,0.5203931927680969,0.2737308740615845,0.0,0.0,-0.9956840872764589,-0.7691881656646729
-0.268855333328247,0.2579891085624695,-0.7154132723808289,-1.2855451107025146,0.5357805490493774,0.307747334241867,0.0,0.0,-0.9950225949287416,-0.5562246441841125
-0.2759469151496887,0.2286025434732437,-0.723856508731842,-1.311992645263672,0.5527337193489075,0.3390631079673767,0.0,0.0,-0.99519944190979,-0.3310384750366211
-0.2830604612827301,0.1986715942621231,-0.7260103225708008,-1.3363953828811646,0.5698105692863464,0.3415375053882599,0.0,0.0,-0.989517867565155,-0.2880438566207886
-0.2901931405067444,0.1681961864233017,-0.7278534173965454,-1.3607977628707886,0.5869941711425781,0.3436719179153442,0.0,0.0,-0.9834172129631042,0.0964443683624267
-0.297341912984848,0.1371762603521347,-0.7293770909309387,-1.3851994276046753,0.6042672395706177,0.3454609811306,0.0,0.0,-0.9657668471336364,0.6330476999282837
-0.3044629096984863,0.1056459993124008,-0.7254242300987244,-1.4075710773468018,0.6203282475471497,0.3212205171585083,0.0,1.0,0.8804148435592651,0.9989686012268066
-0.311943769454956,0.0754557698965072,-0.7668737769126892,-1.3619496822357178,0.6362330913543701,0.2906212210655212,0.0,1.0,0.9803147315979004,0.9983844757080078
-0.3160619139671325,0.0655474066734314,-0.2211993187665939,0.0399922952055931,0.6705359816551208,0.6352476477622986,0.0,1.0,0.9803147315979004,0.9983844757080078
