x_pos,y_pos,x_vel,y_vel,angle,ang_vel,leg_1,leg_2,main_booster,lat_booster
-0.0015818595420569,1.402965426445007,-0.1598847508430481,-0.353544682264328,0.0015188609249889,0.0299430135637521,0.0,0.0,-0.2134028445168692,0.8368604709299794
-0.0031470297835767,1.3943707942962646,-0.155876338481903,-0.3819828629493713,0.0008883323171176,-0.0126111879944801,0.0,0.0,-0.5048617850657708,-0.964365894505969
-0.0048213959671556,1.385109305381775,-0.1679671704769134,-0.4116162955760956,0.0014090767363086,0.0104158008471131,0.0,0.0,-0.4983767751606283,-0.5579332882703087
-0.006594181060791,1.3751869201660156,-0.1787866652011871,-0.4410010576248169,0.0028952362481504,0.0297262016683816,0.0,0.0,-0.457760991049319,0.9148665929173356
-0.0083211902529001,1.3646085262298584,-0.1715961694717407,-0.4701469838619232,0.0018101253081113,-0.0217041932046413,0.0,0.0,0.9918970603265038,0.521073151099001
-0.0098702432587742,1.3543531894683838,-0.1529306173324585,-0.4557947516441345,-0.0001403913774993,-0.0390141084790229,0.0,0.0,0.340311433163541,-0.8134991007417052
-0.0115359304472804,1.3441412448883057,-0.1657876670360565,-0.4538637101650238,-0.0009173560538329,-0.015540650114417,0.0,0.0,0.9819260161705476,0.7254337929763051
-0.012977791018784,1.334436058998108,-0.1420127153396606,-0.4313406646251678,-0.0030581599567085,-0.0428199097514152,0.0,0.0,-0.9358131932914712,-0.5954609765697523
-0.0144898416474461,1.3240784406661987,-0.1498085260391235,-0.4603421092033386,-0.0044359597377479,-0.02755868434906,0.0,0.0,-0.69185949666532,0.9321881173909448
-0.0159461013972759,1.3130671977996826,-0.1419065296649933,-0.489400565624237,-0.0081134578213095,-0.0735567361116409,0.0,0.0,0.3308022747827439,0.766392474355663
-0.0172725673764944,1.302114486694336,-0.1270390450954437,-0.4868324697017669,-0.013664336875081,-0.111027680337429,0.0,0.0,0.1529099457406664,0.6007219087779112
-0.0184996612370014,1.2910525798797607,-0.1154894232749939,-0.4917206466197967,-0.0207922961562871,-0.1425724327564239,0.0,0.0,0.0236419317552423,-0.8634598265527654
-0.019693087786436,1.2799859046936035,-0.1133777499198913,-0.4919524788856506,-0.0266882795840501,-0.117930568754673,0.0,0.0,-0.816772405830438,-0.8175149725782245
-0.0209418293088674,1.2682551145553589,-0.1198541745543479,-0.521464467048645,-0.0316539779305458,-0.0993229001760482,0.0,0.0,0.1923616176354907,-0.8394781509075155
-0.0221138000488281,1.256763935089111,-0.1134434565901756,-0.51079922914505,-0.035377774387598,-0.0744824260473251,0.0,0.0,0.7448940449595609,0.8605121139892025
-0.0230679512023925,1.2450642585754397,-0.0896263271570205,-0.5201327204704285,-0.041101723909378,-0.1144895926117897,0.0,0.0,0.9959226834166224,-0.5933379903545111
-0.0238332748413085,1.2342538833618164,-0.0719256848096847,-0.4805964529514313,-0.0456670448184013,-0.0913146361708641,0.0,0.0,0.6728299473568375,0.616495175810226
-0.0243571288883686,1.2233340740203855,-0.0463775619864463,-0.4855204820632934,-0.0516145452857017,-0.118960715830326,0.0,0.0,-0.3095420352480718,0.8669024264822202
-0.0247768405824899,1.2117582559585571,-0.0333806946873664,-0.5147987008094788,-0.0601105988025665,-0.1699363142251968,0.0,0.0,-0.7276883884374652,-0.653807203689964
-0.0252261161804199,1.1995294094085691,-0.0372766815125942,-0.5438202023506165,-0.0676904246211052,-0.1516105383634567,0.0,0.0,-0.9277602741017904,-0.8893292455830496
-0.0256976131349802,1.1866549253463743,-0.0403358861804008,-0.5725201964378357,-0.0744410902261734,-0.1350257247686386,0.0,0.0,0.1191642469783604,0.7073398081490652
-0.0260456092655658,1.1735596656799316,-0.02600022777915,-0.5824655890464783,-0.0831635221838951,-0.1744644939899444,0.0,0.0,0.6834308298517104,-0.6469386277314444
-0.0262152664363384,1.1606237888336182,-0.0092274891212582,-0.5753759145736694,-0.0908385664224624,-0.1535150110721588,0.0,0.0,-0.738575476961914,-0.5294273750736955
-0.0263782497495412,1.1470290422439575,-0.0089058270677924,-0.6046656370162964,-0.0981694236397743,-0.1466304659843444,0.0,0.0,0.1603552813562119,0.8900350734166065
-0.0264948848634958,1.1334612369537354,-0.0018718155333772,-0.6036893129348755,-0.1079083383083343,-0.1947956085205078,0.0,0.0,-0.2883676585827694,0.654482609879316
-0.026523208245635,1.11921226978302,0.0085630724206566,-0.6341502070426941,-0.1192314401268959,-0.2264620959758758,0.0,0.0,0.8491936407211338,0.544361919348932
-0.026353646069765,1.1055129766464231,0.0300216469913721,-0.6099516153335571,-0.1322287321090698,-0.2599457502365112,0.0,0.0,-0.9333244583916422,-0.6532815806212491
-0.0261890403926372,1.0911768674850464,0.0285026524215936,-0.6382720470428467,-0.1442408263683319,-0.2402415722608566,0.0,0.0,-0.9896315179952389,0.8274195606292627
-0.0259138103574514,1.0761808156967163,0.0414670631289482,-0.6679000854492188,-0.1581555306911468,-0.278294026851654,0.0,0.0,0.1854733154813788,-0.6828778006322465
-0.0255915634334087,1.0610617399215698,0.0453966781497001,-0.6734094023704529,-0.1713407486677169,-0.2637047469615936,0.0,0.0,0.8622496503969583,-0.989563757932818
-0.025094699114561,1.0467225313186646,0.0614403560757637,-0.6386938095092773,-0.1831176728010177,-0.2355384826660156,0.0,0.0,-0.9911787509918212,-0.9980754256248474
-0.0246191024780273,1.0317459106445312,0.0576464161276817,-0.6669031977653503,-0.1932581216096878,-0.2028086185455322,0.0,0.0,-0.9419205784797668,-0.9980607628822328
-0.0241613388061523,1.0161480903625488,0.0542090833187103,-0.694362223148346,-0.2017367482185363,-0.1695725917816162,0.0,0.0,-0.9917933940887452,-0.9982378482818604
-0.0237191207706928,0.9999109506607056,0.0510614514350891,-0.7226017117500305,-0.2086293846368789,-0.1378533840179443,0.0,0.0,-0.9915980100631714,-0.9973694682121276
-0.0232785232365131,0.9830426573753356,0.0495712719857692,-0.7504878640174866,-0.2141974866390228,-0.1113616675138473,0.0,0.0,-0.8456149697303772,-0.9950363636016846
-0.0228364951908588,0.9655490517616272,0.0484052076935768,-0.77811199426651,-0.2184489667415619,-0.0850295275449752,0.0,0.0,-0.9848275184631348,-0.98462975025177
-0.0223980899900198,0.9474198818206788,0.0466354340314865,-0.8061617612838745,-0.2212685495615005,-0.0563915967941284,0.0,0.0,-0.9096035361289978,-0.9949203133583068
-0.0219521522521972,0.928665041923523,0.0461414568126201,-0.83378005027771,-0.2228400707244873,-0.031430460512638,0.0,0.0,-0.9275219440460204,-0.9942349791526794
-0.0215065963566303,0.9092916250228882,0.0446183644235134,-0.8610556721687317,-0.2229061424732208,-0.0013215693179517,0.0,0.0,-0.927233099937439,-0.9951757788658142
-0.0210530273616313,0.8892869353294373,0.0441636778414249,-0.8889167904853821,-0.2216990441083908,0.0241420045495033,0.0,0.0,-0.8334120512008667,-0.9679798483848572
-0.020603846758604,0.8686626553535461,0.0420837774872779,-0.9162081480026244,-0.2188302427530288,0.0573759786784648,0.0,0.0,-0.7707082033157349,-0.8569964170455933
-0.0201241485774517,0.847396969795227,0.0444126017391681,-0.9446178674697876,-0.2152322828769683,0.0719592049717903,0.0,0.0,-0.4854456186294555,-0.8590244650840759
-0.0196169856935739,0.8254832625389099,0.046361107379198,-0.9733166098594666,-0.2108339965343475,0.0879658609628677,0.0,0.0,-0.4113942980766296,-0.850307285785675
-0.0190793983638286,0.8029283881187439,0.0486157201230526,-1.001713752746582,-0.2056520879268646,0.1036380752921104,0.0,0.0,0.0566655397415161,-0.5702430009841919
-0.0184905044734478,0.7800092697143555,0.0532965250313282,-1.0178613662719729,-0.200016051530838,0.1127209812402725,0.0,0.0,0.6788530349731445,-0.8144737482070923
-0.0177605636417865,0.7569279670715332,0.0663286000490188,-1.0249431133270264,-0.1933037191629409,0.1342465877532959,0.0,0.0,0.8984553813934326,-0.8470054268836975
-0.0168347358703613,0.7339386343955994,0.0847088769078254,-1.020742893218994,-0.1853881478309631,0.1583110392093658,0.0,0.0,0.9353851079940796,-0.9908812046051024
-0.0158594138920307,0.7118052244186401,0.0885409414768219,-0.9826096296310424,-0.1763626188039779,0.1805104911327362,0.0,0.0,0.9454896450042723,-0.9510139226913452
-0.0148747442290186,0.6904595494270325,0.0884904339909553,-0.9475489258766174,-0.1663757711648941,0.1997370570898056,0.0,0.0,0.397493839263916,-0.4767685532569885
-0.01374654751271,0.6690981388092041,0.1035659089684486,-0.948383927345276,-0.157119944691658,0.1851164102554321,0.0,0.0,0.906376838684082,-0.9142836928367616
-0.0123155592009425,0.6480304598808289,0.1323116272687912,-0.9352399110794068,-0.1463533490896225,0.2153321802616119,0.0,0.0,0.6597343683242798,-0.9833019971847534
-0.0108264926820993,0.6274426579475403,0.1368640810251236,-0.913874089717865,-0.1343456208705902,0.2401544600725174,0.0,0.0,0.5221686363220215,-0.7798521518707275
-0.0091417310759425,0.6067934632301331,0.1553193777799606,-0.9166081547737122,-0.1212481409311294,0.2619496881961822,0.0,0.0,0.6231778860092163,-0.8875850439071655
-0.0073358537629246,0.5866758823394775,0.166271224617958,-0.8930140137672424,-0.1070196628570556,0.2845695614814758,0.0,0.0,0.6046336889266968,-0.9413742423057556
-0.0052992822602391,0.5665915608406067,0.1878675818443298,-0.8915778398513794,-0.0913596749305725,0.3131992816925049,0.0,0.0,0.8322856426239014,-0.9680758118629456
-0.0033168792724609,0.5466554760932922,0.1813280433416366,-0.8851016759872437,-0.0746054947376251,0.335083544254303,0.0,0.0,0.8570535182952881,-0.5009225606918335
-0.0011028290027752,0.5274013876914978,0.20377878844738,-0.8549528121948242,-0.0571689344942569,0.3487316370010376,0.0,0.0,0.6828591823577881,-0.9208390116691588
0.0013277053367346,0.5085182785987854,0.223966434597969,-0.8386258482933044,-0.0383179374039173,0.3770201802253723,0.0,0.0,0.9447898864746094,-0.4990643262863159
0.0039758682250976,0.4904288351535797,0.2459775507450103,-0.8036000728607178,-0.0197089314460754,0.372180163860321,0.0,0.0,0.8563754558563232,-0.6091997027397156
0.0065944669768214,0.4730186462402344,0.2426857501268386,-0.7736390829086304,-0.0007790086092427,0.3785983920097351,0.0,0.0,0.9333207607269288,-0.8020297884941101
0.0093080522492527,0.4555976688861847,0.2510733306407928,-0.7743810415267944,0.0192395839840173,0.4003718495368957,0.0,0.0,0.906341314315796,-0.2527797222137451
0.0119830127805471,0.4387328028678894,0.2484213858842849,-0.7499006390571594,0.0380760617554187,0.3767295777797699,0.0,0.0,0.9445970058441162,0.0507397651672363
0.014872645959258,0.4221340715885162,0.2698757946491241,-0.7383169531822205,0.0569391213357448,0.3772613406181335,0.0,0.0,0.9038134813308716,-0.2531490325927734
0.0178417209535837,0.4059404134750366,0.2783564329147339,-0.7205263376235962,0.0752830654382705,0.3668789863586426,0.0,0.0,0.9732002019882202,-0.2636135816574096
0.0208763126283884,0.3898085355758667,0.2855446338653564,-0.7179718613624573,0.0930268168449401,0.3548750579357147,0.0,0.0,0.9891927242279052,-0.212424099445343
0.0237884521484375,0.3740625381469726,0.2746726870536804,-0.7009305357933044,0.1094392389059066,0.3282485902309418,0.0,0.0,0.8768022060394287,-0.2436901926994323
0.0267105102539062,0.3591136038303375,0.276225745677948,-0.6656456589698792,0.1253242343664169,0.3176994621753692,0.0,0.0,0.9444111585617064,0.2866603136062622
0.0297769550234079,0.3440380990505218,0.2908905744552612,-0.6714197397232056,0.1410176455974578,0.3138683438301086,0.0,0.0,0.9825068712234496,-0.5143753290176392
0.0327838882803916,0.3298315405845642,0.2844696640968323,-0.6330156922340393,0.1572036892175674,0.3237210512161255,0.0,0.0,0.9347174167633056,0.1189435720443725
0.0356861129403114,0.3157631158828735,0.2751812934875488,-0.6269187927246094,0.1722457706928253,0.3008418083190918,0.0,0.0,0.8355207443237305,0.6524310111999512
0.0384921059012413,0.3021362721920013,0.2678111493587494,-0.6071749925613403,0.1850743591785431,0.2565721273422241,0.0,0.0,0.8786263465881348,0.0181514024734497
0.0412924773991107,0.2889038920402527,0.2677433788776397,-0.5896896719932556,0.1974357068538665,0.2472269982099533,0.0,0.0,0.8505491018295288,0.1752957105636596
0.0438556671142578,0.2763614654541015,0.2453305721282959,-0.5589439272880554,0.2085034549236297,0.2213547974824905,0.0,0.0,0.190126895904541,-0.2181906700134277
0.0464736931025981,0.2637866735458374,0.2512275576591491,-0.5604075789451599,0.2191929519176483,0.2137899100780487,0.0,0.0,0.9152714014053344,-0.0538324117660522
0.0490439422428607,0.2512034773826599,0.2472458183765411,-0.5607358813285828,0.2290819585323333,0.1977805346250534,0.0,0.0,0.9005656242370605,-0.7962371706962585
0.051640510559082,0.2385064661502838,0.2487585246562957,-0.5660440921783447,0.2401472777128219,0.2213064432144165,0.0,0.0,0.6859250068664551,0.0386492013931274
0.0542109496891498,0.2256430983543396,0.2469161450862884,-0.5733928680419922,0.2504514455795288,0.2060836255550384,0.0,0.0,0.9787813425064088,-0.0231955647468566
0.0566230788826942,0.2134967595338821,0.2317549884319305,-0.5414802432060242,0.260101705789566,0.1930046677589416,0.0,0.0,0.9675695896148682,0.4591810703277588
0.0589635856449604,0.2021354287862777,0.224780648946762,-0.5066192746162415,0.2695900499820709,0.1897667348384857,0.0,0.0,0.8113278150558472,0.0832737684249877
0.0610323920845985,0.1913603842258453,0.198759526014328,-0.4804058969020843,0.2779116332530975,0.1664317995309829,0.0,0.0,0.7145775556564331,-0.0826894640922546
0.0629623383283615,0.1803655475378036,0.1860789358615875,-0.4899940192699432,0.285020112991333,0.1421696543693542,0.0,0.0,0.8914327621459961,0.6604495048522949
0.064818188548088,0.1700611412525177,0.1804315149784088,-0.4589881598949432,0.2903198003768921,0.1059934869408607,0.0,0.0,0.639877438545227,0.3632693290710449
0.0664970427751541,0.1598736196756363,0.1637593209743499,-0.4536091685295105,0.2945749163627624,0.0851018279790878,0.0,0.0,0.8922808170318604,-0.0959916710853576
0.0679723769426345,0.1501119434833526,0.1442546546459198,-0.434520274400711,0.2979673743247986,0.0678487792611122,0.0,0.0,0.8326046466827393,0.7690761089324951
0.0693444237112999,0.1408253461122512,0.1360100954771042,-0.4129824936389923,0.2991966903209686,0.0245861038565635,0.0,0.0,0.9861669540405272,0.667288064956665
0.0707479491829872,0.1319531053304672,0.1407300382852554,-0.3942436873912811,0.2988004982471466,-0.007923774421215,0.0,0.0,0.9953190088272096,0.9096755981445312
0.0722088813781738,0.1230493858456611,0.1487374305725097,-0.395185112953186,0.2960754036903381,-0.0545020774006843,0.0,0.0,0.8145751953125,0.4186573028564453
0.0737159699201583,0.1141635477542877,0.1534154564142227,-0.3943763673305511,0.2932841181755066,-0.055825512856245,0.0,0.0,0.9892425537109376,-0.1721802949905395
0.0752703696489334,0.1056809723377227,0.1578642427921295,-0.3765216469764709,0.2907853126525879,-0.0499764047563076,0.0,0.0,0.9423575401306152,-0.884062647819519
0.0768742561340332,0.0972446054220199,0.1612237393856048,-0.3747815489768982,0.2899162173271179,-0.0173816177994012,0.0,0.0,0.9791064262390136,-0.9521004557609558
0.0782143622636795,0.089412122964859,0.1334810703992843,-0.3482164740562439,0.2904581427574157,0.0108386911451816,0.0,0.0,0.8296654224395752,-0.7600603699684143
0.0793637260794639,0.0821218118071556,0.1133172884583473,-0.3243368864059448,0.2921279668807983,0.0333959534764289,0.0,0.0,0.8932192325592041,-0.1658339500427246
0.0805007964372634,0.0753303170204162,0.1119144558906555,-0.3022045195102691,0.2939825654029846,0.0370913706719875,0.0,0.0,0.6046905517578125,-0.3892472982406616
0.0817095786333084,0.0683758109807968,0.1190892457962036,-0.3094516098499298,0.2958303391933441,0.0369552448391914,0.0,0.0,0.7160811424255371,-0.3440420031547546
0.0827802643179893,0.0614956952631473,0.105955883860588,-0.3060129880905151,0.2969823181629181,0.0230395812541246,0.0,0.0,0.741694450378418,0.0677061080932617
0.0837369933724403,0.0552985779941082,0.0945677459239959,-0.2756530046463012,0.2981213629245758,0.0227806754410266,0.0,0.0,0.2811055183410644,-0.2341286540031433
0.0846120864152908,0.0490655526518821,0.0868796706199646,-0.2771491408348083,0.2987699508666992,0.0129719544202089,0.0,0.0,0.5085761547088623,-0.1919375658035278
0.0852284431457519,0.0431631915271282,0.0618934445083141,-0.2622765898704529,0.2985062003135681,-0.0052748518064618,0.0,0.0,0.8457245826721191,0.4611537456512451
0.0857706069946289,0.0377609357237815,0.0543863400816917,-0.2400663346052169,0.2983265817165375,-0.0035922196693718,0.0,0.0,0.915776252746582,-0.2357693910598755
0.0860580429434776,0.0329181514680385,0.0295354519039392,-0.215071365237236,0.2975165545940399,-0.0162004623562097,0.0,0.0,0.8200187683105469,0.3955132961273193
0.0860357284545898,0.0295565947890281,0.0169274173676967,-0.1455975472927093,0.2778303921222687,-0.3936611711978912,0.0,1.0,0.8763885498046875,0.9155638217926024
0.0858082771301269,0.0271139238029718,0.014032581821084,-0.1020164340734481,0.2402303814888,-0.7520323991775513,0.0,1.0,0.9612998962402344,-0.2211655378341674
0.085291102528572,0.0250040628015995,-0.0147968037053942,-0.0881785228848457,0.2028631567955017,-0.7473450899124146,0.0,1.0,0.840667724609375,-0.0103299617767333
0.0844897255301475,0.023060355335474,-0.0421647913753986,-0.0816275030374527,0.164724200963974,-0.7627797722816467,0.0,0.0,-0.9717134833335876,0.2531249523162842
0.0837431922554969,0.0204762071371078,-0.0361432842910289,-0.1110356077551841,0.1262926906347274,-0.7686308026313782,0.0,0.0,-0.6842346787452698,-0.459410011768341
0.0830501541495323,0.0172522645443677,-0.030326709151268,-0.1404475718736648,0.0875942111015319,-0.773970365524292,0.0,0.0,0.094098687171936,-0.7384943962097168
0.0824165344238281,0.0141554214060306,-0.025594612583518,-0.1358463019132614,0.0502151995897293,-0.747580885887146,0.0,0.0,0.7479441165924072,-0.8290475606918335
0.081700325012207,0.0116473054513335,-0.0351786129176616,-0.1106452718377113,0.0142223946750164,-0.7198563814163208,0.0,0.0,0.5310916900634766,-0.9921428561210632
0.0810948386788368,0.009697088971734,-0.0260455049574375,-0.0866979211568832,-0.0198386870324611,-0.681222140789032,0.0,0.0,0.6806011199951172,-0.9446858763694764
0.0805616378784179,0.0079864831641316,-0.0207023434340953,-0.0767747014760971,-0.0520565100014209,-0.6443568468093872,0.0,0.0,0.7010763883590698,-0.8730897307395935
0.0800419822335243,0.0069040153175592,-0.0210128165781497,-0.0494695417582988,-0.082676000893116,-0.6123896837234497,1.0,0.0,0.6875721216201782,-0.6732015013694763
0.0797314643859863,0.0067461226135492,-0.0131758777424693,-0.0083342520520091,-0.0995669066905975,-0.3367196917533874,1.0,0.0,-0.1754481196403503,-0.6285421252250671
0.0795598998665809,0.0063994023948907,-0.0170884914696216,-0.0154253700748085,-0.0995881408452987,-0.0003726703871507,1.0,0.0,-0.7680343985557556,0.16996431350708
0.0794638618826866,0.0058711506426334,-0.0225025471299886,-0.0226742699742317,-0.0867690816521644,0.256412923336029,1.0,0.0,-0.8585737347602844,0.5247626304626465
0.079452708363533,0.0050259684212505,-0.0225146524608135,-0.036466684192419,-0.0655583068728447,0.4242441058158874,1.0,0.0,-0.7531734108924866,0.2175037860870361
0.0794689208269119,0.0037198043428361,-0.0249384343624115,-0.0571066960692405,-0.0392767786979675,0.5256631970405579,1.0,0.0,-0.6921117901802063,0.1712255477905273
0.0794675797224044,0.0017365431413054,-0.0256846491247415,-0.0876696109771728,-0.0140423886477947,0.5046876668930054,1.0,0.0,0.231072187423706,0.5289516448974609
0.0796183571219444,-0.0005036735674366,-0.0096491267904639,-0.099515214562416,0.0103609776124358,0.4880675375461578,0.0,0.0,-0.063687264919281,0.965256929397583
0.0798154845833778,-0.0026923560071736,0.0163709819316864,-0.0973018407821655,0.0136433709412813,0.0656264871358871,0.0,1.0,0.4969733953475952,0.1366503238677978
0.0799967795610427,-0.0032257938291877,0.0175330732017755,-0.0237282253801822,0.0142279043793678,0.0116802556440234,1.0,1.0,-0.5755383372306824,0.1679764986038208
0.0800991058349609,-0.0032298350706696,0.0100976396352052,-0.0001762287138262,0.0143717844039201,0.0029048810247331,1.0,1.0,-0.740654706954956,-0.0768294334411621
