x_pos,y_pos,x_vel,y_vel,angle,ang_vel,leg_1,leg_2,main_booster,lat_booster
-0.0015271187294274,1.4035249948501587,-0.1546097248792648,-0.3286730945110321,0.0016911824932321,0.0333550497889518,0.0,0.0,-0.3643804788589477,0.6559133529663086
-0.003002357436344,1.3960504531860352,-0.1476736515760421,-0.332202285528183,0.0018473084783181,0.0031235304195433,0.0,0.0,-0.2237918376922607,0.4930191040039062
-0.0044813156127929,1.3884758949279783,-0.147975891828537,-0.3366482853889465,0.0019192035542801,0.0014380604261532,0.0,0.0,-0.1056529283523559,0.7208292484283447
-0.0059188841842114,1.3807995319366455,-0.1425854861736297,-0.3411716818809509,0.0007615545764565,-0.0231550019234418,0.0,0.0,-0.1838645935058593,0.4502696990966797
-0.0073606492951512,1.3730236291885376,-0.1429138481616974,-0.3455942273139953,-0.0004805185017175,-0.0248440261930227,0.0,0.0,0.1477658748626709,0.3308855295181274
-0.008711147122085,1.365714192390442,-0.1341631710529327,-0.3248660862445831,-0.0013524335809051,-0.0174397304654121,0.0,0.0,-0.2750512957572937,0.7252683639526367
-0.0100111011415719,1.3583049774169922,-0.1276267617940902,-0.3292997181415558,-0.0036924697924405,-0.0468052849173545,0.0,0.0,-0.0551544427871704,-0.2208356261253357
-0.0113156316801905,1.350796461105347,-0.1279907524585724,-0.3337203562259674,-0.0061175911687314,-0.0485070571303367,0.0,0.0,-0.103299856185913,-0.3572045564651489
-0.0126247406005859,1.3431886434555054,-0.1283665895462036,-0.3381426632404327,-0.0086291339248418,-0.0502357184886932,0.0,0.0,0.0714839696884155,0.7640159130096436
-0.0138747217133641,1.3361918926239014,-0.1208514347672462,-0.3109917342662811,-0.0127410059794783,-0.0822449401021003,0.0,0.0,-0.4425157308578491,-0.5983838438987732
-0.0151700023561716,1.3290969133377075,-0.1263115406036377,-0.3153594136238098,-0.0159221962094306,-0.0636296868324279,0.0,0.0,-0.6761783957481384,0.2557797431945801
-0.0164701454341411,1.3219027519226074,-0.1267151981592178,-0.3197802007198334,-0.0191908422857522,-0.0653788521885871,0.0,0.0,-0.7031710147857666,-0.2055007815361023
-0.0177753455936908,1.3146092891693115,-0.1271264553070068,-0.3242033421993255,-0.0225460939109325,-0.067110925912857,0.0,0.0,-0.5990101099014282,0.3470594882965088
-0.0190855022519826,1.3072164058685305,-0.1275451481342315,-0.328627198934555,-0.0259882509708404,-0.0688492655754089,0.0,0.0,-0.7337464690208435,0.3408701419830322
-0.0204009059816598,1.2997242212295532,-0.1279706507921219,-0.3330512344837188,-0.0295173935592174,-0.0705893486738205,0.0,0.0,-0.3856885433197021,-0.1610182523727417
-0.0217214580625295,1.29213285446167,-0.1284022033214569,-0.337475448846817,-0.0331335701048374,-0.0723299160599708,0.0,0.0,-0.7711363434791565,0.4660596847534179
-0.0230472572147846,1.2844420671463013,-0.1288390904664993,-0.3418998420238495,-0.0368367657065391,-0.0740706622600555,0.0,0.0,-0.7159286141395569,-0.0351346135139465
-0.0243783947080373,1.2766519784927368,-0.1292806416749954,-0.3463243544101715,-0.0406269691884517,-0.0758107751607894,0.0,0.0,-0.6797091960906982,0.6167523860931396
-0.0256581306457519,1.2687650918960571,-0.1226200833916664,-0.3506826758384704,-0.0459257438778877,-0.1059851199388504,0.0,0.0,-0.7057861089706421,0.3874926567077636
-0.0269431117922067,1.2607791423797607,-0.123064674437046,-0.3551086783409118,-0.0513105690479278,-0.1077060103416442,0.0,0.0,-0.9229811429977416,-0.2923591136932373
-0.028233528137207,0.0,-0.123512290418148,-0.3595349192619324,-0.0567821748554706,-0.1094417795538902,0.0,0.0,-0.3412216901779175,0.7255188226699829
-0.0294710155576467,1.2445011138916016,-0.1166539192199707,-0.3644210994243622,-0.0638117790222168,-0.1406046003103256,0.0,0.0,0.0065587759017944,0.292872667312622
-0.0306137092411518,1.2366981506347656,-0.1074632033705711,-0.3471003174781799,-0.0705589205026626,-0.1349552422761917,0.0,0.0,-0.5589494705200195,0.3382450342178345
-0.0317618362605571,1.228796362876892,-0.1079133152961731,-0.3515323400497436,-0.077392429113388,-0.1366824656724929,0.0,0.0,-0.9469041228294371,0.2993396520614624
-0.0329153053462505,1.220795512199402,-0.108362853527069,-0.3559597432613373,-0.08431126922369,-0.1383891105651855,0.0,0.0,-0.9574276208877563,0.5689787864685059
-0.0340411178767681,1.2126736640930176,-0.1046482324600219,-0.3614456951618194,-0.09217419475317,-0.1572582423686981,0.0,0.0,-0.6821585297584534,-0.299515962600708
-0.0351723656058311,1.2044529914855957,-0.105116918683052,-0.3658725023269653,-0.1001229733228683,-0.1589758396148681,0.0,0.0,-0.8114888072013855,-0.0699924826622009
-0.0363091453909873,1.1961338520050049,-0.1055846437811851,-0.3702994883060455,-0.1081573367118835,-0.1606869846582412,0.0,0.0,-0.8605132102966309,-0.4438191652297973
-0.0374513640999794,1.1877164840698242,-0.1060508489608764,-0.3747266829013824,-0.1162768676877021,-0.1623905897140503,0.0,0.0,-0.7607706785202026,-0.2591835260391235
-0.0385990142822265,1.179200530052185,-0.1065150052309036,-0.3791540265083313,-0.124481163918972,-0.16408571600914,0.0,0.0,-0.5278719067573547,-0.3498351573944092
-0.0397521033883094,1.170586109161377,-0.1069765537977218,-0.3835814893245697,-0.1327697336673736,-0.1657713949680328,0.0,0.0,-0.7918049097061157,-0.0448684096336364
-0.04091053083539,1.1618731021881104,-0.1074350029230117,-0.38800910115242,-0.1411420702934265,-0.1674466878175735,0.0,0.0,-0.9231858849525452,-0.0543560981750488
-0.0420741066336631,1.153061866760254,-0.1078898459672927,-0.3924368917942047,-0.1495975852012634,-0.1691107004880905,0.0,0.0,-0.9245948791503906,-0.4956312179565429
-0.043243121355772,1.1441524028778076,-0.1083405464887619,-0.3968648612499237,-0.1581356823444366,-0.1707623451948166,0.0,0.0,-0.5763728618621826,-0.5546594858169556
-0.0444591529667377,1.1351556777954102,-0.1140671595931053,-0.4006796181201935,-0.1656748652458191,-0.1507840454578399,0.0,0.0,-0.5442783832550049,0.1868082284927368
-0.0456803329288959,1.1260602474212646,-0.1145078390836715,-0.4051064550876617,-0.1732952445745468,-0.1524074971675872,0.0,0.0,-0.8107351064682007,0.0257868766784667
-0.0469065681099891,1.1168663501739502,-0.1149429231882095,-0.4095334708690643,-0.1809959858655929,-0.1540147960186004,0.0,0.0,-0.5902140140533447,-0.3751904964447021
-0.0481377616524696,1.1075741052627563,-0.1153719574213028,-0.4139605462551117,-0.1887761950492859,-0.1556045562028885,0.0,0.0,-0.7677717804908752,-0.6292116641998291
-0.049424935132265,1.0982048511505127,-0.1222466006875038,-0.4172497093677521,-0.1952849775552749,-0.1301754266023636,0.0,0.0,-0.8444918990135193,0.3248605728149414
-0.0507169738411903,1.0887367725372314,-0.1226616948843002,-0.4216754734516144,-0.2018712908029556,-0.131725937128067,0.0,0.0,-0.3290305137634277,0.2704814672470093
-0.0520137771964073,1.0791701078414917,-0.1230693832039833,-0.4261012673377991,-0.2085340023040771,-0.1332542449235916,0.0,0.0,-0.3015116453170776,0.4101221561431885
-0.0533152595162391,1.0695048570632937,-0.1234692186117172,-0.4305272102355957,-0.2152719348669052,-0.1347586512565612,0.0,0.0,-0.7942428588867188,-0.3828098773956299
-0.0546212196350097,1.0597409009933472,-0.1238608360290527,-0.4349532425403595,-0.2220838218927383,-0.1362373381853103,0.0,0.0,-0.9083855152130128,-0.6889981627464294
-0.0559762008488178,1.049891710281372,-0.1298391222953796,-0.4386014342308044,-0.2278104871511459,-0.1145333275198936,0.0,0.0,-0.8632847666740417,0.1779532432556152
-0.0573355667293071,1.039943814277649,-0.1302126497030258,-0.443026453256607,-0.233608216047287,-0.1159548759460449,0.0,0.0,-0.8927780389785767,-0.492948830127716
-0.0586991310119628,1.0298969745635986,-0.1305767595767974,-0.4474515318870544,-0.2394754588603973,-0.1173445358872413,0.0,0.0,-0.7400491833686829,-0.303485631942749
-0.0600667968392372,1.0197515487670898,-0.1309311389923095,-0.4518766701221466,-0.2454104572534561,-0.1187001466751098,0.0,0.0,-0.2258024215698242,0.0063390731811523
-0.061438463628292,1.0095070600509644,-0.1312754303216934,-0.4563018977642059,-0.2514114081859588,-0.1200193017721176,0.0,0.0,-0.5892256498336792,-0.3207094669342041
-0.0628139525651931,0.9991639256477356,-0.1316093355417251,-0.4607271552085876,-0.2574763894081116,-0.1212996244430542,0.0,0.0,-0.6200538873672485,-0.0636433959007263
-0.0641932487487793,0.988722026348114,-0.1319325268268585,-0.4651524424552917,-0.2636033296585083,-0.1225385069847107,0.0,0.0,-0.9605238437652588,-0.2280408143997192
-0.0655761733651161,0.9781813025474548,-0.1322447806596756,-0.4695777893066406,-0.2697899937629699,-0.1237332969903945,0.0,0.0,-0.9700202941894532,-0.3906188011169433
-0.0669625252485275,0.9675418734550476,-0.1325458139181137,-0.4740031957626343,-0.2760340571403503,-0.1248812302947044,0.0,0.0,-0.9927668571472168,-0.2734062671661377
-0.0683522224426269,0.9568036198616028,-0.1328354030847549,-0.4784286320209503,-0.2823329865932464,-0.1259794533252716,0.0,0.0,-0.9910808801651,-0.765001654624939
-0.0698013305664062,0.9459983706474304,-0.1402430981397628,-0.4811486601829529,-0.2871332466602325,-0.0960051417350769,0.0,0.0,-0.9886994957923888,-0.5440108180046082
-0.0712848678231239,0.9351057410240172,-0.144447773694992,-0.4848922491073608,-0.2911536693572998,-0.0804084986448288,0.0,0.0,-0.3319724798202514,-0.3646550178527832
-0.0727712661027908,0.9241138696670532,-0.1447009444236755,-0.4893156588077545,-0.295220673084259,-0.08134026825428,0.0,0.0,-0.5530581474304199,0.0109460353851318
-0.0742605179548263,0.9130231142044068,-0.1449419558048248,-0.4937390983104706,-0.2993311882019043,-0.0822104960680008,0.0,0.0,-0.4627646803855896,-0.3023821115493774
-0.075752355158329,0.9018332362174988,-0.1451706737279892,-0.4981624484062195,-0.3034819960594177,-0.0830161049962043,0.0,0.0,-0.8326350450515747,-0.5845929384231567
-0.0772838592529296,0.89056795835495,-0.150122582912445,-0.5013166666030884,-0.3066212236881256,-0.0627846345305442,0.0,0.0,-0.0948748588562011,-0.5402194261550903
-0.0788623839616775,0.8792295455932617,-0.1559958904981613,-0.5043227672576904,-0.3085496723651886,-0.038569264113903,0.0,0.0,-0.2477366924285888,-0.850490152835846
-0.0805030837655067,0.8678128123283386,-0.16370190680027,-0.5074924230575562,-0.3089303970336914,-0.0076144696213305,0.0,0.0,0.1297159194946289,-0.2425771951675415
-0.0820652991533279,0.8570131659507751,-0.1555221080780029,-0.4801281094551086,-0.3096542060375213,-0.0144763411954045,0.0,0.0,-0.2935824394226074,-0.7685727477073669
-0.0836755782365799,0.84613436460495,-0.1615083962678909,-0.4833989143371582,-0.3091573417186737,0.0099371811375021,0.0,0.0,-0.609248161315918,-0.8261045813560486
-0.085346795618534,0.8351858258247375,-0.1691496670246124,-0.4861687421798706,-0.3070600032806396,0.041945993900299,0.0,0.0,-0.4845030307769775,-0.6918930411338806
-0.0870718955993652,0.82415771484375,-0.1758611351251602,-0.489440381526947,-0.3035910129547119,0.0693797841668129,0.0,0.0,0.4361414909362793,-0.7834375500679016
-0.0888182669878006,0.8138476014137268,-0.1793636083602905,-0.4572458565235138,-0.2987063229084015,0.0976936742663383,0.0,0.0,-0.4959573745727539,-0.413357675075531
-0.090565875172615,0.8034383654594421,-0.1794814169406891,-0.4616688787937164,-0.2938267886638641,0.0975907891988754,0.0,0.0,-0.7205528020858765,-0.3538252115249634
-0.0923143401741981,0.7929299473762512,-0.1795872747898101,-0.4660917818546295,-0.2889479994773865,0.0975760594010353,0.0,0.0,-0.5692847967147827,0.1775441169738769
-0.0940637588500976,0.7823224067687988,-0.1796814203262329,-0.4705146551132202,-0.2840654850006103,0.0976504236459732,0.0,0.0,-0.9184170961380004,-0.7914780974388123
-0.0958835631608963,0.771642804145813,-0.1885555237531662,-0.4733861684799194,-0.2773205041885376,0.1348993629217147,0.0,0.0,-0.9553378820419312,-0.0308650732040405
-0.0977039337158203,0.7608643174171448,-0.1886276602745056,-0.4778105616569519,-0.2705628573894501,0.135153129696846,0.0,0.0,-0.9167000651359558,0.0925753116607666
-0.0995245948433876,0.7499868273735046,-0.1886887401342392,-0.4822348952293396,-0.2637880146503448,0.1354967206716537,0.0,0.0,-0.2173839211463928,-0.6398354768753052
-0.1014032363891601,0.7390414476394653,-0.1960640698671341,-0.4850106835365295,-0.2554127871990204,0.1675047576427459,0.0,0.0,-0.9470787048339844,0.5386197566986084
-0.1032357215881347,0.7279791235923767,-0.1902960240840912,-0.4904480278491974,-0.2482335865497589,0.1435840874910354,0.0,0.0,-0.972991108894348,0.0481245517730712
-0.1050681099295616,0.7168178558349609,-0.1903260201215744,-0.4948725998401642,-0.2410239726305008,0.1441925317049026,0.0,0.0,-0.9617807269096376,0.2142720222473144
-0.1069002151489257,0.7055577635765076,-0.1903462707996368,-0.499297171831131,-0.233779639005661,0.1448865532875061,0.0,0.0,-0.8826770782470703,0.3612520694732666
-0.1087319403886795,0.6941987872123718,-0.1903571635484695,-0.5037217140197754,-0.2264964282512664,0.1456642597913742,0.0,0.0,-0.9506667852401732,0.7602450847625732
-0.1105044335126876,0.6827275156974792,-0.1830002516508102,-0.5089633464813232,-0.220675528049469,0.1164179071784019,0.0,0.0,-0.9189410209655762,-0.1473682522773742
-0.1122763603925705,0.6711569428443909,-0.1829930692911148,-0.5133863091468811,-0.2148077189922332,0.1173564940690994,0.0,0.0,-0.7711477875709534,-0.0844247937202453
-0.1140475273132324,0.6594874262809753,-0.1829777657985687,-0.5178092122077942,-0.2088891267776489,0.1183715313673019,0.0,0.0,-0.936115860939026,-0.2907511591911316
-0.1158178299665451,0.647718608379364,-0.1829548180103302,-0.522232174873352,-0.2029161304235458,0.119460180401802,0.0,0.0,-0.8236371874809265,0.3650009632110595
-0.1175871863961219,0.6358506083488464,-0.1829246580600738,-0.5266551375389099,-0.1968851834535598,0.1206193566322326,0.0,0.0,-0.8669396638870239,0.202530026435852
-0.119355484843254,0.6238835453987122,-0.1828877925872802,-0.5310781598091125,-0.1907928735017776,0.1218461021780967,0.0,0.0,-0.7759324908256531,0.8186943531036377
-0.121064469218254,0.6118038892745972,-0.1755442321300506,-0.5362854599952698,-0.1861276477575302,0.093304619193077,0.0,0.0,-0.5498427748680115,0.4781770706176758
-0.1227723136544227,0.5996248722076416,-0.1754950284957885,-0.5407072305679321,-0.1813948154449463,0.0946570262312889,0.0,0.0,-0.7425139546394348,0.331519603729248
-0.1244788169860839,0.5873464345932007,-0.175440639257431,-0.5451290011405945,-0.1765914410352707,0.0960673838853836,0.0,0.0,-0.267062246799469,0.5380353927612305
-0.12614107131958,0.5749518275260925,-0.1699756979942321,-0.5504332780838013,-0.1728392541408538,0.0750437900424003,0.0,0.0,-0.5279538035392761,0.8330487012863159
-0.12772798538208,0.5624319911003113,-0.1605760306119918,-0.556216299533844,-0.1709416955709457,0.037951223552227,0.0,0.0,-0.6298394799232483,0.2407466173171997
-0.1293133795261383,0.5498126149177551,-0.1605089008808136,-0.5606365203857422,-0.1689658463001251,0.0395167171955108,0.0,0.0,-0.7545550465583801,-0.2528888583183288
-0.1308971345424652,0.5370936393737793,-0.1604387909173965,-0.5650567412376404,-0.1669094711542129,0.0411277636885643,0.0,0.0,0.3381993770599365,-0.5966072678565979
-0.1324293166399002,0.5251924991607666,-0.1565360575914383,-0.5285722613334656,-0.1635828167200088,0.0665330588817596,0.0,0.0,-0.5533062815666199,0.0528856515884399
-0.1339597702026367,0.5131917595863342,-0.1564619094133377,-0.532992959022522,-0.1601714789867401,0.0682267472147941,0.0,0.0,-0.2163870334625244,-0.0525524616241455
-0.1354885995388031,0.5010915994644165,-0.1563865691423416,-0.5374137759208679,-0.1566735953092575,0.0699577033519744,0.0,0.0,-0.2942143678665161,0.4050602912902832
-0.1370158195495605,0.4888918995857239,-0.1563106328248977,-0.5418347120285034,-0.1530874371528625,0.0717234686017036,0.0,0.0,0.881479024887085,0.9420325756072998
-0.138445183634758,0.4774478673934936,-0.1446141451597213,-0.5084526538848877,-0.1514100283384323,0.0335482582449913,0.0,0.0,0.2482080459594726,0.918449878692627
-0.1396282166242599,0.4668484330177307,-0.1182853728532791,-0.4710903465747833,-0.1514352113008499,-0.0005035508074797,0.0,0.0,-0.9947115182876588,0.9106178283691406
-0.1407413482666015,0.4561333358287811,-0.1096202880144119,-0.4763984680175781,-0.1531189680099487,-0.03367505595088,0.0,0.0,-0.9756093621253968,0.8038609027862549
-0.141802117228508,0.4453143775463104,-0.1032140105962753,-0.4811399281024933,-0.15598064661026,-0.0572337135672569,0.0,0.0,-0.8908935189247131,0.955552339553833
-0.1427753418684005,0.4343806207180023,-0.0923649817705154,-0.4864735603332519,-0.1609330624341964,-0.0990484356880188,0.0,0.0,-0.9854138493537904,-0.7344877123832703
-0.1438086479902267,0.423367828130722,-0.1000823602080345,-0.4898135066032409,-0.1641848385334015,-0.0650352239608764,0.0,0.0,-0.35739266872406,0.7217721939086914
-0.1447912156581878,0.4122485220432281,-0.093863233923912,-0.4946806728839874,-0.1685829609632492,-0.0879625529050827,0.0,0.0,-0.0604128837585449,-0.768420934677124
-0.1458348333835601,0.4010431170463562,-0.1016677170991897,-0.4983252882957458,-0.1712811738252639,-0.0539643950760364,0.0,0.0,0.4890784025192261,0.9973169565200806
-0.1468253135681152,0.3905510902404785,-0.094369001686573,-0.4668628275394439,-0.1759771704673767,-0.0939198285341262,0.0,0.0,-0.3697465062141418,-0.1380428671836853
-0.1478143632411956,0.3799595832824707,-0.0943222343921661,-0.4712841808795929,-0.1805729418992996,-0.0919151902198791,0.0,0.0,-0.1087206006050109,0.0553293228149414
-0.1488018929958343,0.3692685961723327,-0.0942819267511367,-0.4757054150104522,-0.1850676834583282,-0.0898949354887008,0.0,0.0,-0.6639698147773743,-0.1084836721420288
-0.1497881859540939,0.3584781885147095,-0.0942487493157386,-0.4801264703273773,-0.1894606947898864,-0.0878601595759391,0.0,0.0,-0.7818739414215088,0.0992732048034668
-0.1507730484008789,0.3475883305072784,-0.0942233353853225,-0.4845474660396576,-0.1937512904405594,-0.0858119055628776,0.0,0.0,-0.5360204577445984,0.7185295820236206
-0.1517024040222168,0.3365891277790069,-0.0873929485678672,-0.4895888268947601,-0.1993228197097778,-0.1114309057593345,0.0,0.0,0.3277690410614013,-0.8739665150642395
-0.1524323523044586,0.3264916539192199,-0.0694306716322898,-0.4492614865303039,-0.2029133588075637,-0.0718107372522354,0.0,0.0,-0.2956452369689941,-0.4970799088478088
-0.1531612426042556,0.3162946105003357,-0.0694323554635047,-0.4536817967891693,-0.2063996940851211,-0.0697271525859832,0.0,0.0,0.2305232286453247,-0.389691948890686
-0.15376977622509,0.3068923652172088,-0.0574808232486248,-0.4183516800403595,-0.2098062187433242,-0.0681305676698684,0.0,0.0,-0.0299400091171264,-0.5869510769844055
-0.1544175148010254,0.2974085807800293,-0.0625598654150962,-0.421819269657135,-0.2120421677827835,-0.0447191298007965,0.0,0.0,0.392030119895935,-0.2677818536758423
-0.1549169570207595,0.2883700132369995,-0.0481371507048606,-0.4019703269004822,-0.2138584703207016,-0.0363261029124259,0.0,0.0,0.3250960111618042,-0.7218018770217896
-0.1554731428623199,0.2800129652023315,-0.0552062280476093,-0.37148517370224,-0.2142741978168487,-0.0083148563280701,0.0,0.0,-0.074684739112854,0.1172947883605957
-0.1560288369655609,0.2715561389923095,-0.0552654862403869,-0.3759042918682098,-0.2145835012197494,-0.0061859558336436,0.0,0.0,-0.5807433128356934,-0.0803940296173095
-0.1565842628479004,0.2629995346069336,-0.0553381070494651,-0.3803234100341797,-0.2147859781980514,-0.0040495796129107,0.0,0.0,-0.2101894617080688,0.4860067367553711
-0.1571394950151443,0.2543431520462036,-0.0554246418178081,-0.3847425580024719,-0.2148812860250473,-0.0019062235951423,0.0,0.0,-0.1563133597373962,0.2923290729522705
-0.1576946228742599,0.2455869317054748,-0.0555256307125091,-0.389161616563797,-0.2148691117763519,0.0002438491210341,0.0,0.0,-0.1650691032409668,0.2555336952209472
-0.1582497656345367,0.2367309927940368,-0.0556415803730487,-0.3935807347297668,-0.2147490978240966,0.0024002003483474,0.0,0.0,0.4419132471084595,0.4242749214172363
-0.1586337983608245,0.2288000136613845,-0.038731575012207,-0.3524412214756012,-0.214419811964035,0.0065856957808136,0.0,0.0,0.1094281673431396,0.1411690711975097
