x_pos,y_pos,x_vel,y_vel,angle,ang_vel,leg_1,leg_2,main_booster,lat_booster
-0.0015208243858069,1.403483271598816,-0.1539888978004455,-0.3305242955684662,0.0017082524718716,0.0336931571364402,0.0,0.0,0.6343508646301625,-0.8260978642895264
-0.0030476569663733,1.3966089487075806,-0.1560596078634262,-0.3055312931537628,0.0050467266701161,0.0667763799428939,0.0,0.0,0.2300020361470192,-0.1180844495465058
-0.0044737816788256,1.390044927597046,-0.1463990807533264,-0.2917514741420746,0.0087901866063475,0.0748763903975486,0.0,0.0,0.1066639958716246,-0.7532843802069199
-0.0060508726164698,1.3838374614715576,-0.1628262251615524,-0.2759247422218323,0.0138602294027805,0.1014100462198257,0.0,0.0,-0.7033754907287539,0.5226474809501089
-0.0075752260163426,1.3774917125701904,-0.1562145501375198,-0.2820720374584198,0.017596548423171,0.0747330710291862,0.0,0.0,0.3619473953802439,-0.2918541304955316
-0.0089915273711085,1.3716795444488523,-0.1458723992109298,-0.2583754956722259,0.0217935014516115,0.0839467868208885,0.0,0.0,0.5991898205510524,0.2296958877090492
-0.0104390140622854,1.3665637969970703,-0.1488050520420074,-0.2274300009012222,0.0258020050823688,0.0801774486899375,0.0,0.0,0.2795415995539623,-0.3216046694195638
-0.0117809297516942,1.3620628118515017,-0.1387160122394561,-0.200126364827156,0.0302769299596548,0.0895066261291503,0.0,0.0,0.2870896565021439,-0.2852460780771468
-0.0131491664797067,1.3583978414535522,-0.1412138789892196,-0.1629806160926818,0.0346197448670864,0.0868644341826438,0.0,0.0,0.4678071178969991,-0.8762669747993679
-0.0146067617461085,1.3555612564086914,-0.1518183350563049,-0.1262222081422805,0.0406096614897251,0.1198092252016067,0.0,0.0,-0.8504049979207711,0.3057933481512299
-0.0160616878420114,1.352583885192871,-0.1514483243227005,-0.1325027048587799,0.0465102717280387,0.1180227845907211,0.0,0.0,0.574739965642064,0.1326477228196361
-0.0174697879701852,1.3502249717712402,-0.1470039039850235,-0.1050456836819648,0.0526417344808578,0.1226409077644348,0.0,0.0,0.3201579317052112,0.1330193111947329
-0.0188003536313772,1.3485708236694336,-0.139668270945549,-0.0737703591585159,0.0591768585145473,0.1307145059108734,0.0,0.0,0.9624368591302086,-0.7909049458031692
-0.0201260559260845,1.3474024534225464,-0.1408777087926864,-0.0522694624960422,0.0674030929803848,0.1645400673151016,0.0,0.0,0.8456321416379802,0.361419553480808
-0.0213537216186523,1.3474881649017334,-0.1317314356565475,0.0033804471604526,0.0762849226593971,0.1776532232761383,0.0,0.0,0.1569566849554498,0.0243828691106939
-0.0225179679691791,1.347753405570984,-0.1256549954414367,0.0113003263249993,0.0854434370994567,0.183186873793602,0.0,0.0,-0.2302154848080131,0.7911712412954283
-0.0236034393310546,1.3478975296020508,-0.1157451868057251,0.0059777097776532,0.0925846025347709,0.1428363025188446,0.0,0.0,-0.936942534607882,-0.8334182066431401
-0.0247355457395315,1.3478870391845703,-0.1216021403670311,-0.001001902972348,0.1009167581796646,0.1666580438613891,0.0,0.0,-0.1071734594238318,0.8973194973964567
-0.0257834438234567,1.3477569818496704,-0.1110118627548217,-0.0062143523246049,0.1070953533053398,0.1235832124948501,0.0,0.0,-0.7647168013668888,0.7499635007130486
-0.0267773624509573,1.3474938869476318,-0.1042253151535987,-0.0120493909344077,0.1119102984666824,0.0963077694177627,0.0,0.0,0.2338307770258767,0.1928314657317984
-0.0277360919862985,1.34794282913208,-0.1010878905653953,0.0195504538714885,0.1171035692095756,0.1038746014237403,0.0,0.0,-0.6084841625392716,-0.4853176148005889
-0.0286916736513376,1.3482506275177002,-0.1007035225629806,0.0132669070735573,0.1222348734736442,0.1026350110769271,0.0,0.0,0.5735474604360589,-0.5264768722655638
-0.0296167377382516,1.349205493927002,-0.099009171128273,0.0418994612991809,0.1287097781896591,0.1295098513364792,0.0,0.0,0.3885708454517107,0.8831834538170878
-0.0304359439760446,1.350426435470581,-0.0866619423031807,0.053844217211008,0.1334431916475296,0.0946765691041946,0.0,0.0,0.1706224244491372,-0.484938350108844
-0.031412124633789,1.3521642684936523,-0.101851999759674,0.0768475234508514,0.1376678198575973,0.0844996720552444,0.0,0.0,-0.9582649540634698,0.3534236767049822
-0.0323827750980854,1.353739619255066,-0.1012720689177513,0.0696252584457397,0.1418566703796386,0.0837769657373428,0.0,0.0,0.1055776983228109,-0.0154294652364943
-0.0334160812199115,1.3558964729309082,-0.1075096577405929,0.0954580754041671,0.1460293531417846,0.08345378190279,0.0,0.0,0.9304413527545614,0.3157868388889976
-0.0347370132803916,1.3593100309371948,-0.1355465501546859,0.1513765305280685,0.1494757533073425,0.0689278990030288,0.0,0.0,0.6134431213692313,0.7674441010841581
-0.0362463966012001,1.363693118095398,-0.1525907963514328,0.1946372091770172,0.1511153578758239,0.0327924415469169,0.0,0.0,-0.4891572433417961,-0.5378241564604643
-0.037795353680849,1.3679232597351074,-0.1576485931873321,0.1877210438251495,0.1538671106100082,0.0550351813435554,0.0,0.0,-0.7179052161465702,-0.7112321861049496
-0.0393951423466205,1.3720078468322754,-0.1641088426113128,0.1811012625694275,0.1580004394054412,0.0826664268970489,0.0,0.0,-0.6001852750778198,0.0780093669891357
-0.0409908294677734,1.3759515285491943,-0.1637277156114578,0.174827441573143,0.1621508747339248,0.0830086320638656,0.0,0.0,-0.6535213589668274,0.6943027973175049
-0.0425366386771202,1.3797721862792969,-0.1575473248958587,0.1694799959659576,0.1651254445314407,0.059491503983736,0.0,0.0,-0.7640731334686279,0.0790357589721679
-0.0440782532095909,1.3834519386291504,-0.1571728885173797,0.1632065922021865,0.1681383997201919,0.06025917455554,0.0,0.0,-0.7284823060035706,-0.0001187920570373
-0.0456156730651855,1.3869907855987549,-0.156802162528038,0.1569330096244812,0.1712010204792022,0.0612524822354316,0.0,0.0,-0.6452082395553589,0.1993058919906616
-0.0471488013863563,1.3903887271881104,-0.1564354002475738,0.1506591886281967,0.1743250042200088,0.0624795742332935,0.0,0.0,-0.6541620492935181,0.0291308164596557
-0.048677634447813,1.3936458826065063,-0.1560729295015335,0.1443851739168167,0.1775224208831787,0.0639483407139778,0.0,0.0,-0.7757171392440796,-0.2079052925109863
-0.0502020828425884,1.3967622518539429,-0.1557150781154632,0.1381109058856964,0.1808057278394699,0.0656661912798881,0.0,0.0,-0.8185234665870667,0.2597734928131103
-0.051721952855587,1.399738073348999,-0.1553621441125869,0.1318363845348358,0.1841877400875091,0.0676402598619461,0.0,0.0,-0.7658722400665283,0.5337395668029785
-0.0531940460205078,1.4025856256484983,-0.1495667099952697,0.1262689381837844,0.1865600645542144,0.0474469289183616,0.0,0.0,-0.8771816492080688,-0.0014827251434326
-0.0546613708138465,1.405292510986328,-0.1492248177528381,0.1199943721294403,0.1890576928853988,0.0499527119100093,0.0,0.0,-0.8890072703361511,0.0837988853454589
-0.0561240203678607,1.4078588485717771,-0.1488889008760452,0.1137195155024528,0.1916943490505218,0.0527329854667186,0.0,0.0,-0.7955639362335205,0.6569623947143555
-0.0575217232108116,1.410294532775879,-0.141028806567192,0.1080898493528366,0.1929571479558944,0.0252563804388046,0.0,0.0,-0.8400472402572632,0.4749021530151367
-0.0589145645499229,1.412589430809021,-0.1407061517238617,0.1018148735165596,0.1943871825933456,0.0286004692316055,0.0,0.0,-0.9179038405418396,0.0341485738754272
-0.060302447527647,1.4147439002990725,-0.1403906941413879,0.0955396145582199,0.1959988325834274,0.0322327055037021,0.0,0.0,-0.959585964679718,0.3867139816284179
-0.0616853721439838,1.4167577028274536,-0.1400828212499618,0.0892640501260757,0.1978066563606262,0.0361564494669437,0.0,0.0,-0.898959219455719,0.1832928657531738
-0.0630631446838378,1.418631076812744,-0.1397829949855804,0.0829881578683853,0.1998253762722015,0.040374469012022,0.0,0.0,-0.9005886912345886,0.6394648551940918
-0.0643964782357215,1.420382738113403,-0.1345185935497284,0.0776948109269142,0.2010198682546615,0.0238899104297161,0.0,0.0,-0.8486341834068298,0.8134597539901733
-0.0656764060258865,1.422015905380249,-0.1281583756208419,0.0725699216127395,0.2011753022670745,0.0031086322851479,0.0,0.0,-0.8997023701667786,0.2974179983139038
-0.0669512748718261,1.423508882522583,-0.1278855800628662,0.0662934854626655,0.2015862911939621,0.0082198707386851,0.0,0.0,-0.9368404746055604,0.4836586713790893
-0.0682207122445106,1.424861192703247,-0.1276227831840515,0.0600167773663997,0.2022677958011627,0.0136300940066576,0.0,0.0,-0.966363489627838,0.4317069053649902
-0.0694848075509071,1.426073431968689,-0.1273705214262008,0.0537397786974906,0.2032347470521927,0.019338946789503,0.0,0.0,-0.9011881351470948,0.5373265743255615
-0.0706940665841102,1.4271575212478638,-0.1209133639931678,0.0481806881725788,0.2032280713319778,-0.0001335731503786,0.0,0.0,-0.9104951620101928,0.8038512468338013
-0.0718363747000694,1.4281277656555176,-0.1129214763641357,0.0433062389492988,0.2019068449735641,-0.026424691081047,0.0,0.0,-0.8237603306770325,0.18898606300354
-0.0729732513427734,1.4289579391479492,-0.1127041429281234,0.0370283983647823,0.2009154111146927,-0.0198285840451717,0.0,0.0,-0.9109501838684082,0.5025557279586792
-0.0740716904401779,1.4296555519104004,-0.1083550080657005,0.0312116499990224,0.1994202584028244,-0.0299030803143978,0.0,0.0,-0.8253965973854065,0.6479461193084717
-0.0751074776053428,1.4302366971969604,-0.1009491309523582,0.0261757336556911,0.1967744976282119,-0.0529151931405067,0.0,0.0,-0.8171966075897217,0.3221795558929443
-0.0761377364397049,1.4306776523590088,-0.1007720008492469,0.0198968909680843,0.1945016384124755,-0.0454568043351173,0.0,0.0,-0.6925643682479858,0.5085294246673584
-0.0771190673112869,1.4309968948364258,-0.095106117427349,0.0145781431347131,0.1914641112089157,-0.0607506930828094,0.0,0.0,-0.8600836992263794,0.4917695522308349
-0.0780948624014854,1.431175947189331,-0.0949589163064956,0.0082988375797867,0.1888271868228912,-0.0527384951710701,0.0,0.0,-0.8071150779724121,0.6997013092041016
-0.0790056213736534,1.4312260150909424,-0.087346002459526,0.0026979569811373,0.1850846409797668,-0.0748510882258415,0.0,0.0,-0.8560818433761597,0.7425098419189453
-0.079863354563713,1.431153655052185,-0.0812363773584365,-0.002659288002178,0.1805250793695449,-0.091191254556179,0.0,0.0,-0.879873514175415,0.2824668884277344
-0.0807158499956131,1.4309413433074951,-0.0811384916305542,-0.0089397821575403,0.1764056384563446,-0.0823885723948478,0.0,0.0,-0.8626589179039001,0.4274251461029053
-0.0815629959106445,1.4305893182754517,-0.0810584053397178,-0.0152199966832995,0.1727389097213745,-0.0733346939086914,0.0,0.0,-0.6746971607208252,0.4461342096328735
-0.0824049934744834,1.430097222328186,-0.0809966549277305,-0.0214999616146087,0.1695370972156524,-0.0640362277626991,0.0,0.0,-0.932086944580078,0.6868503093719482
-0.0831992179155349,1.4294764995574951,-0.0756164193153381,-0.0271530281752347,0.1657185852527618,-0.0763702541589737,0.0,0.0,-0.7793600559234619,0.4435991048812866
-0.0839883834123611,0.0,-0.0755926221609115,-0.0334331467747688,0.162388414144516,-0.0666032433509826,0.0,0.0,-0.7981621026992798,0.6150487661361694
-0.0847173705697059,1.4278218746185305,-0.0686603561043739,-0.0392871089279651,0.1581626534461975,-0.0845154821872711,0.0,0.0,-0.8579154014587402,0.8708033561706543
-0.0853713974356651,1.4268147945404053,-0.0598574690520763,-0.0441761538386344,0.1526202261447906,-0.110848568379879,0.0,0.0,-0.7612800598144531,0.1920398473739624
-0.0860206633806228,1.425668239593506,-0.0598934218287467,-0.0504574887454509,0.1475985646247863,-0.1004331111907959,0.0,0.0,-0.7417574524879456,0.4957591295242309
-0.0866651535034179,1.4243817329406738,-0.0599501058459281,-0.0567382797598838,0.1431077420711517,-0.0898165330290794,0.0,0.0,-0.7998147010803223,0.7903702259063721
-0.0872402191162109,1.42297101020813,-0.0518757812678813,-0.0621687211096286,0.1374957710504531,-0.1122398227453231,0.0,0.0,-0.9135693907737732,0.6352550983428955
-0.0877723693847656,1.4214357137680054,-0.0471260249614715,-0.0676836222410202,0.1314321160316467,-0.1212735176086425,0.0,0.0,-0.892550528049469,0.5138903856277466
-0.0882550254464149,1.4197698831558228,-0.0415684394538402,-0.0734646767377853,0.1247753575444221,-0.1331351697444915,0.0,0.0,-0.7470269203186035,0.0892804861068725
-0.0887332931160926,1.4179643392562866,-0.0417083352804183,-0.0797464400529861,0.1186858862638473,-0.1217895522713661,0.0,0.0,-0.9389062523841858,-0.2842694520950317
-0.0892074555158615,1.4160189628601074,-0.0418691039085388,-0.0860273838043212,0.1131718531250953,-0.1102807149291038,0.0,0.0,-0.9494580030441284,0.2170182466506958
-0.0896775275468826,1.4139337539672852,-0.0420505031943321,-0.0923075973987579,0.1082410514354705,-0.0986160412430763,0.0,0.0,-0.9417027235031128,0.1206617355346679
-0.0901437774300575,1.4117087125778198,-0.0422522239387035,-0.0985871329903602,0.1039008945226669,-0.0868028327822685,0.0,0.0,-0.9325594902038574,0.6182544231414795
-0.0905515700578689,1.409358263015747,-0.0355980992317199,-0.1041121929883956,0.0987593382596969,-0.1028314679861068,0.0,0.0,-0.9886298179626464,0.5134203433990479
-0.0909232124686241,1.4068779945373535,-0.0317444652318954,-0.1098906099796295,0.0933874920010566,-0.1074371933937072,0.0,0.0,-0.9849578142166138,0.3812339305877685
-0.0912913307547569,1.4042575359344482,-0.0320043601095676,-0.1161699518561363,0.088626429438591,-0.0952212885022163,0.0,0.0,-0.9833369255065918,-0.0838056206703186
-0.0916559249162674,1.4014971256256104,-0.0322827138006687,-0.1224485859274864,0.0844821780920028,-0.0828851908445358,0.0,0.0,-0.9265915155410768,0.338377833366394
-0.0920172706246376,1.3985962867736816,-0.0325789041817188,-0.1287265866994857,0.0809603929519653,-0.0704356357455253,0.0,0.0,-0.9484708309173584,0.6621900796890259
-0.092328168451786,1.3955638408660889,-0.0269495695829391,-0.1345584392547607,0.0768665745854377,-0.0818763598799705,0.0,0.0,-0.9860656261444092,0.0469852685928344
-0.0926358252763748,1.3923910856246948,-0.0272793434560298,-0.1408360749483108,0.0734055861830711,-0.0692195445299148,0.0,0.0,-0.9882521629333496,0.5243703126907349
-0.0928932204842567,1.3890832662582395,-0.0216803774237632,-0.1468174755573272,0.069386675953865,-0.0803781598806381,0.0,0.0,-0.975172996520996,0.4328022003173828
-0.0931477546691894,1.3856351375579834,-0.0220409389585256,-0.1530947238206863,0.0660097002983093,-0.0675394609570503,0.0,0.0,-0.967224419116974,0.1685214042663574
-0.0933994278311729,1.3820465803146362,-0.0224158372730016,-0.15937140583992,0.063278742134571,-0.0546190924942493,0.0,0.0,-0.992394745349884,0.5538476705551147
-0.0935941711068153,1.378322720527649,-0.0159740094095468,-0.1653657406568527,0.0598257258534431,-0.0690603256225586,0.0,0.0,-0.9943270087242126,0.1585695743560791
-0.0937862396240234,1.3744581937789917,-0.0163752809166908,-0.1716421693563461,0.0570260100066661,-0.0559941940009593,0.0,0.0,-0.9958946704864502,-0.3831942677497864
-0.0939757376909256,1.3704533576965332,-0.0167886745184659,-0.1779181361198425,0.0548828095197677,-0.0428638570010662,0.0,0.0,-0.9884670972824096,0.1300512552261352
-0.0941628441214561,1.3663077354431152,-0.0172134600579738,-0.1841937452554702,0.053399059921503,-0.0296749416738748,0.0,0.0,-0.9961217641830444,-0.4457156658172607
-0.094347670674324,1.362021565437317,-0.017648933455348,-0.1904690563678741,0.0525774396955966,-0.016432948410511,0.0,0.0,-0.9968916177749634,0.4572196006774902
-0.094530202448368,1.3575947284698486,-0.0180944018065929,-0.1967442333698272,0.0524202622473239,-0.0031432858668267,0.0,0.0,-0.9910688400268556,0.7555289268493652
-0.0946559906005859,1.3530292510986328,-0.0117033487185835,-0.2028760462999344,0.0515577606856823,-0.0172498971223831,0.0,0.0,-0.9826164245605468,0.8813917636871338
-0.0947005301713943,1.3483399152755735,-0.0022336561232805,-0.208340436220169,0.0493612401187419,-0.04393021017313,0.0,0.0,-0.9935837984085084,0.1921416521072387
-0.0947430580854415,1.3435099124908447,-0.0027052308432757,-0.2146157771348953,0.0478347763419151,-0.0305294245481491,0.0,0.0,-0.985988199710846,-0.0276626348495483
-0.0947834998369216,1.3385393619537354,-0.0031843453180044,-0.2208908200263977,0.0469796806573867,-0.0171020217239856,0.0,0.0,-0.9905933737754822,0.4081662893295288
-0.0948221236467361,1.333427906036377,-0.0036704405210912,-0.2271656841039657,0.0467970259487628,-0.0036531738005578,0.0,0.0,-0.9927380681037904,0.4995179176330566
-0.0948588401079177,1.3281757831573486,-0.0041629886254668,-0.233440488576889,0.0472876355051994,0.0098119340837001,0.0,0.0,-0.9973559379577636,0.9710140228271484
-0.094827651977539,1.322794795036316,0.0036250539124011,-0.2391437590122223,0.046784158796072,-0.0100695546716451,0.0,0.0,-0.9716815948486328,0.4535175561904907
-0.094794750213623,1.3172730207443235,0.0031210617162287,-0.2454185932874679,0.0469548031687736,0.0034126280806958,0.0,0.0,-0.9981710314750672,0.8102924823760986
-0.0947084426879882,1.3116151094436646,0.009089820086956,-0.2514543235301971,0.0464994795620441,-0.0091063631698489,0.0,0.0,-0.9815402030944824,0.822080135345459
-0.0945716872811317,1.30581796169281,0.0146986600011587,-0.257621556520462,0.0454913973808288,-0.0201617702841758,0.0,0.0,-0.9961814880371094,0.3568230867385864
-0.094433307647705,1.299880027770996,0.0141807245090603,-0.2638963758945465,0.0451567359268665,-0.0066934176720678,0.0,0.0,-0.9808550477027892,0.3288769721984863
-0.0942933112382888,1.2938015460968018,0.013658894225955,-0.2701711058616638,0.045494720339775,0.006759519688785,0.0,0.0,-0.9949485659599304,0.9800095558166504
-0.0940558463335037,1.287596344947815,0.0251736044883728,-0.2757415473461151,0.0440834425389766,-0.028225515037775,0.0,0.0,-0.9979503750801086,0.6522747278213501
-0.093767449259758,1.2812591791152954,0.0308541990816593,-0.2815923392772674,0.0420930683612823,-0.039807453751564,0.0,0.0,-0.9994836449623108,0.2108614444732666
-0.0934775322675705,1.2747812271118164,0.0303226858377456,-0.2878672480583191,0.0407713204622268,-0.0264348648488521,0.0,0.0,-0.9989392757415771,0.4783976078033447
-0.0931862816214561,1.2681626081466677,0.0297885201871395,-0.2941418588161468,0.040116261690855,-0.0131009295582771,0.0,0.0,-0.99675190448761,0.1205223798751831
-0.0928936973214149,1.2614033222198486,0.0292519815266132,-0.300416350364685,0.0401256680488586,0.0001880102936411,0.0,0.0,-0.9799984693527222,0.5645394325256348
-0.0925507545471191,1.2545111179351809,0.0348657704889774,-0.306304931640625,0.0395599454641342,-0.0113144051283597,0.0,0.0,-0.9834131002426147,0.5144449472427368
-0.0921603217720985,1.2474782466888428,0.0401192717254161,-0.3125404715538025,0.0384931713342666,-0.0213353782892227,0.0,0.0,-0.9971839785575868,0.6331050395965576
-0.0917287841439247,1.2403082847595217,0.0445804521441459,-0.3186382055282593,0.0370782576501369,-0.0282982289791107,0.0,0.0,-0.9962016344070436,0.9158307313919068
-0.0912390723824501,1.232998013496399,0.0511934831738472,-0.3248426020145416,0.0348821729421615,-0.0439216345548629,0.0,0.0,-0.998725950717926,-0.5114955902099609
-0.0907901749014854,1.2255446910858154,0.0453921183943748,-0.3312525153160095,0.0343879461288452,-0.0098845083266496,0.0,0.0,-0.9994227886199952,0.6771894693374634
-0.0902842506766319,1.2179518938064575,0.0518592819571495,-0.3374212682247162,0.0331322848796844,-0.0251130666583776,0.0,0.0,-0.9986714124679564,-0.7596334218978882
-0.0898242965340614,1.2102091312408447,0.0454240888357162,-0.3441339135169983,0.0336994566023349,0.0113432891666889,0.0,0.0,-0.997057557106018,0.0940347909927368
-0.0893632918596267,1.2023255825042725,0.0448766872286796,-0.3504078686237335,0.0348999984562397,0.0240108929574489,0.0,0.0,-0.9964246153831482,0.8153120279312134
-0.0888345688581466,1.194312572479248,0.0527385547757148,-0.3561380803585052,0.0350377783179283,0.0027555357664823,0.0,0.0,-0.9991480112075806,-0.2897120714187622
-0.0883048996329307,1.1861587762832642,0.0521903559565544,-0.3624120652675628,0.0357968285679817,0.0151810273528099,0.0,0.0,-0.988485872745514,0.9353351593017578
