x_pos,y_pos,x_vel,y_vel,angle,ang_vel,leg_1,leg_2,main_booster,lat_booster
-0.0014725684886798,1.4030370712280271,-0.1494360864162445,-0.3503609299659729,0.0019617099314928,0.0387111715972423,0.0,0.0,-0.1472460627555847,0.1032634973526001
-0.0028929710388183,1.3945897817611694,-0.1441942155361175,-0.3754439651966095,0.0040959492325782,0.0426892414689064,0.0,0.0,0.2174118757247924,0.9208850860595704
-0.0040747644379734,1.385995388031006,-0.1187865361571312,-0.3819736838340759,0.00469880271703,0.0120581341907382,0.0,0.0,0.0057635307312011,0.7094264030456543
-0.0052319527603685,1.3772671222686768,-0.1150643602013588,-0.3879209756851196,0.0040475171990692,-0.0130267832428216,0.0,0.0,-0.4686122536659241,0.7810068130493164
-0.0062602995894849,1.3679542541503906,-0.100496269762516,-0.4138995409011841,0.0017401524819433,-0.046152040362358,0.0,0.0,0.0559391975402832,-0.5752284526824951
-0.0071814535185694,1.3585739135742188,-0.0913133099675178,-0.4168996214866638,0.0009501999593339,-0.0158004462718963,0.0,0.0,-0.7804765701293945,-0.0962661504745483
-0.0080471038818359,1.3486061096191406,-0.0859804674983024,-0.4430143535137176,0.0003759356914088,-0.0114864753559231,0.0,0.0,-0.8817317485809326,-0.1885134577751159
-0.0088566783815622,1.3380508422851562,-0.0805947855114936,-0.4691234230995178,1.7729722458170727e-05,-0.0071648443117737,0.0,0.0,-0.2150559425354004,-0.2898167967796325
-0.0096096992492675,1.3269081115722656,-0.0751602426171302,-0.4952332079410553,-0.0001258711417904,-0.002872297540307,0.0,0.0,-0.874280571937561,-0.1073465347290039
-0.0103057865053415,1.3151779174804688,-0.0696798264980316,-0.5213436484336853,-5.605091428151354e-05,0.0013969384599477,0.0,0.0,-0.511500358581543,-0.2732594013214111
-0.0109444614499807,1.3028602600097656,-0.0641565844416618,-0.5474542379379272,0.0002260210749227,0.0056420722976326,0.0,0.0,-0.1524564027786255,-0.4921871423721313
-0.0115254400297999,1.2899550199508667,-0.0585933737456798,-0.5735648274421692,0.0007191575714387,0.0098635302856564,0.0,0.0,-0.3450844287872314,-0.8510997891426086
-0.0121007915586233,1.2764666080474854,-0.059592742472887,-0.5994853377342224,0.0027448670007288,0.0405178517103195,0.0,0.0,-0.8159425854682922,-0.6270623803138733
-0.0126616479828953,1.2623848915100098,-0.0594544298946857,-0.6258660554885864,0.0060794204473495,0.0666972249746322,0.0,0.0,-0.5861786603927612,-0.8495197296142578
-0.013215159997344,1.247724175453186,-0.0602381117641925,-0.6516130566596985,0.0109111499041318,0.096643254160881,0.0,0.0,-0.6187283992767334,-0.1583384275436401
-0.0137097360566258,1.2324763536453247,-0.0545516721904277,-0.6777257323265076,0.0159477330744266,0.1007406562566757,0.0,0.0,-0.6453332304954529,0.487950325012207
-0.0141450883820652,1.216641545295715,-0.0488372705876827,-0.7038387060165405,0.0211882628500461,0.104820117354393,0.0,0.0,-0.5337590575218201,0.624586820602417
-0.0144599918276071,1.2002160549163818,-0.0354424007236957,-0.7300798296928406,0.0250984467566013,0.0782108604907989,0.0,0.0,-0.3984527587890625,0.2588891983032226
-0.014715289697051,1.1832033395767212,-0.029674032703042,-0.7561923861503601,0.0292100384831428,0.0822390392422676,0.0,0.0,-0.1422667503356933,0.6553564071655273
-0.014865780249238,1.165605068206787,-0.0182596929371356,-0.7822097539901733,0.0323928333818912,0.0636615306138992,0.0,0.0,-0.5165607333183289,0.4192899465560913
-0.0149560924619436,1.1474196910858154,-0.0124465161934494,-0.8083223104476929,0.0357735306024551,0.0676197260618209,0.0,0.0,-0.0018700957298278,0.3157218694686889
-0.0149861332029104,1.128646969795227,-0.0066155144013464,-0.8344349265098572,0.0393494926393032,0.0715253725647926,0.0,0.0,-0.0681180357933044,0.5120372772216797
-0.0149064064025878,1.1092891693115234,0.0054036686196923,-0.8604176640510559,0.0418816618621349,0.0506480932235717,0.0,0.0,0.3645355701446533,0.6782405376434326
-0.0146592138335108,1.089730143547058,0.0232114940881729,-0.8693286180496216,0.0433696322143077,0.0297623071819543,0.0,0.0,0.2956259250640869,0.0523873567581176
-0.0144845005124807,1.0703328847885132,0.016301030293107,-0.8621349334716797,0.0445308722555637,0.0232268460094928,0.0,0.0,0.3251301050186157,0.2720944881439209
-0.0143900867551565,1.0511651039123535,0.0086177820339798,-0.8519205451011658,0.0453386232256889,0.0161550380289554,0.0,0.0,0.4871678352355957,-0.0257839560508728
-0.0142609598115086,1.0323902368545532,0.0118943285197019,-0.8344706892967224,0.046347502619028,0.0201774090528488,0.0,0.0,0.2902287244796753,0.3439230918884277
-0.01420259475708,1.013986587524414,0.0051144026219844,-0.8179596066474915,0.0470672845840454,0.0143957091495394,0.0,0.0,0.4609154462814331,-0.2926944494247436
-0.0142305372282862,0.9960138201713562,-0.0031629286240786,-0.7988017797470093,0.047433815896511,0.0073303305543959,0.0,0.0,0.5324631929397583,0.5246663093566895
-0.0141981123015284,0.97813081741333,0.0038047865964472,-0.7947818636894226,0.0468808934092521,-0.0110584301874041,0.0,0.0,0.3616043329238891,0.4323800802230835
-0.0141217233613133,0.960707187652588,0.0079480623826384,-0.7743796706199646,0.046574268490076,-0.0061324313282966,0.0,0.0,0.0974382162094116,0.4489006996154785
-0.014049339108169,0.9431286454200744,0.0076211364939808,-0.7812564969062805,0.0462004765868186,-0.0074758529663085,0.0,0.0,-0.1116276979446411,0.537010669708252
-0.0138792041689157,0.9249704480171204,0.0181534066796302,-0.8070003390312195,0.0450723022222518,-0.0225634314119815,0.0,0.0,0.2567936182022095,0.3913023471832275
-0.0137086864560842,0.9066326022148132,0.0182542502880096,-0.814976155757904,0.0438845343887805,-0.0237552877515554,0.0,0.0,0.550165057182312,0.0629022121429443
-0.0134875299409031,0.888590395450592,0.023082185536623,-0.8018467426300049,0.0429280139505863,-0.0191305093467235,0.0,0.0,0.5448319911956787,0.3635790348052978
-0.0132186887785792,0.8710216879844666,0.0276230424642562,-0.780805230140686,0.0422063954174518,-0.014432668685913,0.0,0.0,0.3417655229568481,0.4662771224975586
-0.0129256248474121,0.8534185290336609,0.029987534508109,-0.782342255115509,0.0415376797318458,-0.0133743379265069,0.0,0.0,0.2693691253662109,0.8698055744171143
-0.01249361038208,0.8361178040504456,0.0454532839357852,-0.7688666582107544,0.0393096804618835,-0.0445598699152469,0.0,0.0,0.1849638223648071,0.0398449897766113
-0.0120527269318699,0.8191337585449219,0.0463387407362461,-0.7547885179519653,0.0370918549597263,-0.0443566814064979,0.0,0.0,-0.209442138671875,0.2309149503707885
-0.0115509983152151,0.8015623688697815,0.0522801168262958,-0.7808981537818909,0.0350087322294712,-0.0416624881327152,0.0,0.0,-0.4520937204360962,-0.408021867275238
-0.0109886173158884,0.783403754234314,0.0582149103283882,-0.8070077896118164,0.0330537967383861,-0.0390986688435077,0.0,0.0,0.3180117607116699,-0.6053903698921204
-0.0103192329406738,0.765285313129425,0.067369133234024,-0.8052500486373901,0.032633002847433,-0.0084160063415765,0.0,0.0,-0.4946714639663696,0.1762195825576782
-0.0095894811674952,0.746579647064209,0.0732865259051323,-0.8313591480255127,0.0323258452117443,-0.0061429338529706,0.0,0.0,-0.0053601264953613,0.4763225317001343
-0.0087995529174804,0.7272866368293762,0.079192966222763,-0.85746830701828,0.0321243070065975,-0.0040308097377419,0.0,0.0,0.0359084606170654,0.3610403537750244
-0.0079812053591012,0.7076815962791443,0.0820665508508682,-0.871325671672821,0.0319018959999084,-0.0044482881203293,0.0,0.0,0.794427752494812,0.4823106527328491
-0.0070647238753736,0.6880356669425964,0.091543324291706,-0.8731505274772644,0.0319981761276721,0.0019255524966865,0.0,0.0,0.4055585861206054,-0.4144229888916015
-0.0060491561889648,0.6683750152587891,0.1011360064148902,-0.8738208413124084,0.0324127711355686,0.0082919308915734,0.0,0.0,0.6687353849411011,-0.575965404510498
-0.0051694870926439,0.6493874192237854,0.0866445079445838,-0.8439210057258606,0.0337289460003376,0.0263235177844762,0.0,0.0,0.4468731880187988,0.3168941736221313
-0.0043702125549316,0.6308412551879883,0.0790765285491943,-0.8242902755737305,0.0345650166273117,0.0167213976383209,0.0,0.0,0.1290231943130493,-0.3116747140884399
-0.0035388946998864,0.6122280359268188,0.0823023319244384,-0.8272722959518433,0.0353804528713226,0.0163087286055088,0.0,0.0,0.0651503801345825,0.1277568340301513
-0.0025701522827148,0.5935842394828796,0.0955893695354461,-0.8286446332931519,0.0366583913564682,0.0255585517734289,0.0,0.0,0.5397975444793701,-0.2319487929344177
-0.0016222953563556,0.5753792524337769,0.0937156528234481,-0.8091355562210083,0.0377107597887516,0.0210477653890848,0.0,0.0,0.4995150566101074,-0.4559872150421142
-0.0005331992870196,0.5571973919868469,0.1073684841394424,-0.8081257343292236,0.0392325744032859,0.0304359290748834,0.0,0.0,0.9090702533721924,-0.3835732936859131
0.0005803108215332,0.5398098230361938,0.1097975000739097,-0.7728231549263,0.0407692901790142,0.0307345576584339,0.0,0.0,0.4054692983627319,-0.3978932499885559
0.0018599510658532,0.5224642157554626,0.1258338391780853,-0.7709750533103943,0.042877472937107,0.0421638004481792,0.0,0.0,0.4712858200073242,-0.5026888847351074
0.0030465126037597,0.5051493644714355,0.1157762631773948,-0.7696316242218018,0.0457233190536499,0.0569169446825981,0.0,0.0,0.4916542768478393,-0.6264017224311829
0.0042984010651707,0.4883342981338501,0.1208830848336219,-0.7474769949913025,0.0499717518687248,0.0849689245223999,0.0,0.0,0.0476284027099609,-0.3083255290985107
0.0056710243225097,0.4715791940689087,0.1326036900281906,-0.744833767414093,0.0545713752508163,0.0919926315546035,0.0,0.0,0.4023170471191406,-0.2407892346382141
0.0071228980086743,0.4552887678146362,0.1403038948774337,-0.7242043018341064,0.0593979470431804,0.0965314954519271,0.0,0.0,0.0594004392623901,-0.5262902975082397
0.0085023883730173,0.4391617476940155,0.1321913748979568,-0.7169957756996155,0.0650986060500145,0.114013098180294,0.0,0.0,0.3392674922943115,-0.4924283027648926
0.0099564548581838,0.4229010343551636,0.1395438015460968,-0.7229651212692261,0.0708999633789062,0.1160270422697067,0.0,0.0,0.6770044565200806,0.00323486328125
0.0113104823976755,0.4071077108383178,0.1301162093877792,-0.7021876573562622,0.076127216219902,0.104545310139656,0.0,0.0,0.4330507516860962,-0.0409014225006103
0.0127882007509469,0.3914103507995605,0.1421066224575042,-0.697960615158081,0.0817353203892707,0.1121619567275047,0.0,0.0,0.6544523239135742,0.6771218776702881
0.0143447872251272,0.3760540187358856,0.1514381915330886,-0.6827399134635925,0.0859247744083404,0.0837889686226844,0.0,0.0,0.5424822568893433,-0.4982547163963318
0.0159258842468261,0.3606705665588379,0.1539767682552337,-0.6839514970779419,0.0900115892291069,0.0817365273833274,0.0,0.0,0.6982007026672363,-0.1263095736503601
0.0173736568540334,0.3455900549888611,0.1414023041725158,-0.6704511642456055,0.0933633670210838,0.0670356079936027,0.0,0.0,0.798355221748352,-0.6428283452987671
0.0187557227909564,0.331317275762558,0.1336270868778228,-0.6346393823623657,0.0979003012180328,0.0907384604215622,0.0,0.0,0.6584131717681885,0.3756012916564941
0.0202369689941406,0.3169073760509491,0.1433304846286773,-0.640760064125061,0.1026536598801612,0.0950671583414077,0.0,0.0,0.8178455829620361,0.2416775226593017
0.0216960906982421,0.3033162355422973,0.1411671340465545,-0.6043846011161804,0.1073716208338737,0.0943594351410865,0.0,0.0,0.7677667140960693,0.1619515419006347
0.023044204339385,0.289876788854599,0.1307117640972137,-0.5976079106330872,0.1114431843161583,0.0814312249422073,0.0,0.0,0.8826839923858643,0.4130175113677978
0.0242444034665823,0.2769826650619507,0.1165985316038131,-0.5733340978622437,0.1148430705070495,0.0679975301027298,0.0,0.0,0.7249467372894287,0.4079025983810425
0.0254424102604389,0.2644746899604797,0.1164275556802749,-0.556174635887146,0.1181974783539772,0.0670881643891334,0.0,0.0,0.4944232702255249,-0.0295273065567016
0.0264734271913766,0.2524963021278381,0.1004679203033447,-0.5325830578804016,0.1208129897713661,0.0523100905120372,0.0,0.0,0.8754569292068481,0.1186164617538452
0.0275451652705669,0.2409213930368423,0.1043692827224731,-0.5146679282188416,0.1236091926693916,0.0559239797294139,0.0,0.0,0.913439154624939,0.182320237159729
0.0285575874149799,0.2294258624315261,0.0988208726048469,-0.5111149549484253,0.1260148733854293,0.0481140092015266,0.0,0.0,0.9576168060302734,-0.6591078042984009
0.0295894630253314,0.2179154008626938,0.0994357317686081,-0.5118978023529053,0.129749909043312,0.0747009366750717,0.0,0.0,0.967607855796814,0.200944185256958
0.0305629726499319,0.2064112275838852,0.0939844101667404,-0.5115917325019836,0.1330931633710861,0.0668649971485138,0.0,0.0,0.9571523666381836,-0.1409403085708618
0.0314308181405067,0.1957144290208816,0.0837015807628631,-0.4756941199302673,0.1361696720123291,0.0615301243960857,0.0,0.0,0.911672592163086,-0.4921119213104248
0.0322891250252723,0.1858515590429306,0.0825290605425834,-0.4386562407016754,0.1394509226083755,0.0656249076128006,0.0,0.0,0.9834017753601074,-0.7678014636039734
0.0328296646475791,0.1768230348825454,0.0498022176325321,-0.4016720652580261,0.1436997205018997,0.0849755555391311,0.0,0.0,0.9366940259933472,0.7197515964508057
0.0332313552498817,0.1677528768777847,0.0379629731178283,-0.403332382440567,0.1458930522203445,0.0438667275011539,0.0,0.0,0.8955491781234741,0.4858806133270263
0.0335660949349403,0.159450963139534,0.0312860682606697,-0.3691889643669128,0.148071140050888,0.0435620360076427,0.0,0.0,0.9465469121932985,-0.9937238097190856
0.0336082465946674,0.1515204310417175,0.0004962926032021,,0.1517883390188217,0.0743438005447387,0.0,0.0,0.96693754196167,0.8965469598770142
0.0335407257080078,0.1442021429538726,-0.0083036925643682,-0.3254149556159973,0.1533398628234863,0.0310303568840026,0.0,0.0,0.8301296234130859,0.9111639261245728
0.03342180326581,0.1374620050191879,-0.0113678416237235,-0.2995074093341827,0.1528087705373764,-0.0106219109147787,0.0,0.0,0.8856854438781738,0.4816391468048095
0.0333077423274517,0.1311411410570144,-0.011102121323347,-0.2808964550495147,0.1525059640407562,-0.0060564456507563,0.0,0.0,0.6302587985992432,-0.3345388174057007
0.0331700332462787,0.1247385367751121,-0.0133382454514503,-0.2845196723937988,0.1520791947841644,-0.0085354521870613,0.0,0.0,0.611499547958374,0.3426642417907715
0.0330637916922569,0.1183508038520813,-0.0103809675201773,-0.2838737368583679,0.151839017868042,-0.0048036435618996,0.0,0.0,0.6314477920532227,0.7045071125030518
0.0330827720463275,0.1122597530484199,0.003455466357991,-0.2705529034137726,0.1502856016159057,-0.031068667769432,0.0,0.0,0.8852859735488892,0.4224129915237427
0.0331868156790733,0.1062840819358825,0.0114630013704299,-0.2654803693294525,0.1492369472980499,-0.0209731943905353,0.0,0.0,0.8731908798217773,-0.7863298058509827
0.0330874435603618,0.1009742319583892,-0.0102172624319791,-0.2360220551490783,0.1495125591754913,0.0055121956393122,0.0,0.0,0.2524135112762451,-0.0339074730873107
0.0329146385192871,0.0959346145391464,-0.0174447000026702,-0.2239984720945358,0.1496670395135879,0.0030894808005541,0.0,0.0,0.4176418781280517,0.6725122928619385
0.0328110679984092,0.0911968350410461,-0.0091449720785021,-0.210446760058403,0.1484623402357101,-0.0240941643714904,0.0,0.0,0.3985016345977783,-0.066078245639801
0.0327339172363281,0.0863000452518463,-0.0066723995842039,-0.2175314575433731,0.1474247574806213,-0.0207516346126794,0.0,0.0,0.528099536895752,0.1041029691696167
0.0325194373726844,0.081503540277481,-0.0199582874774932,-0.2130312323570251,0.1459355950355529,-0.0297835879027843,0.0,0.0,0.3323245048522949,-0.6058524250984192
0.0322067253291606,0.0771647989749908,-0.0308995209634304,-0.1927976459264755,0.1455737948417663,-0.0072361477650702,0.0,0.0,0.0634865760803222,0.8423480987548828
0.0318636894226074,0.0727922990918159,-0.0320263430476188,-0.1941118687391281,0.1432988494634628,-0.0454990044236183,0.0,0.0,0.4047486782073974,0.0947818756103515
0.0312908180058002,0.0688135474920272,-0.0542933717370033,-0.1765478253364563,0.1403108686208725,-0.0597596876323223,0.0,0.0,-0.3464161157608032,0.6285072565078735
0.030742835253477,0.0642622336745262,-0.0501371100544929,-0.2018491178750991,0.1356609165668487,-0.0929989293217659,0.0,0.0,0.5727441310882568,0.8177549839019775
0.0300719253718853,0.0601924993097782,-0.0604648999869823,-0.180289939045906,0.1290620863437652,-0.131976380944252,0.0,0.0,0.0564213991165161,0.8591985702514648
0.0293086059391498,0.0562550872564315,-0.0677507817745208,-0.1742744594812393,0.1205149888992309,-0.1709420382976532,0.0,0.0,0.3144841194152832,0.8183079957962036
0.0285014156252145,0.0523260459303855,-0.0702241882681846,-0.1738122105598449,0.1100921928882598,-0.2084559649229049,0.0,0.0,0.2752964496612549,0.8740788698196411
0.0275687221437692,0.0484982095658779,-0.0807099416851997,-0.169244110584259,0.0976282656192779,-0.2492787390947342,0.0,0.0,-0.0974106788635253,0.9575021266937256
0.02665033377707,0.0440913066267967,-0.0776005834341049,-0.1949959248304367,0.0835160017013549,-0.2822453081607818,0.0,0.0,0.1533575057983398,0.0689088106155395
0.0257196426391601,0.0398584231734275,-0.078948825597763,-0.1873999089002609,0.069529540836811,-0.2797289192676544,0.0,0.0,0.2344520092010498,0.6665712594985962
0.024827767163515,0.0354583822190761,-0.0735649913549423,-0.1949066221714019,0.0540788583457469,-0.3090138733386993,0.0,0.0,0.2823096513748169,0.0998247861862182
0.0239687915891408,0.0313698388636112,-0.0705731064081192,-0.1812290847301483,0.0389345288276672,-0.3028866648674011,0.0,0.0,0.0911704301834106,-0.5345548987388611
0.0229817386716604,0.0274659022688865,-0.0841976031661033,-0.1731962114572525,0.0246097762137651,-0.2864949405193329,0.0,0.0,0.1715288162231445,-0.3630110025405884
0.0220306403934955,0.0238894075155258,-0.0808609500527381,-0.1587805300951004,0.0105401407927274,-0.281392753124237,0.0,0.0,-0.2493119835853576,-0.2408440113067627
0.021027946844697,0.0197281930595636,-0.0858056619763374,-0.1849057078361511,-0.0037416750565171,-0.2856362760066986,0.0,0.0,0.3715237379074096,-0.6828930377960205
0.0199142452329397,0.0160058587789535,-0.0980444401502609,-0.1655229777097702,-0.0168884471058845,-0.2629355788230896,0.0,0.0,0.6462503671646118,-0.2434689998626709
0.0188204757869243,0.0128738256171345,-0.0961300060153007,-0.1394011974334716,-0.0299665760248899,-0.2615628838539123,0.0,0.0,0.0587683916091918,-0.0889046192169189
0.0177323333919048,0.0095948791131377,-0.0956049412488937,-0.1460441499948501,-0.0430162101984024,-0.2609926462173462,0.0,0.0,0.1186966896057128,-0.0661395192146301
0.0165236480534076,0.0063638184219598,-0.1070589795708656,-0.1440561264753341,-0.0566587224602699,-0.2728502154350281,0.0,0.0,0.4823299646377563,-0.2579221129417419
0.0153045654296875,0.0039173220284283,-0.1265765577554702,-0.1085721030831337,-0.0520335808396339,0.0925157815217971,1.0,0.0,0.6919883489608765,0.8513634204864502
0.014383983798325,0.0023091412149369,-0.1145433187484741,-0.0708396360278129,-0.0298227332532405,0.4442052245140075,1.0,0.0,0.1840612888336181,0.7694721221923828
0.0136928558349609,0.0010173893533647,-0.1015703305602073,-0.0570862255990505,0.0022458024322986,0.6414182782173157,1.0,0.0,0.1781193017959594,0.9868564605712892
0.0131648061797022,-0.0005116843967698,-0.0818134993314743,-0.0682520195841789,0.030895298346877,0.5729901194572449,1.0,1.0,0.537750244140625,0.9789798259735109
0.0127507206052541,-0.0012079859152436,-0.0576235242187976,-0.0316498018801212,0.0457567162811756,0.2957512140274048,0.0,1.0,-0.8831174373626709,0.4573662281036377
0.0122254369780421,-0.0019244933500885,-0.0511419549584388,-0.0318142510950565,0.0443472787737846,-0.0282499082386493,0.0,1.0,-0.3598032593727112,0.7212827205657959
0.0116754528135061,-0.0027326964773237,-0.0376491770148277,-0.0355019532144069,0.0271833464503288,-0.3433155417442322,0.0,1.0,-0.2207010388374328,0.1208506822586059
0.0112738609313964,-0.0031459354795515,-0.0294138435274362,-0.0182120595127344,0.0165488701313734,-0.2127036154270172,1.0,1.0,-0.0201702713966369,0.3218021392822265
