x_pos,y_pos,x_vel,y_vel,angle,ang_vel,leg_1,leg_2,main_booster,lat_booster
-0.0015231132274493,1.4032621383666992,-0.154271200299263,-0.340362936258316,0.0017628236673772,0.0347733050584793,0.0,0.0,0.2502215712949978,-0.9170860231101762
-0.0030715942848473,1.3957836627960205,-0.1584463119506836,-0.3323807120323181,0.0053149522282183,0.0710501223802566,0.0,0.0,0.0301745577010199,-0.7752352330473009
-0.0045828819274902,1.388314962387085,-0.1563037782907486,-0.3319714963436126,0.0104436241090297,0.1025827899575233,0.0,0.0,-0.926217807749426,-0.9964979623139256
-0.0061838151887059,1.3804794549942017,-0.1676559597253799,-0.3483166396617889,0.0179125443100929,0.1493921726942062,0.0,0.0,-0.3529247743547172,-0.5052063063254255
-0.0078111649490892,1.372283101081848,-0.1710649579763412,-0.3644075691699981,0.0261440016329288,0.1646447926759719,0.0,0.0,0.9110907056588372,0.7945927848931343
-0.0092137334868311,1.3646750450134275,-0.1473665833473205,,0.0331785716116428,0.1407043039798736,0.0,0.0,-0.9209629404235956,-0.6705606331387735
-0.0106641771271824,1.3567023277282717,-0.1535211503505706,-0.3545525372028351,0.0415629222989082,0.1677027195692062,0.0,0.0,-0.5719735782050821,0.873709913153095
-0.0120214466005563,1.348375916481018,-0.1419789791107177,-0.3702553212642669,0.0477562956511974,0.1238789185881614,0.0,0.0,0.6674633577726199,0.929666691117916
-0.0133513454347848,1.340967059135437,-0.1373267322778701,-0.3294311165809631,0.0520531386137008,0.085944689810276,0.0,0.0,0.3375429285760065,-0.6623354556783966
-0.0147555349394679,1.3340765237808228,-0.1460413634777069,-0.306449681520462,0.0576271638274192,0.1114906519651413,0.0,0.0,-0.9787308455229586,0.901727046749218
-0.0160687454044818,1.3268314599990845,-0.1348449885845184,-0.3221476376056671,0.0611201710999012,0.0698661655187606,0.0,0.0,-0.4335871633320021,-0.6813645110592359
-0.0174185745418071,1.3192182779312134,-0.139679342508316,-0.338562399148941,0.0657707080245018,0.0930194109678268,0.0,0.0,0.0069972120694423,-0.856487326604523
-0.0187591556459665,1.3118882179260254,-0.1404327750205993,-0.3260808885097503,0.072088599205017,0.1263694912195205,0.0,0.0,0.6124795168896349,0.9440801791252882
-0.0199627876281738,1.3047215938568115,-0.1249097436666488,-0.3187356889247894,0.0765968486666679,0.0901728197932243,0.0,0.0,-0.4089979905049545,-0.9773062148533812
-0.0212139133363962,1.2971961498260498,-0.1311118155717849,-0.3347819447517395,0.082550011575222,0.1190739423036575,0.0,0.0,0.4386975645288833,0.8652074375503873
-0.0222979541867971,1.289707064628601,-0.1127745658159256,-0.3330913186073303,0.0868805795907974,0.0866193026304245,0.0,0.0,-0.389347039794383,-0.8741177526462093
-0.0234231948852539,1.281859040260315,-0.1181894168257713,-0.3491444587707519,0.0925080180168151,0.1125586628913879,0.0,0.0,-0.7284314158138336,-0.8442694199817642
-0.0245860107243061,1.273634672164917,-0.1231963783502578,-0.3659707009792328,0.0993779450654983,0.1374110579490661,0.0,0.0,-0.2627790933491851,0.9758174934076924
-0.025647735223174,1.2650706768035889,-0.1107679829001426,-0.380938172340393,0.1039469540119171,0.0913884490728378,0.0,0.0,0.2723159121297149,-0.7505238727289402
-0.0268704406917095,1.2567741870880127,-0.1282375156879425,-0.369161456823349,0.1098806634545326,0.1186848133802414,0.0,0.0,-0.3917114188594288,0.5192222968141356
-0.0280313491821289,1.2481271028518677,-0.1207488626241684,-0.3846596479415893,0.1145176365971565,0.0927477851510047,0.0,0.0,-0.0307116474800168,-0.702192070112341
-0.0292332656681537,1.2391048669815063,-0.1261984556913375,-0.401468276977539,0.1204902306199073,0.1194626316428184,0.0,0.0,0.3157541975875,-0.5991154439056208
-0.0304092410951852,1.230377197265625,-0.1249727383255958,-0.3885074555873871,0.1278422325849533,0.147053450345993,0.0,0.0,-0.7049714713428981,-0.8413006812311865
-0.0316306129097938,1.2212669849395752,-0.1309684664011001,-0.4056711792945862,0.1366455256938934,0.1760816276073455,0.0,0.0,0.7078830045474542,0.5129792031817316
-0.0330458655953407,1.212761402130127,-0.1488491147756576,-0.3787041902542114,0.1439483612775802,0.1460693776607513,0.0,0.0,0.6005151796434791,-0.6299966738982887
-0.0347470268607139,1.204845309257507,-0.1783058643341064,-0.3526516556739807,0.1521287113428115,0.163606971502304,0.0,0.0,0.3753241473292354,-0.6907187115332423
-0.0365797989070415,1.19745671749115,-0.1928236633539199,-0.3293858766555786,0.1616644859313964,0.190715417265892,0.0,0.0,0.2781855198591396,-0.8305492040428752
-0.0386848449707031,1.1906169652938845,-0.2215461283922195,-0.3052254319190979,0.172723963856697,0.2211893051862716,0.0,0.0,-0.2475726695739302,0.87121096347755
-0.0407280921936035,1.1834372282028198,-0.2139596939086914,-0.3202542960643768,0.1823869198560714,0.1932591497898101,0.0,0.0,-0.4177714956039442,0.862189994201358
-0.0426974296569824,1.1759105920791626,-0.2048825919628143,-0.3355151116847992,0.19036166369915,0.1594950407743454,0.0,0.0,-0.5632750433065361,-0.8830083271763471
-0.0447266586124897,1.168013095855713,-0.2125295400619506,-0.3522680401802063,0.2000294029712677,0.1933547407388687,0.0,0.0,-0.9773697257041932,0.9855407476425172
-0.0466815941035747,1.1597685813903809,-0.2033744603395462,-0.3675076365470886,0.2079627364873886,0.1586668193340301,0.0,0.0,-0.9839770793914796,0.9891308546066284
-0.0485660545527935,1.15119206905365,-0.194587230682373,-0.3820524215698242,0.2141628563404083,0.1240023821592331,0.0,0.0,-0.9171403646469116,0.9937139749526978
-0.0503756515681743,1.1422669887542725,-0.185331329703331,-0.3973080217838287,0.2185760885477066,0.0882645398378372,0.0,0.0,-0.9864810109138488,0.9945831298828124
-0.0521031394600868,1.1330078840255735,-0.1750738322734832,-0.4118636846542358,0.2209300696849823,0.0470793284475803,0.0,0.0,-0.9620089530944824,0.9884953498840332
-0.0537508018314838,1.1234198808670044,-0.1650595366954803,-0.4261758625507355,0.2212310880422592,0.0060201906599104,0.0,0.0,-0.8244618773460388,0.9963834285736084
-0.0553231239318847,1.1134891510009766,-0.1556360423564911,-0.4411233365535736,0.2196255028247833,-0.0321120433509349,0.0,0.0,-0.9900161027908324,0.9957280158996582
-0.0568150505423545,1.1032310724258425,-0.1455149352550506,-0.4553746283054352,0.2158961445093155,-0.0745869949460029,0.0,0.0,-0.9762274026870728,0.9897394180297852
-0.0582391731441021,1.0926448106765747,-0.1368803232908249,-0.4696970880031585,0.2103158682584762,-0.1116054430603981,0.0,0.0,-0.9854550957679749,0.9790372848510742
-0.059587575495243,1.0817235708236694,-0.1272866129875183,-0.4843396842479706,0.2026979923248291,-0.1523575335741043,0.0,0.0,-0.9790302515029908,0.9895951747894288
-0.0608791336417198,1.0704683065414429,-0.1199903264641761,-0.4990072250366211,0.19346883893013,-0.1845830082893371,0.0,0.0,-0.9698760509490968,0.938774585723877
-0.0620894432067871,1.058875560760498,-0.1096265316009521,-0.5137782096862793,0.1820069551467895,-0.2292375862598419,0.0,0.0,-0.9932007789611816,0.958958387374878
-0.0632205009460449,1.046936273574829,-0.0994918793439865,-0.529029369354248,0.1683618128299713,-0.2729031443595886,0.0,0.0,-0.9692977070808412,0.2419674396514892
-0.0643619522452354,1.0346367359161377,-0.1005509048700332,-0.5451562404632568,0.1547670066356659,-0.2718965113162994,0.0,0.0,-0.9688760042190552,0.8150637149810791
-0.0654552429914474,1.021982192993164,-0.0942495241761207,-0.560931921005249,0.1397137194871902,-0.301066130399704,0.0,0.0,-0.9687475562095642,-0.1991733908653259
-0.0665627494454383,1.0089681148529053,-0.0957064628601074,-0.57706218957901,0.1247245073318481,-0.2997842133045196,0.0,0.0,-0.9950013160705566,-0.6687400937080383
-0.067733384668827,0.9955819249153136,-0.103263221681118,-0.5938488841056824,0.1110080853104591,-0.2743281126022339,0.0,0.0,-0.9906341433525084,-0.0437971949577331
-0.0689222365617752,0.9818357229232788,-0.105142630636692,-0.6099761128425598,0.0973700881004333,-0.2727600932121277,0.0,0.0,-0.9852386713027954,0.7918336391448975
-0.070083238184452,0.9677440524101256,-0.1011836156249046,-0.6253966093063354,0.0825845822691917,-0.2957100868225097,0.0,0.0,-0.9435977339744568,-0.5487311482429504
-0.0713113769888877,0.9532853960990906,-0.109116792678833,-0.64190673828125,0.0690244138240814,-0.2712036073207855,0.0,0.0,-0.9885781407356262,-0.8406512141227722
-0.0726146697998046,0.938461184501648,-0.1180081367492675,-0.6583360433578491,0.0568402111530303,-0.24368417263031,0.0,0.0,-0.9921831488609314,0.0499862432479858
-0.0739447623491287,0.9232766032218932,-0.1207881197333335,-0.6744598150253296,0.0447645299136638,-0.2415136098861694,0.0,0.0,-0.9605028033256532,-0.9394931197166444
-0.0753644928336143,0.907721757888794,-0.1314143240451812,-0.691043496131897,0.0343358255922794,-0.2085743695497512,0.0,0.0,-0.7783609628677368,-0.9614580869674684
-0.0768914222717285,0.8918107748031616,-0.1441761404275894,-0.7069871425628662,0.0259322896599769,-0.1680705994367599,0.0,0.0,-0.9471228122711182,-0.9291489124298096
-0.0785070434212684,0.8755323886871338,-0.1546015739440918,-0.7233798503875732,0.0190516151487827,-0.1376134753227234,0.0,0.0,-0.7516577243804932,-0.990740180015564
-0.0802495032548904,0.8588849902153015,-0.1697240173816681,-0.7398357391357422,0.0145938284695148,-0.0891556665301323,0.0,0.0,-0.8213909268379211,-0.6421738266944885
-0.0820730179548263,0.8418803215026855,-0.1790837943553924,-0.755738377571106,0.0113608743995428,-0.0646588206291198,0.0,0.0,-0.9434652328491212,0.3402590751647949
-0.0839371681213378,0.8245130777359009,-0.183300569653511,-0.7718503475189209,0.0082833133637905,-0.0615513399243354,0.0,0.0,-0.4698599576950073,0.113793134689331
-0.0858443230390548,0.8067836165428162,-0.1877603679895401,-0.7879620790481567,0.005368931684643,-0.0582875423133373,0.0,0.0,-0.3667921423912048,0.6335943937301636
-0.087752915918827,0.7886977791786194,-0.1869689971208572,-0.8038082122802734,0.0015247464179992,-0.0768835693597793,0.0,0.0,-0.3777118921279907,0.6253281831741333
-0.0896554961800575,0.770244300365448,-0.1851756572723388,-0.8201547861099243,-0.0034899597521871,-0.100294254720211,0.0,0.0,0.8740003108978271,-0.0791307091712951
-0.0917189568281173,0.7526228427886963,-0.2009214460849762,-0.7832012176513672,-0.0088445488363504,-0.1070917025208473,0.0,0.0,-0.9006361961364746,0.4335792064666748
-0.0938346832990646,0.7346391677856445,-0.2063452005386352,-0.7993143796920776,-0.0140052987262606,-0.1032149940729141,0.0,0.0,-0.5158036351203918,0.9665284156799316
-0.0959255248308181,0.7162932753562927,-0.2020319998264312,-0.8154564499855042,-0.0209620743989944,-0.1391355693340301,0.0,0.0,-0.537331759929657,0.5686523914337158
-0.0980276092886924,0.6975799202919006,-0.202213168144226,-0.8318378925323486,-0.0288562104105949,-0.1578828990459442,0.0,0.0,0.5082931518554688,0.3090107440948486
-0.100286103785038,0.6793187260627747,-0.217546746134758,-0.8117903470993042,-0.0370573811233043,-0.1640233248472213,0.0,0.0,-0.3960705995559692,0.9502005577087402
-0.1025277152657508,0.6607027649879456,-0.2141061127185821,-0.8276552557945251,-0.0469919219613075,-0.198691040277481,0.0,0.0,0.3158886432647705,0.1326267719268798
-0.10475654900074,0.642069935798645,-0.2133615761995315,-0.8284574747085571,-0.0563943535089492,-0.1880486905574798,0.0,0.0,0.7470426559448242,-0.3680762052536011
-0.106971263885498,0.6244248747825623,-0.2123441696166992,-0.7845913767814636,-0.0654282495379448,-0.1806780993938446,0.0,0.0,0.0883293151855468,0.8030250072479248
-0.1092417687177658,0.6068825125694275,-0.2165100872516632,-0.7801552414894104,-0.0758556947112083,-0.208548754453659,0.0,0.0,-0.5026460886001587,0.5825426578521729
-0.1115427985787391,0.5889768600463867,-0.2188266515731811,-0.7964136004447937,-0.0870164632797241,-0.2232154309749603,0.0,0.0,0.673534631729126,0.7056798934936523
-0.1137708649039268,0.5716419219970703,-0.2104632556438446,-0.7712045907974243,-0.0992551669478416,-0.2447742968797683,0.0,0.0,-0.4991213083267212,-0.1087599992752075
-0.1160724610090255,0.5539460778236389,-0.2180840522050857,-0.7873257994651794,-0.1112324222922325,-0.2395450174808502,0.0,0.0,0.8045860528945923,-0.787433922290802
-0.1183538436889648,0.5368250608444214,-0.2181144505739212,-0.7617136240005493,-0.1211920455098152,-0.199192464351654,0.0,0.0,0.3030018806457519,-0.3299880027770996
-0.1207014098763465,0.5198063850402832,-0.2249009907245636,-0.7572135329246521,-0.1310019493103027,-0.1961984038352966,0.0,0.0,-0.5615906119346619,-0.0545910000801086
-0.1231280341744422,0.502426028251648,-0.2330828458070755,-0.7733294367790222,-0.1405338048934936,-0.1906369775533676,0.0,0.0,0.1796441078186035,0.2176151275634765
-0.1256235092878341,0.4850484728813171,-0.2401736974716186,-0.7732459306716919,-0.1498868018388748,-0.1870602369308471,0.0,0.0,0.3730967044830322,-0.2307828664779663
-0.1281097382307052,0.4682883024215698,-0.2395091503858566,-0.7458390593528748,-0.158983901143074,-0.1819415688514709,0.0,0.0,-0.4184914827346802,0.5330387353897095
-0.1306320130825042,0.4511601626873016,-0.2422205507755279,-0.7623521685600281,-0.1689939349889755,-0.2002008706331253,0.0,0.0,0.4028033018112182,0.7303352355957031
-0.1331695616245269,0.4347159266471863,-0.242445021867752,-0.7321826219558716,-0.180333524942398,-0.2267919033765792,0.0,0.0,0.3472857475280761,0.1384686231613159
-0.135849192738533,0.4183371365070343,-0.2564907670021057,-0.7293819785118103,-0.1918594390153885,-0.230518028140068,0.0,0.0,-0.4438300132751465,0.9604148864746094
-0.1385363638401031,0.4015824198722839,-0.2555329203605652,-0.7464187145233154,-0.2051311284303665,-0.2654340863227844,0.0,0.0,0.6560442447662354,0.1371289491653442
-0.1412947624921798,0.3853448927402496,-0.2625396847724914,-0.7235726714134216,-0.2185628861188888,-0.2686352729797363,0.0,0.0,0.6018631458282471,0.2132136821746826
-0.1440532654523849,0.3697258532047272,-0.2626469731330871,-0.6961901187896729,-0.2319270819425583,-0.2672843039035797,0.0,0.0,-0.0276278257369995,0.2921932935714721
-0.1469036042690277,0.353745698928833,-0.2721866965293884,-0.7123095393180847,-0.2449744641780853,-0.2609473168849945,0.0,0.0,0.8393452167510986,0.4980934858322143
-0.1495956480503082,0.3383112549781799,-0.2571580111980438,-0.6880315542221069,-0.2572527527809143,-0.2455657720565796,0.0,0.0,0.9487512111663818,-0.5617161393165588
-0.1522943526506424,0.3231008350849151,-0.2593575119972229,-0.6778973937034607,-0.2679921686649322,-0.2147883474826812,0.0,0.0,0.9352160692214966,-0.5730687975883484
-0.1548963487148285,0.3081782460212707,-0.2514781653881073,-0.6648489832878113,-0.2769250571727752,-0.1786575615406036,0.0,0.0,0.9749743938446044,-0.5446974039077759
-0.157270148396492,0.2938187718391418,-0.2306057661771774,-0.6395005583763123,-0.2838812470436096,-0.1391241252422332,0.0,0.0,0.9901912212371826,-0.4908652305603027
-0.1594471037387848,0.2797095775604248,-0.2120103389024734,-0.6281915307044983,-0.289729505777359,-0.1169655472040176,0.0,0.0,0.9971226453781128,-0.4896563291549682
-0.1614694595336914,0.2665454149246216,-0.1968571543693542,-0.5861541032791138,-0.2952758967876434,-0.1109276041388511,0.0,0.0,0.9887208938598632,-0.8406219482421875
-0.1633483916521072,0.2543452978134155,-0.1845978200435638,-0.5429022312164307,-0.2986865043640136,-0.0682118982076644,0.0,0.0,0.9935317039489746,-0.7616357803344727
-0.1649918556213379,0.2428926974534988,-0.163235604763031,-0.5092322826385498,-0.2998322546482086,-0.0229149311780929,0.0,0.0,0.9922599792480468,-0.5310255289077759
-0.1665380448102951,0.2315966039896011,-0.1552488505840301,-0.5019181966781616,-0.2991816699504852,0.0130114052444696,0.0,0.0,0.9984079599380492,0.0385600328445434
-0.1680648773908615,0.2208476662635803,-0.1533616483211517,-0.4775901436805725,-0.2984830737113952,0.013971796259284,0.0,0.0,0.9987664222717284,0.9010946750640868
-0.1692094802856445,0.211160808801651,-0.113911747932434,-0.4306406676769256,-0.2990466952323913,-0.0112725812941789,0.0,0.0,0.9934463500976562,-0.8318960666656494
-0.1703464537858963,0.2021366506814956,-0.115057922899723,-0.4007941484451294,-0.2976376116275787,0.0281811915338039,0.0,0.0,0.9963120222091676,0.8485989570617676
-0.1713961660861969,0.1941772103309631,-0.1046849116683006,-0.3538090586662292,-0.2979386150836944,-0.0060199154540896,0.0,0.0,0.9233802556991576,-0.4753090143203735
-0.1722143143415451,0.1869743019342422,-0.082316055893898,-0.3200268447399139,-0.297422707080841,0.0103184264153242,0.0,0.0,0.9545984268188475,-0.7443196177482605
-0.1729970872402191,0.1807415634393692,-0.080428659915924,-0.2765710055828094,-0.2951966226100921,0.0445217937231063,0.0,0.0,0.8196233510971069,-0.7995848059654236
-0.1737989485263824,0.1754051744937896,-0.0840805768966674,-0.2363911718130111,-0.2911868691444397,0.0801952034235,0.0,0.0,-0.4282770156860351,-0.51682049036026
-0.1747467964887619,0.1697218269109726,-0.1000781804323196,-0.2515449821949005,-0.2857338488101959,0.1090603321790695,0.0,0.0,0.2675230503082275,-0.140611469745636
-0.1757556945085525,0.1643770039081573,-0.1061344519257545,-0.2365344017744064,-0.2803425192832947,0.1078266948461532,0.0,0.0,0.662946343421936,-0.2685155868530273
-0.1768698692321777,0.1594913750886917,-0.1163265854120254,-0.2162035852670669,-0.2752987146377563,0.1008761152625083,0.0,0.0,0.7464972734451294,-0.3532969951629638
-0.1777753829956054,0.1552933305501938,-0.0963351875543594,-0.1855061501264572,-0.2693833708763122,0.1183066591620445,0.0,0.0,0.3785160779953003,-0.6648199558258057
-0.1787021607160568,0.1511699557304382,-0.1002112850546836,-0.181890070438385,-0.2616729736328125,0.1542077511548996,0.0,0.0,0.2072031497955322,-0.2074719071388244
-0.1794884651899337,0.1474503427743911,-0.0870008021593093,-0.1638416945934295,-0.2531178891658783,0.1711014360189438,0.0,0.0,0.4523359537124634,-0.1954221129417419
-0.1802295744419098,0.1443662196397781,-0.0827551707625389,-0.1356020867824554,-0.2443011552095413,0.1763342916965484,0.0,0.0,0.4854030609130859,0.0400041341781616
-0.1807664930820465,0.1419912129640579,-0.0632978156208992,-0.103987231850624,-0.2345363050699234,0.1952968537807464,0.0,0.0,0.4527075290679931,0.3041447401046753
-0.1812258660793304,0.1399741321802139,-0.05623035505414,-0.0880435332655906,-0.2241064757108688,0.2085965424776077,0.0,0.0,0.3222959041595459,-0.1431972980499267
-0.1816518753767013,0.1385525614023208,-0.0532391853630542,-0.0616002082824707,-0.213348850607872,0.2151525318622589,0.0,0.0,0.4056320190429687,-0.4395830631256103
-0.1819916665554046,0.1377350240945816,-0.0452340729534626,-0.0347509272396564,-0.2019983381032943,0.2270100861787796,0.0,0.0,-0.034146249294281,-0.6805134415626526
-0.1824836730957031,0.1365667134523391,-0.0619985051453113,-0.0502311773598194,-0.1891119480133056,0.2577279210090637,0.0,0.0,0.1004294157028198,-0.1727217435836792
-0.1830840110778808,0.1356668621301651,-0.0728531628847122,-0.0384110435843467,-0.1762494146823883,0.2572508752346039,0.0,0.0,-0.0999107956886291,0.8543078899383545
-0.1837381422519683,0.1343894749879837,-0.0772590562701225,-0.0554090142250061,-0.1643837243318557,0.2373140156269073,0.0,0.0,-0.1095239520072937,0.3087235689163208
-0.1844977438449859,0.1327507644891739,-0.0881882533431053,-0.0715266764163971,-0.152166798710823,0.244338721036911,0.0,0.0,0.1983994245529174,0.687969446182251
-0.1852294951677322,0.1313059478998184,-0.0844165757298469,-0.0631047934293747,-0.1409491747617721,0.224352553486824,0.0,0.0,-0.0257887840270996,0.7910929918289185
-0.1859916746616363,0.1294761747121811,-0.0858864858746528,-0.0804351791739463,-0.1313108056783676,0.1927672326564788,0.0,0.0,-0.1131554245948791,-0.0374200344085693
-0.1868584603071212,0.1272846311330795,-0.0967159792780876,-0.0965499430894851,-0.1213253214955329,0.1997099071741104,0.0,0.0,0.0730351209640502,-0.4782030582427978
-0.1877499520778656,0.12550850212574,-0.0996198505163192,-0.0781211555004119,-0.110919252038002,0.2081212252378463,0.0,0.0,-0.3072344064712524,0.3891563415527344
