x_pos,y_pos,x_vel,y_vel,angle,ang_vel,leg_1,leg_2,main_booster,lat_booster
-0.0015336989890784,1.403343915939331,-0.155157208442688,-0.3367141187191009,0.0015994039131328,0.0315376445651054,0.0,0.0,0.2887743273996668,0.5316648608087065
-0.0029903412796556,1.396047830581665,-0.1461140811443328,-0.3242665827274322,0.0020409380085766,0.0088322842493653,0.0,0.0,0.3994062663681732,0.8698085739753874
-0.0042572021484375,1.3889784812927246,-0.1253896951675415,-0.3141969442367553,0.0007633539498783,-0.0255540907382965,0.0,0.0,0.7827228342357206,0.7063935171130575
-0.0056123733520507,1.3824347257614136,-0.132311150431633,-0.290830135345459,-0.0024054665118455,-0.0633824616670608,0.0,0.0,-0.4916199318113226,-0.9845480530525934
-0.0070302011445164,1.375614047050476,-0.1399839520454406,-0.3031496405601501,-0.0041863741353154,-0.0356210134923458,0.0,0.0,-0.6233243300541671,-0.572999731286614
-0.008482551202178,1.3685122728347778,-0.1441897451877594,-0.3156346976757049,-0.005229125265032,-0.0208569597452878,0.0,0.0,-0.0173935799356941,0.8918696687205834
-0.009864998050034,1.361129641532898,-0.1353459656238556,-0.328127920627594,-0.0081005534157156,-0.0574341528117656,0.0,0.0,-0.8648106120784935,-0.9511535683142776
-0.011299324221909,1.3534703254699707,-0.1418341696262359,-0.3404311537742615,-0.0096749626100063,-0.031490508466959,0.0,0.0,-0.3435879523233633,-0.9838755745386848
-0.0128059387207031,1.345542073249817,-0.1509620249271392,-0.3523561358451843,-0.0093760676681995,0.0059780487790703,0.0,0.0,-0.4743769843276764,-0.9201501676859252
-0.0143763544037938,1.3373405933380127,-0.1590857505798339,-0.3645080029964447,-0.0073589663952589,0.0403460338711738,0.0,0.0,0.3438196535747921,-0.6938176950671955
-0.0159092899411916,1.329584002494812,-0.1567561775445938,-0.3447198271751404,-0.0039310506545007,0.0685644894838333,0.0,0.0,0.7038914500674771,0.9629717385910852
-0.0172694213688373,1.3223612308502195,-0.1375883519649505,-0.3210049271583557,-0.0023836514446884,0.0309509932994842,0.0,0.0,-0.4519084130903181,0.9046253507532772
-0.0185280796140432,1.3148623704910278,-0.1251349449157714,-0.3332845568656921,-0.0031019756570458,-0.0143676307052373,0.0,0.0,-0.5133867586530088,-0.9893413396220117
-0.0198389049619436,1.3070741891860962,-0.1320340484380722,-0.3461370468139648,-0.0021616874728351,0.0188072696328163,0.0,0.0,-0.1540652212107884,0.9255605513145686
-0.0210408214479684,1.2990148067474363,-0.1187771707773208,-0.358191430568695,-0.0035609574988484,-0.027988126501441,0.0,0.0,-0.7964153584084734,0.7103442834006575
-0.02215576171875,1.2906666994094849,-0.1083259209990501,-0.3710460364818573,-0.0066912937909364,-0.0626125484704971,0.0,0.0,-0.3345147889233619,0.6054325383706325
-0.0231893546879291,1.2820446491241455,-0.0986340343952179,-0.3832300305366516,-0.0113580906763672,-0.0933444127440452,0.0,0.0,0.3906779427525675,-0.7955608836843235
-0.0241229049861431,1.2736074924468994,-0.090379424393177,-0.3750126957893371,-0.0143118584528565,-0.0590805411338806,0.0,0.0,0.949310095831324,-0.798106816259473
-0.0249551776796579,1.266316533088684,-0.0820755288004875,-0.3240513801574707,-0.0154510177671909,-0.0227851141244173,0.0,0.0,0.451401607017508,-0.8383612971148562
-0.0258981697261333,1.2594938278198242,-0.0946715027093887,-0.303232729434967,-0.0150795159861445,0.0074307681061327,0.0,0.0,-0.2002271349485758,-0.793759792926696
-0.0268613807857036,1.2523972988128662,-0.0979170054197311,-0.3153772354125976,-0.0135058192536234,0.0314765945076942,0.0,0.0,0.9576823702712968,-0.5349481085061167
-0.0278145782649517,1.2458046674728394,-0.0979991033673286,-0.2929881513118744,-0.0108625749126076,0.0528697744011879,0.0,0.0,-0.4754798024127282,0.6885244117585005
-0.0286697391420602,1.2389293909072876,-0.0864761620759964,-0.3055613934993744,-0.0099157905206084,0.0189374703913927,0.0,0.0,0.9215891176576912,0.8270548876854154
-0.0293338783085346,1.2323068380355835,-0.0658633485436439,-0.2943390309810638,-0.0104548931121826,-0.0107830073684453,0.0,0.0,0.0829840009852376,-0.8467234055604691
-0.0301347728818655,1.2260414361953735,-0.0812005624175071,-0.2784453332424164,-0.0093701360747218,0.0216971170157194,0.0,0.0,0.2893058646871373,0.7116800503373779
-0.0309660919010639,1.2203034162521362,-0.0825918540358543,-0.2550325691699981,-0.009906843304634,-0.0107338167726993,0.0,0.0,-0.0956562113281871,-0.7927126560142577
-0.0318229682743549,1.2142906188964844,-0.0867113023996353,-0.2672230303287506,-0.0088960966095328,0.0202148798853158,0.0,0.0,-0.2448274479167427,-0.9530885815327934
-0.0327337272465229,1.2080087661743164,-0.0944239646196365,-0.2791769802570343,-0.0055947764776647,0.0660265162587165,0.0,0.0,-0.3194989342294652,0.6176213711492518
-0.0335674285888671,1.2014514207839966,-0.0857266411185264,-0.2914309203624725,-0.003269090084359,0.0465136468410491,0.0,0.0,0.4796566423914381,0.8834851618278012
-0.0343113914132118,1.1952651739120483,-0.0749303922057151,-0.274944007396698,-0.002737488830462,0.0106319393962621,0.0,0.0,0.8581382332591532,0.95317502517388
-0.0349133498966693,1.1902371644973757,-0.0588395223021507,-0.2234698832035064,-0.0040723267011344,-0.026696840301156,0.0,0.0,-0.9983174204826356,0.876880407333374
-0.0354135520756244,1.18492329120636,-0.0471220836043357,-0.2361799031496048,-0.0069335801526904,-0.0572250857949256,0.0,0.0,-0.9869102835655212,0.9312191009521484
-0.0358080863952636,1.1793373823165894,-0.0349319167435169,-0.2482906728982925,-0.0113991051912307,-0.0893102660775184,0.0,0.0,-0.6775714159011841,0.8213574886322021
-0.0361019149422645,1.173462986946106,-0.0233726724982261,-0.2611412703990936,-0.0173309091478586,-0.1186361312866211,0.0,0.0,-0.9937666058540344,-0.1422375440597534
-0.0363523475825786,1.1673085689544678,-0.0190389212220907,-0.2736061513423919,-0.0232675038278102,-0.1187319308519363,0.0,0.0,-0.9319592118263244,-0.275869071483612
-0.0365590080618858,1.160874366760254,-0.014648700132966,-0.2860710024833679,-0.0292084980756044,-0.1188198328018188,0.0,0.0,-0.966450333595276,0.2675313949584961
-0.0367213264107704,1.1541601419448853,-0.0102061638608574,-0.2985358834266662,-0.0351538099348545,-0.118906058371067,0.0,0.0,-0.9686246514320374,-0.090360403060913
-0.0368386283516883,1.1471660137176514,-0.0057152016088366,-0.311000794172287,-0.0411036685109138,-0.1189968585968017,0.0,0.0,-0.9959741234779358,-0.0534649491310119
-0.0369107238948345,1.1398921012878418,-0.0011794414604082,-0.3234657347202301,-0.0470585897564888,-0.1190984100103378,0.0,0.0,-0.9974856972694396,-0.685721218585968
-0.0369887351989746,1.1323426961898804,-0.0030815503560006,-0.3356884121894836,-0.0517189912497997,-0.0932080224156379,0.0,0.0,-0.9622069001197816,-0.2153416872024536
-0.0370205864310264,1.124513030052185,0.0015339825768023,-0.3481521308422088,-0.0563864931464195,-0.0933498591184616,0.0,0.0,-0.9885817766189576,-0.5938279032707214
-0.0370433814823627,1.116405010223389,0.0014994571683928,-0.3604994118213653,-0.060123223811388,-0.0747348144650459,0.0,0.0,-0.957393229007721,-0.2317367792129516
-0.0370194427669048,1.108016848564148,0.0061830608174204,-0.3729625642299652,-0.0638702884316444,-0.074941411614418,0.0,0.0,-0.981421172618866,-0.4360111951828003
-0.0369484908878803,1.0993486642837524,0.0108968056738376,-0.385425716638565,-0.0676297545433044,-0.0751894041895866,0.0,0.0,-0.6794071793556213,-0.4035735130310058
-0.0368302352726459,1.090399980545044,0.0156383607536554,-0.3978888690471649,-0.0714039951562881,-0.0754847154021263,0.0,0.0,-0.8781456351280212,-0.516697883605957
-0.0367024429142475,1.0811699628829956,0.0156535468995571,-0.4103602766990661,-0.0742466673254966,-0.0568535700440406,0.0,0.0,-0.5676612854003906,-0.8345592617988586
-0.0365862846374511,1.0716618299484253,0.0129951955750584,-0.4226571321487427,-0.0756174027919769,-0.0274144224822521,0.0,0.0,-0.8717794418334961,-0.6427924633026123
-0.0364821441471576,1.06188702583313,0.0102903265506029,-0.4344319999217987,-0.0754908472299575,0.0025309636257588,0.0,0.0,-0.8896877765655518,-0.2899861931800842
-0.0363298431038856,1.0518317222595217,0.0151232089847326,-0.4468940794467926,-0.0753914341330528,0.0019883243367075,0.0,0.0,-0.7051750421524048,-0.2282148599624633
-0.0361294746398925,1.0414962768554688,0.0199745930731296,-0.4593561887741089,-0.0753229334950447,0.0013699433766305,0.0,0.0,-0.5193139910697937,-0.4528313279151916
-0.0358806625008583,1.030880331993103,0.0248430017381906,-0.4718183279037475,-0.0752894133329391,0.0006705396226607,0.0,0.0,-0.962885320186615,-0.6204211115837097
-0.0356368049979209,1.0199941396713257,0.0230173282325267,-0.4837585687637329,-0.0739403739571571,0.0269806273281574,0.0,0.0,-0.9782348275184632,0.1820273399353027
-0.0353445038199424,1.0088276863098145,0.0279157646000385,-0.4962209165096283,-0.0726351737976074,0.0261039081960916,0.0,0.0,-0.9407976269721984,-0.0770596265792846
-0.0350035652518272,0.9973809123039246,0.0328273996710777,-0.5086832642555237,-0.071378618478775,0.025131206959486,0.0,0.0,-0.8851005434989929,-0.4034457802772522
-0.0346139892935752,0.9856538772583008,0.037751130759716,-0.5211455821990967,-0.070175714790821,0.0240579284727573,0.0,0.0,-0.9717459678649902,-0.4114055037498474
-0.0341754928231239,0.9736465811729432,0.0426859334111213,-0.5336080193519592,-0.069031722843647,0.0228796694427728,0.0,0.0,-0.9192867875099182,-0.0573753118515014
-0.0336883552372455,0.9613589644432068,0.0476308315992355,-0.546070396900177,-0.0679521039128303,0.0215922258794307,0.0,0.0,-0.969658136367798,-0.7109956741333008
-0.0331953987479209,0.9487981796264648,0.0471686460077762,-0.5581584572792053,-0.0658507123589515,0.0420279167592525,0.0,0.0,-0.912071943283081,-0.4096404314041137
-0.0326536186039447,0.9359571933746338,0.0521310493350029,-0.570621132850647,-0.0638251826167106,0.0405104905366897,0.0,0.0,-0.9736366271972656,-0.5839983820915222
-0.0321146957576274,0.9228461384773254,0.0506037101149559,-0.5825799703598022,-0.0605708509683609,0.065086618065834,0.0,0.0,-0.968427836894989,0.0956546068191528
-0.0315269455313682,0.9094548225402832,0.0555803477764129,-0.5950432419776917,-0.057404588907957,0.0633250698447227,0.0,0.0,-0.9354488253593444,-0.0686466097831726
-0.0308902747929096,0.8957831263542175,0.0605630278587341,-0.607506513595581,-0.0543327368795871,0.0614369139075279,0.0,0.0,-0.9310703873634338,0.2707886695861816
-0.0302046779543161,0.8818315267562866,0.0655510425567627,-0.6199696063995361,-0.0513617657124996,0.0594194643199443,0.0,0.0,-0.9769256114959716,-0.2604680061340332
-0.0294702537357807,0.8675996661186218,0.0705437064170837,-0.632432758808136,-0.0484982542693614,0.0572702698409557,0.0,0.0,-0.9378949403762816,-0.1869714856147766
-0.0286870002746582,0.8530875444412231,0.0755403786897659,-0.6448957920074463,-0.0457488894462585,0.0549872443079948,0.0,0.0,-0.925942063331604,-0.16366046667099
-0.0278550144284963,0.838295042514801,0.0805404037237167,-0.6573588252067566,-0.0431204549968242,0.052568532526493,0.0,0.0,-0.9640322327613832,-0.2244139909744262
-0.0269742961972951,0.8232224583625793,0.085543155670166,-0.6698217988014221,-0.0406198315322399,0.0500126183032989,0.0,0.0,-0.9062170386314392,-0.3845393061637878
-0.0260448455810546,0.8078696131706238,0.0905480235815048,-0.6822846531867981,-0.0382539257407188,0.0473182275891304,0.0,0.0,-0.9239563941955566,-0.620850145816803
-0.0251133926212787,0.7922464609146118,0.0896891355514526,-0.694278359413147,-0.0348491594195365,0.0680955424904823,0.0,0.0,-0.9680851697921752,-0.525596022605896
-0.024181555956602,0.7763434648513794,0.0886603593826294,-0.7067033648490906,-0.0303845182061195,0.0892930328845977,0.0,0.0,-0.8965550065040588,0.7068885564804077
-0.0231537818908691,0.7601609230041504,0.0996200665831565,-0.7191566824913025,-0.0272669233381748,0.0623519234359264,0.0,0.0,-0.957893431186676,0.2748817205429077
-0.0220775604248046,0.7436982989311218,0.104627214372158,-0.7316197752952576,-0.0243120398372411,0.0590974912047386,0.0,0.0,-0.9475945234298706,-0.4099822044372558
-0.0209530834108591,0.7269554734230042,0.1096333637833595,-0.7440827488899231,-0.0215268973261117,0.0557030364871025,0.0,0.0,-0.9207120537757874,-0.1019448041915893
-0.0197802539914846,0.7099325060844421,0.114637866616249,-0.7565456628799438,-0.0189184360206127,0.0521691814064979,0.0,0.0,-0.8690163493156433,-0.0389735698699951
-0.0185592658817768,0.6926290392875671,0.1196400076150894,-0.7690083980560303,-0.0164935979992151,0.0484967641532421,0.0,0.0,-0.9377248883247375,-0.3312061429023742
-0.0172903053462505,0.6750454902648926,0.1246391162276268,-0.7814710140228271,-0.0142592471092939,0.0446870103478431,0.0,0.0,-0.825000524520874,-0.7707000970840454
-0.0160375591367483,0.6571752429008484,0.1215739473700523,-0.794198751449585,-0.0106095448136329,0.0729941800236702,0.0,0.0,-0.7842209339141846,0.1559436321258545
-0.0147370342165231,0.6390247941017151,0.1265647262334823,-0.8066619634628296,-0.0071638170629739,0.0689143985509872,0.0,0.0,-0.6335656046867371,-0.056128442287445
-0.0133887287229299,0.6205943822860718,0.1315501630306244,-0.8191250562667847,-0.0039286953397095,0.0647024884819984,0.0,0.0,-0.3395428657531738,-0.3556923270225525
-0.0119929313659667,0.601883590221405,0.1365293562412262,-0.8315878510475159,-0.0009106596116907,0.0603607669472694,0.0,0.0,0.2679240703582763,-0.5970457792282104
-0.0107060428708791,0.5832678079605103,0.1248585730791091,-0.8273677825927734,0.0028668725863099,0.0755506008863449,0.0,0.0,0.2117089033126831,-0.6381568908691406
-0.0093911169096827,0.5652472376823425,0.1265654265880584,-0.8009326457977295,0.0077354931272566,0.0973720997571945,0.0,0.0,0.1721981763839721,-0.4637641906738281
-0.0081040384247899,0.5475581288337708,0.1243535131216049,-0.7862107753753662,0.0120357852429151,0.0860056653618812,0.0,0.0,-0.4213252067565918,-0.6826775074005127
-0.0068289758637547,0.5295906662940979,0.1219007968902587,-0.7986057996749878,0.0175753682851791,0.1107918173074722,0.0,0.0,0.5921564102172852,-0.086415410041809
-0.0055304528214037,0.5123536586761475,0.12455315887928,-0.7661641836166382,0.022814217954874,0.1047767996788024,0.0,0.0,-0.1574888825416565,0.1367323398590088
-0.0041851997375488,0.4948364496231079,0.1294732987880706,-0.7786280512809753,0.0278000812977552,0.0997172743082046,0.0,0.0,0.5783693790435791,-0.3485048413276672
-0.0027799606323242,0.4775303602218628,0.1356287449598312,-0.769258439540863,0.0326323471963405,0.0966453254222869,0.0,0.0,0.5198791027069092,-0.355470597743988
-0.0012553215492516,0.4605035483837127,0.147441416978836,-0.7568635940551758,0.0375958755612373,0.0992705598473548,0.0,0.0,0.7516837120056152,-0.4576393365859985
0.0004485130193643,0.4441128969192505,0.1648981869220733,-0.7286189198493958,0.043012510985136,0.1083327159285545,0.0,0.0,-0.4291740655899048,-0.4767017960548401
0.0021981238387525,0.4274421334266662,0.1697515696287155,-0.7410823702812195,0.0481559187173843,0.102868415415287,0.0,0.0,0.5243735313415527,-0.346144437789917
0.0039546014741063,0.4115292727947235,0.1707513332366943,-0.7074037194252014,0.0529974289238452,0.0968302711844444,0.0,0.0,0.1496131420135498,-0.6337043642997742
0.0057022096589207,0.3961295187473297,0.168837621808052,-0.6846522092819214,0.0588518232107162,0.1170878782868385,0.0,0.0,-0.3395595550537109,-0.4152397513389587
0.0074947355315089,0.3804496228694916,0.1736206114292144,-0.6971155405044556,0.0644201561808586,0.1113666072487831,0.0,0.0,0.687859058380127,-0.5948211550712585
0.009374332614243,0.3649887144565582,0.1811495721340179,-0.6874586343765259,0.0711624920368194,0.1348467767238617,0.0,0.0,0.7106714248657227,-0.378445029258728
0.0112065318971872,0.3500308692455292,0.1769531220197677,-0.6651051640510559,0.0773597210645675,0.1239445209503173,0.0,0.0,0.6052823066711426,-0.3914475440979004
0.0130997654050588,0.3360560536384582,0.1829815208911895,-0.6214438080787659,0.0836406648159027,0.1256190538406372,0.0,0.0,0.2094829082489013,-0.4504669308662414
0.0149846076965332,0.3224216997623443,0.182532712817192,-0.6063180565834045,0.0895429402589798,0.1180456727743148,0.0,0.0,0.3815915584564209,-0.2738333940505981
0.0167494770139455,0.3094868659973144,0.1713180392980575,-0.5752000212669373,0.0946613848209381,0.1023687273263931,0.0,0.0,-0.0574914216995239,-0.4689205884933471
0.0185568816959857,0.2962715923786163,0.1758835464715957,-0.587661623954773,0.0994748845696449,0.0962701961398124,0.0,0.0,0.5371317863464355,-0.6684811115264893
0.0202298164367675,0.283806562423706,0.1615213900804519,-0.5543952584266663,0.1052003502845764,0.1145092695951461,0.0,0.0,0.2348459959030151,-0.2845497727394104
0.0218238830566406,0.2718862295150757,0.1542472541332245,-0.5301647186279297,0.1103307604789733,0.1026085615158081,0.0,0.0,0.3299837112426758,-0.4082033634185791
0.0233948715031147,0.2602797150611877,0.1523404121398925,-0.5162036418914795,0.1150579378008842,0.0945434123277664,0.0,0.0,0.0708496570587158,-0.2580255270004272
0.0248862262815237,0.2489604353904724,0.1450446397066116,-0.5034007430076599,0.1191234067082405,0.0813093036413192,0.0,0.0,0.5250430107116699,-0.3029439449310303
0.026221752166748,0.2380557209253311,0.130421981215477,-0.4849072992801666,0.1222334206104278,0.0622002072632312,0.0,0.0,0.8270395994186401,-0.6917808651924133
0.027570342645049,0.2280706763267517,0.1303544789552688,-0.4441545903682709,0.1267079710960388,0.0894911736249923,0.0,0.0,0.5971107482910156,-0.6749687194824219
0.0289235115051269,0.2183321118354797,0.1296387314796447,-0.4333171844482422,0.1323561519384384,0.1129631996154785,0.0,0.0,0.6092973947525024,-0.4270997047424316
0.0303555484861135,0.209445983171463,0.137197270989418,-0.3954838812351227,0.1383439600467682,0.1197559610009193,0.0,0.0,0.4984111785888672,-0.8012455105781555
0.0316402427852153,0.2013138830661773,0.1212082356214523,-0.3621196746826172,0.1455809026956558,0.1447387933731079,0.0,0.0,0.5114550590515137,0.1364380121231079
0.0329755768179893,0.1940900832414627,0.1259871423244476,-0.3218137621879577,0.1531086862087249,0.1505555808544159,0.0,0.0,0.4735310077667236,-0.7667925357818604
0.034280776977539,0.187355950474739,0.1216306835412979,-0.3002296090126037,0.161979004740715,0.1774064749479293,0.0,0.0,0.4372272491455078,-0.0204132795333862
0.0354975685477256,0.1813917309045791,0.1131509989500045,-0.2660264372825622,0.1705097705125808,0.1706153005361557,0.0,0.0,0.0958985090255737,0.5974867343902588
0.0367470756173133,0.1759482026100158,0.1178718581795692,-0.2427640408277511,0.1775968819856643,0.1417424231767654,0.0,0.0,0.6511071920394897,0.0607912540435791
0.0380244255065918,0.1709220260381698,0.1206110715866088,-0.2242554277181625,0.184749886393547,0.1430603861808776,0.0,0.0,0.6807541847229004,-0.5480833053588867
0.0390407554805278,0.1664951592683792,0.0940706878900528,-0.1977092623710632,0.1923455446958542,0.151913046836853,0.0,0.0,0.4922049045562744,-0.4669746160507202
0.0398807525634765,0.1624391674995422,0.0772887542843818,-0.1811553388833999,0.1991037428379058,0.1351639777421951,0.0,0.0,0.3351783752441406,-0.7396247982978821
0.0405790321528911,0.1587489396333694,0.0619713440537452,-0.1650847494602203,0.207023024559021,0.1583856493234634,0.0,0.0,-0.1448837518692016,-0.3362408876419067
0.041300106793642,0.1547784209251403,0.0645511373877525,-0.1775467246770858,0.2146482467651367,0.1525045037269592,0.0,0.0,0.212425947189331,-0.0805901885032653
0.0420794486999511,0.1509447246789932,0.0702334493398666,-0.1715219169855117,0.2224269062280655,0.1555731743574142,0.0,0.0,-0.380735695362091,0.2113443613052368
0.0428772941231727,0.1468306332826614,0.0723975747823715,-0.1839835047721862,0.2299202531576156,0.1498670876026153,0.0,0.0,0.2783107757568359,-0.039792001247406
0.0435684211552143,0.1433542072772979,0.0619158074259758,-0.1556504070758819,0.2372229993343353,0.1460549533367157,0.0,0.0,-0.2935848236083984,-0.1944829821586609
0.0442737564444541,0.1395971924066543,0.06362284719944,-0.1681112647056579,0.2442509084939956,0.1405580341815948,0.0,0.0,-0.3965392708778381,-0.2266693115234375
