x_pos,y_pos,x_vel,y_vel,angle,ang_vel,leg_1,leg_2,main_booster,lat_booster
-0.0015192985301837,1.4029276371002195,-0.1533697247505188,-0.3552250564098358,0.0012907697819173,0.0254265516996383,0.0,0.0,-0.1150252688153359,0.6927885094929119
-0.0029759407043457,1.3942580223083496,-0.1449457705020904,-0.3853156864643097,0.0005851857131347,-0.0141121996566653,0.0,0.0,-0.5257930126108126,0.7122966778978891
-0.0043610571883618,1.3848859071731567,-0.1355799734592437,-0.4165402352809906,-0.0023127549793571,-0.0579644329845905,0.0,0.0,0.8672636994583454,0.6982377421356369
-0.005832958035171,1.375662088394165,-0.1420076489448547,-0.4099627733230591,-0.0074347518384456,-0.1024497300386428,0.0,0.0,0.2901326721020312,-0.9424574942429216
-0.007256603334099,1.366507649421692,-0.1386893689632415,-0.4068793356418609,-0.0110744591802358,-0.0728005319833755,0.0,0.0,0.4297032257466198,0.6207991540093984
-0.008495139889419,1.3573579788208008,-0.1187529936432838,-0.4067060351371765,-0.0161205846816301,-0.1009318605065345,0.0,0.0,-0.4427108545844342,-0.8840804477645744
-0.0098052024841308,1.347513198852539,-0.1272750794887542,-0.4375882744789123,-0.019812025129795,-0.0738355368375778,0.0,0.0,-0.8207838972938857,-0.8787954845850058
-0.0111673353239893,1.3369759321212769,-0.1333399713039398,-0.4683617651462555,-0.0226535703986883,-0.0568362548947334,0.0,0.0,-0.5904693659098508,-0.7466765507042505
-0.0125900264829397,1.3257521390914917,-0.140455350279808,-0.4988636374473572,-0.0244417861104011,-0.0357675552368164,0.0,0.0,0.8655397318805838,-0.607726611400716
-0.0140427593141794,1.315067172050476,-0.1442125886678695,-0.4749067425727844,-0.0254810042679309,-0.0207864139229059,0.0,0.0,0.8053085813927146,0.8392111863375892
-0.0153108593076467,1.304653525352478,-0.1238482594490051,-0.4628881216049194,-0.0284233316779136,-0.0588519461452961,0.0,0.0,0.5167098466006399,-0.9114649446554096
-0.0165662765502929,1.294268012046814,-0.124038279056549,-0.4616007506847381,-0.0299073308706283,-0.0296823382377624,0.0,0.0,0.5264977857479851,-0.6598175052042949
-0.0177257545292377,1.2841546535491943,-0.1156092658638954,-0.4494889378547668,-0.0302380081266164,-0.0066144340671598,0.0,0.0,0.1291810759143339,-0.9588473294884244
-0.0189013481140136,1.273700475692749,-0.118714764714241,-0.4646133780479431,-0.0290998052805662,0.0227661542594432,0.0,0.0,-0.6669492157924395,0.7474992329359582
-0.0200081821531057,1.2625539302825928,-0.1095529943704605,-0.4954223036766052,-0.030223224312067,-0.0224701892584562,0.0,0.0,0.53528781484088,-0.9106694658134656
-0.0210684780031442,1.2511123418807983,-0.1064379811286926,-0.508510947227478,-0.0298157073557376,0.0081510692834854,0.0,0.0,-0.5180200365371641,-0.8391278533929301
-0.0221846587955951,1.238985896110535,-0.112909123301506,-0.5389286279678345,-0.0285457018762826,0.0254024472087621,0.0,0.0,-0.0141033736440552,0.7797842366310217
-0.0232305526733398,1.226152777671814,-0.1035103946924209,-0.5703790783882141,-0.0296071544289588,-0.0212309751659631,0.0,0.0,0.3816847295140455,0.6412978152192624
-0.0241222381591796,1.2136294841766355,-0.0865734666585922,-0.5566484928131104,-0.0321763046085834,-0.0513875372707843,0.0,0.0,0.762112148374521,-0.9896930653772802
-0.0251754764467477,1.2013221979141235,-0.104156993329525,-0.5470170974731445,-0.0333233065903186,-0.0229424219578504,0.0,0.0,-0.5283933086700641,-0.8672171054738989
-0.0262891761958599,1.188327074050903,-0.1111810654401779,-0.5775646567344666,-0.0335109010338783,-0.0037523463834077,0.0,0.0,0.1551177878161425,0.6603651525406039
-0.0273383148014545,1.1750922203063965,-0.1030058413743972,-0.5882574319839478,-0.0353917330503463,-0.0376201495528221,0.0,0.0,0.6365969610586228,-0.8386380897402997
-0.028299044817686,1.161963939666748,-0.095714196562767,-0.5834890604019165,-0.035751849412918,-0.0072029209695756,0.0,0.0,0.3670572982191915,0.919635281685079
-0.029119586572051,1.1485083103179932,-0.0795106664299964,-0.5980890393257141,-0.0382661931216716,-0.0502914115786552,0.0,0.0,-0.5306022372136201,-0.7087242068121355
-0.0300170890986919,1.134361982345581,-0.088598296046257,-0.628757655620575,-0.0394088141620159,-0.022854434326291,0.0,0.0,-0.7847146015332402,0.6741358462199337
-0.0308828353881835,1.1194987297058103,-0.0840141251683235,-0.6606601476669312,-0.0419328436255455,-0.0504807606339454,0.0,0.0,-0.8987078374663244,0.9170260721057488
-0.0316837318241596,1.1039400100708008,-0.0753114521503448,-0.691636860370636,-0.0466493293642997,-0.0943297073245048,0.0,0.0,-0.1804599106750124,0.7203877691106124
-0.0324481949210166,1.0876895189285278,-0.0701861828565597,-0.7224550247192383,-0.0528364516794681,-0.123742401599884,0.0,0.0,-0.3905764957588686,-0.9955878627953952
-0.0333167091012001,1.0707584619522097,-0.0826822370290756,-0.7526442408561707,-0.0569530837237834,-0.0823328122496604,0.0,0.0,0.1814746580297348,0.942985840542071
-0.0341172218322753,1.053644776344299,-0.0736480057239532,-0.7608588933944702,-0.0632846355438232,-0.1266308724880218,0.0,0.0,0.4557318781125516,0.8158229555407506
-0.0347959510982036,1.0369534492492676,-0.0595310628414154,-0.7422143220901489,-0.0715371742844581,-0.1650506258010864,0.0,0.0,0.0308549466687952,0.9965514965606028
-0.0354439727962017,1.019967794418335,-0.054180484265089,-0.7554601430892944,-0.0820599868893623,-0.210456445813179,0.0,0.0,0.8041393069924632,0.7518978652338711
-0.0360672958195209,1.003607988357544,-0.0496741309762001,-0.7278522253036499,-0.0945975705981254,-0.25075164437294,0.0,0.0,0.8473986289028694,-0.7047954228553405
-0.0367937088012695,0.9871680736541748,-0.0609433278441429,-0.731442391872406,-0.1062117218971252,-0.2322829961776733,0.0,0.0,0.4527689417726344,0.936551807816425
-0.0373802185058593,0.9708440899848938,-0.0448000989854335,-0.7265525460243225,-0.1199662685394287,-0.2750911116600036,0.0,0.0,-0.6897874313388972,0.8836410813920672
-0.0379029288887977,0.9538202881813048,-0.036343727260828,-0.7579729557037354,-0.1358145326375961,-0.3169654309749603,0.0,0.0,-0.8739120874497399,0.6074510063451547
-0.038388442248106,0.936091125011444,-0.0312221348285675,-0.7896276712417603,-0.153095006942749,-0.3456094264984131,0.0,0.0,0.2631658868469146,0.7492237816875944
-0.0387012474238872,0.9185174107551576,-0.0122859366238117,-0.7831164002418518,-0.172091469168663,-0.3799293637275696,0.0,0.0,0.9897609532955088,0.9894370303934328
-0.0388208404183387,0.9017565250396729,0.0092697497457265,-0.7475211024284363,-0.1934037059545517,-0.4262450635433197,0.0,0.0,-0.0242034421722459,0.8272603533038401
-0.0388800613582134,0.884287416934967,0.0171895790845155,-0.7795915603637695,-0.2166941612958908,-0.4658097624778747,0.0,0.0,0.3156920161805807,0.6804848209608925
-0.0388510711491107,0.8670566082000732,0.0276012811809778,-0.7696289420127869,-0.2417300939559936,-0.5007184743881226,0.0,0.0,0.7984318733215332,-0.999397039413452
-0.0386222824454307,0.8499392867088318,0.045479129999876,-0.764653742313385,-0.2647617757320404,-0.4606335163116455,0.0,0.0,0.6999595165252686,-0.9954536557197572
-0.0382834449410438,0.832575261592865,0.0544541850686073,-0.7755990624427795,-0.2858602404594421,-0.4219695627689361,0.0,0.0,0.556908369064331,-0.9987370371818542
-0.0377829559147357,0.8152233362197876,0.0686315223574638,-0.7749563455581665,-0.3050338625907898,-0.3834725022315979,0.0,0.0,0.0511409044265747,-0.9980601668357848
-0.0373382568359375,0.7974857091903687,0.061172604560852,-0.7919384241104126,-0.3223595023155212,-0.3465128540992737,0.0,0.0,0.4736332893371582,-0.9956055879592896
-0.0368355736136436,0.7794846892356873,0.0650767683982849,-0.8034171462059021,-0.3378085792064667,-0.3089815378189087,0.0,0.0,-0.1461742520332336,-0.9981124401092528
-0.036404799669981,0.7608202695846558,0.0562273450195789,-0.8326736688613892,-0.3515974879264831,-0.2757780253887176,0.0,0.0,-0.2136328816413879,-0.9970715045928956
-0.0360624305903911,0.7415196299552917,0.0451606437563896,-0.8605195879936218,-0.3631063997745514,-0.2301791459321975,0.0,0.0,-0.4611936807632446,-0.9951490759849548
-0.0358103737235069,0.7215831875801086,0.0338640622794628,-0.8882845640182495,-0.3722585439682007,-0.1830431371927261,0.0,0.0,0.0006667375564575,-0.9940280318260192
-0.0355368629097938,0.7014304399490356,0.0341699048876762,-0.8974801898002625,-0.3794950842857361,-0.1447306424379348,0.0,0.0,-0.4216343760490417,-0.996721625328064
-0.0353209488093853,0.6806146502494812,0.0270438399165868,-0.9266088008880616,-0.3852967619895935,-0.1160335540771484,0.0,0.0,0.0714199542999267,-0.9942182898521424
-0.0350391380488872,0.659842312335968,0.0317859277129173,-0.9241958260536194,-0.3891356289386749,-0.076777383685112,0.0,0.0,0.0037730932235717,-0.998374044895172
-0.0346549972891807,0.6387421488761902,0.0402516387403011,-0.9382888674736024,-0.3910978734493255,-0.0392454974353313,0.0,0.0,0.351482629776001,-0.9946092963218688
-0.0340890884399414,0.6179018616676331,0.056581150740385,-0.9262359142303468,-0.391094446182251,6.848348130006343e-05,0.0,0.0,0.6275632381439209,-0.9787298440933228
-0.0332581512629985,0.5969768166542053,0.0811168104410171,-0.929455578327179,-0.3889876902103424,0.0421353355050087,0.0,0.0,0.9378256797790528,-0.9882723093032836
-0.0324041359126567,0.5762335062026978,0.0817769616842269,-0.92094224691391,-0.3851242363452911,0.0772690325975418,0.0,0.0,0.8841588497161865,-0.9984193444252014
-0.0311657898128032,0.5560427308082581,0.1181643158197403,-0.8958471417427063,-0.3790896236896515,0.1206917315721511,0.0,0.0,0.935356855392456,-0.9823396801948548
-0.0295357704162597,0.536203920841217,0.155204027891159,-0.87967449426651,-0.3708079159259796,0.1656339317560196,0.0,0.0,0.4288766384124756,-0.9954574704170228
-0.0276442524045705,0.516676664352417,0.1793784946203231,-0.8653794527053833,-0.3604785203933716,0.2065876722335815,0.0,0.0,0.8766657114028931,-0.8886702656745911
-0.0255851745605468,0.4978018403053283,0.1945627480745315,-0.8360809683799744,-0.3485339283943176,0.2388919293880462,0.0,0.0,0.8182921409606934,-0.9562506079673768
-0.0233941078186035,0.4788054227828979,0.2057980000972747,-0.8411201238632202,-0.3345873653888702,0.2789313495159149,0.0,0.0,0.767462968826294,-0.6850720643997192
-0.0211090091615915,0.4602653682231903,0.2140767127275467,-0.8207315802574158,-0.3195339441299438,0.3010685443878174,0.0,0.0,0.8815984725952148,-0.5090148448944092
-0.0185271259397268,0.4418178498744964,0.242273136973381,-0.8164645433425903,-0.3030342161655426,0.3299944698810577,0.0,0.0,0.8860926628112793,-0.7930589914321899
-0.0157581325620412,0.4236951172351837,0.2593024373054504,-0.8018901348114014,-0.2848798930644989,0.3630865216255188,0.0,0.0,0.7034971714019775,-0.1153612732887268
-0.012854385189712,0.4054714143276214,0.2726531028747558,-0.8065903782844543,-0.2667042016983032,0.3635137975215912,0.0,0.0,0.7859101295471191,-0.8946781754493713
-0.009981632232666,0.3875668346881866,0.2679573893547058,-0.7923592329025269,-0.2469728589057922,0.3946270942687988,0.0,0.0,0.6507539749145508,-0.7881346344947815
-0.0069224359467625,0.3702375590801239,0.2848694920539856,-0.7667945623397827,-0.225603848695755,0.4273803830146789,0.0,0.0,0.8643026351928711,-0.1614209413528442
-0.0036850930191576,0.3526688814163208,0.3021521270275116,-0.7776788473129272,-0.2038060426712036,0.4359563887119293,0.0,0.0,0.7973054647445679,-0.7537403106689453
-0.0002704620419535,0.3357909917831421,0.3182096183300018,-0.7470932006835938,-0.1804137676954269,0.4678456783294678,0.0,0.0,0.858769416809082,-0.701409101486206
0.0030883788131177,0.3190522789955139,0.3113808631896972,-0.7411466240882874,-0.1558772921562194,0.4907296299934387,0.0,0.0,0.8714146614074707,-0.5146003365516663
0.0064347265288233,0.3027986586093902,0.3093073666095733,-0.7199265956878662,-0.1306205689907074,0.5051347017288208,0.0,0.0,0.985322117805481,-0.6625354886054993
0.0098841665312647,0.2869730591773987,0.3180780410766601,-0.701228678226471,-0.1039195358753204,0.5340206623077393,0.0,0.0,0.996027946472168,-0.7314046025276184
0.0132345203310251,0.2720257937908172,0.3070181906223297,-0.6626091003417969,-0.0761446207761764,0.5554986000061035,0.0,0.0,0.9940898418426514,0.7293622493743896
0.0168110840022563,0.2574163973331451,0.3307812809944153,-0.6481553912162781,-0.0495664589107036,0.5315636992454529,0.0,0.0,0.9937092065811156,-0.6299850940704346
0.0203385353088378,0.2428290396928787,0.3246696293354034,-0.6476349234580994,-0.0218278355896472,0.5547727346420288,0.0,0.0,0.99924898147583,0.5211334228515625
0.0240246765315532,0.2281348258256912,0.3412636518478393,-0.652897298336029,0.0051653240807354,0.5398633480072021,0.0,0.0,0.9995434284210204,-0.146194040775299
0.0276931766420602,0.2133693099021911,0.3396577835083008,-0.6565573811531067,0.0320115238428115,0.5369245409965515,0.0,0.0,0.9999160766601562,0.8674640655517578
0.0314120277762413,0.19936603307724,0.3464528620243072,-0.6231037378311157,0.0571400187909603,0.5025697946548462,0.0,0.0,0.9997391700744628,0.6458474397659302
0.0352533347904682,0.1861722767353058,0.3597269654273987,-0.5874954462051392,0.081291988492012,0.4830394685268402,0.0,0.0,0.9991214275360109,0.1789182424545288
0.0389046669006347,0.1737512946128845,0.3413641154766083,-0.5535027384757996,0.104850061237812,0.4711615443229675,0.0,0.0,0.989487886428833,0.1863830089569091
0.0423857681453228,0.161211147904396,0.3250880837440491,-0.5591137409210205,0.127722293138504,0.4574447572231293,0.0,0.0,0.997278928756714,0.6332211494445801
0.0458732619881629,0.149427592754364,0.3269028067588806,-0.5257263779640198,0.1495031863451004,0.4356179237365722,0.0,0.0,0.999958038330078,-0.0664209723472595
0.0491641052067279,0.1379593908786773,0.307831197977066,-0.5119732022285461,0.1707519143819809,0.4249746203422546,0.0,0.0,0.9993243217468262,0.0853422880172729
0.052279282361269,0.1269958168268203,0.2906242609024048,-0.489811360836029,0.1917286366224289,0.4195343852043152,0.0,0.0,0.9968667030334472,0.501380443572998
0.0552872642874717,0.1165949180722236,0.280981957912445,-0.4649513959884643,0.2116841226816177,0.3991097807884216,0.0,0.0,0.9884474277496338,-0.4630403518676758
0.0582817085087299,0.1065623834729194,0.2791963815689087,-0.4489158689975738,0.2321580350399017,0.4094785153865814,0.0,0.0,0.9932703971862792,-0.2022235989570617
0.0612405762076377,0.096451312303543,0.2755835056304931,-0.4527119100093841,0.2527959048748016,0.4127574563026428,0.0,0.0,0.9856237173080444,-0.3135483264923095
0.0642187148332595,0.0863937437534332,0.2770933806896209,-0.4507120251655578,0.2739794254302978,0.4236702919006347,0.0,0.0,0.996347427368164,0.6031060218811035
0.0672715157270431,0.0767373666167259,0.285328209400177,-0.433041512966156,0.2944920659065246,0.4102526605129242,0.0,0.0,0.9979002475738524,0.0089074373245239
0.0703811645507812,0.0671477913856506,0.2903528809547424,-0.4305129051208496,0.3158101737499237,0.4263621270656585,0.0,0.0,0.97858989238739,0.5770711898803711
0.0732813850045204,0.0581715442240238,0.2706813216209411,-0.4032879471778869,0.3359498679637909,0.4027941823005676,0.0,0.0,0.9865050315856934,0.6638307571411133
0.0760021209716796,0.0498451814055442,0.2540493011474609,-0.374372273683548,0.3548486530780792,0.3779765665531158,0.0,0.0,0.9890789985656738,0.6747298240661621
0.0786798447370529,0.0420697070658206,0.2507982850074768,-0.3498775660991668,0.3727845251560211,0.3587174415588379,0.0,0.0,0.9371089935302734,0.6274993419647217
0.0814206153154373,0.0342257134616375,0.2580866813659668,-0.3528810739517212,0.3897817432880401,0.3399434685707092,0.0,1.0,0.999885320663452,0.99750018119812
0.0839957222342491,0.0277599431574344,0.2559757828712463,-0.2888637781143188,0.3875818252563476,-0.0495783537626266,0.0,1.0,0.9984591007232666,0.8731368780136108
0.0861825942993164,0.0229171607643365,0.2399999648332595,-0.2096133679151535,0.3649469017982483,-0.4527037143707275,0.0,1.0,0.9983659982681274,-0.8863035440444946
0.0879281014204025,0.0190633628517389,0.2116644382476806,-0.1623571813106537,0.325902372598648,-0.7810161709785461,0.0,1.0,0.9980802536010742,-0.988742470741272
0.0890587791800499,0.0162639953196048,0.1603999882936477,-0.1145532429218292,0.2768321633338928,-0.9815552830696106,0.0,1.0,0.9856284856796264,-0.9606935381889344
0.0899780243635177,0.0141198011115193,0.1400723159313202,-0.0869655162096023,0.2276146113872528,-0.9844824075698853,0.0,1.0,0.9793667793273926,-0.9327107667922974
0.090577982366085,0.0125460242852568,0.1054592579603195,-0.0635968744754791,0.1817291378974914,-0.917746901512146,0.0,1.0,0.888120174407959,-0.8411976099014282
0.0908531174063682,0.011524710804224,0.0718461796641349,-0.0405807979404926,0.1373608261346817,-0.8874009847640991,0.0,0.0,-0.993646204471588,-0.9193295240402222
0.0910903960466384,0.0098135331645607,0.0664037019014358,-0.072678804397583,0.0949211120605468,-0.8488280177116394,0.0,0.0,-0.229239821434021,-0.9280601739883424
0.0912789329886436,0.0074174259789288,0.0594485402107238,-0.1044191941618919,0.054698172956705,-0.8044906854629517,0.0,0.0,0.5571111440658569,-0.997607946395874
0.0912400260567665,0.005062982905656,0.0349491164088249,-0.1036816835403442,0.0163071807473897,-0.7678505182266235,0.0,0.0,0.733641505241394,-0.9858450293540956
0.0912766456604003,0.003168556606397,0.0403442755341529,-0.0842025727033615,-0.0199342463165521,-0.7248573899269104,0.0,0.0,0.7065610885620117,-0.9723139405250548
0.091356560587883,0.0011574721429497,0.0426133796572685,-0.0902044922113418,-0.0541412457823753,-0.6841670274734497,1.0,0.0,0.9051110744476318,-0.8164100646972656
0.0916608795523643,0.0002979850687552,0.0502236559987068,-0.0394021682441234,-0.0721247121691703,-0.3576072454452514,1.0,0.0,-0.0217739939689636,-0.7905252575874329
0.0920311957597732,-0.0005976938991807,0.0349950045347213,-0.0397256091237068,-0.0700500532984733,0.0415707789361476,1.0,0.0,-0.29621022939682,-0.5471519231796265
0.0924684554338455,-0.0016058826586231,0.0245525557547807,-0.0440256930887699,-0.0510314553976058,0.3804406523704529,1.0,0.0,-0.8581626415252686,0.0279263257980346
0.0929674133658409,-0.0029347206000238,0.0202368684113025,-0.0583141185343265,-0.0216617677360773,0.5874797105789185,1.0,0.0,-0.5271592140197754,-0.0712072253227233
0.0934895500540733,-0.0047899149358272,0.0180995445698499,-0.0823072418570518,0.0120888901874423,0.675109326839447,1.0,1.0,0.7235167026519775,-0.2901530265808105
0.0938770323991775,-0.0056211855262517,0.0214218664914369,-0.0372955910861492,0.0286788009107112,0.331144243478775,1.0,1.0,-0.3958939909934997,0.8809492588043213
0.0941954627633094,-0.0063948417082428,0.0321567878127098,-0.0343932397663593,0.0283783357590436,-0.0059966570697724,1.0,1.0,-0.0465102791786193,-0.0599520802497863
0.0944469422101974,-0.0068508889526128,0.0320093519985675,-0.0201574265956878,0.0216424595564603,-0.1346647888422012,1.0,1.0,-0.6157069802284241,-0.5170372724533081
0.0945616737008094,-0.006865837611258,0.017892450094223,-0.0005808921414427,0.0153641123324632,-0.1254943907260894,1.0,1.0,-0.8565924167633057,-0.6836618185043335
0.0946145057678222,-0.0065482282079756,0.0095990588888525,0.0141637055203318,0.0110710328444838,-0.0858965069055557,1.0,1.0,-0.7785174250602722,-0.4063231945037842
0.0946840271353721,-0.0059324288740754,0.0098966592922806,0.0273876842111349,0.0081610092893242,-0.058199793100357,1.0,1.0,-0.7963636517524719,-0.368254542350769
0.0947805419564247,-0.0050380732864141,0.0103385206311941,0.0397511012852191,0.0074854157865047,-0.0135113047435879,1.0,1.0,-0.8207637071609497,-0.2842233180999756
0.0948930755257606,-0.0039239907637238,0.01059708930552,0.0495105497539043,0.0081306025385856,0.0129013713449239,1.0,1.0,-0.9200847148895264,-0.092099905014038
0.0950076133012771,-0.002674760762602,0.0106260394677519,0.0555169768631458,0.0089487629011273,0.0163604002445936,1.0,1.0,-0.936068832874298,-0.1595385074615478
0.095023825764656,-0.0017055534990504,0.0089757498353719,0.0431025810539722,0.0016980186337605,-0.1450129300355911,1.0,1.0,-0.8408418297767639,-0.6195738315582275
