x_pos,y_pos,x_vel,y_vel,angle,ang_vel,leg_1,leg_2,main_booster,lat_booster
-0.0014885902637615,1.403040647506714,-0.1508210748434066,-0.3502031564712524,0.0017631010850891,0.0347789004445076,0.0,0.0,-0.2725719213485718,0.528727650642395
-0.0028989792335778,1.3945978879928589,-0.1416476517915725,-0.3752357065677643,0.002362129278481,0.0119822463020682,0.0,0.0,0.0012829303741455,0.3294929265975952
-0.0041979788802564,1.3859381675720217,-0.1309205442667007,-0.3848764300346374,0.0033671180717647,0.020101860165596,0.0,0.0,-0.2981927394866943,0.4509111642837524
-0.0054682730697095,1.3766944408416748,-0.1280546486377716,-0.4108355343341827,0.0043905889615416,0.0204715318977832,0.0,0.0,0.0227607488632202,0.3804895877838135
-0.006633567623794,1.367473006248474,-0.1179800629615783,-0.4098518490791321,0.0058170910924673,0.0285326540470123,0.0,0.0,-0.4756141901016235,0.7563364505767822
-0.0077012060210108,1.3576668500900269,-0.1063757389783859,-0.4358223378658294,0.0054284236393868,-0.0077739902772009,0.0,0.0,0.2516659498214721,0.3567445278167724
-0.0087657924741506,1.347933053970337,-0.1059985309839248,-0.4326118528842926,0.0049831178039312,-0.0089069744572043,0.0,0.0,-0.4223248958587646,0.6726548671722412
-0.00974359549582,1.3376176357269287,-0.0956702381372451,-0.4584550857543945,0.0029015338514,-0.0416354350745677,0.0,0.0,-0.2162280082702636,0.6334450244903564
-0.010653686709702,1.326725721359253,-0.0876880958676338,-0.4840874671936035,-0.0003814281080849,-0.0656657069921493,0.0,0.0,-0.6461352705955505,-0.503381073474884
-0.0115865711122751,1.3152530193328855,-0.091005653142929,-0.5098997950553894,-0.0026365490630269,-0.0451062619686126,0.0,0.0,0.27220618724823,-0.8182902336120605
-0.0124919889494776,1.3038835525512695,-0.0900215357542038,-0.5053083896636963,-0.0031573087908327,-0.0104160066694021,0.0,0.0,0.5044751167297363,0.4439413547515869
-0.0133183477446436,1.2926514148712158,-0.0824456885457038,-0.4992108047008514,-0.0033421178814023,-0.0036964602768421,0.0,0.0,-0.6444093585014343,0.3585749864578247
-0.0141331674531102,1.2808350324630735,-0.0813285559415817,-0.5251664519309998,-0.0034936943557113,-0.0030317748896777,0.0,0.0,-0.5546248555183411,-0.2190074324607849
-0.0149381635710597,1.268435001373291,-0.0803778693079948,-0.5511177182197571,-0.0036107748746871,-0.0023415270261466,0.0,0.0,-0.6710840463638306,-0.4401076436042785
-0.0157347675412893,1.255450963973999,-0.0795869305729866,-0.5770688652992249,-0.0036921605933457,-0.0016279391711577,0.0,0.0,-0.2391067743301391,-0.5249989628791809
-0.0165585521608591,1.2418769598007202,-0.0832025930285453,-0.6032850742340088,-0.0028845390770584,0.0161540582776069,0.0,0.0,-0.3453518152236938,-0.3015405535697937
-0.0173771865665912,1.2277190685272217,-0.0827125161886215,-0.6292377710342407,-0.0020393335726112,0.0169059224426746,0.0,0.0,0.3327333927154541,-0.6086216568946838
-0.0181129463016986,1.2134251594543457,-0.0759562700986862,-0.6352795958518982,0.0003063438634853,0.0469175204634666,0.0,0.0,-0.4515119791030884,-0.2356081008911132
-0.0188462249934673,1.19854736328125,-0.0757393389940261,-0.6612365245819092,0.0026910391170531,0.0476981215178966,0.0,0.0,0.188356876373291,-0.2748724818229675
-0.0196372028440237,1.183696150779724,-0.0812808275222778,-0.6600581407546997,0.0048458441160619,0.0430998131632804,0.0,0.0,-0.2551013231277466,0.222333550453186
-0.0204279907047748,1.168260931968689,-0.0813004896044731,-0.686015784740448,0.0070426519960165,0.0439401865005493,0.0,0.0,0.4397814273834228,-0.1635001897811889
-0.021212100982666,1.1528204679489136,-0.0807250514626503,-0.6862568259239197,0.0093294344842433,0.0457395389676094,0.0,0.0,-0.7091299295425415,-0.2271057367324829
-0.0219979286193847,1.136795997619629,-0.0809511691331863,-0.7122141718864441,0.0116594405844807,0.0466046668589115,0.0,0.0,-0.1677843928337097,0.0411208868026733
-0.0227866172790527,1.1201876401901243,-0.0812683850526809,-0.7381669878959656,0.0140334004536271,0.0474835000932216,0.0,0.0,0.5270549058914185,0.6601881980895996
-0.0236785896122455,1.1038875579833984,-0.0900081098079681,-0.7244555950164795,0.0148399993777275,0.0161336008459329,0.0,0.0,-0.0351777076721191,0.2443206310272216
-0.0245744697749614,1.086982011795044,-0.0904561951756477,-0.7513658404350281,0.0156923867762088,0.0170477218925952,0.0,0.0,0.8005794286727905,-0.612555205821991
-0.0255317687988281,1.0706828832626345,-0.0978805795311927,-0.7244309186935425,0.0178197845816612,0.0425478518009185,0.0,0.0,0.1588729619979858,0.4306604862213135
-0.026596451178193,1.0546655654907229,-0.1082381829619407,-0.7118991613388062,0.0195689816027879,0.0349836871027946,0.0,0.0,0.0328507423400878,0.3204290866851806
-0.0277581214904785,1.0387883186340332,-0.1176007613539695,-0.7056748270988464,0.0209867469966411,0.0283553712069988,0.0,0.0,-0.9083271026611328,0.2448444366455078
-0.0289260856807231,1.022327184677124,-0.118284523487091,-0.7316259145736694,0.0224505234509706,0.0292754806578159,0.0,0.0,-0.2194768190383911,0.3404816389083862
-0.0301008224487304,1.0052821636199951,-0.1190016418695449,-0.7575770020484924,0.0239602141082286,0.0301937703043222,0.0,0.0,-0.1681693792343139,0.3484647274017334
-0.0312825217843055,0.9876534342765808,-0.1197439283132553,-0.7835281491279602,0.0255156103521585,0.0311079118400812,0.0,0.0,0.8036112785339355,0.1569430828094482
-0.0325837135314941,0.9707496762275696,-0.1313217729330063,-0.75130295753479,0.0266993772238492,0.0236753188073635,0.0,0.0,-0.5295799374580383,0.7637168169021606
-0.0338380821049213,0.9532570838928224,-0.1252993643283844,-0.7774415612220764,0.0265705827623605,-0.0025758256670087,0.0,0.0,0.9036153554916382,0.5049154758453369
-0.0350590720772743,0.9362677931785583,-0.1210548877716064,-0.7550599575042725,0.0255413968116045,-0.0205839090049266,0.0,0.0,-0.5457459688186646,-0.4861786365509033
-0.03628721088171,0.918694794178009,-0.121816799044609,-0.7810109853744507,0.0245559941977262,-0.0197080038487911,0.0,0.0,0.5789334774017334,-0.2531002759933471
-0.0375580787658691,0.9011893272399902,-0.1260203719139099,-0.7780010104179382,0.0234975833445787,-0.0211680680513381,0.0,0.0,0.343045711517334,0.2347153425216674
-0.0388194099068641,0.8840290904045105,-0.1252475678920745,-0.7626644968986511,0.0226244628429412,-0.017462532967329,0.0,0.0,0.4641261100769043,-0.3871576189994812
-0.0401389114558696,0.8674036860466003,-0.1309508085250854,-0.7388972640037537,0.0216311439871788,-0.0198662467300891,0.0,0.0,-0.8448856472969055,-0.4936745166778564
-0.0414647087454795,0.8501941561698914,-0.1316058933734893,-0.7648482918739319,0.0206779036670923,-0.0190650336444377,0.0,0.0,-0.7806687951087952,-0.2806593179702759
-0.0427961349487304,0.832400918006897,-0.132215216755867,-0.7907992005348206,0.0197634901851415,-0.0182883199304342,0.0,0.0,-0.4742846488952636,0.783890962600708
-0.0440579429268837,0.8140242695808411,-0.1233917623758316,-0.8167054057121277,0.0170082002878189,-0.0551057755947113,0.0,0.0,0.3654487133026123,-0.4757437705993652
-0.0452485084533691,0.7954546809196472,-0.1166750192642211,-0.8252929449081421,0.0146603928878903,-0.0469560623168945,0.0,0.0,0.832804799079895,0.2936005592346191
-0.0463413223624229,0.7771831750869751,-0.1074637770652771,-0.812050461769104,0.0128565346822142,-0.0360770374536514,0.0,0.0,0.5362412929534912,-0.4570006728172302
-0.0474787726998329,0.7587378621101379,-0.1117706075310707,-0.8197782635688782,0.0109106265008449,-0.0389181748032569,0.0,0.0,0.7193353176116943,0.5460596084594727
-0.048528004437685,0.7402262091636658,-0.1020250469446182,-0.8227196931838989,0.0080483024939894,-0.0572462901473045,0.0,0.0,0.5100879669189453,-0.2914364337921142
-0.0495264045894146,0.7217441201210022,-0.0972224399447441,-0.8214126229286194,0.0054729683324694,-0.0515069775283336,0.0,0.0,0.9236912727355956,0.1614348888397216
-0.0506614670157432,0.7041335105895996,-0.110314168035984,-0.7826888561248779,0.0023191915825009,-0.0630753710865974,0.0,0.0,0.625077486038208,0.2245280742645263
-0.0519284233450889,0.6871015429496765,-0.1229194402694702,-0.756977379322052,-0.0014134608209133,-0.0746529474854469,0.0,0.0,0.3355449438095093,-0.4006426930427551
-0.0532105453312397,0.6701026558876038,-0.1243734359741211,-0.7555166482925415,-0.0052026873454451,-0.0757843777537345,0.0,0.0,0.7278299331665039,0.4089335203170776
-0.0543369278311729,0.6534146070480347,-0.1095327511429786,-0.7417045831680298,-0.0082777831703424,-0.0615020580589771,0.0,0.0,0.7910525798797607,0.3927431106567383
-0.0555155761539936,0.6373414993286133,-0.1144709736108779,-0.7143824696540833,-0.011623952537775,-0.0669233202934265,0.0,0.0,-0.2151224613189697,0.1705515384674072
-0.0566893592476844,0.6206846237182617,-0.1140002980828285,-0.7403342723846436,-0.014955005608499,-0.0666212439537048,0.0,0.0,0.9258420467376708,0.6025164127349854
-0.0577912330627441,0.6048431396484375,-0.1056331247091293,-0.7041199207305908,-0.0194608028978109,-0.0901155471801757,0.0,0.0,-0.6086268424987793,0.2911962270736694
-0.0588858611881732,0.5884179472923279,-0.1049011796712875,-0.7300723791122437,-0.0239569880068302,-0.0899237692356109,0.0,0.0,0.1864579916000366,0.5781134366989136
-0.0599936470389366,0.5719152092933655,-0.1049343571066856,-0.7335596084594727,-0.0297315288335084,-0.1154908165335655,0.0,0.0,0.7748790979385376,-0.2051271200180053
-0.0609648711979389,0.556108295917511,-0.0917524844408035,-0.7026491761207581,-0.035035204142332,-0.1060734763741493,0.0,0.0,0.527868390083313,0.3081955909729004
-0.0617751106619834,0.540645956993103,-0.0762519389390945,-0.6873310804367065,-0.0397479273378849,-0.0942545980215072,0.0,0.0,0.3654460906982422,0.2294058799743652
-0.0624835006892681,0.5256162881851196,-0.0663586035370826,-0.6681113839149475,-0.0441776104271411,-0.0885936170816421,0.0,0.0,-0.6526281237602234,-0.3729792237281799
-0.0631773918867111,0.5100029110908508,-0.0649006143212318,-0.6940638422966003,-0.0486131459474563,-0.0887106209993362,0.0,0.0,0.9352970123291016,0.5996403694152832
-0.0637229904532432,0.4944426417350769,-0.0490330047905445,-0.691757321357727,-0.0540760084986686,-0.1092570275068283,0.0,0.0,0.6554131507873535,-0.7026989459991455
-0.0643779784440994,0.4793684780597687,-0.0611380450427532,-0.670124351978302,-0.0583843253552913,-0.0861664488911628,0.0,0.0,0.5556545257568359,-0.5597843527793884
-0.0649044066667556,0.4644313752651214,-0.049714408814907,-0.6639894247055054,-0.0612854212522506,-0.0580219738185405,0.0,0.0,0.9593493938446044,0.3107722997665405
-0.0653377547860145,0.4499962329864502,-0.0405085049569606,-0.6416792273521423,-0.0640768110752105,-0.0558279976248741,0.0,0.0,-0.1274235248565673,0.2142226696014404
-0.0657486915588378,0.4349773526191711,-0.0382529087364673,-0.6676309108734131,-0.0668913051486015,-0.0562898516654968,0.0,0.0,0.9692749977111816,-0.6019637584686279
-0.0662932395935058,0.4204499423503876,-0.0523429587483406,-0.6457597613334656,-0.0689702108502388,-0.0415783897042274,0.0,0.0,0.901494026184082,0.1814472675323486
-0.0667195320129394,0.4068100154399872,-0.0406174249947071,-0.6063107252120972,-0.0709652081131935,-0.0398997217416763,0.0,0.0,0.5712466239929199,0.3566269874572754
-0.0670211762189865,0.3929941952228546,-0.0284721106290817,-0.6141186952590942,-0.0726329907774925,-0.0333559513092041,0.0,0.0,0.9394652843475342,-0.3200165629386902
-0.0671895965933799,0.3800903558731079,-0.0152642177417874,-0.573582649230957,-0.0741916000843048,-0.031172240152955,0.0,0.0,0.7866477966308594,-0.5926503539085388
-0.0674453750252723,0.3673831224441528,-0.0248595103621482,-0.5648004412651062,-0.0748982802033424,-0.0141336843371391,0.0,0.0,0.4217376708984375,-0.6536357402801514
-0.0677635222673416,0.354981929063797,-0.0322087407112121,-0.551144540309906,-0.0745145007967948,0.0076758391223847,0.0,0.0,0.2061269283294677,0.7496213912963867
-0.0679296478629112,0.3426684439182281,-0.0154726700857281,-0.5473222732543945,-0.0756440386176109,-0.0225906632840633,0.0,0.0,0.7050700187683105,-0.0222617387771606
-0.0681272521615028,0.3310898840427398,-0.0179486665874719,-0.5146953463554382,-0.0774406194686889,-0.0359315797686576,0.0,0.0,-0.5242967009544373,-0.0319117307662963
-0.0682881325483322,0.318927526473999,-0.0142185259610414,-0.5406469106674194,-0.0792927518486976,-0.0370427593588829,0.0,0.0,0.6864848136901855,-0.8383284211158752
-0.0684836357831955,0.3067842125892639,-0.0192340891808271,-0.5397201180458069,-0.0796017870306968,-0.0061806924641132,0.0,0.0,0.5466768741607666,-0.1380638480186462
-0.0685516372323036,0.2945044934749603,-0.0067205764353275,-0.5457695722579956,-0.0796788409352302,-0.0015411931090056,0.0,0.0,0.8320351839065552,-0.1612486243247985
-0.0685832053422927,0.2822079658508301,-0.0028556420002132,-0.5465307235717773,-0.0799838826060295,-0.0061007649637758,0.0,0.0,0.8795664310455322,-0.6373781561851501
-0.0685601234436035,0.270689845085144,0.0014343105722218,-0.511870265007019,-0.0791133418679237,0.0174108166247606,0.0,0.0,0.3900800943374634,-0.0643541812896728
-0.0683713927865028,0.2596062421798706,0.0177541282027959,-0.4925446212291717,-0.0780037194490432,0.0221923645585775,0.0,0.0,0.5447252988815308,-0.7093002796173096
-0.0682479888200759,0.2491088509559631,0.0100858798250556,-0.4664352834224701,-0.0757771804928779,0.0445312038064003,0.0,0.0,0.0007500648498535,-0.2148351073265075
-0.0681406036019325,0.2383367419242859,0.0089341225102543,-0.4786728620529175,-0.0739918425679206,0.0357065685093402,0.0,0.0,0.1402150392532348,0.1328864097595214
-0.0679167732596397,0.2277937978506088,0.0205285865813493,-0.4684842526912689,-0.0721594095230102,0.0366487465798854,0.0,0.0,0.2512316703796386,-0.7471373081207275
-0.0677573233842849,0.217334896326065,0.012777104973793,-0.4646890461444855,-0.0690285116434097,0.0626180693507194,0.0,0.0,0.1673907041549682,0.0695606470108032
-0.067552663385868,0.2070130407810211,0.0175709370523691,-0.4586180746555328,-0.0661641284823417,0.0572875030338764,0.0,0.0,-0.050373375415802,-0.2483292818069458
-0.0672959312796592,0.1961074620485305,0.0228655710816383,-0.4845700860023498,-0.0633897706866264,0.0554870553314685,0.0,0.0,0.7740895748138428,0.3308560848236084
-0.0668530464172363,0.1855445653200149,0.0411446578800678,-0.4693328142166137,-0.0602748803794384,0.0622975602746009,0.0,0.0,0.4551260471343994,-0.2566637992858886
-0.0663167983293533,0.1748474985361099,0.0504733622074127,-0.4753023684024811,-0.0571585483849048,0.0623269379138946,0.0,0.0,0.8039089441299438,-0.0922764539718627
-0.0655989646911621,0.1642164289951324,0.068258099257946,-0.4723611772060394,-0.0536711364984512,0.0697482675313949,0.0,0.0,0.8448201417922974,-0.6659355759620667
-0.064666174352169,0.1539467126131057,0.088062860071659,-0.4562542736530304,-0.0485221445560455,0.1029800176620483,0.0,0.0,0.7657030820846558,-0.8506592512130737
-0.0635588616132736,0.1437116265296936,0.1036207526922226,-0.4546798169612884,-0.0414862297475338,0.1407184451818466,0.0,0.0,0.8818008899688721,-0.9442979097366332
-0.0624393448233604,0.1341879963874817,0.1030448675155639,-0.4230537414550781,-0.0326869003474712,0.1759862303733825,0.0,0.0,0.725292444229126,-0.9209280610084534
-0.0612714774906635,0.1252779811620712,0.1060705035924911,-0.3957981169223785,-0.0221056398004293,0.211625188589096,0.0,0.0,0.5189250707626343,0.1581695079803466
-0.0599157325923442,0.1167016327381134,0.1244295686483383,-0.3810438215732574,-0.0111025106161832,0.2200624942779541,0.0,0.0,0.1444066762924194,-0.7989779114723206
-0.0584797859191894,0.1078736633062362,0.1308945119380951,-0.3923052847385406,0.0014366685645654,0.2507837414741516,0.0,0.0,0.6350084543228149,0.0497957468032836
-0.0570353493094444,0.0992196425795555,0.132101222872734,-0.3846767842769623,0.0136241614818573,0.2437498271465301,0.0,0.0,0.8274457454681396,0.0490314960479736
-0.0554483421146869,0.09141705930233,0.1460231095552444,-0.3469424545764923,0.0261320453137159,0.2501578032970428,0.0,0.0,0.817671537399292,0.6772122383117676
-0.0537896156311035,0.0839721038937568,0.154760330915451,-0.3311168551445007,0.0371124744415283,0.2196086347103119,0.0,0.0,0.571138858795166,-0.9809718728065492
-0.0523081794381141,0.077076181769371,0.1353205144405365,-0.3068499863147735,0.0497835762798786,0.253421813249588,0.0,0.0,0.7537841796875,0.7384209632873535
-0.0506413467228412,0.0707235634326934,0.155249148607254,-0.2827534079551697,0.0610831342637538,0.2259909361600875,0.0,0.0,0.1709024906158447,-0.842384397983551
-0.0490540489554405,0.0645810961723327,0.145763874053955,-0.2735787630081177,0.0739140808582305,0.2566187381744385,0.0,0.0,0.1888704299926757,0.8614684343338013
-0.0474436767399311,0.0586685054004192,0.1499721705913543,-0.2633605897426605,0.0848695561289787,0.2191096246242523,0.0,0.0,0.3741837739944458,0.6428041458129883
-0.0457762703299522,0.0527938939630985,0.1571462452411651,-0.2616673409938812,0.0943828746676445,0.1902664005756378,0.0,0.0,0.5838236808776855,-0.4833139181137085
-0.0442101471126079,0.0471814237534999,0.1476582735776901,-0.2500297427177429,0.1032587587833404,0.1775177270174026,0.0,0.0,0.3953579664230346,0.3102037906646728
-0.0427517890930175,0.0416263192892074,0.1376174837350845,-0.2474855333566665,0.1114260181784629,0.1633452475070953,0.0,0.0,0.7957080602645874,-0.4712527990341186
-0.0412013046443462,0.0366714559495449,0.146410197019577,-0.2208791077136993,0.1200045123696327,0.1715696901082992,0.0,0.0,0.4313660860061645,0.239275574684143
-0.0395718589425087,0.0316191762685775,0.1541799157857895,-0.2252723425626754,0.1287070214748382,0.1740503907203674,0.0,0.0,0.6544580459594727,-0.6494704484939575
-0.0378715507686138,0.027145966887474,0.1597640961408615,-0.1997280865907669,0.1389415115118026,0.2046898305416107,0.0,0.0,0.3442029953002929,-0.6534544825553894
-0.0362667068839073,0.0230185128748416,0.1490818411111831,-0.1845457553863525,0.1503201872110366,0.2275735884904861,0.0,0.0,0.1451963186264038,-0.5972671508789062
-0.0346254333853721,0.0192082747817039,0.1515035778284073,-0.1706696301698684,0.162941426038742,0.2524245977401733,0.0,0.0,0.1727330684661865,-0.6462683081626892
-0.0330403335392475,0.0162373166531324,0.1629845649003982,-0.1315451711416244,0.1585007756948471,-0.0887616351246833,0.0,1.0,0.806402325630188,0.4758288860321045
-0.0318445190787315,0.0145864346995949,0.1438513994216919,-0.0709488615393638,0.1343053579330444,-0.4838809072971344,0.0,1.0,-0.1419714093208313,-0.6001689434051514
-0.0306883808225393,0.0123517606407403,0.1386546790599823,-0.0974097996950149,0.1113720089197158,-0.4586860537528991,0.0,0.0,-0.6427329182624817,-0.2221607565879821
-0.0294732097536325,0.0096126534044742,0.1464133560657501,-0.1200713291764259,0.0866444632411003,-0.4945703446865082,0.0,1.0,0.3571057319641113,-0.6132294535636902
-0.0284758564084768,0.007126388605684,0.1260711848735809,-0.1091856732964515,0.0605529434978961,-0.5218510627746582,0.0,1.0,0.6367790699005127,-0.3534084558486938
-0.02763032913208,0.0048083160072565,0.1111839860677719,-0.1021623238921165,0.0342425592243671,-0.5262081623077393,0.0,1.0,-0.0626528859138488,-0.4647837281227112
-0.0267848968505859,0.0019154644105583,0.1111882179975509,-0.1281711608171463,0.0079333446919918,-0.526184618473053,0.0,0.0,0.7224693298339844,-0.7848982214927673
-0.0259137153625488,-0.0007202172419056,0.1122615188360214,-0.1171942427754402,-0.0168797671794891,-0.4962624907493591,0.0,0.0,0.7949252128601074,-0.9058983325958252
-0.0248011592775583,-0.0026442194357514,0.1152704209089279,-0.0856076702475547,-0.0206657145172357,-0.075487419962883,1.0,0.0,0.4537469148635864,-0.7994216680526733
-0.0235273353755474,-0.0036090635694563,0.1115912646055221,-0.0428725220263004,-0.0045532407239079,0.3229037523269653,1.0,1.0,0.0443450212478637,-0.678573727607727
-0.0223554614931345,-0.0036190771497786,0.1007891446352005,-0.0006120026228018,0.0110119571909308,0.3105372786521911,1.0,1.0,0.1249644756317138,-0.8737510442733765
-0.0213853828608989,-0.0031185769475996,0.0901387706398963,0.0221751071512699,0.0177726559340953,0.135183036327362,1.0,1.0,-0.3480451107025146,-0.9363989233970642
