x_pos,y_pos,x_vel,y_vel,angle,ang_vel,leg_1,leg_2,main_booster,lat_booster
-0.0014688491355627,1.4033691883087158,-0.1485141217708587,-0.3355940282344818,0.0014613175299018,0.0288037694990634,0.0,0.0,-0.5360978245735168,0.9614458084106444
-0.0028005600906908,1.395581841468811,-0.1322474181652069,-0.3461079597473144,0.000545997172594,-0.0183076690882444,0.0,0.0,0.0051996707916259,-0.2564493417739868
-0.0039958953857421,1.3879073858261108,-0.1187220960855484,-0.3410847783088684,-0.0002540484420023,-0.0160022918134927,0.0,0.0,-0.386644959449768,0.4090747833251953
-0.0051359175704419,1.3799777030944824,-0.1129131540656089,-0.352434754371643,-0.0013311016373336,-0.0215434674173593,0.0,0.0,0.0986407995223999,0.1490179300308227
-0.0061343191191554,1.3724429607391355,-0.0988811329007148,-0.3348744809627533,-0.0022746280301362,-0.0188721492886543,0.0,0.0,-0.6249702572822571,0.5043258666992188
-0.0070287706330418,1.364652156829834,-0.0869609341025352,-0.3462649881839752,-0.0047215768136084,-0.0489438064396381,0.0,0.0,-0.4842088222503662,0.2601951360702514
-0.0078677181154489,1.3566062450408936,-0.0811459273099899,-0.3576062023639679,-0.0074466275982558,-0.0545060709118843,0.0,0.0,-0.5512793064117432,-0.4350653886795044
-0.0086513515561819,1.3483052253723145,-0.0753325223922729,-0.3689495027065277,-0.0104514462873339,-0.0601017177104949,0.0,0.0,-0.8774315714836121,-0.3966116905212402
-0.009379768744111,1.3397492170333862,-0.0695214867591857,-0.3802936673164367,-0.0137364231050014,-0.0657053217291832,0.0,0.0,-0.6608671545982361,-0.1250356435775756
-0.0100529668852686,1.3309383392333984,-0.063713863492012,-0.3916381001472473,-0.0173021554946899,-0.0713210478425026,0.0,0.0,-0.5962057113647461,-0.1496574282646179
-0.0106708528473973,1.3218721151351929,-0.0579110011458396,-0.4029828011989593,-0.021149206906557,-0.0769476741552352,0.0,0.0,-0.8117294311523438,-0.6906461119651794
-0.0112818721681833,1.3125512599945068,-0.0581432990729808,-0.4143062829971313,-0.024069620296359,-0.0584133937954902,0.0,0.0,-0.8254604935646057,-0.3998823165893554
-0.0118377683684229,1.3029754161834717,-0.0523574873805046,-0.4256510436534881,-0.0272729285061359,-0.0640717893838882,0.0,0.0,-0.8753477334976196,-0.7828546762466431
-0.0123936654999852,1.2931394577026367,-0.0534493513405323,-0.4371955096721649,-0.0293845348060131,-0.0422359332442283,0.0,0.0,-0.7107853293418884,-0.7594437599182129
-0.012940501794219,1.2830581665039062,-0.053426343947649,-0.4480782747268677,-0.0306249633431434,-0.0248107053339481,0.0,0.0,-0.8040566444396973,-0.2318257689476013
-0.0134326936677098,1.2727218866348269,-0.0476780794560909,-0.4594226777553558,-0.0321492291986942,-0.0304881073534488,0.0,0.0,-0.361486554145813,-0.8901790976524353
-0.0139243127778172,1.26214337348938,-0.0487173125147819,-0.4701610505580902,-0.0325928144156932,-0.008872558362782,0.0,0.0,-0.8223437666893005,-0.76873779296875
-0.0144081115722656,1.2513056993484497,-0.048827726393938,-0.4816697239875793,-0.0321562401950359,0.008732309564948,0.0,0.0,-0.9400189518928528,-0.2041016221046447
-0.0148379327729344,1.2402127981185913,-0.0431314781308174,-0.4930140674114227,-0.0320041850209236,0.0030414094217121,0.0,0.0,-0.7735255360603333,-0.8596066236495972
-0.0152908321470022,1.2288681268692017,-0.0471098944544792,-0.5041710734367371,-0.0302001852542161,0.0360832810401916,0.0,0.0,-0.8702253103256226,-0.8046289682388306
-0.0157400127500295,1.2172765731811523,-0.0477324090898036,-0.5151282548904419,-0.027420662343502,0.0555953606963157,0.0,0.0,-0.8260726928710938,-0.2604386806488037
-0.0161358825862407,1.2054299116134644,-0.042107455432415,-0.5264731645584106,-0.0249257162213325,0.0499035827815532,0.0,0.0,-0.5847707390785217,-0.2042788863182068
-0.0164785385131835,1.1933282613754272,-0.0365075655281543,-0.5378180742263794,-0.0227146372199058,0.0442257039248943,0.0,0.0,-0.8623563647270203,-0.8079871535301208
-0.016825009137392,1.180964469909668,-0.0380351170897483,-0.5494548678398132,-0.0193680841475725,0.0669372305274009,0.0,0.0,-0.9038466215133668,-0.3839078545570373
-0.0171191208064556,1.1683456897735596,-0.0324980542063713,-0.5608000159263611,-0.0163056198507547,0.061254471540451,0.0,0.0,-0.8020500540733337,0.0603417158126831
-0.0173611640930175,1.1554501056671145,-0.0270169582217931,-0.5730985403060913,-0.0135255828499794,0.0556006953120231,0.0,0.0,-0.9012251496315002,-0.1165282726287841
-0.0175512321293354,1.142299771308899,-0.021542390808463,-0.5844413042068481,-0.0110270865261554,0.0499699488282203,0.0,0.0,-0.8755120038986206,-0.5185673236846924
-0.0177397727966308,1.1289005279541016,-0.0223712939769029,-0.5954983830451965,-0.0075538428500294,0.0694648325443267,0.0,0.0,-0.7641760110855103,0.5348960161209106
-0.0178441051393747,1.1152503490447998,-0.0128209646791219,-0.6066657900810242,-0.0051929093897342,0.0472189895808696,0.0,0.0,-0.8984972238540649,-0.0006081461906433
-0.0178977958858013,1.1013450622558594,-0.0074826329946517,-0.618008017539978,-0.0031098001636564,0.0416622273623943,0.0,0.0,-0.6557395458221436,-0.2236618995666504
-0.0179014205932617,1.0871846675872805,-0.0021980856545269,-0.6293502449989319,-0.0013030562549829,0.0361352004110813,0.0,0.0,-0.6798681020736694,0.2467671632766723
-0.0178557392209768,1.0727691650390625,0.0030279154889285,-0.6406922936439514,0.0002290035481564,0.0306408796459436,0.0,0.0,-0.9165970087051392,-0.4914216995239258
-0.0177610404789447,1.0580984354019165,0.0081902276724576,-0.6520341634750366,0.0014880945673212,0.0251819044351577,0.0,0.0,-0.9459381699562072,0.1454031467437744
-0.017618179321289,1.0431724786758425,0.013283297419548,-0.6633760333061218,0.0024761918466538,0.0197621621191501,0.0,0.0,-0.9223921298980712,-0.1918584108352661
-0.017427921295166,1.0279912948608398,0.0183011461049318,-0.6747178435325623,0.0031954359728842,0.0143849570304155,0.0,0.0,-0.925882875919342,-0.0212387442588806
-0.0171908382326364,1.0125548839569092,0.023237332701683,-0.6860595941543579,0.0036481337156146,0.0090540237724781,0.0,0.0,-0.7803387641906738,-0.6801233887672424
-0.0169642455875873,0.9968596696853638,0.0210384503006935,-0.6975731253623962,0.0052481926977634,0.0320013314485549,0.0,0.0,-0.8311488628387451,-0.1935163140296936
-0.016692828387022,0.9809091687202454,0.0257900618016719,-0.7089149951934814,0.0065869851969182,0.0267756171524524,0.0,0.0,-0.6960236430168152,-0.0472950935363769
-0.0163775440305471,0.9647035002708436,0.0304377470165491,-0.7202568054199219,0.0076674609445035,0.0216095689684152,0.0,0.0,-0.7919624447822571,-0.2081496715545654
-0.0160194393247365,0.948242723941803,0.0349730439484119,-0.7315985560417175,0.0084928730502724,0.0165081489831209,0.0,0.0,-0.6518762707710266,-0.4635379910469055
-0.0156197547912597,0.9315266013145448,0.0393869653344154,-0.7429401874542236,0.0090667176991701,0.0114770177751779,0.0,0.0,-0.5322807431221008,0.6316694021224976
-0.015119457617402,0.9145547747612,0.0512283444404602,-0.7542995810508728,0.0078792609274387,-0.0237489324063062,0.0,0.0,-0.6152442097663879,-0.4136724472045898
-0.0145802497863769,0.8973276615142822,0.0553704500198364,-0.7656413316726685,0.0064481841400265,-0.0286214556545019,0.0,0.0,-0.6224966049194336,-0.8726434111595154
-0.0140612600371241,0.8798431158065796,0.052126009017229,-0.7770936489105225,0.0062271417118608,-0.0044211214408278,0.0,0.0,-0.8000251650810242,0.6500550508499146
-0.013458251953125,0.8620960116386414,0.0619764849543571,-0.7887527942657471,0.0045664706267416,-0.0332131907343864,0.0,0.0,-0.7094478607177734,-0.6884904503822327
-0.0128713604062795,0.8440864682197571,0.0593184828758239,-0.8004260659217834,0.0039413985796272,-0.0125012397766113,0.0,0.0,-0.5512943267822266,0.4666197299957275
-0.0122520448639988,0.825821578502655,0.0627874881029129,-0.8117676973342896,0.0030928165651857,-0.0169716253876686,0.0,0.0,-0.706121563911438,-0.5049819946289062
-0.0116497036069631,0.807306706905365,0.060108195990324,-0.8228806853294373,0.0032182480208575,0.0025084987282752,0.0,0.0,-0.5692037343978882,-0.2700681686401367
-0.0110188480466604,0.7885367274284363,0.0631702989339828,-0.8342222571372986,0.0031326881144195,-0.0017110246699303,0.0,0.0,-0.5157418847084045,-0.0897125005722045
-0.0103616714477539,0.7695114612579346,0.0660107880830764,-0.8455639481544495,0.0028431341052055,-0.0057910741306841,0.0,0.0,-0.2143234610557556,0.197303295135498
-0.0096804620698094,0.7502310276031494,0.0686177387833595,-0.8569056987762451,0.0023570402991026,-0.0097217056900262,0.0,0.0,-0.2336198091506958,-0.0491150021553039
-0.0089774131774902,0.7306954264640808,0.070979431271553,-0.8682474493980408,0.0016824008198454,-0.0134927257895469,0.0,0.0,0.1240514516830444,-0.2654205560684204
-0.0081813810393214,0.7113584876060486,0.0801240354776382,-0.859416663646698,0.0011717856395989,-0.0102121029049158,0.0,0.0,-0.0348178148269653,-0.420568585395813
-0.0073686600662767,0.6917664408683777,0.0819621756672859,-0.8707583546638489,0.0004901984357275,-0.013631721958518,0.0,0.0,-0.0272009968757629,-0.5075670480728149
-0.0065722465515136,0.6719172596931458,0.0797308161854744,-0.8821864724159241,0.0004067929694429,-0.0016681954730302,0.0,0.0,-0.0073451995849609,-0.6802064776420593
-0.0058268546126782,0.6518098711967468,0.0731809958815574,-0.8936650156974792,0.0017393690068274,0.0266516022384166,0.0,0.0,0.7827799320220947,-0.6441746354103088
-0.0050162314437329,0.6327434182167053,0.0782884582877159,-0.847404420375824,0.0044816732406616,0.05484589189291,0.0,0.0,0.0413872003555297,0.1569732427597046
-0.004115009214729,0.61406010389328,0.0870736017823219,-0.8303808569908142,0.0074971602298319,0.0603097155690193,0.0,0.0,0.1483626365661621,-0.1291221976280212
-0.0031634331680834,0.5959806442260742,0.0919753685593605,-0.8035475611686707,0.0106354774907231,0.0627662688493728,0.0,0.0,-0.1463840007781982,-0.093422532081604
-0.0022122382652014,0.5776461958885193,0.092046782374382,-0.8148899078369141,0.0136686936020851,0.0606644339859485,0.0,0.0,0.5568877458572388,0.0693480968475341
-0.0012208938132971,0.5595811009407043,0.0959312245249748,-0.8029283285140991,0.0168328005820512,0.0632820799946785,0.0,0.0,0.114861249923706,-0.5380260944366455
-0.0003610611020121,0.5419706702232361,0.0819074362516403,-0.782738447189331,0.020852793008089,0.0803999975323677,0.0,0.0,0.4475839138031006,-0.1171687841415405
0.000588321709074,0.5247881412506104,0.0904238298535347,-0.7637349963188171,0.0253080688416957,0.0891055762767791,0.0,0.0,-0.2991465926170349,0.5075076818466187
0.001567268394865,0.5073530673980713,0.0945016294717788,-0.7749565243721008,0.0286630876362323,0.0671004876494407,0.0,0.0,0.1779543161392212,0.1626489162445068
0.002528762910515,0.4900915920734405,0.0927609354257583,-0.7672431468963623,0.0320069640874862,0.0668776929378509,0.0,0.0,0.699469804763794,0.1077675819396972
0.0033259391784667,0.4734804928302765,0.0769412741065025,-0.7383350133895874,0.0347394496202468,0.0546497888863086,0.0,0.0,0.1297656297683715,-0.3125500679016113
0.0040969848632812,0.45749232172966,0.0742808207869529,-0.7106539011001587,0.0375322885811328,0.0558567941188812,0.0,0.0,-0.4150102138519287,0.1723742485046386
0.0048451423645019,0.4412490725517273,0.0719787999987602,-0.7219963073730469,0.0403324365615844,0.0560030229389667,0.0,0.0,0.3481092453002929,0.1012111902236938
0.0055618286132812,0.4257961213588714,0.0687073320150375,-0.686880886554718,0.0432568229734897,0.0584877803921699,0.0,0.0,-0.1756211519241333,0.1662508249282837
0.0062506673857569,0.4100880920886993,0.065889224410057,-0.6982234716415405,0.0462183058261871,0.0592293813824653,0.0,0.0,0.3044471740722656,-0.0283597707748413
0.0068123815581202,0.3949210941791534,0.0534589104354381,-0.6741754412651062,0.0488962084054946,0.0535582713782787,0.0,0.0,0.155982494354248,0.0995196104049682
0.0073421476408839,0.3801530599594116,0.0500936396420002,-0.6564556360244751,0.0517400540411472,0.0568770579993724,0.0,0.0,0.1721574068069458,0.3097295761108398
0.0077153206802904,0.3660204112529754,0.0347934737801551,-0.6282067894935608,0.0542417950928211,0.0500344820320606,0.0,0.0,-0.587421715259552,0.1994974613189697
0.0080525400117039,0.3516327440738678,0.0310861524194479,-0.6395495533943176,0.0568380951881408,0.0519262142479419,0.0,0.0,0.8580838441848755,0.1456360816955566
0.0082889553159475,0.3376455008983612,0.0210820194333791,-0.6217536926269531,0.0593671388924121,0.0505811497569084,0.0,0.0,0.2535486221313476,0.6841989755630493
0.0085831638425588,0.3237752616405487,0.0280276276171207,-0.6165101528167725,0.0607420764863491,0.0274985544383525,0.0,0.0,0.7412718534469604,0.4962868690490722
0.0087812421843409,0.3101826012134552,0.0184443965554237,-0.6041755676269531,0.0620968304574489,0.027095153927803,0.0,0.0,0.9402954578399658,0.8295702934265137
0.0089336391538381,0.29774209856987,0.0154092293232679,-0.5529050827026367,0.0619219951331615,-0.0034964974038302,0.0,0.0,0.5003820657730103,0.6651724576950073
0.0091279987245798,0.2861745357513428,0.0206403695046901,-0.5140635371208191,0.0607393570244312,-0.0236528478562831,0.0,0.0,0.4153041839599609,0.2957671880722046
0.0091389659792184,0.2753915786743164,0.0025700274854898,-0.4791849851608276,0.0592805184423923,-0.0291768852621316,0.0,0.0,0.4616116285324096,0.1447780132293701
0.0089720729738473,0.2647821009159088,-0.0148559808731079,-0.4714576601982116,0.0574710667133331,-0.0361891165375709,0.0,0.0,0.0833685398101806,0.7836563587188721
0.0088203428313136,0.2547090053558349,-0.0119649991393089,-0.4475753903388977,0.0543069913983345,-0.0632817596197128,0.0,0.0,0.0682153701782226,0.636034369468689
0.0085767749696969,0.2449364066123962,-0.019991111010313,-0.434186577796936,0.0499849021434783,-0.0864415913820266,0.0,0.0,-0.3892198204994201,0.5049927234649658
0.0083202365785837,0.2349138855934143,-0.0205595549196004,-0.4452846348285675,0.0449555441737175,-0.1005874127149581,0.0,0.0,-0.5422512292861938,0.1707040071487426
0.0080139162018895,0.2246366590261459,-0.0257616136223077,-0.45662921667099,0.0401407517492771,-0.0962959080934524,0.0,0.0,0.2392867803573608,0.1916779279708862
0.0077048302628099,0.2147626280784607,-0.0265651158988475,-0.4387356638908386,0.0358506254851818,-0.085802637040615,0.0,0.0,0.4728652238845825,0.1731489896774292
0.0073546408675611,0.2050922960042953,-0.0310023240745067,-0.429700493812561,0.0318872891366481,-0.0792665556073188,0.0,0.0,0.5134105682373047,-0.4778395891189575
0.0070258141495287,0.1957241594791412,-0.0295066535472869,-0.4162953794002533,0.0285525675863027,-0.0666944831609726,0.0,0.0,0.334847092628479,0.0049595832824707
0.0067502022720873,0.1867978423833847,-0.0249839127063751,-0.3966768980026245,0.0260092336684465,-0.0508666448295116,0.0,0.0,0.3166830539703369,-0.350329041481018
0.0065244673751294,0.1780921816825866,-0.020758643746376,-0.3868888914585113,0.0242268461734056,-0.0356478989124298,0.0,0.0,0.4528113603591919,0.7087150812149048
0.0062799453735351,0.1701291650533676,-0.0214667506515979,-0.3538682162761688,0.0212767273187637,-0.0590025074779987,0.0,0.0,0.317310094833374,-0.81470787525177
0.0059321401640772,0.1628230363130569,-0.0337244570255279,-0.3246996104717254,0.0202339403331279,-0.0208554659038782,0.0,0.0,-0.0180791020393371,-0.2955986261367798
0.0055300714448094,0.1552618592977523,-0.0394110903143882,-0.3360418677330017,0.0194522272795438,-0.0156343467533588,0.0,0.0,0.2566540241241455,-0.00019371509552
0.0051453588530421,0.1478201299905777,-0.0383089743554592,-0.330739289522171,0.0192903596907854,-0.0032371678389608,0.0,0.0,-0.1629128456115722,-0.7265379428863525
0.0046432493254542,0.1401194632053375,-0.0519105121493339,-0.3422746956348419,0.020968172699213,0.0335564948618412,0.0,0.0,-0.3698563575744629,0.1287277936935424
0.0040859221480786,0.1321637481451034,-0.0577056482434272,-0.3536171019077301,0.0229179430752992,0.0389952212572097,0.0,0.0,-0.0346384644508361,0.2326792478561401
0.0034731863997876,0.1239530444145202,-0.0635308176279068,-0.3649596571922302,0.025142665952444,0.0444946065545082,0.0,0.0,0.2420985698699951,0.513514518737793
0.0027282715309411,0.1163863539695739,-0.0757627636194229,-0.3363165557384491,0.0264016445726156,0.0251795053482055,0.0,0.0,0.0854564905166626,0.667951226234436
0.002032947493717,0.1092601865530014,-0.0698175504803657,-0.316724568605423,0.0266845636069774,0.0056586014106869,0.0,0.0,0.1422319412231445,0.9580607414245604
0.0012996674049645,0.1026649549603462,-0.0719742625951767,-0.2930987477302551,0.0253420397639274,-0.0268505420535802,0.0,0.0,-0.1300802230834961,0.9036315679550172
0.0005715370061807,0.0958234667778015,-0.0701682567596435,-0.3040221631526947,0.022733274847269,-0.0521754100918769,0.0,0.0,-0.0578701496124267,0.769108772277832
-0.0001547813444631,0.0887265503406524,-0.0687844678759574,-0.3153678476810455,0.0189449340105056,-0.0757669657468795,0.0,0.0,0.2499266862869262,0.717145562171936
-0.0009887695778161,0.0820565819740295,-0.0782733112573623,-0.2963855862617492,0.0138867581263184,-0.101163625717163,0.0,0.0,0.5175468921661377,0.7002613544464111
-0.0019827843643724,0.0758498758077621,-0.0928684920072555,-0.2758042216300964,0.0074347220361232,-0.1290407329797744,0.0,0.0,0.4694101810455322,0.5373513698577881
-0.002894306089729,0.0703521370887756,-0.08407624065876,-0.2443247884511947,0.0004534330510068,-0.1396260410547256,0.0,0.0,-0.2792487144470215,0.753984808921814
-0.0037970542907714,0.0645935386419296,-0.0818260237574577,-0.2559608519077301,-0.0078870318830013,-0.1668092608451843,0.0,0.0,-0.2568891048431396,-0.1495232582092285
-0.0047569274902343,0.0585805289447307,-0.0878371521830558,-0.2673082053661346,-0.0159333460032939,-0.1609261780977249,0.0,0.0,0.4184368848800659,0.6785569190979004
-0.0057312012650072,0.0533174611628055,-0.088179811835289,-0.2340417653322219,-0.0250731576234102,-0.18279629945755,0.0,0.0,-0.1168921589851379,0.08616304397583
-0.006762885954231,0.0478001944720745,-0.0942109078168869,-0.2453898638486862,-0.0339166745543479,-0.1768704205751419,0.0,0.0,0.3500145673751831,0.0200344324111938
-0.0077735902741551,0.0427353233098983,-0.0927041620016098,-0.225315123796463,-0.0421745926141738,-0.1651583611965179,0.0,0.0,-0.1595129370689392,0.6370627880096436
-0.0087916376069188,0.0374194011092186,-0.0924885869026184,-0.2365538775920868,-0.0513858050107955,-0.1842243373394012,0.0,0.0,0.4863321781158447,0.201493501663208
-0.0097764013335108,0.0329062789678573,-0.0897056013345718,-0.2009064555168151,-0.0600457675755023,-0.1731993705034256,0.0,0.0,0.1066033840179443,0.732750654220581
-0.0106807705014944,0.0285842753946781,-0.0805661380290985,-0.192514955997467,-0.0698110684752464,-0.1953066289424896,0.0,0.0,0.1993405818939209,0.0412323474884033
-0.0116999624297022,0.0246889926493167,-0.0919410958886146,-0.1736188679933548,-0.0796870738267898,-0.1975201219320297,0.0,0.0,-0.0385841131210327,0.2385138273239135
-0.0127767566591501,0.0205393657088279,-0.098010204732418,-0.1849667578935623,-0.0892624706029892,-0.1915078908205032,0.0,0.0,0.4244060516357422,0.3279712200164795
-0.0138862608000636,0.0168640948832035,-0.1015114411711692,-0.1639363318681717,-0.0986226946115493,-0.1872043311595916,0.0,0.0,0.4534156322479248,-0.085085391998291
-0.0149844167754054,0.0136314965784549,-0.100798025727272,-0.1442923098802566,-0.1075757518410682,-0.179061159491539,0.0,0.0,0.1513090133666992,0.153562307357788
-0.016022777184844,0.0105032538995146,-0.0955602377653122,-0.1396495997905731,-0.1158059909939765,-0.1646044701337814,1.0,0.0,0.6121103763580322,0.7459557056427002
-0.0167836192995309,0.0084865186363458,-0.075390987098217,-0.0899803265929222,-0.1155438646674156,0.0064988657832145,1.0,0.0,0.3130385875701904,0.8007731437683105
-0.0172937400639057,0.0075782514177262,-0.0614560656249523,-0.0396063886582851,-0.1051289290189743,0.2083521336317062,1.0,0.0,-0.6311789751052856,0.7563834190368652
-0.0176859851926565,0.0067372536286711,-0.0571170262992382,-0.0362231656908988,-0.0873587355017662,0.355444848537445,1.0,0.0,-0.5923172235488892,0.7963778972625732
