x_pos,y_pos,x_vel,y_vel,angle,ang_vel,leg_1,leg_2,main_booster,lat_booster
-0.0015179633628576,1.403312921524048,-0.153314858675003,-0.3380982279777527,0.0013541895896196,0.0266826041042804,0.0,0.0,-0.8955628373271336,0.6894619015017978
-0.0029726983048021,1.3954139947891235,-0.1448909342288971,-0.3510608077049255,0.0007815166027285,-0.0114538632333278,0.0,0.0,0.9304508558546354,0.8569735638604705
-0.0041857720352709,1.387905240058899,-0.1189773306250572,-0.333725243806839,-0.0015196978347375,-0.0460287742316722,0.0,0.0,-0.0803287452549808,0.7285759629694895
-0.0053500174544751,1.3800822496414185,-0.1125186309218406,-0.3476939797401428,-0.0053838631138205,-0.0772904157638549,0.0,0.0,0.2183983515398764,0.9967697595467984
-0.006319522857666,1.372671127319336,-0.090672954916954,-0.3294163942337036,-0.0115886628627777,-0.124107502400875,0.0,0.0,0.1301482031532719,-0.7852248946384173
-0.007237434387207,1.3655041456222534,-0.0867870151996612,-0.3185797035694122,-0.0165428891777992,-0.0990934520959854,0.0,0.0,0.0380619220114206,0.8834267039626492
-0.0080965999513864,1.3585690259933472,-0.0787286907434463,-0.308322936296463,-0.0236456040292978,-0.1420672237873077,0.0,0.0,0.0135462340604053,0.6173222576821215
-0.0087946895509958,1.3519150018692017,-0.0611285977065563,-0.2959020435810089,-0.0322269350290298,-0.1716426908969879,0.0,0.0,0.6454852440487673,0.9601357930617128
-0.0094049451872706,1.3462073802947998,-0.0500247403979301,-0.2539353966712951,-0.0431155264377594,-0.2177918404340744,0.0,0.0,-0.9275642281814878,0.8911785959986718
-0.0099470140412449,1.3401916027069092,-0.0410507842898368,-0.2678066492080688,-0.056148461997509,-0.2606824040412903,0.0,0.0,-0.2806718987889345,-0.8441104813213377
-0.0105488775297999,1.333871841430664,-0.0480924248695373,-0.2813696265220642,-0.0681225135922432,-0.2395032346248626,0.0,0.0,-0.888970610946729,-0.7562932648719267
-0.0112068178132176,1.3272464275360107,-0.0546699054539203,-0.2950002551078796,-0.0791442170739173,-0.2204543054103851,0.0,0.0,-0.0888808500534663,0.8875255145796694
-0.0117836948484182,1.3203065395355225,-0.0440637730062007,-0.3092222213745117,-0.0926735252141952,-0.2706107497215271,0.0,0.0,0.3373900691931106,-0.6588062122983757
-0.0123292924836277,1.3134794235229492,-0.0420085415244102,-0.3042481541633606,-0.1051393076777458,-0.2493385523557663,0.0,0.0,-0.9557744351560546,0.6021112412858618
-0.012821483425796,1.3063406944274902,-0.0348439440131187,-0.3183549046516418,-0.1194344460964202,-0.2859290242195129,0.0,0.0,0.3008236590968109,0.9856320718884074
-0.0131155010312795,1.2991992235183716,-0.0127795021981,-0.3188101053237915,-0.1359927505254745,-0.331196129322052,0.0,0.0,-0.3156014063653889,0.6498421174443998
-0.0133522991091012,1.291745662689209,-0.0051774098537862,-0.3330698907375335,-0.1544770002365112,-0.369718849658966,0.0,0.0,-0.3735470588876033,0.5929191299222136
-0.0135387424379587,1.2839677333831787,0.0015983944758772,-0.3479180932044983,-0.1747579723596573,-0.405656099319458,0.0,0.0,0.5757027585899752,-0.8480165149291241
-0.0135615346953272,1.277013063430786,0.0163585096597671,-0.3114005029201507,-0.1934985071420669,-0.3748453557491302,0.0,0.0,0.8994910468391766,0.8792980413790874
-0.0134982112795114,1.2707191705703735,0.0271609164774417,-0.2825778424739837,-0.2145157158374786,-0.4203820824623108,0.0,0.0,-0.8548630661544843,-0.6215113318044293
-0.0134788509458303,1.2641370296478271,0.0219984855502843,-0.2955894470214844,-0.2348488867282867,-0.406700074672699,0.0,0.0,-0.5840329556776396,-0.5156298968705874
-0.0135057447478175,1.257259964942932,0.0165596343576908,-0.3088288009166717,-0.2544638812541961,-0.3923357129096985,0.0,0.0,-0.782050260580998,0.5680800498781491
-0.0134875299409031,1.250056505203247,0.0226304568350315,-0.3239056468009949,-0.2757641077041626,-0.4260427057743072,0.0,0.0,0.1734605297389437,-0.6708672688129055
-0.0134147647768259,1.2428593635559082,0.0268472488969564,-0.3236923813819885,-0.2959179580211639,-0.4031139314174652,0.0,0.0,0.2539326875846519,-0.6633750772433852
-0.013371467590332,1.2361342906951904,0.0229154340922832,-0.3027846217155456,-0.3151748180389404,-0.3851718604564667,0.0,0.0,0.8617203048205557,-0.8532163345753727
-0.0133288381621241,1.23033344745636,0.0216549448668956,-0.2616981863975525,-0.333289086818695,-0.3622854351997375,0.0,0.0,0.4603833633194403,0.580739618063582
-0.0130367279052734,1.22511625289917,0.0478633046150207,-0.2363086193799972,-0.3528342247009277,-0.390902578830719,0.0,0.0,-0.4900682254112036,-0.706606966705661
-0.0128141399472951,1.2196346521377563,0.0393334701657295,-0.2479170113801956,-0.3708525598049164,-0.360366940498352,0.0,0.0,-0.7470383142378194,-0.5839557869943504
-0.0126502988860011,1.2138813734054563,0.0321923457086086,-0.2598897218704223,-0.3876394927501678,-0.3357377648353576,0.0,0.0,-0.9912029206492738,0.8480651404114351
-0.0124353412538766,1.20778226852417,0.0389756709337234,-0.2759465277194977,-0.4063462913036346,-0.3741367161273956,0.0,0.0,-0.6425619681627466,-0.6391539862342629
-0.0122702596709132,1.2014120817184448,0.032850045710802,-0.2879101634025574,-0.4239780604839325,-0.3526356518268585,0.0,0.0,-0.6341173648834229,-0.975464642047882
-0.0121927261352539,1.194783091545105,0.0220732800662517,-0.299015074968338,-0.4395361840724945,-0.3111618161201477,0.0,0.0,-0.7498903870582581,-0.9622176885604858
-0.0121970176696777,1.1879088878631592,0.0118692582473158,-0.3094370067119598,-0.4529989063739776,-0.2692543268203735,0.0,0.0,-0.9700177311897278,-0.9935331344604492
-0.0122882844880223,1.180774450302124,0.0012013163650408,-0.3204776048660278,-0.4643662571907043,-0.2273467481136322,0.0,0.0,-0.9297123551368712,-0.9982562065124512
-0.0124534610658884,1.173383712768555,-0.0079190665856003,-0.3313739001750946,-0.473874032497406,-0.190155416727066,0.0,0.0,-0.9667370319366456,-0.9995445013046264
-0.0126898763701319,1.1657419204711914,-0.0167746879160404,-0.3420042097568512,-0.4815044403076172,-0.1526080667972564,0.0,0.0,-0.8292248249053955,-0.9994341731071472
-0.013005924411118,1.1578422784805298,-0.0265827216207981,-0.3528605103492737,-0.4871082603931427,-0.1120763793587684,0.0,0.0,-0.9719951152801514,-0.9973748326301576
-0.0133892055600881,1.14969003200531,-0.0349612608551979,-0.3635134994983673,-0.4908826053142547,-0.0754866451025009,0.0,0.0,-0.7924277782440186,-0.9959211349487304
-0.0138467792421579,1.1412956714630127,-0.0442694798111915,-0.3736160099506378,-0.4925442636013031,-0.0332327224314212,0.0,0.0,-0.922572135925293,-0.9924066662788392
-0.0143730165436863,1.1326440572738647,-0.0528041906654834,-0.3844527006149292,-0.4923399984836578,0.0040852739475667,0.0,0.0,-0.9143755435943604,-0.997750163078308
-0.0149806020781397,1.1237540245056152,-0.0630534365773201,-0.3942926228046417,-0.4897676110267639,0.0514476411044597,0.0,0.0,-0.9748754501342772,-0.9948192238807678
-0.0156457908451557,1.1145949363708496,-0.0702108591794967,-0.4057652652263641,-0.4856427609920501,0.0824969932436943,0.0,0.0,-0.959617555141449,-0.9985418319702148
-0.0163738243281841,1.105161428451538,-0.0779863074421882,-0.4174596965312958,-0.479872852563858,0.1153979450464248,0.0,0.0,-0.9103659987449646,-0.9953632354736328
-0.0171606056392192,1.0954605340957642,-0.0853670984506607,-0.4288482666015625,-0.4724504351615906,0.148448497056961,0.0,0.0,-0.9617379903793336,-0.9883783459663392
-0.0180240627378225,1.0854955911636353,-0.0949612483382225,-0.4399832487106323,-0.4629139304161072,0.1907302439212799,0.0,0.0,-0.942841410636902,-0.9848365783691406
-0.018952464684844,1.0752594470977783,-0.1031581535935401,-0.4515460133552551,-0.4515606462955475,0.2270655333995819,0.0,0.0,-0.8919861316680908,-0.913090705871582
-0.0199371334165334,1.0647516250610352,-0.1103527322411537,-0.4632307291030884,-0.4385652542114258,0.2599076330661773,0.0,0.0,-0.9236122369766236,-0.8852315545082092
-0.0209893230348825,1.0539958477020264,-0.1191468238830566,-0.4737522900104522,-0.4234248995780945,0.3028079867362976,0.0,0.0,-0.8615668416023254,-0.7105790376663208
-0.022096062079072,1.0429795980453491,-0.1263355910778045,-0.4850018620491028,-0.4065236449241638,0.3380252420902252,0.0,0.0,-0.8705396056175232,-0.6796220541000366
-0.0232469551265239,1.031686782836914,-0.1321996748447418,-0.4971079230308532,-0.3882097005844116,0.3662787079811096,0.0,0.0,-0.83553546667099,-0.5340502858161926
-0.0244193077087402,1.0201048851013184,-0.1352194398641586,-0.5099664926528931,-0.369090735912323,0.3823790550231933,0.0,0.0,-0.890468955039978,-0.0387215018272399
-0.0255820266902446,1.0082160234451294,-0.1343711018562317,-0.5238417387008667,-0.3499994874000549,0.3818249702453613,0.0,0.0,-0.9195747971534728,0.141373872756958
-0.0267340652644634,0.9960203766822816,-0.1333951950073242,-0.5377169251441956,-0.3309294581413269,0.381399929523468,0.0,0.0,-0.9613686800003052,0.1583656072616577
-0.0278738029301166,0.9835177063941956,-0.1322877407073974,-0.5515919923782349,-0.3118746280670166,0.3810963630676269,0.0,0.0,-0.9567121267318726,-0.1252793073654174
-0.029000187292695,0.9707083106040956,-0.1310450583696365,-0.5654670596122742,-0.292829304933548,0.3809064626693725,0.0,0.0,-0.9025481343269348,0.4962835311889648
-0.0301116947084665,0.9575918316841124,-0.129663661122322,-0.5793420672416687,-0.2737882137298584,0.380822092294693,0.0,0.0,-0.9738365411758424,0.1183716058731079
-0.0312069896608591,0.9441686272621156,-0.128140315413475,-0.593217134475708,-0.2547464668750763,0.3808349967002868,0.0,0.0,-0.953922152519226,0.6433254480361938
-0.0322237983345985,0.9304172396659852,-0.1188264265656471,-0.6082996129989624,-0.2372962683439254,0.3490040302276611,0.0,0.0,-0.992807924747467,0.9214181900024414
-0.0331407561898231,0.91633802652359,-0.1068605035543441,-0.6233723759651184,-0.2219188511371612,0.3075483441352844,0.0,0.0,-0.8907171487808228,0.8659701347351074
-0.0339778885245323,0.9019374847412108,-0.0974511876702308,-0.6380121111869812,-0.2080462723970413,0.2774516642093658,0.0,0.0,-0.9356095790863036,0.9274938106536864
-0.0347167961299419,0.887195348739624,-0.0856590718030929,-0.6536001563072205,-0.1961873024702072,0.237179547548294,0.0,0.0,-0.9613073468208312,0.8917326927185059
-0.035374354571104,0.8721305131912231,-0.0760817676782608,-0.6682147979736328,-0.1857992112636566,0.2077618837356567,0.0,0.0,-0.9218977093696594,0.8874499797821045
-0.0359244346618652,0.8567296266555786,-0.0632377713918685,-0.6834754943847656,-0.1775374710559845,0.1652351915836334,0.0,0.0,-0.8670606017112732,0.619103193283081
-0.0363981239497661,0.8410054445266724,-0.0543491654098033,-0.6980387568473816,-0.1705421358346939,0.1399066597223281,0.0,0.0,-0.8446994423866272,0.4382650852203369
-0.036843966692686,0.8249702453613281,-0.0516037046909332,-0.7118883728981018,-0.1635226011276245,0.1403907984495163,0.0,0.0,-0.9349921941757202,0.6975111961364746
-0.0372173301875591,0.808613657951355,-0.0432670228183269,-0.7263180613517761,-0.1575874984264373,0.1187019720673561,0.0,0.0,-0.8614398241043091,0.1955885887145996
-0.0375596992671489,0.7919460535049438,-0.0402075015008449,-0.7401666045188904,-0.1516270488500595,0.1192093044519424,0.0,0.0,-0.6002599000930786,0.7606048583984375
-0.0378031730651855,0.7749425768852234,-0.0285970754921436,-0.7552786469459534,-0.1473753601312637,0.0850336253643035,0.0,0.0,-0.7509059309959412,0.538729190826416
-0.0379678718745708,0.7576242089271545,-0.0196336470544338,-0.7693988680839539,-0.1442216038703918,0.0630746930837631,0.0,0.0,-0.8355585932731628,-0.3554969429969787
-0.0380970947444438,0.7399942874908447,-0.0161053799092769,-0.7832453846931458,-0.1410443931818008,0.0635443404316902,0.0,0.0,-0.800979733467102,-0.2015907168388366
-0.0381893143057823,0.722052812576294,-0.0124229453504085,-0.7970920205116272,-0.1378453224897384,0.0639817416667938,0.0,0.0,-0.423237681388855,0.0225251913070678
-0.0382428169250488,0.7038000822067261,-0.0085877943783998,-0.8109385967254639,-0.1346264630556106,0.0643771514296531,0.0,0.0,-0.6917293071746826,-0.0616487264633178
-0.0382563583552837,0.6852359175682068,-0.0046016708947718,-0.8247852325439453,-0.1313904225826263,0.0647206008434295,0.0,0.0,-0.3755091428756714,-0.2583725452423095
-0.0382284149527549,0.6663604378700256,-0.0004665860033128,-0.8386319279670715,-0.1281403005123138,0.0650021806359291,0.0,0.0,-0.6607785820960999,-0.1149717569351196
-0.0381574630737304,0.6471734046936035,0.0038151876069605,-0.8524786233901978,-0.124879702925682,0.0652120038866996,0.0,0.0,-0.389065682888031,0.1070142984390258
-0.0380422584712505,0.6276749968528748,0.0082411430776119,-0.8663253784179688,-0.1216127052903175,0.0653401762247085,0.0,0.0,0.2487680912017822,-0.8134667873382568
-0.0379417426884174,0.608255922794342,0.0051575913093984,-0.862680971622467,-0.1167487502098083,0.0972790122032165,0.0,0.0,0.1656296253204345,0.467867374420166
-0.0377348884940147,0.5893603563308716,0.0158249493688344,-0.8394312262535095,-0.1119153201580047,0.0966686308383941,0.0,0.0,-0.0277680158615112,0.2412738800048828
-0.0374795906245708,0.5701535940170288,0.0206660889089107,-0.853279173374176,-0.1070906817913055,0.0964925736188888,0.0,0.0,0.5235984325408936,0.3018461465835571
-0.0371971130371093,0.5517762303352356,0.0238910224288702,-0.8164627552032471,-0.1027595102787017,0.0866236612200737,0.0,0.0,-0.1481407284736633,-0.3151757717132568
-0.0368637070059776,0.5330876708030701,0.028993034735322,-0.8303104639053345,-0.0984496921300888,0.0861961543560028,0.0,0.0,0.6847898960113525,-0.4686629772186279
-0.0363580696284771,0.5152851939201355,0.0460483692586422,-0.7909340262413025,-0.0939779803156852,0.0894344896078109,0.0,0.0,0.1735686063766479,-0.7108539342880249
-0.0358980186283588,0.4978013336658478,0.0401938892900943,-0.776706337928772,-0.0882197916507721,0.1151639819145202,0.0,0.0,0.1392449140548706,-0.553463339805603
-0.0354276672005653,0.4807184636592865,0.0402314104139804,-0.75885009765625,-0.0814762562513351,0.1348706930875778,0.0,0.0,0.0704940557479858,-0.1539375185966491
-0.0348728187382221,0.4640031456947326,0.0487640723586082,-0.7425546050071716,-0.074820801615715,0.133109301328659,0.0,0.0,-0.0346120595932006,-0.3855190277099609
-0.0342616066336631,0.446976900100708,0.0544540174305439,-0.75640469789505,-0.0682264119386673,0.1318876147270202,0.0,0.0,0.509764552116394,-0.2755016684532165
-0.0335502624511718,0.430105596780777,0.0644433051347732,-0.7495432496070862,-0.0616022124886512,0.1324838995933532,0.0,0.0,0.4240350723266601,-0.3322861194610595
-0.0326794609427452,0.413435697555542,0.0800860077142715,-0.7406130433082581,-0.0546883158385753,0.1382780373096466,0.0,0.0,0.6483879089355469,-0.5947608947753906
-0.0316073410212993,0.3972992599010467,0.0987124219536781,-0.7168911099433899,-0.0462913364171981,0.167939692735672,0.0,0.0,0.0928443670272827,-0.313770592212677
-0.030371094122529,0.3812367618083954,0.1147905960679054,-0.7136412262916565,-0.0375687032938003,0.1744527816772461,0.0,0.0,0.8099675178527832,-0.6723920702934265
-0.0291029922664165,0.3661058843135834,0.1167515665292739,-0.6722627878189087,-0.0276357159018516,0.1986594051122665,0.0,0.0,0.3310555219650268,0.2867047786712646
-0.0277316085994243,0.3515800237655639,0.1270845532417297,-0.6454344391822815,-0.0177105460315942,0.1985036581754684,0.0,0.0,0.214063286781311,-0.3301417827606201
-0.0261979103088378,0.3374767601490021,0.1430255770683288,-0.6267174482345581,-0.0074968803673982,0.2042732536792755,0.0,0.0,-0.2106196880340576,0.0555497407913208
-0.0246014595031738,0.3230633735656738,0.1494540721178054,-0.6405723094940186,0.0025699494872242,0.2013365924358368,0.0,0.0,0.6621909141540527,0.0452034473419189
-0.0229957588016986,0.3091080784797668,0.1507886946201324,-0.6202796101570129,0.0122331408783793,0.1932635307312011,0.0,0.0,0.5053410530090332,0.1637661457061767
-0.0212584491819143,0.2960229814052582,0.1637540608644485,-0.5816688537597656,0.0220811981707811,0.196961224079132,0.0,0.0,0.0584026575088501,-0.3576382398605346
-0.0194795615971088,0.28317391872406,0.1681689918041229,-0.5712425112724304,0.0316755101084709,0.1918866038322448,0.0,0.0,0.4420374631881714,-0.2268294095993042
-0.0177661888301372,0.2710501849651336,0.1623310297727584,-0.5390477776527405,0.0405696630477905,0.1778831034898758,0.0,0.0,0.1297980546951294,-0.5589325428009033
-0.0159850120544433,0.2593353688716888,0.1680804938077926,-0.5209611058235168,0.0504786521196365,0.1981801092624664,0.0,0.0,0.4475312232971191,-0.1512681245803833
-0.0142180444672703,0.2482913136482238,0.1671237200498581,-0.4911967515945434,0.0599458776414394,0.1893444657325744,0.0,0.0,-0.1525156497955322,-0.0048439502716064
-0.0123847965151071,0.2369367033243179,0.173999935388565,-0.5050490498542786,0.0691744908690452,0.1845720708370208,0.0,0.0,0.1173371076583862,-0.0656557083129882
-0.0105248447507619,0.2257736325263977,0.1769997775554657,-0.4965762794017792,0.0780727565288543,0.1779653877019882,0.0,0.0,0.2638778686523437,-0.6197440028190613
-0.0087812421843409,0.2149711996316909,0.1645779460668563,-0.4806458652019501,0.087765023112297,0.1938452571630478,0.0,0.0,-0.1287951469421386,-0.0045168399810791
-0.0069703101180493,0.2038581222295761,0.1715939044952392,-0.4944976568222046,0.0971765667200088,0.1882307380437851,0.0,0.0,0.5754745006561279,0.0798726081848144
-0.0050579071976244,0.1934721022844314,0.1815855801105499,-0.462256520986557,0.1067603975534439,0.1916765719652176,0.0,0.0,-0.0111544728279113,-0.3640714883804321
-0.0030776977073401,0.1827753186225891,0.188678354024887,-0.4761073887348175,0.1160350739955902,0.1854934692382812,0.0,0.0,0.2305073738098144,-0.0995559692382812
-0.000988197280094,0.1726329922676086,0.1994560658931732,-0.451535701751709,0.1254860609769821,0.1890193969011306,0.0,0.0,0.5163372755050659,-0.0274810791015625
0.0010595321655273,0.1632356792688369,0.1957156360149383,-0.4184431731700897,0.1345023661851883,0.1803257018327713,0.0,0.0,0.2680143117904663,-0.6085330247879028
0.0031590461730957,0.1545239984989166,0.1998193711042404,-0.3881324827671051,0.1445977389812469,0.2019074410200119,0.0,0.0,-0.3456538915634155,-0.6501237750053406
0.0052823065780103,0.1454918980598449,0.2014486789703369,-0.4025216400623321,0.1554624289274215,0.2172936648130417,0.0,0.0,0.3904916048049927,-0.5920184254646301
0.0073142051696777,0.1371608823537826,0.1915319561958313,-0.3715267181396484,0.1671148389577865,0.2330481559038162,0.0,0.0,-0.2425616979598999,-0.1052889823913574
0.009414386935532,0.1285191625356674,0.1987820118665695,-0.3853784501552582,0.1783735752105713,0.2251748740673065,0.0,0.0,-0.1335142850875854,-0.7080897092819214
0.01153564453125,0.1195504292845726,0.2000941336154937,-0.4001038670539856,0.1904570609331131,0.2416697442531585,0.0,0.0,0.4976065158843994,-0.3126946091651916
0.0135103221982717,0.1110649183392524,0.1863873600959777,-0.3785992860794067,0.2016070187091827,0.2229990065097808,0.0,0.0,0.2198282480239868,-0.0270962715148925
0.01538429223001,0.1027982085943222,0.1772149801254272,-0.3688293695449829,0.2118846625089645,0.2055527418851852,0.0,0.0,0.1500395536422729,-0.6744034886360168
0.0171755794435739,0.0947732552886009,0.1680831611156463,-0.3582906126976013,0.2230515480041504,0.2233375757932663,0.0,0.0,0.0186353921890258,-0.1285901665687561
0.0189779289066791,0.0869233235716819,0.1695945411920547,-0.3505295217037201,0.2338327020406723,0.2156230956315994,0.0,0.0,0.3245997428894043,0.3760731220245361
0.0208833701908588,0.0792190879583358,0.179921343922615,-0.3441366553306579,0.2446258962154388,0.2158635556697845,0.0,0.0,0.4171525239944458,0.0582132339477539
0.0227957721799612,0.0720871314406395,0.1807446926832199,-0.318757951259613,0.2553213238716125,0.2139087468385696,0.0,0.0,0.2939999103546142,-0.3471106290817261
0.0246354099363088,0.0655677914619445,0.1738901436328888,-0.2915340363979339,0.2656112611293793,0.2057987749576568,0.0,0.0,0.3298162221908569,-0.0150341391563415
0.0265260692685842,0.0591201148927211,0.1792926490306854,-0.2883690893650055,0.2756303548812866,0.200382113456726,0.0,0.0,0.3411353826522827,-0.3717625141143799
