x_pos,y_pos,x_vel,y_vel,angle,ang_vel,leg_1,leg_2,main_booster,lat_booster
-0.0015217780601233,1.4030091762542725,-0.1544782668352127,-0.3515937626361847,0.0020542975980788,0.0405448004603385,0.0,0.0,-0.5202002507640693,-0.6099578786420916
-0.0030857087112963,1.3945032358169556,-0.1598335057497024,-0.3780491948127746,0.00545798195526,0.068080648779869,0.0,0.0,-0.2229032750609347,-0.9596723772347386
-0.0047063827514648,1.3853744268417358,-0.1673227846622467,-0.4057536423206329,0.0106520429253578,0.1038906946778297,0.0,0.0,0.4575666463958074,0.9708675469361464
-0.0063736913725733,1.376287817955017,-0.1702377498149871,-0.4038747251033783,0.014127449132502,0.0695144385099411,0.0,0.0,-0.6042842140767406,-0.7672514870033516
-0.0080862995237112,1.3665876388549805,-0.176327496767044,-0.4311742782592773,0.0191396139562129,0.1002525687217712,0.0,0.0,0.4586897849332612,0.6934965423285989
-0.0096179004758596,1.3569962978363037,-0.1574602425098419,-0.4263453185558319,0.023399781435728,0.0852110907435417,0.0,0.0,-0.2061429684890703,0.9573802487483042
-0.0110747339203953,1.3467923402786257,-0.1485138237476349,-0.4535546600818634,0.0262026842683553,0.0560630671679973,0.0,0.0,0.5008901933838048,-0.7861905787925618
-0.0124554634094238,1.3368607759475708,-0.143132209777832,-0.4415017664432525,0.0312028788030147,0.1000129431486129,0.0,0.0,0.8339417136705405,-0.9421148278842004
-0.0139521602541208,1.3277132511138916,-0.1569786965847015,-0.4067269265651703,0.0384293608367443,0.1445430517196655,0.0,0.0,-0.9791579487557812,0.7925417931850534
-0.0153844831511378,1.3179596662521362,-0.149351492524147,-0.4336634874343872,0.0444851666688919,0.1211269497871398,0.0,0.0,0.0924313920911199,0.94552951831289
-0.0166899673640728,1.3081908226013184,-0.1351849734783172,-0.4343186914920807,0.0490782931447029,0.0918709933757782,0.0,0.0,-0.539362747995277,-0.6524977388437815
-0.018038272857666,1.2978026866912842,-0.1410478949546814,-0.4619163572788238,0.0552320703864097,0.1230867728590965,0.0,0.0,-0.5024258318408115,0.6927666108935937
-0.0193180087953805,1.286808967590332,-0.1329294741153717,-0.4887987375259399,0.0601385533809661,0.0981385931372642,0.0,0.0,0.6485451346258877,0.8510829274424765
-0.0204728133976459,1.2757364511489868,-0.119296595454216,-0.4922769963741302,0.0639237388968467,0.0757105723023414,0.0,0.0,0.3380712100600582,-0.6094944539945027
-0.0215907096862792,1.2650622129440308,-0.1175274699926376,-0.4746612012386322,0.06961390376091,0.113813541829586,0.0,0.0,-0.5038054240105905,0.7111017969332635
-0.0226394645869731,1.2537720203399658,-0.109387531876564,-0.5020004510879517,0.0740829929709434,0.0893898382782936,0.0,0.0,0.1031088982865531,0.9705959788052216
-0.0235429760068655,1.2427537441253662,-0.0933500602841377,-0.4898548424243927,0.0770660564303398,0.0596669986844062,0.0,0.0,0.5611919110196604,-0.7946299266956776
-0.0243841167539358,1.2316534519195557,-0.0894462913274765,-0.4936251640319824,0.0823484137654304,0.1056564450263977,0.0,0.0,0.4435843446178429,-0.9202856768264152
-0.0252571105957031,1.220999240875244,-0.0950343310832977,-0.473964512348175,0.0900239273905754,0.1535242646932602,0.0,0.0,-0.24799527422502,-0.8263499051343051
-0.0262012481689453,1.2097207307815552,-0.1044975891709327,-0.5018981099128723,0.1000328287482261,0.2001961916685104,0.0,0.0,-0.6107859796119879,-0.6958604567524165
-0.0271865837275981,1.197827935218811,-0.1101688370108604,-0.529388427734375,0.1116051748394966,0.2314679324626922,0.0,0.0,-0.3108559229169103,0.9712107758988804
-0.0280914306640625,1.185329556465149,-0.100600816309452,-0.5562630295753479,0.1216830164194107,0.2015747278928756,0.0,0.0,-0.272899449946911,0.7891148589199357
-0.0289182662963867,1.1722307205200195,-0.0913754627108573,-0.5828997492790222,0.1303297579288482,0.1729502379894256,0.0,0.0,-0.6797868305135026,0.9344844723257888
-0.0296601299196481,1.1585240364074707,-0.0812518745660781,-0.6098182797431946,0.1373840570449829,0.14109867811203,0.0,0.0,-0.631131083649338,-0.6136037275346968
-0.0304588321596384,1.144193172454834,-0.088950328528881,-0.6377862095832825,0.1464411914348602,0.1811585277318954,0.0,0.0,-0.9491666396264122,-0.6681592227671618
-0.0313182845711708,1.1292173862457275,-0.0971616059541702,-0.6667347550392151,0.1576465517282486,0.2241071164608001,0.0,0.0,0.9348177332797656,-0.6246635361459949
-0.032353114336729,1.1148829460144043,-0.1164306625723838,-0.6385091543197632,0.1706068664789199,0.2592059075832367,0.0,0.0,-0.267803509116038,-0.9512125816805098
-0.0334765426814556,1.0999237298965454,-0.1280793398618698,-0.6667404174804688,0.1863771080970764,0.3154046237468719,0.0,0.0,-0.5312642484826506,-0.7059360817837681
-0.0346651077270507,1.0843411684036257,-0.1367402076721191,-0.6949095129966736,0.2043652236461639,0.3597627282142639,0.0,0.0,-0.9176578643806544,0.963183200749954
-0.0357791893184185,1.0681674480438232,-0.1278556585311889,-0.7211949825286865,0.2209871858358383,0.3324387967586517,0.0,0.0,-0.1737204340874416,0.7535700851042543
-0.0368321426212787,1.0514118671417236,-0.1206552237272262,-0.7470720410346985,0.2365392744541168,0.3110416531562805,0.0,0.0,-0.7483411567295479,-0.7778416187434438
-0.0379496589303016,1.0340174436569214,-0.1292735040187835,-0.7760025858879089,0.2543697953224182,0.356610506772995,0.0,0.0,-0.638943960978696,0.9881559402545704
-0.0390015617012977,1.016047716140747,-0.1214350238442421,-0.8015603423118591,0.2709717154502868,0.3320382237434387,0.0,0.0,0.5937612297331762,-0.7954041940272181
-0.0402692779898643,0.997911810874939,-0.1448911875486374,-0.8095013499259949,0.2895825803279876,0.3722170889377594,0.0,0.0,-0.710556008227581,0.9306766646838708
-0.0414633750915527,0.9792010188102722,-0.1360300332307815,-0.8349925875663757,0.3067545592784881,0.3434397876262665,0.0,0.0,0.6276354492095668,0.625315027765904
-0.042815875262022,0.960981547832489,-0.1510963886976242,-0.8131830096244812,0.3231976628303528,0.3288623690605163,0.0,0.0,0.6076081830648423,0.6729328692837617
-0.0442825332283973,0.9427911639213562,-0.1615417301654815,-0.8118595480918884,0.3387176990509033,0.3104007542133331,0.0,0.0,-0.4639469528113711,-0.6521401013945698
-0.0457938201725482,0.9239720702171326,-0.167583018541336,-0.8403686285018921,0.3559875190258026,0.3453970551490783,0.0,0.0,-0.4560967748630082,-0.6045192627122151
-0.0473525039851665,0.904524028301239,-0.173938900232315,-0.8689556121826172,0.3750759661197662,0.3817696869373321,0.0,0.0,0.5982677758707624,-0.9308003385642072
-0.0491650588810443,0.885266900062561,-0.2014859616756439,-0.8613306283950806,0.3966201543807983,0.4308846592903137,0.0,0.0,-0.4205633276508038,0.7313424542928333
-0.0509346947073936,0.8654358386993408,-0.1963199973106384,-0.8869314789772034,0.4174158275127411,0.4159136712551117,0.0,0.0,0.6881476640701294,0.9991339445114136
-0.0527179725468158,0.8458625674247742,-0.1962071359157562,-0.8753330707550049,0.4368019104003906,0.3877217173576355,0.0,0.0,0.1573940515518188,0.9971497058868408
-0.0544459335505962,0.8260704874992371,-0.1890757381916046,-0.8848174810409546,0.4546074569225311,0.3561108112335205,0.0,0.0,0.1690473556518554,0.9967193603515624
-0.0561914443969726,0.8062780499458313,-0.1892486661672592,-0.884539008140564,0.4708141386508941,0.3241335153579712,0.0,0.0,-0.0170174241065979,0.9965287446975708
-0.0578669533133506,0.7859154343605042,-0.1808564364910125,-0.9095938205718994,0.485588014125824,0.2954777479171753,0.0,0.0,0.5054342746734619,0.9641200304031372
-0.0595712661743164,0.7654241919517517,-0.1823071241378784,-0.914953351020813,0.4988844394683838,0.265929251909256,0.0,0.0,0.3909976482391357,0.99027681350708
-0.0613323226571083,0.7449118494987488,-0.1865141987800598,-0.915492057800293,0.5106213092803955,0.234737753868103,0.0,0.0,0.5384613275527954,0.994182586669922
-0.0635107979178428,0.7247835397720337,-0.2266920357942581,-0.8979200720787048,0.5206403732299805,0.2003810852766037,0.0,0.0,0.2209168672561645,0.9530222415924072
-0.066014863550663,0.7047796845436096,-0.2578399181365967,-0.89192795753479,0.5291084051132202,0.1693607866764068,0.0,0.0,-0.0497877597808837,0.919895887374878
-0.0684564560651779,0.6842146515846252,-0.2503355145454407,-0.9164265990257264,0.5361840724945068,0.1415135413408279,0.0,0.0,0.3290343284606933,0.943446397781372
-0.0709532722830772,0.6637884974479675,-0.2545552551746368,-0.9097716212272644,0.541795015335083,0.1122183054685592,0.0,0.0,-0.0672225356101989,0.9724410772323608
-0.0733916312456131,0.6428093314170837,-0.2474886178970337,-0.9338811039924622,0.5460050106048584,0.0841995179653167,0.0,0.0,0.5182410478591919,0.9445035457611084
-0.0758781433105468,0.6218836903572083,-0.2510581612586975,-0.9310104846954346,0.5487886667251587,0.055672638118267,0.0,0.0,0.3447099924087524,0.7550461292266846
-0.0786511451005935,0.6012311577796936,-0.2787200212478637,-0.9184678792953492,0.5504293441772461,0.0328137949109077,0.0,0.0,-0.0634998679161071,0.5905328989028931
-0.0813725441694259,0.5800099968910217,-0.2726045846939087,-0.9433594942092896,0.5509732961654663,0.0108787911012768,0.0,0.0,0.2408204078674316,0.6573402881622314
-0.0843006148934364,0.5586040616035461,-0.292376160621643,-0.9511982798576356,0.5504769682884216,-0.0099264560267329,0.0,0.0,0.267444372177124,-0.1029690504074096
-0.0874851197004318,0.5374244451522827,-0.3187048435211181,-0.9414225220680236,0.5507763624191284,0.0059879454784095,0.0,0.0,0.0980775356292724,-0.1249919533729553
-0.0908241271972656,0.5162777304649353,-0.3349196314811706,-0.9402686953544616,0.5519575476646423,0.0236234162002801,0.0,0.0,-0.0702214241027832,-0.4214080572128296
-0.0941612273454666,0.4945191740989685,-0.3351250290870666,-0.9676304459571838,0.5535913705825806,0.0326768048107624,0.0,0.0,-0.2793294191360473,-0.47850501537323
-0.0974966064095497,0.4721484780311584,-0.3353295922279358,-0.9949920773506165,0.5556727647781372,0.0416273549199104,0.0,0.0,-0.3476638793945312,-0.6608437895774841
-0.1008681282401084,0.4491238296031952,-0.3404425978660583,-1.0246860980987549,0.5594964623451233,0.0764743238687515,0.0,0.0,-0.2277164459228515,-0.5996149778366089
-0.1042854338884353,0.4254466295242309,-0.346651554107666,-1.054392695426941,0.565246045589447,0.1149922236800193,0.0,0.0,-0.1383699178695678,-0.794350802898407
-0.107741929590702,0.4011165797710418,-0.3520846962928772,-1.084074854850769,0.5727803707122803,0.1506859958171844,0.0,0.0,-0.6375853419303894,-0.6410519480705261
-0.111237809062004,0.3761370480060577,-0.3574661612510681,-1.1136183738708496,0.5820573568344116,0.1855395585298538,0.0,0.0,-0.5970762968063354,-0.7020406126976013
-0.1147756576538086,0.350497841835022,-0.3632295131683349,-1.1437054872512815,0.593248724937439,0.2238275706768036,0.0,0.0,-0.7684023976325989,-0.5075176358222961
-0.1183524131774902,0.3242085576057434,-0.3684777021408081,-1.173333764076233,0.606167733669281,0.2583806812763214,0.0,0.0,-0.7271851897239685,-0.4454591274261474
-0.1219286918640136,0.2973090708255768,-0.3686631023883819,-1.2007062435150146,0.6194905042648315,0.2664552628993988,0.0,0.0,-0.811945378780365,-0.0086743235588073
-0.1255044937133789,0.2697994709014892,-0.3688460886478424,-1.228079319000244,0.6332096457481384,0.2743826508522033,0.0,0.0,-0.7488649487495422,0.2946943044662475
-0.1290801018476486,0.241679772734642,-0.3690265417098999,-1.2554532289505005,0.6473175287246704,0.2821571826934814,0.0,0.0,-0.5759046077728271,0.1703119277954101
-0.1326557099819183,0.2129500955343246,-0.3692043423652649,-1.2828274965286257,0.6618062257766724,0.2897733747959137,0.0,0.0,-0.3804365396499634,0.5590765476226807
-0.1362033784389495,0.1836459934711456,-0.3657535016536712,-1.30818772315979,0.6756269931793213,0.2764151990413666,0.0,0.0,0.1944556236267089,0.7681479454040527
-0.1399669647216797,0.1543387472629547,-0.386199414730072,-1.307868480682373,0.6881405711174011,0.2502705454826355,0.0,0.0,0.1229094266891479,0.912999987602234
-0.1441241204738617,0.1250628978013992,-0.4241856038570404,-1.3058359622955322,0.6990069150924683,0.217326670885086,0.0,0.0,0.3569351434707641,0.7711935043334961
-0.1484887152910232,0.0958432778716087,-0.4438810348510742,-1.3028358221054075,0.7085897922515869,0.1916575729846954,0.0,0.0,0.7669010162353516,0.7172631025314331
-0.1531105935573578,0.0665001273155212,-0.4685235619544983,-1.3077850341796875,0.7168560028076172,0.1653255224227905,0.0,1.0,0.9995791912078856,0.9999301433563232
-0.1569437980651855,0.0426682345569133,-0.37602499127388,-1.0553585290908811,0.7194277048110962,0.0662370175123214,0.0,0.0,0.9860184192657472,0.5656533241271973
-0.1597533226013183,0.0231055598706007,-0.2555762529373169,-0.8624287843704224,0.716911792755127,-0.0210787430405616,0.0,0.0,0.9940814971923828,0.1290861368179321
-0.1638553589582443,0.0047940467484295,-0.3673625588417053,-0.8153568506240845,0.6737185716629028,-0.5195194482803345,0.0,1.0,0.999842405319214,0.9984405040740968
-0.1671962738037109,-0.0075998688116669,-0.2228699922561645,-0.5196889042854309,0.5188737511634827,-2.760746955871582,0.0,1.0,1.0,-0.9999405741691588
-0.1686222106218338,-0.0094369314610958,-0.0121647343039512,-0.0592999719083309,0.3679920732975006,-2.705308198928833,0.0,1.0,1.0,-0.9999405741691588
