x_pos,y_pos,x_vel,y_vel,angle,ang_vel,leg_1,leg_2,main_booster,lat_booster
-0.0015172958374023,1.4030778408050537,-0.1538605242967605,-0.3485444486141205,0.0018974270205944,0.0374389439821243,0.0,0.0,0.8539832449337503,0.7939010130787683
-0.0029035569168627,1.3954851627349854,-0.139177456498146,-0.3374558985233307,0.00245170481503,0.0110870394855737,0.0,0.0,0.9772040679093046,0.7636739459958782
-0.0040513039566576,1.3880655765533447,-0.1143789887428283,-0.3297542929649353,0.0020576925016939,-0.0078813945874571,0.0,0.0,-0.993074442195626,-0.649358026809246
-0.0052536963485181,1.3800971508026123,-0.1215265169739723,-0.354159414768219,0.0033296472392976,0.0254417117685079,0.0,0.0,-0.3809389918842782,0.9368536284010268
-0.006360244937241,1.3715853691101074,-0.1097885817289352,-0.3782954514026642,0.0024788335431367,-0.0170177556574344,0.0,0.0,0.0901507520140365,-0.7859357610846867
-0.007418155670166,1.3630636930465698,-0.1067207008600235,-0.3787449300289154,0.0033917583059519,0.0182601679116487,0.0,0.0,0.6795656064964111,0.6625523863121426
-0.0084443092346191,1.3548760414123535,-0.1022783294320106,-0.3638966679573059,0.0030582537874579,-0.0066709816455841,0.0,0.0,-0.2422885480149652,0.6048020560323608
-0.0094044683501124,1.3461437225341797,-0.0942900627851486,-0.3881025314331054,0.0013587457360699,-0.0339933596551418,0.0,0.0,0.6223238336342953,0.7326831522650478
-0.0103141786530613,1.33810555934906,-0.0878920704126358,-0.3572525084018707,-0.0016923296498134,-0.0610272176563739,0.0,0.0,-0.5998050015423373,0.8028773367711839
-0.011153888888657,1.3295257091522217,-0.0794166550040245,-0.3813437819480896,-0.0062048961408436,-0.0902593880891799,0.0,0.0,0.3539427951320846,-0.8462029713935375
-0.0119704250246286,1.3211305141448977,-0.0789979174733161,-0.3731284141540527,-0.0088185630738735,-0.0522781237959861,0.0,0.0,-0.5608359339820934,-0.9937212230547232
-0.0128492359071969,1.312187671661377,-0.0871187299489975,-0.3974691331386566,-0.0095691978931427,-0.0150140076875686,0.0,0.0,0.399036101878462,0.9744106880399304
-0.0135117527097463,1.303588628768921,-0.0637695714831352,-0.382194310426712,-0.0120227793231606,-0.049076460301876,0.0,0.0,-0.229054901671891,-0.6371532432345055
-0.0142120365053415,1.2944377660751345,-0.068797156214714,-0.4067154228687286,-0.0132322469726204,-0.0241918601095676,0.0,0.0,0.9976219863331648,0.6317617967081078
-0.0146600725129246,1.286237359046936,-0.0429542139172554,-0.3644804656505584,-0.0150611568242311,-0.0365816168487072,0.0,0.0,0.1964021058529779,0.9640462910535972
-0.0149287227541208,1.277797818183899,-0.0232418868690729,-0.3751299679279327,-0.0186542458832263,-0.0718685686588287,0.0,0.0,-0.9825081192724068,0.7182967540351254
-0.0151207922026515,1.268818497657776,-0.0139266159385442,-0.3991588354110718,-0.0238746479153633,-0.1044172793626785,0.0,0.0,-0.2556940510955492,-0.7850119859753502
-0.0153532978147268,1.2592878341674805,-0.0193012356758117,-0.4236559867858886,-0.0277825891971588,-0.0781656950712204,0.0,0.0,0.4928761481632822,0.7808979258273862
-0.0153992651030421,1.2502989768981934,0.0006386659806594,-0.3996066153049469,-0.0329590290784835,-0.1035379990935325,0.0,0.0,-0.295980552833365,-0.7222591218441472
-0.0155028346925973,1.2407664060592651,-0.0069003766402602,-0.423749178647995,-0.0363871827721595,-0.0685693472623825,0.0,0.0,-0.0436810358630046,-0.7765860844931609
-0.0156478881835937,1.2306956052780151,-0.0123824002221226,-0.447641372680664,-0.0384793356060981,-0.0418465286493301,0.0,0.0,-0.9486849755246858,0.9383224325558964
-0.0157104488462209,1.2200686931610107,-0.0023496835492551,-0.472415417432785,-0.0423549935221672,-0.0775202363729476,0.0,0.0,0.5544775364678862,0.9099446677757512
-0.0155350686982274,1.2096484899520874,0.0229812934994697,-0.4632834792137146,-0.0477429740130901,-0.1077692881226539,0.0,0.0,0.8354188878327589,0.7316301707296771
-0.0151944160461425,1.199183225631714,0.0406689271330833,-0.4653471410274505,-0.0542788207530975,-0.1307286322116851,0.0,0.0,-0.450062736559498,0.7669876803503182
-0.0148004535585641,1.188170075416565,0.047064509242773,-0.4897626042366028,-0.0618640854954719,-0.1517188549041748,0.0,0.0,0.5092319458631769,0.8543691734721357
-0.0144420620054006,1.1775649785995483,0.045305885374546,-0.4717561900615692,-0.0712387189269065,-0.1874925792217254,0.0,0.0,-0.8926677745062506,0.8327967298000495
-0.014010620303452,1.1664127111434937,0.0541900619864463,-0.4962198138236999,-0.0821677967905998,-0.2185816764831543,0.0,0.0,-0.465062249164246,-0.7798046818729707
-0.0136466026306152,1.1547324657440186,0.0453998334705829,-0.5196472406387329,-0.0910921916365623,-0.178487941622734,0.0,0.0,0.1611414582800827,-0.8436555468598833
-0.0133981704711914,1.1433500051498413,0.0320965945720672,-0.5063465237617493,-0.0982825830578804,-0.1438074707984924,0.0,0.0,0.6424143708694414,-0.9421770673810896
-0.0131932254880666,1.1321558952331543,0.0257711447775363,-0.4978779554367065,-0.103518046438694,-0.1047094464302063,0.0,0.0,-0.6541947850777818,-0.8465911719760275
-0.0130454059690237,1.1204346418380735,0.0182893257588148,-0.5211886167526245,-0.1070067882537841,-0.0697746872901916,0.0,0.0,-0.2526666430128443,0.6208947753927295
-0.0128488540649414,1.1081565618515017,0.0241551734507083,-0.5460236668586731,-0.1114694699645042,-0.0892536491155624,0.0,0.0,0.8138778523965482,0.7578488988895922
-0.012585830874741,1.0966577529907229,0.0324184373021125,-0.5115342140197754,-0.1175492107868194,-0.1215947866439819,0.0,0.0,-0.2404472695637214,-0.7402548908868407
-0.0123811718076467,1.0846171379089355,0.0248415656387805,-0.535490095615387,-0.1218956708908081,-0.0869291275739669,0.0,0.0,-0.531165433499605,-0.6130000592463271
-0.0122166629880666,1.0720397233963013,0.0195190124213695,-0.5592467188835144,-0.124950461089611,-0.0610957033932209,0.0,0.0,-0.4653248002780923,-0.8579787089179507
-0.0121104242280125,1.058934450149536,0.0119171757251024,-0.5825689435005188,-0.1262425929307937,-0.0258425381034612,0.0,0.0,0.5071844251529489,-0.6268456031319453
-0.0120208738371729,1.045911431312561,0.0089535657316446,-0.5787952542304993,-0.1262443661689758,-3.541501428117044e-05,0.0,0.0,0.8718654451046359,-0.6580284650329098
-0.011821555905044,1.0336313247680664,0.0183996073901653,-0.5456566214561462,-0.124719388782978,0.0304995123296976,0.0,0.0,0.3077711554225102,0.9456400228376928
-0.0114936828613281,1.0218002796173096,0.0330813229084014,-0.5258473753929138,-0.1250069439411163,-0.0057512167841196,0.0,0.0,-0.7090304741321369,-0.7425247766285725
-0.0112150190398097,1.0094339847564695,0.0266450848430395,-0.5495132803916931,-0.1237918511033058,0.0243020523339509,0.0,0.0,-0.7136830384516384,0.8592153401236755
-0.0108740804716944,0.996517777442932,0.0341943353414535,-0.5740634202957153,-0.1238982379436492,-0.0021276278421282,0.0,0.0,-0.9982434511184692,-0.9563779830932616
-0.0105870245024561,0.9830639362335204,0.0272027254104614,-0.5978284478187561,-0.1224035546183586,0.0298938453197479,0.0,0.0,-0.9849939346313475,-0.9419483542442322
-0.0103569030761718,0.9690644145011902,0.0198457390069961,-0.6219412684440613,-0.1192552149295806,0.0629665926098823,0.0,0.0,-0.9920063614845276,-0.7856981158256531
-0.0101726530119776,0.9545261263847352,0.0138707756996154,-0.6457880139350891,-0.114719733595848,0.0907094404101371,0.0,0.0,-0.9931961297988892,-0.8722677826881409
-999.0,0.9394439458847046,0.0051072472706437,-0.6698326468467712,-0.1082553938031196,0.1292867660522461,0.0,0.0,-0.9929107427597046,-0.0736321806907653
-0.0099346162751317,0.9238156080245972,0.0056004663929343,-0.6941280961036682,-0.1017190814018249,0.1307260990142822,0.0,0.0,-0.9105272889137268,-0.0452600121498107
-0.0098072048276662,0.9076412320137024,0.0060861501842737,-0.71842360496521,-0.0951140746474266,0.1320999413728714,0.0,0.0,-0.8993114233016968,0.1571255922317505
-0.0096742631867527,0.8909206986427307,0.0065637193620204,-0.7427192330360413,-0.0884437561035156,0.13340625166893,0.0,0.0,-0.7440351843833923,0.6694424152374268
-0.0094944955781102,0.8736544251441956,0.0122301736846566,-0.7670586109161377,-0.0827498435974121,0.113878309726715,0.0,0.0,-0.8661917448043823,0.1837544441223144
-0.0093094827607274,0.8558419942855835,0.0126897571608424,-0.7913534045219421,-0.0769976377487182,0.1150440722703933,0.0,0.0,-0.6522580981254578,0.841541051864624
-0.009037303738296,0.8374736309051514,0.023454587906599,-0.8161889910697937,-0.0732661783695221,0.074629046022892,0.0,0.0,-0.7807051539421082,0.1602982282638549
-0.0087601663544774,0.8185586929321289,0.0238934513181448,-0.8404823541641235,-0.0694837793707847,0.0756477043032646,0.0,0.0,-0.1921730041503906,0.7074038982391357
-0.0084124561399221,0.7990864515304565,0.0325823202729225,-0.8653346300125122,-0.0673194602131843,0.0432866588234901,0.0,0.0,-0.4005544781684875,0.6043589115142822
-0.0080119129270315,0.7790682911872864,0.0390417501330375,-0.8896505236625671,-0.0663201212882995,0.0199867356568574,0.0,0.0,-0.2165229320526123,0.2957633733749389
-0.0076069831848144,0.7585035562515259,0.0394435375928878,-0.9139429330825806,-0.0652813538908958,0.0207752995193004,0.0,0.0,0.1485054492950439,-0.5607278347015381
-0.0072940825484693,0.7378916144371033,0.029203176498413,-0.915999472141266,-0.0632215961813926,0.0411952696740627,0.0,0.0,0.4660131931304931,-0.1040809750556945
-0.0068492889404296,0.7177838683128357,0.0419820919632911,-0.8935744166374207,-0.0607443749904632,0.0495442077517509,0.0,0.0,0.1403405666351318,-0.2046196460723877
-0.0062771798111498,0.6978178024291992,0.0542288422584533,-0.8872576355934143,-0.0577989630401134,0.0589083060622215,0.0,0.0,-0.0069665312767028,-0.4452075958251953
-0.0057015419006347,0.677305281162262,0.0545687489211559,-0.9115508198738098,-0.0548299141228199,0.0593813844025135,0.0,0.0,0.4592419862747192,-0.2789574265480041
-0.0051515577360987,0.6572914123535156,0.0522945411503315,-0.8894096612930298,-0.0521523430943489,0.0535511597990989,0.0,0.0,-0.1400092244148254,-0.7996945381164551
-0.0046563148498535,0.6367287039756775,0.0453182645142078,-0.913758397102356,-0.0480042695999145,0.082961581647396,0.0,0.0,0.8401904106140137,-0.5892992615699768
-0.0042865751311182,0.6168052554130554,0.0319118872284889,-0.8853330016136169,-0.0429927110671997,0.1002313867211341,0.0,0.0,0.664850115776062,0.0935755968093872
-0.0037672042381018,0.5971085429191589,0.0462681725621223,-0.8752560019493103,-0.0373974032700061,0.1119060665369033,0.0,0.0,0.4962053298950195,0.3368840217590332
-0.0032032965682446,0.5776965618133545,0.0506190843880176,-0.8626213669776917,-0.0316991843283176,0.113964557647705,0.0,0.0,0.0729105472564697,0.1770987510681152
-0.0026238441932946,0.5581284165382385,0.0521470718085765,-0.8695811033248901,-0.0259769521653652,0.1144446581602096,0.0,0.0,0.91241192817688,0.0414460897445678
-0.0021679878700524,0.5390456318855286,0.040467407554388,-0.8480465412139893,-0.0209207404404878,0.1011242046952247,0.0,0.0,0.7233877182006836,0.369659423828125
-0.0016694068908691,0.5207546353340149,0.0446419343352317,-0.8128698468208313,-0.0157676767557859,0.1030614003539085,0.0,0.0,0.6332433223724365,0.5137710571289062
-0.00103759765625,0.5023416876792908,0.0587668046355247,-0.8183085322380066,-0.0114107951521873,0.0871377438306808,0.0,0.0,0.6933177709579468,-0.6214815378189087
-0.0004139900265727,0.4847025871276855,0.0566393509507179,-0.783931314945221,-0.0057586976327002,0.1130416989326477,0.0,0.0,0.568564772605896,-0.3264529705047607
0.0001236915559275,0.4671920537948608,0.0484755150973796,-0.7782334089279175,-0.0005368115380406,0.1044375672936439,0.0,0.0,0.7254700660705566,0.1468318700790405
0.0005662917974404,0.4501961469650268,0.0394393764436244,-0.7553797960281372,0.004221370909363,0.095163807272911,0.0,0.0,0.6761560440063477,-0.2742924690246582
0.0010376930003985,0.4336012601852417,0.0421863123774528,-0.7375727891921997,0.0091007705777883,0.0975880995392799,0.0,0.0,0.4926178455352783,0.279117226600647
0.0013854980934411,0.4176030158996582,0.0304102692753076,-0.7110705971717834,0.0134156877174973,0.0862985253334045,0.0,0.0,0.2742848396301269,0.3440587520599365
0.0017834663158282,0.4017274677753448,0.0351952761411666,-0.7056254744529724,0.0179638192057609,0.0909627079963684,0.0,0.0,0.557914137840271,0.116062045097351
0.0021422386635094,0.385857880115509,0.0314550921320915,-0.705374002456665,0.0223332177847623,0.0873877853155136,0.0,0.0,0.9127025604248048,0.4048364162445068
0.0025702477432787,0.370009034872055,0.0380400493741035,-0.7044736742973328,0.0270324926823377,0.0939854755997657,0.0,0.0,0.7167665958404541,0.4152634143829345
0.0029544830322265,0.354141354560852,0.0338527336716651,-0.7053190469741821,0.0315430909395217,0.090211883187294,0.0,0.0,0.943722367286682,0.3537061214447021
0.0032977103255689,0.3391259908676147,0.0298398230224847,-0.6674513220787048,0.0359689556062221,0.0885173603892326,0.0,0.0,0.8654804229736328,0.7341957092285156
0.0037616728805005,0.324960708618164,0.0432124808430671,-0.6296470761299133,0.0391157940030097,0.062936820089817,0.0,0.0,0.5969879627227783,0.388019323348999
0.0040840147994458,0.3114267289638519,0.0296034216880798,-0.6015799045562744,0.0417172834277153,0.0520297698676586,0.0,0.0,0.8352234363555908,0.1063264608383178
0.0042448043823242,0.2978886365890503,0.0141646768897771,-0.6017462611198425,0.0436083227396011,0.0378207750618457,0.0,0.0,0.8957669734954834,0.643622636795044
0.0044634817168116,0.2851756811141968,0.0211727358400821,-0.5650434494018555,0.0442986935377121,0.0138072492554783,0.0,0.0,0.5392842292785645,0.4325060844421386
0.0045609474182128,0.272713303565979,0.0095398556441068,-0.5538899302482605,0.0445029810070991,0.0040858704596757,0.0,0.0,0.8656783103942871,0.7537498474121094
0.0046131135895848,0.2608540058135986,0.0067342906259,-0.5270366072654724,0.0430061519145965,-0.029936958104372,0.0,0.0,0.8275496959686279,0.6407177448272705
0.0046646120026707,0.249612957239151,0.0080524589866399,-0.4995213150978088,0.040145456790924,-0.0572138950228691,0.0,0.0,0.3969976902008056,-0.0886868238449096
0.004766178317368,0.2385671287775039,0.0127588929608464,-0.490855723619461,0.0375716350972652,-0.0514761321246624,0.0,0.0,0.0516747236251831,-0.393269419670105
0.0048705101944506,0.2273023426532745,0.0130131524056196,-0.5005964636802673,0.035012062638998,-0.0511912927031517,0.0,0.0,0.6277085542678833,-0.6696541905403137
0.0050029754638671,0.2160831242799759,0.0143354628235101,-0.498605340719223,0.0339458771049976,-0.0213238131254911,0.0,0.0,0.8462927341461182,-0.7176916599273682
0.0052307127043604,0.2052799761295318,0.0220461953431367,-0.480154424905777,0.0346609428524971,0.0143015254288911,0.0,0.0,0.7872846126556396,-0.4068700075149536
0.0055895806290209,0.1945776790380478,0.0345089994370937,-0.4756881594657898,0.0360144227743148,0.027069728821516,0.0,0.0,0.796882152557373,-0.3884044885635376
0.0059077264741063,0.1845533698797226,0.0305389706045389,-0.4455576539039612,0.0372791700065135,0.0252948459237813,0.0,0.0,0.8243284225463867,-0.8297526240348816
0.0061613083817064,0.1752427369356155,0.0223882924765348,-0.4138818681240082,0.040205642580986,0.0585297755897045,0.0,0.0,0.5873631238937378,-0.6282687187194824
0.0064638135954737,0.1663535386323928,0.0257834158837795,-0.3952038884162903,0.0446146614849567,0.0881802588701248,0.0,0.0,0.8027462959289551,-0.4827430844306946
0.0068547250702977,0.1574590504169464,0.034183420240879,-0.3954631388187408,0.0494700036942958,0.0971067398786544,0.0,0.0,0.7093251943588257,-0.5997141003608704
0.00710811605677,0.1487981677055359,0.0194382220506668,-0.3851363360881805,0.0553081557154655,0.1167628169059753,0.0,0.0,0.4994944334030151,-0.3191099166870117
0.0073891640640795,0.1407702714204788,0.0219043027609586,-0.3570365905761719,0.0614375509321689,0.1225880980491638,0.0,0.0,0.4157863855361938,0.0526856184005737
0.0076143266633152,0.1329246312379837,0.0164800100028514,-0.3489566743373871,0.067409947514534,0.1194479689002037,0.0,0.0,0.5120081901550293,0.0077755451202392
0.0076708793640136,0.1256107836961746,0.000206428579986,-0.3253136873245239,0.072790503501892,0.1076114326715469,0.0,0.0,-0.0547354221343994,0.6742258071899414
0.0077817915007472,0.1177606433629989,0.00728015974164,-0.3490859270095825,0.0765681639313697,0.0755529180169105,0.0,0.0,0.6734216213226318,-0.8353509902954102
0.0077021596953272,0.1104922890663147,-0.0132822794839739,-0.3233211636543274,0.0818391814827919,0.1054202690720558,0.0,0.0,0.3289517164230346,0.9375603199005128
0.0075640678405761,0.103584349155426,-0.0171291343867778,-0.3072050511837005,0.0851233378052711,0.0656831264495849,0.0,0.0,0.452337384223938,0.5621757507324219
0.0074029923416674,0.0967848375439643,-0.0181629173457622,-0.3023177981376648,0.0871671289205551,0.0408758521080017,0.0,0.0,0.4897850751876831,0.2059330940246582
0.0070835114456713,0.0902353823184967,-0.0334590896964073,-0.2911756634712219,0.0886582285165786,0.0298219881951808,0.0,0.0,0.1640559434890747,0.0005786418914794
0.0066190720535814,0.0836765617132186,-0.047386310994625,-0.2915593385696411,0.0895928367972374,0.0186923034489154,0.0,0.0,0.6725113391876221,0.8287023305892944
0.0062661170959472,0.0776875838637352,-0.0347059182822704,-0.2661433815956116,0.0890139639377594,-0.0115772020071744,0.0,0.0,0.4217495918273926,0.904367446899414
0.0060098646208643,0.0716360211372375,-0.0232207644730806,-0.2688160836696625,0.0866302624344825,-0.0476741939783096,0.0,0.0,0.532831072807312,0.3292398452758789
0.0058197020553052,0.0661130994558334,-0.0171771291643381,-0.2453569024801254,0.0848034024238586,-0.0365369021892547,0.0,0.0,0.536177396774292,0.2986307144165039
0.0055402754805982,0.0611193291842937,-0.0259256567806005,-0.221832662820816,0.0828128010034561,-0.0398123040795326,0.0,0.0,0.2663500308990478,0.8498839139938354
0.0053912163712084,0.0565918311476707,-0.0112267006188631,-0.2010222971439361,0.0791657716035842,-0.0729404240846633,0.0,0.0,0.2055698633193969,-0.3544771075248718
0.0052572251297533,0.052156887948513,-0.0099084954708814,-0.1969276219606399,0.0757116675376892,-0.0690822154283523,0.0,0.0,0.0783884525299072,0.1169276237487793
0.0050712586380541,0.0479720681905746,-0.0150173306465148,-0.1858161985874176,0.0721716210246086,-0.0708010643720626,0.0,0.0,-0.1803516149520874,-0.6030533313751221
0.0048352242447435,0.0432412959635257,-0.0210493914783,-0.2101329267024994,0.0696463882923126,-0.050504483282566,0.0,0.0,0.3314164876937866,0.899080753326416
0.0047120093367993,0.0385277606546878,-0.0079663079231977,-0.2092952579259872,0.0653299167752265,-0.086329236626625,0.0,0.0,0.2490656375885009,-0.1626319885253906
0.0044588088057935,0.0339584201574325,-0.0204545501619577,-0.2028750032186508,0.0605233199894428,-0.0961319878697395,0.0,0.0,0.5076634883880615,0.4258356094360351
0.0040533067658543,0.0295355655252933,-0.0350847169756889,-0.196360096335411,0.0551132000982761,-0.108202576637268,0.0,0.0,0.5748956203460693,0.9484965801239014
0.0036627769004553,0.0253752097487449,-0.0315752550959587,-0.1846470236778259,0.0477271787822246,-0.1477204412221908,0.0,0.0,0.6699182987213135,0.0047922134399414
0.003265667008236,0.0214787814766168,-0.0322978571057319,-0.1729591935873031,0.0404025614261627,-0.1464923918247223,0.0,0.0,0.5944764614105225,0.5924015045166016
0.003030490828678,0.0175623279064893,-0.0151814324781298,-0.1738623529672622,0.0321685373783111,-0.1646803915500641,0.0,0.0,0.4469627141952514,-0.0588945746421813
0.0028541565407067,0.0140021415427327,-0.0096286889165639,-0.1580825299024582,0.0242712572216987,-0.1579459458589553,0.0,0.0,0.4007890224456787,-0.4566368460655212
0.0026754378341138,0.0109224654734134,-0.0099189803004264,-0.1367661505937576,0.0164150930941104,-0.1571231484413147,0.0,0.0,0.120916724205017,0.1250967979431152
0.0025291442871093,0.007615515962243,-0.0068082315847277,-0.1469099074602127,0.0087027000263333,-0.1542479693889618,0.0,0.0,0.4411829710006714,-0.5192439556121826
