x_pos,y_pos,x_vel,y_vel,angle,ang_vel,leg_1,leg_2,main_booster,lat_booster
-0.0015051842201501,1.4029154777526855,-0.152157723903656,-0.3557556569576263,0.001471005147323,0.0289950706064701,0.0,0.0,0.9220070699304446,0.7765787996131983
-0.0028652190230786,1.395026683807373,-0.135770097374916,-0.3506121337413788,0.0012388044269755,-0.0046438644640147,0.0,0.0,-0.1158614547691536,-0.899538353604129
-0.0042603490874171,1.3864216804504397,-0.1403838247060775,-0.3824438154697418,0.0021032765507698,0.0172911249101161,0.0,0.0,-0.4369723602126949,-0.8254390622653202
-0.0057125091552734,1.377104878425598,-0.1477780938148498,-0.4140825271606445,0.0046321148984134,0.0505815632641315,0.0,0.0,-0.9511117840151332,0.931185507386244
-0.0070547102950513,1.3670828342437744,-0.1342223584651947,-0.445423811674118,0.0046339626424014,3.71935275325086e-05,0.0,0.0,-0.9741856483837116,0.990788800864492
-0.0082794185727834,1.3563511371612549,-0.119752824306488,-0.4769552946090698,0.001940258545801,-0.0538791790604591,0.0,0.0,0.9778099983538472,0.5360584059425917
-0.0094696041196584,1.3459479808807373,-0.1148402094841003,-0.4623698890209198,-0.0021938225254416,-0.0826891064643859,0.0,0.0,-0.9155419925010052,-0.572923222344945
-0.0106708528473973,1.3348374366760254,-0.116524338722229,-0.4938044548034668,-0.0057646655477583,-0.0714231058955192,0.0,0.0,-0.5156801849620107,-0.998464969567446
-0.0119292261078953,1.3230299949645996,-0.1239681467413902,-0.5247856378555298,-0.0076096435077488,-0.0369026660919189,0.0,0.0,-0.0006466486495,-0.8806672609896673
-0.0132335666567087,1.3105199337005615,-0.130033254623413,-0.5560030341148376,-0.0079993456602096,-0.0077947238460183,0.0,0.0,0.0619276391406327,-0.8137309987049421
-0.0145104406401515,1.2978746891021729,-0.1286675333976745,-0.5620018243789673,-0.007035921793431,0.0192701201885938,0.0,0.0,-0.9985978240377732,-0.6667031426423236
-0.0158096309751272,1.2845197916030884,-0.1317815780639648,-0.5935454964637756,-0.0051980088464915,0.0367616973817348,0.0,0.0,-0.1759869113895646,0.5490721722037267
-0.0170318596065044,1.270458459854126,-0.1224430054426193,-0.6249474287033081,-0.0049754129722714,0.0044524790719151,0.0,0.0,-0.0034747502542624,-0.8943092889874438
-0.0182917602360248,1.2556803226470947,-0.1275146305561065,-0.6567968130111694,-0.0034729775507003,0.0300515834242105,0.0,0.0,-0.929164428131926,-0.633202568973197
-0.0195650104433298,1.240200400352478,-0.1295268386602401,-0.6880001425743103,-0.0013004163047298,0.0434553250670433,0.0,0.0,-0.4685489867167429,0.597831393617396
-0.0207573883235454,1.2240042686462402,-0.1197241991758346,-0.7198240756988525,-0.0008205430349335,0.0095982896164059,0.0,0.0,0.0500470345849917,-0.6430373336645421
-0.0218754764646291,1.207922339439392,-0.1134117096662521,-0.7147520184516907,0.0007655380177311,0.031724814325571,0.0,0.0,0.4578231137587376,-0.7438785161165545
-0.0228874199092388,1.1916210651397705,-0.1042385548353195,-0.7245010137557983,0.0037775887176394,0.0602462477982044,0.0,0.0,-0.7175590350899994,0.9299532249305582
-0.0237882621586322,1.1746203899383545,-0.0906760469079017,-0.755591094493866,0.0043554627336561,0.0115584144368767,0.0,0.0,-0.8661693078206931,-0.8108999931942539
-0.0247358325868845,1.1569099426269531,-0.0968994945287704,-0.7871386408805847,0.0064720720984041,0.042335882782936,0.0,0.0,0.8957636948380814,-0.7962563589488256
-0.0255661960691213,1.1397916078567505,-0.0868329927325248,-0.7608366012573242,0.0102291321381926,0.0751479044556617,0.0,0.0,-0.6194895481574649,-0.5552154626538125
-0.0264134407043457,1.1219606399536133,-0.0893219336867332,-0.792529821395874,0.0147799188271164,0.0910238549113273,0.0,0.0,0.1609983749489998,0.8265508548572771
-0.0270692817866802,1.1039973497390747,-0.0683087557554245,-0.7983942627906799,0.0174718257039785,0.053842969238758,0.0,0.0,-0.1113072745475418,0.9987916153232737
-0.0276103969663381,1.0853163003921509,-0.0543010123074054,-0.8302692174911499,0.0176640562713146,0.0038449261337518,0.0,0.0,0.618915393299676,-0.6700204158248828
-0.0283406265079975,1.066868782043457,-0.0739446803927421,-0.8199055194854736,0.0185744911432266,0.0182099230587482,0.0,0.0,-0.7866257547642856,0.5813544579119516
-0.0290089603513479,1.0476946830749512,-0.0665871948003768,-0.8521768450737,0.0183254834264516,-0.0049799149855971,0.0,0.0,-0.5193446639028916,-0.977479502858833
-0.02972755394876,1.027815580368042,-0.073266826570034,-0.8835266828536987,0.0197268556803464,0.0280271209776401,0.0,0.0,-0.0703860452602518,-0.8978327246039113
-0.0305056571960449,1.0072346925735474,-0.0811489447951316,-0.9147583842277528,0.0230214390903711,0.0658915266394615,0.0,0.0,0.4006692717836411,0.7767161939107154
-0.0313344001770019,0.9869338870048524,-0.0841872543096542,-0.9022781252861024,0.0243164058774709,0.025899302214384,0.0,0.0,-0.2363042771500625,0.9308453731987608
-0.0320650115609169,0.9659232497215272,-0.072274699807167,-0.9337924122810364,0.0235497038811445,-0.0153343919664621,0.0,0.0,0.3870814518264578,-0.8968033474618369
-0.0328382477164268,0.945277988910675,-0.0780969783663749,-0.9175840616226196,0.0243097338825464,0.015200650319457,0.0,0.0,0.9970581531524658,0.8404974937438965
-0.0336331352591514,0.9247119426727296,-0.0780724436044693,-0.9140275716781616,0.0229086633771657,-0.0280213467776775,0.0,0.0,0.9956681728363036,-0.3059282898902893
-0.0345226302742958,0.9048856496810912,-0.0867904052138328,-0.8811390995979309,0.0207778569310903,-0.0426163040101528,0.0,0.0,0.9985218048095704,-0.3943108320236206
-0.0354708656668663,0.8850023746490479,-0.0920401513576507,-0.8836644887924194,0.0180245544761419,-0.0550659708678722,0.0,0.0,0.9727524518966676,-0.7772495746612549
-0.036445714533329,0.8655340075492859,-0.0960407704114914,-0.8652428984642029,0.0166019033640623,-0.0284532122313976,0.0,0.0,0.9889519214630128,0.140230655670166
-0.0373863205313682,0.8467230200767517,-0.0924561768770217,-0.836029052734375,0.0150204803794622,-0.0316286757588386,0.0,0.0,0.9346497058868408,-0.2915090322494507
-0.0383381843566894,0.8280020952224731,-0.0931760966777801,-0.8320217728614807,0.0130399661138653,-0.0396100692451,0.0,0.0,0.9519541263580322,-0.735831618309021
-0.0392837524414062,0.8099266886711121,-0.093900129199028,-0.8033451437950134,0.0123843234032392,-0.0131126921623945,0.0,0.0,0.9599080085754396,-0.0994701385498046
-0.0402609817683696,0.7926406860351562,-0.0965761467814445,-0.7682525515556335,0.01126270275563,-0.0224325805902481,0.0,0.0,0.124908447265625,-0.5590695738792419
-0.0412381179630756,0.7752671241760254,-0.0974910259246826,-0.7721595168113708,0.0110432486981153,-0.0043892725370824,0.0,0.0,0.259141206741333,0.5551145076751709
-0.0422393791377544,0.7580786943435669,-0.0983638018369674,-0.763920247554779,0.0092965178191661,-0.0349346175789833,0.0,0.0,0.3244713544845581,-0.3296327590942383
-0.0431180968880653,0.7408122420310974,-0.0863190367817878,-0.7673882842063904,0.0077692358754575,-0.0305456165224313,0.0,0.0,-0.4527449011802673,-0.5169640183448792
-0.044003389775753,0.7228308916091919,-0.0876203998923301,-0.7991682887077332,0.0068703847937285,-0.0179770644754171,0.0,0.0,0.6071255207061768,0.6925172805786133
-0.0447041504085063,0.7049123048782349,-0.0677586644887924,-0.7963752150535583,0.0045849015004932,-0.0457098707556724,0.0,0.0,-0.0643460154533386,-0.2516927123069763
-0.0453772544860839,0.6862848997116089,-0.0647653490304946,-0.8278790712356567,0.0020749729592353,-0.0501984469592571,0.0,0.0,0.825897216796875,-0.390394926071167
-0.0459726341068744,0.6675028204917908,-0.057012565433979,-0.8347567915916443,-0.0004194490029476,-0.0498885139822959,0.0,0.0,0.9614956378936768,-0.1748794317245483
-0.0464676842093467,0.6488077640533447,-0.0471016019582748,-0.8308916687965393,-0.0027929048519581,-0.047469176352024,0.0,0.0,0.8994649648666382,-0.4096416234970093
-0.0470615401864051,0.6308425664901733,-0.0561694130301475,-0.7984665036201477,-0.0059726317413151,-0.0635941699147224,0.0,0.0,0.8754163980484009,-0.8138580322265625
-0.0478516593575477,0.6135196089744568,-0.0768734216690063,-0.7699124813079834,-0.0080766482278704,-0.0420805998146534,0.0,0.0,0.6354880332946777,-0.1080525517463684
-0.0486310012638568,0.5962435603141785,-0.0754976421594619,-0.7678395509719849,-0.0104743177071213,-0.0479534342885017,0.0,0.0,0.9385058879852296,-0.3170658349990845
-0.0492073073983192,0.5792611241340637,-0.0557960979640483,-0.754789412021637,-0.0122839054092764,-0.0361917242407798,0.0,0.0,0.4361176490783691,-0.1153175234794616
-0.0497981086373329,0.5625313520431519,-0.056829996407032,-0.7435659766197205,-0.0145090399309992,-0.0445026345551013,0.0,0.0,0.7372157573699951,-0.533284604549408
-0.0502742752432823,0.5457891821861267,-0.0465931221842765,-0.7441051602363586,-0.0155119504779577,-0.0200582779943943,0.0,0.0,0.7495534420013428,0.3533973693847656
-0.0507062897086143,0.5296050906181335,-0.0420297756791114,-0.7193041443824768,-0.0166696738451719,-0.0231543872505426,0.0,0.0,0.8236523866653442,-0.1201984286308288
-0.0509372726082801,0.513515293598175,-0.0225399751216173,-0.7151080965995789,-0.0172299463301897,-0.0112052410840988,0.0,0.0,0.708661675453186,0.6590934991836548
-0.0511874184012413,0.4974461495876312,-0.0227101054042577,-0.7142142653465271,-0.0195063985884189,-0.0455290600657463,0.0,0.0,0.953665018081665,-0.3258696794509887
-0.0512805953621864,0.4820783734321594,-0.0073828613385558,-0.6830383539199829,-0.0214171912521123,-0.0382158160209655,0.0,0.0,0.7268595695495605,0.2129181623458862
-0.0511871352791786,0.4670544266700744,0.0107519160956144,-0.6677530407905579,-0.0228017400950193,-0.027690976858139,0.0,0.0,-0.0300526618957519,0.1069035530090332
-0.0510663986206054,0.4513216614723205,0.0136136682704091,-0.6992570161819458,-0.0243195369839668,-0.0303563214838504,0.0,0.0,0.8779424428939819,-0.4508975148200989
-0.0509832389652729,0.4362226724624634,0.0103849004954099,-0.6710990071296692,-0.0263632219284772,-0.0408734679222106,0.0,0.0,0.9332492351531982,0.0954674482345581
-0.0508016571402549,0.4210624098777771,0.0200640298426151,-0.6738254427909851,-0.0282471626996994,-0.0376787446439266,0.0,0.0,0.6902807950973511,-0.3581416606903076
-0.0506753921508789,0.4062737822532654,0.0151276085525751,-0.6573229432106018,-0.0307149458676576,-0.0493560768663883,0.0,0.0,0.5946354866027832,-0.323329746723175
-0.0503877624869346,0.3915192782878876,0.03080815076828,-0.6557973027229309,-0.0327324382960796,-0.0403499379754066,0.0,0.0,0.8901137113571167,-0.6835395693778992
-0.0500754341483116,0.3771095871925354,0.0319249741733074,-0.6404460668563843,-0.0334116742014884,-0.0135845597833395,0.0,0.0,0.8650356531143188,-0.1518914699554443
-0.0497124679386615,0.3626689910888672,0.0370229966938495,-0.6418182849884033,-0.0341347754001617,-0.0144619569182395,0.0,0.0,0.7129099369049072,-0.5100957751274109
-0.049479104578495,0.3484476506710052,0.0235073249787092,-0.6320650577545166,-0.034304816275835,-0.003400859888643,0.0,0.0,0.9332040548324584,-0.4196633100509643
-0.0491600036621093,0.335017442703247,0.0320307686924934,-0.5969029664993286,-0.0344268567860126,-0.0024406281299889,0.0,0.0,0.7340602874755859,-0.1029501557350158
-0.0487181656062603,0.3213340938091278,0.0439597591757774,-0.6081441640853882,-0.0342103689908981,0.0043299412354826,0.0,0.0,0.8167870044708252,-0.612275242805481
-0.0482348427176475,0.3083571195602417,0.0468527302145957,-0.5767180919647217,-0.0327441804111003,0.0293237715959548,0.0,0.0,0.6917893886566162,-0.2974658012390136
-0.0478062629699707,0.2954029142856598,0.0418634340167045,-0.5757243633270264,-0.0317675806581974,0.0195320341736078,0.0,0.0,0.7882840633392334,-0.3100057244300842
-0.047428511083126,0.2828433215618133,0.0372933149337768,-0.5581907629966736,-0.0312865413725376,0.009620452299714,0.0,0.0,0.895684003829956,-0.40204918384552
-0.0469680801033973,0.2706439197063446,0.0454245954751968,-0.5421814322471619,-0.0306701585650444,0.0123276580125093,0.0,0.0,0.6293115615844727,-0.3402764797210693
-0.0465842261910438,0.2589902579784393,0.0383722260594368,-0.5179392695426941,-0.0306616071611642,0.0001709969656076,0.0,0.0,0.7282522916793823,-0.8618698120117188
-0.0461403839290142,0.2475327849388122,0.0424923673272132,-0.5091861486434937,-0.0288049988448619,0.0371324643492698,0.0,0.0,0.6192436218261719,-0.5503643155097961
-0.0457407012581825,0.2359403520822525,0.0370830297470092,-0.515166699886322,-0.0259508062154054,0.0570838525891304,0.0,0.0,0.7486090660095215,0.2572100162506103
-0.0452364906668663,0.2241522818803787,0.0471994951367378,-0.5238608121871948,-0.0227613914757967,0.0637883618474006,0.0,0.0,0.8147931098937988,-0.2691759467124939
-0.0447351448237896,0.2122158855199813,0.047058492898941,-0.5304649472236633,-0.0197231341153383,0.0607653073966503,0.0,0.0,0.8474717140197754,0.4146418571472168
-0.0442028045654296,0.2009011805057525,0.0501851066946983,-0.5028373003005981,-0.0167117267847061,0.060227770358324,0.0,0.0,0.7436140775680542,-0.2798349857330322
-0.0435491576790809,0.1901669055223465,0.0618896782398223,-0.4770431518554687,-0.0132864322513341,0.068506121635437,0.0,0.0,0.7348626852035522,-0.7053514122962952
-0.0430461876094341,0.1800220757722854,0.0456572286784648,-0.4508472681045532,-0.0087121492251753,0.0914859548211097,0.0,0.0,0.5209249258041382,0.5711355209350586
-0.0426029190421104,0.1696212589740753,0.041118137538433,-0.4622471630573272,-0.0055446438491344,0.0633501634001731,0.0,0.0,0.5068013668060303,0.407730221748352
-0.042098045349121,0.1595928072929382,0.0470631048083305,-0.4457012116909027,-0.0021646521054208,0.0675999373197555,0.0,0.0,0.8117620944976807,-0.1316968202590942
-0.0416826233267784,0.1498025953769683,0.0385822020471096,-0.4351162612438202,0.0007495625177398,0.0582843013107776,0.0,0.0,0.695842981338501,0.662234902381897
-0.0412569046020507,0.1403501331806183,0.0410504452884197,-0.4201131463050842,0.0022604546975344,0.0302177611738443,0.0,0.0,0.3030630350112915,-0.4309780597686767
-0.0408227927982807,0.1310160458087921,0.041862454265356,-0.4148500561714172,0.0037872034590691,0.0305352173745632,0.0,0.0,0.6508536338806152,-0.746457040309906
-0.0403359420597553,0.1218456104397773,0.0453717783093452,-0.407586395740509,0.0070511922240257,0.0652797520160675,0.0,0.0,0.6486947536468506,-0.413701057434082
-0.0398102775216102,0.1124791204929351,0.0490721240639686,-0.4163081049919128,0.0104945190250873,0.0688664987683296,0.0,0.0,0.9516665935516356,-0.0466300845146179
-0.039163302630186,0.1031192168593406,0.0606265366077423,-0.4160317480564117,0.0145195666700601,0.0805011093616485,0.0,0.0,0.9597787857055664,-0.8345201015472412
-0.0383853912353515,0.0940693020820617,0.0715443715453147,-0.4022922813892364,0.020685464143753,0.1233179196715354,0.0,0.0,0.9857592582702636,-0.3011019229888916
-0.0374344810843467,0.0850272476673126,0.087976224720478,-0.4019834399223327,0.0277103073894977,0.1404968500137329,0.0,0.0,0.9821288585662842,-0.9228593111038208
-0.036574650555849,0.0766321495175361,0.0769346803426742,-0.3733105957508087,0.0366438515484333,0.178670659661293,0.0,0.0,0.9771842956542968,0.4834587574005127
-0.0356974601745605,0.0688920840620994,0.0784108787775039,-0.3442559838294983,0.0458408184349536,0.183939129114151,0.0,0.0,0.8913679122924805,0.109634518623352
-0.0347000136971473,0.0615985505282878,0.0896719843149185,-0.3244944512844085,0.0557932294905185,0.1990483254194259,0.0,0.0,0.8099055290222168,0.7810025215148926
-0.033527947962284,0.0541401468217372,0.1083562821149826,-0.3318395614624023,0.0645432397723198,0.17500039935112,0.0,0.0,0.9762752056121826,0.0776039361953735
-0.0324469581246376,0.046879731118679,0.0994512736797332,-0.3230822682380676,0.0731054842472076,0.1712446957826614,0.0,0.0,0.9810199737548828,0.0332975387573242
-0.0313301086425781,0.0404703952372074,0.1024529561400413,-0.2853366136550903,0.082243338227272,0.1827571839094162,0.0,0.0,0.8849760293960571,0.4860172271728515
-0.030284022912383,0.034320842474699,0.0954071059823036,-0.2738432586193084,0.0913672894239425,0.1824789643287658,0.0,0.0,0.9080162048339844,0.5398999452590942
-0.0294230468571186,0.0288257449865341,0.0783120989799499,-0.2447183579206466,0.0990830287337303,0.1543149650096893,0.0,0.0,0.8379817008972168,0.061306357383728
-0.0285351760685443,0.0237961392849683,0.0804427936673164,-0.2241163104772567,0.1073612198233604,0.1655636131763458,0.0,0.0,0.9129860401153564,0.7998945713043213
-0.0277387611567974,0.0193591937422752,0.0729456543922424,-0.1976936757564544,0.1140136420726776,0.1330486536026001,0.0,0.0,0.6925959587097168,0.3949546813964844
-0.0271082874387502,0.0153428884223103,0.0566281788051128,-0.1790044605731964,0.1203931272029876,0.1275896877050399,0.0,0.0,0.6446347236633301,0.902600884437561
-0.0264890678226947,0.0113614173606038,0.0572271049022674,-0.1773378103971481,0.1250531673431396,0.0932012349367141,0.0,1.0,0.9628770351409912,0.9194297790527344
-999.0,0.0081660486757755,0.0484944954514503,-0.1417707651853561,0.1169411391019821,-0.1636150181293487,0.0,1.0,0.9131110906600952,0.5776407718658447
-0.0259667392820119,0.0056192371994256,0.0339466705918312,-0.1115623638033866,0.0939616560935974,-0.4596596360206604,0.0,1.0,0.6335716247558594,-0.0479307770729064
-0.0258779525756835,0.0037706231232732,0.040459144860506,-0.0804897472262382,0.0626461878418922,-0.6263765096664429,0.0,1.0,0.6699414253234863,0.027756929397583
-999.0,0.0019017672166228,0.0453701242804527,-0.0819828286767005,0.0286342557519674,-0.6803021430969238,0.0,1.0,0.5405919551849365,-0.2001581192016601
-0.0255292896181345,0.0003905391786247,0.0568315684795379,-0.0668634325265884,-0.0039331051521003,-0.6513767838478088,0.0,1.0,0.3448159694671631,-0.5397989749908447
-0.0253436081111431,-0.0008756422903388,0.05006093531847,-0.0566469840705394,-0.0350197181105613,-0.6217328310012817,1.0,0.0,0.428032636642456,-0.626244843006134
-0.024998378008604,-0.0012853764928877,0.0535667724907398,-0.0190712045878171,-0.0524677149951458,-0.3472024798393249,1.0,0.0,-0.0985295176506042,-0.3649269342422485
-0.0245383270084857,-0.001826646272093,0.0469220504164695,-0.0241013281047344,-0.0533267930150032,-0.0171153806149959,1.0,0.0,-0.1484899520874023,0.0747874975204467
-0.0239848140627145,-0.0025385404005646,0.0407984182238578,-0.0311916805803775,-0.038916777819395,0.2882371842861175,1.0,0.0,-0.5390815734863281,-0.1543527245521545
-0.0233684536069631,-0.0035848163533955,0.036464799195528,-0.0460427030920982,-0.0140378195792436,0.4976174235343933,1.0,0.0,-0.1077225804328918,-0.2129112482070922
-0.0229268074035644,-0.0044934060424566,0.0298705138266086,-0.0403333529829978,1.8681688743527047e-05,0.2810548841953277,1.0,1.0,0.5820192098617554,0.2775168418884277
-0.0227829925715923,-0.0043429159559309,0.010944121517241,0.0066656423732638,0.003372146282345,0.0670130252838134,1.0,1.0,-0.6950451731681824,0.2139919996261596
-0.0227043144404888,-0.0040021683089435,0.0098446253687143,0.0151316244155168,0.0013968179700896,-0.0395514369010925,1.0,1.0,-0.741858959197998,-0.0088447332382202
-0.0226388927549123,-0.0034321809653192,0.0096115954220294,0.0253209955990314,-0.0016628390876576,-0.0612270310521125,1.0,1.0,-0.7456868290901184,-0.1276434063911438
-0.02255754545331,-0.0026357437018305,0.0098696704953908,0.0353845544159412,-0.0034030359238386,-0.0348338522017002,1.0,1.0,-0.2351990342140197,-0.1546670198440551
-0.0224573127925395,-0.0016509437700733,0.0101823434233665,0.0437609404325485,-0.0035823695361614,-0.0036146542988717,1.0,1.0,-0.5166670680046082,0.3172427415847778
-0.0222753528505563,-0.0007842326303943,0.0115597499534487,0.0385160520672798,0.0029506622813642,0.1306335479021072,1.0,1.0,-0.6387835144996643,0.7233989238739014
-0.0220767017453908,-0.0005708718090318,0.0181570146232843,0.0094734244048595,0.0046124747022986,0.0332116074860096,1.0,1.0,-0.7758771777153015,0.089517593383789
-0.0219392776489257,-0.000573732831981,0.0137229058891534,-0.0001298820861848,0.0046118427999317,-3.191763607901521e-05,1.0,1.0,-0.7365988492965698,-0.2463304996490478
