x_pos,y_pos,x_vel,y_vel,angle,ang_vel,leg_1,leg_2,main_booster,lat_booster
-0.0015262603992596,1.403080940246582,-0.154599443078041,-0.3484096229076385,0.0017727648373693,0.0349698476493358,0.0,0.0,-0.1737747192382812,0.7594199180603027
-0.0029896735213696,1.394717812538147,-0.1464407444000244,-0.3716959357261657,0.0018682775553315,0.0019111761357635,0.0,0.0,-0.6222191452980042,0.5155608654022217
-0.00440473575145,1.3858070373535156,-0.1403457075357437,-0.396037220954895,0.0007165597635321,-0.0230363886803388,0.0,0.0,-0.0155543684959411,0.301513671875
-0.0058202743530273,1.3763524293899536,-0.1403877735137939,-0.4201999008655548,-0.0004376143915578,-0.0230857543647289,0.0,0.0,0.7510576248168945,0.834397554397583
-0.00701904296875,1.3673936128616333,-0.117330864071846,-0.3981728553771972,-0.0029443046078085,-0.0501385927200317,0.0,0.0,-0.2479668855667114,0.4523845911026001
-0.0082167629152536,1.357891082763672,-0.117235779762268,-0.4223407506942749,-0.0054541388526558,-0.0502013452351093,0.0,0.0,0.4816174507141113,0.6571131944656372
-0.0093806264922022,1.348621845245361,-0.1124745830893516,-0.4119868576526642,-0.0093170283362269,-0.0772653445601463,0.0,0.0,-0.1152084469795227,-0.2769619226455688
-0.0105421068146824,1.3388091325759888,-0.1122459396719932,-0.4361533224582672,-0.0131835592910647,-0.0773377269506454,0.0,0.0,0.3230915069580078,-0.3246331214904785
-0.0117016788572072,1.329458236694336,-0.1119906157255172,-0.4156288802623749,-0.0171011891216039,-0.0783595889806747,0.0,0.0,-0.4304269552230835,0.468973159790039
-0.0128576280549168,1.3195639848709106,-0.1116382926702499,-0.4397972524166107,-0.0210238918662071,-0.0784609168767929,0.0,0.0,0.1184208393096923,0.2031506299972534
-0.0139428135007619,1.3097281455993652,-0.1048243045806884,-0.4372087717056274,-0.0246754586696624,-0.0730378627777099,0.0,0.0,-0.5838332176208496,0.6026408672332764
-0.0149703025817871,1.2993454933166504,-0.0977025628089904,-0.4615384340286255,-0.0296679753810167,-0.0998594835400581,0.0,0.0,-0.2023240327835083,-0.1350485682487487
-0.015992546454072,1.2884197235107422,-0.0971744209527969,-0.4856974184513092,-0.0346659235656261,-0.0999676957726478,0.0,0.0,-0.5654852390289307,0.2009437084197998
-0.0170090682804584,1.2769505977630615,-0.0965934842824935,-0.5098579525947571,-0.0396705418825149,-0.1001016870141029,0.0,0.0,0.5657577514648438,-0.9477294087409972
-0.0179116241633892,1.2661144733428955,-0.0872907787561416,-0.4816855192184448,-0.0426100939512252,-0.0587961599230766,0.0,0.0,-0.8540587425231934,-0.2696709632873535
-0.0188076011836528,1.254734754562378,-0.0866166651248931,-0.505855143070221,-0.0455580353736877,-0.0589638762176036,0.0,0.0,-0.818561315536499,-0.8622193336486816
-0.0197484977543354,1.242825269699097,-0.0924436524510383,-0.5293648838996887,-0.0471906661987304,-0.0326556041836738,0.0,0.0,-0.7562569379806519,-0.2214844822883606
-0.0206818580627441,1.2303720712661743,-0.0916813388466835,-0.5535248517990112,-0.0488317422568798,-0.0328245088458061,0.0,0.0,-0.8508327007293701,-0.7398332953453064
-0.0216560363769531,1.21738600730896,-0.0969956666231155,-0.5771743059158325,-0.0492464713752269,-0.0082957651466131,0.0,0.0,-0.5434113144874573,-0.2484362125396728
-0.0226219184696674,1.2038562297821045,-0.0961544960737228,-0.6013338565826416,-0.049670111387968,-0.0084734186530113,0.0,0.0,-0.3470760583877563,-0.8946470618247986
-0.0236344337463378,1.189793586730957,-0.1022367253899574,-0.6249718070030212,-0.0486991144716739,0.0194218344986438,0.0,0.0,-0.6240370869636536,-0.1785409450531005
-0.0246379859745502,1.175187349319458,-0.101326048374176,-0.6491315364837646,-0.0477374158799648,0.0192356798797845,0.0,0.0,-0.5383568406105042,-0.7213088870048523
-0.025676917284727,1.1600397825241089,-0.1059914603829383,-0.6731570959091187,-0.0456591546535491,0.0415691547095775,0.0,0.0,0.2407281398773193,-0.1449940204620361
-0.0266429893672466,1.1446964740753174,-0.0989525392651557,-0.6818568706512451,-0.0433466993272304,0.0462533310055732,0.0,0.0,-0.4895925521850586,-0.0205574631690979
-0.0275992397218942,1.1288095712661743,-0.0979502350091934,-0.7060196995735168,-0.0410431437194347,0.0460752472281456,0.0,0.0,-0.025384247303009,-0.1332985758781433
-0.0285457614809274,1.11235773563385,-0.0969777926802635,-0.7311312556266785,-0.038748100399971,0.0459010936319828,0.0,0.0,-0.0323317646980285,0.6035723686218262
-0.0294336322695016,1.0953633785247805,-0.089877925813198,-0.7552775144577026,-0.037669189274311,0.0215782485902309,0.0,0.0,0.7354123592376709,-0.438065767288208
-0.0304151531308889,1.0791326761245728,-0.0985970050096511,-0.7213547825813293,-0.0372334234416484,0.0087153827771544,0.0,0.0,0.2062554359436035,-0.715241014957428
-0.0315285697579383,1.0632213354110718,-0.1130745857954025,-0.7071331739425659,-0.0355144031345844,0.0343802943825721,0.0,0.0,0.5298042297363281,0.2534626722335815
-0.0326340682804584,1.047444224357605,-0.1121907234191894,-0.7011675238609314,-0.033892922103405,0.0324294008314609,0.0,0.0,-0.6291490197181702,0.1060330867767334
-0.0337280258536338,1.0311235189437866,-0.1110389977693557,-0.7253252863883972,-0.0322786979377269,0.0322847887873649,0.0,0.0,-0.0553150177001953,-0.1044344902038574
-0.0348105430603027,1.0142595767974854,-0.1098688095808029,-0.7494828701019287,-0.0306713189929723,0.0321473330259323,0.0,0.0,0.3472622632980346,-0.3877109289169311
-0.0359283462166786,0.997835099697113,-0.113089419901371,-0.7299500703811646,-0.0293819159269332,0.0257879979908466,0.0,0.0,0.17849862575531,-0.3142855167388916
-0.0370720848441123,0.9812547564506532,-0.1154618039727211,-0.736878514289856,-0.028308942914009,0.0214594900608062,0.0,0.0,-0.1160663962364196,0.3059808015823364
-0.0382036194205284,0.964130997657776,-0.1142439693212509,-0.7610359787940979,-0.0272415969520807,0.0213471408933401,0.0,0.0,0.7862772941589355,-0.4616224765777588
-0.0392810814082622,0.9476891160011292,-0.1089092940092086,-0.7307309508323669,-0.0260884538292884,0.023062702268362,0.0,0.0,0.0587738752365112,0.0018854141235351
-0.0403553023934364,0.9311417937278748,-0.1085057482123375,-0.7354150414466858,-0.0250177457928657,0.0214140079915523,0.0,0.0,-0.5538615584373474,-0.6172803044319153
-0.0414627082645893,0.9140574932098388,-0.1129823178052902,-0.7592656016349792,-0.0228006970137357,0.0443410277366638,0.0,0.0,-0.0099983215332031,0.3608131408691406
-0.0425574295222759,0.896429717540741,-0.1117164641618728,-0.7834234237670898,-0.0205872021615505,0.0442699566483497,0.0,0.0,0.5097757577896118,0.5887613296508789
-0.0435534492135047,0.8790900707244873,-0.1007143482565879,-0.7706407904624939,-0.0194830726832151,0.022082457318902,0.0,0.0,0.6803559064865112,-0.018300175666809
-0.0446296706795692,0.8623977303504944,-0.1082338839769363,-0.7418791055679321,-0.0188837554305791,0.0119865341112017,0.0,0.0,-0.5168863534927368,-0.235285997390747
-0.0456930175423622,0.8451616168022156,-0.1069418415427208,-0.7660364508628845,-0.0182861909270286,0.0119513794779777,0.0,0.0,0.3480186462402344,-0.503101110458374
-0.0466929450631141,0.8277592062950134,-0.1018149033188819,-0.7734259366989136,-0.0164843294769525,0.0360372141003608,0.0,0.0,0.3001723289489746,-0.3252845406532287
-0.0475947372615337,0.8104352355003357,-0.0923759192228317,-0.7699353694915771,-0.0143215106800198,0.0432565137743949,0.0,0.0,-0.3852028846740722,0.2334330081939697
-0.0484835617244243,0.7925677299499512,-0.0910647958517074,-0.7940931916236877,-0.0121584795415401,0.0432604029774665,0.0,0.0,0.4884567260742187,0.5503380298614502
-0.049267292022705,0.7746009230613708,-0.0795604139566421,-0.7985116839408875,-0.0109812971204519,0.0235436409711837,0.0,0.0,0.6606173515319824,0.3633044958114624
-0.0499713905155658,0.7567634582519531,-0.0719013586640358,-0.7927682399749756,-0.0095189474523067,0.0292470809072256,0.0,0.0,0.5608224868774414,0.3123890161514282
-0.0507610328495502,0.7395654320716858,-0.079945370554924,-0.7643507719039917,-0.008545521646738,0.0194685403257608,0.0,0.0,0.4110283851623535,0.644058108329773
-0.0516050346195697,0.7228400111198425,-0.0838513523340225,-0.7433490753173828,-0.0090917767956852,-0.0109251085668802,0.0,0.0,-0.4258976578712463,0.0592737197875976
-0.0524356849491596,0.7055713534355164,-0.0825221091508865,-0.7675065398216248,-0.0096343280747532,-0.0108511317521333,0.0,0.0,0.1799145936965942,0.1721516847610473
-0.0531466491520404,0.6883691549301147,-0.0710328668355941,-0.7645393013954163,-0.0096985949203372,-0.0012852599611505,0.0,0.0,0.0554955005645751,0.1339457035064697
-0.0538764968514442,0.671329915523529,-0.0727486386895179,-0.7572987079620361,-0.0099279042333364,-0.0045860731042921,0.0,0.0,0.4801193475723266,0.370323896408081
-0.0544909462332725,0.6543431282043457,-0.0616845376789569,-0.7549669146537781,-0.0096983071416616,0.0045921020209789,0.0,0.0,0.2744436264038086,0.8022764921188354
-0.0550197586417198,0.6377422213554382,-0.051504623144865,-0.7378284931182861,-0.0110543631017208,-0.0271212849766016,0.0,0.0,0.0323997735977172,-0.1194534301757812
-0.0554387085139751,0.621053159236908,-0.040960106998682,-0.7417408227920532,-0.0119723957031965,-0.0183605775237083,0.0,0.0,0.1597909927368164,-0.077574610710144
-0.0559072494506835,0.6043180227279663,-0.0456245355308055,-0.7437968850135803,-0.0131926732137799,-0.0244056396186351,0.0,0.0,0.2584865093231201,0.0410181283950805
-0.0562829002737998,0.5879483819007874,-0.0366662926971912,-0.7275449633598328,-0.0140728903934359,-0.0176045019179582,0.0,0.0,0.249469518661499,0.6413794755935669
-0.0564711578190326,0.5717994570732117,-0.0168420542031526,-0.7177523970603943,-0.0160285308957099,-0.0391126871109008,0.0,0.0,0.2435901165008545,0.3748317956924438
-0.0565798766911029,0.5560351014137268,-0.0091614797711372,-0.7006569504737854,-0.017713826149702,-0.0337059870362281,0.0,0.0,0.0171949863433837,0.2890456914901733
-0.0567134842276573,0.5404540300369263,-0.0114497002214193,-0.692513644695282,-0.0196051895618438,-0.0378272384405136,0.0,0.0,0.1329870223999023,-0.510282576084137
-0.0568307861685752,0.5247060656547546,-0.0109280673786997,-0.699924647808075,-0.0203943606466054,-0.015783566981554,0.0,0.0,0.3781094551086426,0.689273476600647
-0.0569609627127647,0.5092966556549072,-0.010681296698749,-0.6848944425582886,-0.0227005463093519,-0.0461235865950584,0.0,0.0,0.1070175170898437,0.0106167793273925
-0.0569872856140136,0.4938606321811676,-0.0006982622435316,-0.6860753297805786,-0.0246109943836927,-0.0382088124752044,0.0,0.0,0.5605974197387695,-0.3664542436599731
-0.0569639205932617,0.4787485003471374,0.0041533992625772,-0.6716804504394531,-0.026404907926917,-0.0358780398964881,0.0,0.0,0.1687147617340088,0.2476847171783447
-0.0569144263863563,0.4635179042816162,0.0067281248047947,-0.6769498586654663,-0.028158999979496,-0.0350821204483509,0.0,0.0,0.6998776197433472,-0.3780229091644287
-0.0569620132446289,0.4486609101295471,-0.0024016709066927,-0.6603556871414185,-0.0304874964058399,-0.0465698316693306,0.0,0.0,0.7522759437561035,0.3561943769454956
-0.0569461807608604,0.4346202909946441,0.0038217834662646,-0.6240739822387695,-0.0326952114701271,-0.0441541224718093,0.0,0.0,0.0474672317504882,0.4997296333312988
-0.05685930326581,0.4203115999698639,0.0106629999354481,-0.6359856128692627,-0.0346461124718189,-0.0390180870890617,0.0,0.0,0.9518663883209229,-0.2521807551383972
-0.0566926002502441,0.406969666481018,0.0184703730046749,-0.5930169224739075,-0.0364327132701873,-0.0357317887246608,0.0,0.0,0.4048385620117187,-0.6754194498062134
-0.0566404350101947,0.3936923742294311,0.0058187679387629,-0.5901162624359131,-0.0370191410183906,-0.0117286723107099,0.0,0.0,-0.3083183765411377,0.5471282005310059
-0.0565387718379497,0.3798717558383941,0.0116758830845355,-0.6142857670783997,-0.0385099276900291,-0.0298156440258026,0.0,0.0,0.8705011606216431,0.3767119646072387
-0.0563625320792198,0.3665617704391479,0.0189482364803552,-0.5915893316268921,-0.039821308106184,-0.0262273140251636,0.0,0.0,0.7162380218505859,0.4357495307922363
-0.0562726035714149,0.3540311455726623,0.0109281698241829,-0.5569680333137512,-0.0417328774929046,-0.0382313020527362,0.0,0.0,-0.5637623071670532,0.0448269844055175
-0.0561702735722065,0.3409571349620819,0.0121459504589438,-0.5811256766319275,-0.0436250492930412,-0.0378433540463447,0.0,0.0,0.901386022567749,0.0288747549057006
-0.0560747161507606,0.3280165195465088,0.0116210039705038,-0.5751981735229492,-0.0456768609583377,-0.0410357527434825,0.0,0.0,0.8968541622161865,-0.5078374743461609
-0.055907916277647,0.315083384513855,0.0174684505909681,-0.5748296976089478,-0.0464516840875148,-0.0154965640977025,0.0,0.0,0.8223369121551514,0.1016769409179687
-0.0557464584708213,0.3021700978279114,0.0170689933001995,-0.5739514231681824,-0.0473668985068798,-0.0183042418211698,0.0,0.0,0.7968399524688721,-0.6485899686813354
-0.0555931106209754,0.2900160551071167,0.0149515299126505,-0.5401685237884521,-0.0469935424625873,0.00746755534783,0.0,0.0,0.8575878143310547,0.1231852769851684
-0.0552950873970985,0.2786864042282104,0.0289818495512008,-0.5035141110420227,-0.0461821034550666,0.0162287894636392,0.0,0.0,0.4761712551116943,0.0590529441833496
-0.0550519004464149,0.267914354801178,0.0239437408745288,-0.4787439107894897,-0.0458122789859771,0.0073967212811112,0.0,0.0,0.4016647338867187,-0.1802667379379272
-0.0548940673470497,0.2570273876190185,0.0158980973064899,-0.4838673770427704,-0.0459276027977466,-0.0023065987043082,0.0,0.0,0.2448530197143554,-0.3221421241760254
-0.0546672828495502,0.2464872896671295,0.0226300898939371,-0.4684469103813171,-0.0458792932331562,0.0009662069496698,0.0,0.0,0.4380772113800049,-0.2886894345283508
-0.0544945709407329,0.2361602932214737,0.0176148302853107,-0.4589861333370209,-0.0462155528366565,-0.00672507006675,0.0,0.0,0.1380914449691772,-0.4281848669052124
-0.0543270111083984,0.2259920686483383,0.0172428842633962,-0.4519377052783966,-0.0467026643455028,-0.0097421957179903,0.0,0.0,0.2326381206512451,-0.4116007685661316
-0.0541334152221679,0.2160626053810119,0.0198761336505413,-0.4413254559040069,-0.0472068302333354,-0.0100833950564265,0.0,0.0,0.1768445968627929,-0.4270533919334411
-0.053847599774599,0.2062061578035354,0.0287723392248153,-0.4380713105201721,-0.0473990924656391,-0.0038452055305242,0.0,0.0,0.0598095655441284,-0.6717974543571472
-0.0535771362483501,0.1961310654878616,0.0258441921323537,-0.4477436244487762,-0.0462131649255752,0.0237185414880514,0.0,0.0,0.3976936340332031,-0.3514392375946045
-0.0532024390995502,0.1860174238681793,0.0358744338154792,-0.4494467377662658,-0.0446389056742191,0.0314850285649299,0.0,0.0,0.1014622449874877,-0.5750346183776855
-0.0527373328804969,0.175926387310028,0.0435646846890449,-0.4484054744243622,-0.0417207926511764,0.0583622083067894,0.0,0.0,0.2499309778213501,-0.1930779218673706
-0.0521446242928504,0.1657324880361557,0.0557918772101402,-0.452968418598175,-0.0382888726890087,0.0686383917927742,0.0,0.0,0.3486623764038086,0.0811585187911987
-0.05152378231287,0.1559146791696548,0.0586152374744415,-0.436260849237442,-0.0348520725965499,0.0687357932329177,0.0,0.0,0.1642531156539917,-0.8753941655158997
-0.0509187690913677,0.1463639289140701,0.0552220046520233,-0.4243660867214203,-0.0296352542936801,0.1043362244963646,0.0,0.0,0.3238881826400757,-0.673093318939209
-0.050231359899044,0.1370714753866195,0.061887152493,-0.4128766357898712,-0.0228678155690431,0.1353483945131302,0.0,0.0,0.287305474281311,-0.3383057117462158
-0.0494508743286132,0.1276149302721023,0.0707976669073104,-0.4201996028423309,-0.0157097317278385,0.1431616693735122,0.0,0.0,0.7887918949127197,-0.6856657862663269
-0.048769187182188,0.1184432804584503,0.0596542432904243,-0.4075613617897033,-0.0073050442151725,0.1680936813354492,0.0,0.0,0.6413407325744629,0.7070238590240479
-0.047925092279911,0.1100214347243309,0.0770961791276931,-0.3742853999137878,-8.713980059837922e-05,0.1443578600883484,0.0,0.0,0.3281421661376953,-0.6441967487335205
-0.0471447929739952,0.1017429903149604,0.069431647658348,-0.3679550290107727,0.00840256921947,0.1697939336299896,0.0,0.0,0.5764036178588867,0.3798681497573852
-0.0464819893240928,0.0940589308738708,0.0582128278911113,-0.3415807485580444,0.0163711979985237,0.1593726575374603,0.0,0.0,0.2751649618148803,0.7732081413269043
-0.0456834807991981,0.086647093296051,0.0732228308916091,-0.3295012414455414,0.0229188110679388,0.1309524625539779,0.0,0.0,0.2592337131500244,0.5260905027389526
-0.0448939315974712,0.0795534700155258,0.0734558627009391,-0.3153666257858276,0.0283527057617902,0.1086775064468383,0.0,0.0,0.1736162900924682,0.9559894800186156
-0.0441062934696674,0.0727212727069854,0.0751719027757644,-0.3037258386611938,0.0319026187062263,0.0709981024265289,0.0,0.0,0.1916850805282592,-0.0267524719238281
-0.0433414466679096,0.0658833608031272,0.0729381889104843,-0.3039869964122772,0.0353986322879791,0.0699203237891197,0.0,0.0,0.3547602891921997,-0.6155334711074829
-0.0427416786551475,0.0592338405549526,0.0553804114460945,-0.2956490218639374,0.0399429276585578,0.0908858776092529,0.0,0.0,0.7259714603424072,0.9212331771850586
-0.0422601699829101,0.0528528317809104,0.0456496365368366,-0.2836682498455047,0.0424150228500366,0.0494420789182186,0.0,0.0,0.8096435070037842,0.7541639804840088
-0.0416204445064067,0.0471243485808372,0.0626822113990783,-0.2546387314796448,0.0436884090304374,0.0254678931087255,0.0,0.0,0.2201368808746338,0.8830029964447021
-0.0408647544682025,0.0412609688937664,0.0759856253862381,-0.2605827152729034,0.0432666465640068,-0.0084349904209375,0.0,0.0,0.3803828954696655,-0.2195820212364196
-0.0400105491280555,0.0358172282576561,0.0852464288473129,-0.2419513612985611,0.0434354767203331,0.0033765647094696,0.0,0.0,0.4936385154724121,-0.6980189085006714
-0.0392602905631065,0.0308819636702537,0.0734750181436538,-0.2193886488676071,0.0449792221188545,0.0308747552335262,0.0,0.0,-0.1710658073425293,-0.6650121212005615
-0.038545798510313,0.0254083257168531,0.0688363164663314,-0.2433546185493469,0.0475614592432975,0.05164460465312,0.0,0.0,0.8568644523620605,0.831312894821167
-0.0376983657479286,0.0203786473721265,0.0835841298103332,-0.2235754579305648,0.0487068966031074,0.0229087434709072,0.0,0.0,0.6788341999053955,0.2116625308990478
-0.0368947014212608,0.0160480588674545,0.079210914671421,-0.1925099492073059,0.049848772585392,0.022837420925498,0.0,0.0,0.4061923027038574,-0.0814706683158874
-0.0360692031681537,0.012182030826807,0.0811217203736305,-0.1718708425760269,0.0512599200010299,0.028222844004631,0.0,0.0,0.1291041374206543,0.3980774879455566
-0.035201359540224,0.0082461927086114,0.085065059363842,-0.1749875396490097,0.052956249564886,0.0339267551898956,0.0,0.0,0.3249944448471069,-0.3692814111709595
-0.0344546325504779,0.0045017935335636,0.0733843222260475,-0.16646309196949,0.0542292892932891,0.0254606865346431,0.0,0.0,0.4378939867019653,0.3902912139892578
-0.0339350700378418,0.0016022181371226,0.0702845007181167,-0.1283271014690399,0.0360524281859397,-0.3636242747306824,0.0,1.0,0.3776305913925171,-0.0298048257827758
-0.0335454940795898,-0.0005916142254136,0.0724279433488845,-0.09705351293087,0.0029155479278415,-0.6628512740135193,0.0,1.0,0.4533966779708862,-0.4675883650779724
-0.0331176742911338,-0.002638783538714,0.0751843824982643,-0.0912304744124412,-0.0290708933025598,-0.6397292613983154,1.0,1.0,0.3867976665496826,-0.8888314366340637
-0.0325711257755756,-0.0042270086705684,0.0716969296336174,-0.0713885501027107,-0.0441873148083686,-0.3001286387443542,1.0,0.0,0.2589309215545654,-0.5034195184707642
-0.0318224914371967,-0.0049485587514936,0.0701663047075271,-0.0319483950734138,-0.0394903905689716,0.0940012410283088,1.0,0.0,-0.2094902992248535,-0.41646409034729
-0.0311854369938373,-0.0050675775855779,0.0598184540867805,-0.0051978840492665,-0.0356235355138778,0.0773749351501464,1.0,1.0,-0.5368779301643372,-0.9512650966644288
-0.0307319648563861,-0.0046172882430255,0.0411523953080177,0.0201035253703594,-0.0314531587064266,0.0834350883960723,1.0,1.0,-0.5832686424255371,-0.9455239772796632
