x_pos,y_pos,x_vel,y_vel,angle,ang_vel,leg_1,leg_2,main_booster,lat_booster
-0.0015013695228844,1.4032937288284302,-0.1524383723735809,-0.338951051235199,0.0020561600103974,0.0405817069113254,0.0,0.0,0.7527184406025176,-0.8523022733747598
-0.0029891014564782,1.396089792251587,-0.1529414504766464,-0.3201878368854522,0.0061724865809082,0.0823351591825485,0.0,0.0,-0.2119753292594548,0.1468856863984343
-0.0044576646760106,1.3885546922683716,-0.151327833533287,-0.3349191844463348,0.0106007382273674,0.0885732695460319,0.0,0.0,-0.7338242713769654,-0.3107348590564457
-0.0059084892272949,1.380689024925232,-0.1498842686414718,-0.3496223986148834,0.0153507413342595,0.0950084775686264,0.0,0.0,0.1477368517712991,-0.712258474207652
-0.0073047638870775,1.3731759786605835,-0.146315723657608,-0.3339971005916595,0.0219664722681045,0.132327064871788,0.0,0.0,-0.0618566876422048,0.5519681516873943
-0.0086335185915231,1.3653336763381958,-0.1385517418384552,-0.348643958568573,0.027575884014368,0.1121986359357833,0.0,0.0,0.613367559909036,-0.1967911444863684
-0.009987449273467,1.3580058813095093,-0.1413097977638244,-0.3258018791675567,0.0334230251610279,0.1169537901878357,0.0,0.0,-0.9978100847745566,-0.111805869721292
-0.0113309863954782,1.3503477573394775,-0.1406080275774002,-0.3405125439167022,0.0396183095872402,0.1239168792963028,0.0,0.0,0.7611605130385835,0.5690011991284194
-0.012670231051743,1.3437045812606812,-0.1393699198961258,-0.2954030930995941,0.0450006127357482,0.1076560616493225,0.0,0.0,-0.920601062866612,-0.6148473346960801
-0.0140514373779296,1.3367319107055664,-0.1451470255851745,-0.3101302683353424,0.051963061094284,0.1392614841461181,0.0,0.0,0.8110236682736172,-0.5872248762580469
-0.0154067995026707,1.3304102420806885,-0.1444071233272552,-0.2812889218330383,0.0607356540858745,0.1754682958126068,0.0,0.0,0.5274015961303218,0.4431096945349773
-0.0167239196598529,1.3244962692260742,-0.141250655055046,-0.2632553875446319,0.0701868832111358,0.1890422105789184,0.0,0.0,-0.5938002019176185,-0.6913910798058054
-0.0180831905454397,1.3182523250579834,-0.146909013390541,-0.2780613601207733,0.0810876414179802,0.2180346995592117,0.0,0.0,0.5281407244392196,-0.44130185497483
-0.0194064136594533,1.312178611755371,-0.1439995318651199,-0.2706152200698852,0.0926678404211998,0.2316252738237381,0.0,0.0,-0.2275838205497586,0.7062288607359394
-0.0206649787724018,1.3057929277420044,-0.1361427009105682,-0.2844786643981933,0.1028956174850463,0.2045739144086837,0.0,0.0,0.7926628229494797,-0.6714721118436446
-0.0218856818974018,1.2995636463165283,-0.1344126313924789,-0.2777458429336548,0.1151661872863769,0.2454337328672409,0.0,0.0,0.905100671418282,-0.449467373669883
-0.0230688098818063,1.294503688812256,-0.131769061088562,-0.2259813696146011,0.1285713165998459,0.2681269645690918,0.0,0.0,-0.257810302551704,-0.173829942525116
-0.0242605209350585,1.2891156673431396,-0.1330077350139618,-0.2407125383615493,0.1423692256212234,0.2759831249713897,0.0,0.0,-0.6555545984064752,-0.9265315208324222
-0.025524329394102,1.2833963632583618,-0.1421271860599517,-0.2557739913463592,0.1581102162599563,0.3148482143878937,0.0,0.0,-0.7920915789680063,0.7863710531812197
-0.0267472267150878,1.2773622274398804,-0.1370368748903274,-0.2698113024234772,0.1728875786066055,0.2955741286277771,0.0,0.0,-0.0647862848601885,-0.6450976169692295
-0.0280240066349506,1.2709957361221311,-0.1437936723232269,-0.2849112153053283,0.1890820562839508,0.3239187896251678,0.0,0.0,-0.3998340938195683,0.4239964027653812
-0.0293161384761333,1.2643029689788818,-0.1456832289695739,-0.2996445894241333,0.2056790292263031,0.3319691717624664,0.0,0.0,0.5219983873200087,-0.4336085179491674
-0.030610466375947,1.2580573558807373,-0.1468014866113662,-0.2800940573215484,0.2232373803853988,0.3511990904808044,0.0,0.0,0.0161881616711772,0.1979956539231595
-0.0319238677620887,1.2517811059951782,-0.1492241322994232,-0.2817526459693908,0.2414015531539917,0.363315999507904,0.0,0.0,0.461055178165729,-0.186949005203498
-0.0335149765014648,1.2459633350372314,-0.1767498254776001,-0.2615599334239959,0.2593917548656463,0.359836220741272,0.0,0.0,-0.7338374048781269,0.6907057911872067
-0.0350838676095008,1.239818811416626,-0.1738301217555999,-0.2761812508106231,0.2767311334609985,0.3467877507209778,0.0,0.0,-0.5259421919880043,-0.1775617435646386
-0.0366744026541709,1.2333492040634155,-0.1763065755367279,-0.2909139096736908,0.2944838404655456,0.3550539910793304,0.0,0.0,0.1516387752216641,0.4879051503706041
-0.0385416969656944,1.2273404598236084,-0.2038905173540115,-0.2706269323825836,0.3122291564941406,0.3549060523509979,0.0,0.0,-0.615397794463264,-0.6416819011562588
-0.0404923446476459,1.220983862876892,-0.2140568941831588,-0.2867259383201599,0.3319745659828186,0.3949087858200073,0.0,0.0,-0.9180277205444272,-0.4054083068220663
-0.0424680709838867,1.2143032550811768,-0.216820627450943,-0.301467090845108,0.352134644985199,0.4032015800476074,0.0,0.0,0.032422120586246,-0.2984221313815693
-0.0446412079036235,1.208050012588501,-0.2368668764829635,-0.2828468382358551,0.3727633059024811,0.412573903799057,0.0,0.0,-0.6942687630653381,0.95959734916687
-0.0467786788940429,1.2015037536621094,-0.2319197654724121,-0.2958072423934936,0.392093151807785,0.3865968883037567,0.0,0.0,-0.8108721971511841,0.9568420648574828
-0.0488861091434955,1.194678544998169,-0.2275599986314773,-0.3080882430076599,0.4101201295852661,0.3605397045612335,0.0,0.0,-0.6839314103126526,0.9838933944702148
-0.0509557723999023,1.1875615119934082,-0.2223690748214721,-0.320866197347641,0.4267493486404419,0.3325845599174499,0.0,0.0,-0.6792846918106079,0.9370183944702148
-0.0529858581721782,1.1801676750183103,-0.2168426811695099,-0.3328815698623657,0.4417881071567535,0.3007749617099762,0.0,0.0,-0.7333808541297913,0.9616189002990724
-0.0549771301448345,1.17250394821167,-0.2113315314054489,-0.3445149958133697,0.4551630616188049,0.2674993574619293,0.0,0.0,-0.820986807346344,0.9475092887878418
-0.056932546198368,1.1645563840866089,-0.2063402831554412,-0.3567957282066345,0.4670611619949341,0.2379619181156158,0.0,0.0,-0.7550100088119507,0.9650795459747314
-0.0588483810424804,1.156342625617981,-0.2007454931735992,-0.3681627213954925,0.4772075116634369,0.2029267847537994,0.0,0.0,-0.4945188164710998,0.9832556247711182
-0.0607340820133686,1.1478610038757324,-0.1963006556034088,-0.3796548247337341,0.4858155250549316,0.1721601635217666,0.0,0.0,-0.8241580724716187,0.935265064239502
-0.0625829696655273,1.1391063928604126,-0.1911100447177887,-0.3912971317768097,0.4927678108215332,0.1390462070703506,0.0,0.0,-0.6333106756210327,0.9645192623138428
-0.0644107833504676,1.1300753355026243,-0.1878348141908645,-0.403207927942276,0.4984399676322937,0.1134426817297935,0.0,0.0,-0.8141158223152161,0.940758228302002
-0.0661911964416503,1.1207777261734009,-0.1813236474990844,-0.414415568113327,0.502126157283783,0.0737233310937881,0.0,0.0,-0.9548135995864868,0.9408080577850342
-0.0679248794913292,1.111204743385315,-0.1749579906463623,-0.4260509312152862,0.5039212703704834,0.0359016694128513,0.0,0.0,-0.9953433275222778,0.8905742168426514
-0.0696187019348144,1.10136079788208,-0.1693858206272125,-0.4375158548355102,0.5039252042770386,7.811868272256106e-05,0.0,0.0,-0.9900637865066528,0.9073283672332764
-0.071283146739006,1.0912269353866575,-0.1652208119630813,-0.4499413073062897,0.5025527477264404,-0.0274491794407367,0.0,0.0,-0.9947227239608764,0.8690841197967529
-0.0729128867387771,1.0808100700378418,-0.1603580862283706,-0.4620146155357361,0.499610036611557,-0.0588542334735393,0.0,0.0,-0.997376024723053,0.8714146614074707
-0.0745078101754188,1.0701148509979248,-0.1554238498210907,-0.4738676249980926,0.4950375258922577,-0.0914502516388893,0.0,0.0,-0.9993432760238647,0.92320454120636
-0.0760871917009353,1.0591422319412231,-0.1527796536684036,-0.4858298301696777,0.4892513751983642,-0.1157223433256149,0.0,0.0,-0.9980543851852416,0.964496612548828
-0.0776507407426834,1.047890543937683,-0.150076612830162,-0.4978685081005096,0.4822498857975006,-0.1400303691625595,0.0,0.0,-0.9986756443977356,0.8749935626983643
-0.0791883468627929,1.0363547801971436,-0.1462102234363556,-0.5100894570350647,0.4738541841506958,-0.167913869023323,0.0,0.0,-0.9985241889953612,0.9339309930801392
-0.0806791335344314,1.024553298950195,-0.1396343410015106,-0.5213196277618408,0.463405042886734,-0.2089826613664627,0.0,0.0,-0.9980785250663756,0.962126851081848
-0.0821451172232627,1.012476086616516,-0.135760560631752,-0.533206582069397,0.4514930546283722,-0.2382396012544632,0.0,0.0,-0.99952495098114,0.9817854166030884
-0.083561897277832,1.000126838684082,-0.1289113759994506,-0.5447935461997986,0.4375298321247101,-0.2792650163173675,0.0,0.0,-0.9986000061035156,0.906604528427124
-0.0849510207772255,0.987504541873932,-0.1246341615915298,-0.5566232204437256,0.4220157563686371,-0.3102815449237823,0.0,0.0,-0.9947912096977234,0.9551510810852052
-0.0862889289855957,0.9746107459068298,-0.1174348816275596,-0.5682642459869385,0.4043866097927093,-0.3525828719139099,0.0,0.0,-0.9882126450538636,0.9060449600219728
-0.0876057595014572,0.9614237546920776,-0.1140733957290649,-0.5811759233474731,0.3855344951152801,-0.3770427107810974,0.0,0.0,-0.9916319847106934,0.85235595703125
-0.0888884514570236,0.9479634761810304,-0.1089096218347549,-0.5931342840194702,0.3649840056896209,-0.4110097885131836,0.0,0.0,-0.9786421656608582,0.1664594411849975
-0.0902067199349403,0.9341792464256288,-0.1126308292150497,-0.607876181602478,0.3447726964950561,-0.404226005077362,0.0,0.0,-0.9744077324867249,0.7398440837860107
-0.0915007591247558,0.92011159658432,-0.1087522283196449,-0.620435357093811,0.3231822252273559,-0.4318092763423919,0.0,0.0,-0.9554986953735352,0.4546582698822021
-0.0928306579589843,0.9057204723358154,-0.1124848499894142,-0.6351797580718994,0.3019194602966308,-0.4252561032772064,0.0,0.0,-0.950917661190033,0.4006605148315429
-0.0941959396004676,0.8910053968429565,-0.1162233799695968,-0.6499227285385132,0.2809781432151794,-0.4188264310359955,0.0,0.0,-0.9836323857307434,0.597679615020752
-0.0955599769949913,0.8759860396385193,-0.115268662571907,-0.6636164784431458,0.2593380808830261,-0.4328010678291321,0.0,0.0,-0.9866045117378236,0.6484878063201904
-0.0968997031450271,0.8606653809547424,-0.1114829033613205,-0.6771029233932495,0.2364269644021988,-0.4582227170467376,0.0,0.0,-0.9829347729682922,0.0020980834960937
-0.0982751846313476,0.8450216054916382,-0.1152300462126731,-0.6918503642082214,0.2138177454471588,-0.45218425989151,0.0,0.0,-0.9780569672584534,0.0807347297668457
-0.0996863394975662,0.8290545344352722,-0.1189798340201377,-0.7065962553024292,0.1915034502744674,-0.4462859630584717,0.0,0.0,-0.9905228614807128,-0.4348846077919006
-0.1011331528425216,0.8127638697624207,-0.1227313429117202,-0.721340537071228,0.1694768518209457,-0.4405318796634674,0.0,0.0,-0.9978712797164916,-0.520937979221344
-0.1026553139090538,0.7961450219154358,-0.1314691007137298,-0.7363782525062561,0.1487333923578262,-0.4148696064949035,0.0,0.0,-0.9948780536651612,-0.8417109847068787
-0.1042685508728027,0.7791784405708313,-0.1422634273767471,-0.7522713541984558,0.12972192466259,-0.3802292943000793,0.0,0.0,-0.9890971779823304,0.3132410049438476
-0.1059172600507736,0.7618864178657532,-0.1460163295269012,-0.767003059387207,0.1109752506017685,-0.3749333322048187,0.0,0.0,-0.982881247997284,0.8716199398040771
-0.1075431853532791,0.7442747950553894,-0.1424808204174041,-0.7813623547554016,0.0910198241472244,-0.3991087675094604,0.0,0.0,-0.9841297268867492,-0.1548894643783569
-0.1092044860124588,0.7263382077217102,-0.1462278217077255,-0.7960963845252991,0.0713134109973907,-0.3941283524036407,0.0,0.0,-0.862663984298706,0.2403297424316406
-0.1109009757637977,0.708076000213623,-0.149971142411232,-0.8108291625976562,0.0518478713929653,-0.3893105387687683,0.0,0.0,0.2637813091278076,0.0583579540252685
-0.1127645522356033,0.690448522567749,-0.1664353162050247,-0.7828753590583801,0.0321591794490814,-0.3937738537788391,0.0,0.0,-0.9455715417861938,0.3068618774414062
-0.1146633177995681,0.6724953055381775,-0.1701685488224029,-0.7976073026657104,0.0126948431134223,-0.3892868459224701,0.0,0.0,-0.80587238073349,-0.0522008538246154
-0.1165972724556922,0.6542165279388428,-0.1738955229520797,-0.8123381733894348,-0.0065535739995539,-0.3849679827690124,0.0,0.0,-0.3503732681274414,-0.9365730285644532
-0.1186321228742599,0.6356021761894226,-0.1858691275119781,-0.8274723291397095,-0.0239425934851169,-0.3477806150913238,0.0,0.0,-0.2390164136886596,-0.0966309309005737
-0.1207019835710525,0.616661012172699,-0.1895806789398193,-0.8421961069107056,-0.0411327742040157,-0.3438036441802978,0.0,0.0,0.7549479007720947,-0.8427340388298035
-0.1228484138846397,0.5986675024032593,-0.1991182565689087,-0.8002023696899414,-0.0564728900790214,-0.3068021535873413,0.0,0.0,0.4115957021713257,0.3656336069107055
-0.1249221786856651,0.5813843607902527,-0.192365750670433,-0.7687727808952332,-0.071315124630928,-0.2968446314334869,0.0,0.0,-0.4589745998382568,-0.8178176283836365
-0.1271069496870041,0.5637891888618469,-0.2056167423725128,-0.7826671004295349,-0.0840501859784126,-0.2547014355659485,0.0,0.0,-0.0413299202919006,0.0868451595306396
-0.1293266266584396,0.5458652377128601,-0.2092838734388351,-0.7973783016204834,-0.0966206565499305,-0.2514092326164245,0.0,0.0,0.7782425880432129,0.0186057090759277
-0.1314557045698166,0.5288764238357544,-0.2006071358919143,-0.7558975219726562,-0.1088342368602752,-0.2442715167999267,0.0,0.0,0.440042495727539,-0.5564837455749512
-0.1337040960788726,0.5123293399810791,-0.2135816812515258,-0.7362886667251587,-0.1200116872787475,-0.2235492169857025,0.0,0.0,-0.7979359030723572,0.1804683208465576
-0.1359869986772537,0.4954527914524078,-0.2172038108110427,-0.750996470451355,-0.1310496479272842,-0.2207588851451873,0.0,0.0,0.0887308120727539,-0.1641660332679748
-0.1382521688938141,0.4789338111877441,-0.2155303061008453,-0.7351817488670349,-0.1419927477836609,-0.2188621312379837,0.0,0.0,-0.5115744471549988,0.3539626598358154
-999.0,0.4620853364467621,-0.2191164195537567,-0.749889075756073,-0.1528125703334808,-0.2163963615894317,0.0,0.0,-0.3964904546737671,-0.507915198802948
-0.1429243087768554,0.4449111819267273,-0.2275221347808838,-0.7643243670463562,-0.1625435352325439,-0.1946193128824234,0.0,0.0,0.737126350402832,0.2248492240905761
-0.1451663970947265,0.4280101954936981,-0.2150394469499588,-0.7521808743476868,-0.1717159003019333,-0.1834472119808197,0.0,0.0,0.898892879486084,0.1973934173583984
-0.1471636742353439,0.4117059409618377,-0.1914624273777008,-0.7256091833114624,-0.1800063401460647,-0.1658085733652115,0.0,0.0,0.8049269914627075,0.0298300981521606
-0.148967832326889,0.3956665992736816,-0.1729616075754165,-0.7137848734855652,-0.1874999850988388,-0.1498726904392242,0.0,0.0,0.1252591609954834,-0.8417817950248718
-0.150779440999031,0.3800768256187439,-0.1754681766033172,-0.6936109066009521,-0.1932169795036316,-0.1143398657441139,0.0,0.0,0.7919530868530273,-0.1705488562583923
-0.1524335891008377,0.3653579950332641,-0.1599684655666351,-0.6548919677734375,-0.1987006217241287,-0.1096729859709739,0.0,0.0,0.8090802431106567,-0.8397432565689087
-0.1538943350315094,0.3513607978820801,-0.1426595449447631,-0.6225574016571045,-0.2021418958902359,-0.0688251182436943,0.0,0.0,0.8295828104019165,-0.4793016910552978
-0.1552062034606933,0.3375304937362671,-0.128349632024765,-0.6150719523429871,-0.2050018012523651,-0.0571980662643909,0.0,0.0,0.8798463344573975,-0.3685039281845093
-0.1564914733171463,0.3242385983467102,-0.1254749000072479,-0.5911778211593628,-0.2080797404050827,-0.0615588836371898,0.0,0.0,0.8949313163757324,-0.7420541644096375
-0.157557874917984,0.3120624423027038,-0.1053588837385177,-0.5413443446159363,-0.2093674391508102,-0.0257538892328739,0.0,0.0,0.963829517364502,-0.2421633005142212
-0.1585429161787033,0.3005566895008087,-0.0971477255225181,-0.5115610361099243,-0.21073679625988,-0.0273872260004282,0.0,0.0,0.8738250732421875,0.4866783618927002
-0.1595090925693512,0.2900877892971039,-0.0946525707840919,-0.4655643999576568,-0.2127179950475692,-0.0396238639950752,0.0,0.0,-0.3921995162963867,0.4509816169738769
-0.1605067253112793,0.2792881429195404,-0.097835436463356,-0.4802629649639129,-0.2146635055541992,-0.0389103330671787,0.0,0.0,-0.7971051931381226,0.7915668487548828
-0.1614788025617599,0.2681451737880707,-0.0938915759325027,-0.4957299828529358,-0.2180255353450775,-0.0672406703233718,0.0,0.0,0.2849695682525635,-0.5007129311561584
-0.1624617576599121,0.2575633823871612,-0.0958391204476356,-0.4706670343875885,-0.2205101698637008,-0.0496924072504043,0.0,0.0,0.3456830978393554,-0.3327991962432861
-0.1634058952331543,0.2472511827945709,-0.0918859392404556,-0.4586990177631378,-0.2230672389268875,-0.0511412434279918,0.0,0.0,0.8695001602172852,0.675346851348877
-0.164315789937973,0.2376341372728347,-0.0867956727743148,-0.4280667006969452,-0.227314218878746,-0.0849391669034957,0.0,0.0,-0.744572639465332,-0.6317733526229858
-0.1653156280517578,0.227706104516983,-0.0973817929625511,-0.4416500031948089,-0.2299578487873077,-0.0528726987540721,0.0,0.0,0.5622766017913818,0.1279550790786743
-0.1660916358232498,0.2184056341648101,-0.0754567384719848,-0.413690835237503,-0.2321288883686065,-0.0434205867350101,0.0,0.0,0.8743774890899658,-0.1872592568397522
-0.16673144698143,0.2093614488840103,-0.0621670112013816,-0.4022487699985504,-0.2339720427989959,-0.0368630699813365,0.0,0.0,0.6809594631195068,-0.1100858449935913
-0.1670750677585601,0.2010679095983505,-0.033214833587408,-0.3687835931777954,-0.2351297736167907,-0.0231550000607967,0.0,0.0,0.2640690803527832,-0.7740154266357422
-0.167384535074234,0.1933442950248718,-0.0313240140676498,-0.3432120978832245,-0.2347425520420074,0.0077443434856832,0.0,0.0,-0.3675128221511841,-0.7460532188415527
-0.1677620857954025,0.1853140443563461,-0.0392756424844265,-0.3566597998142242,-0.2332023829221725,0.0308033637702465,0.0,0.0,-0.3706801533699035,0.0601674318313598
-0.1681647300720214,0.1769531369209289,-0.0417839996516704,-0.3713589012622833,-0.2316667884588241,0.0307121910154819,0.0,0.0,0.5879361629486084,-0.6279605627059937
-0.1684660911560058,0.1694330126047134,-0.032882235944271,-0.3338001668453216,-0.2288834452629089,0.0556668117642402,0.0,0.0,0.1840955018997192,-0.2756305932998657
-0.1686204969882965,0.1623920947313308,-0.0183814503252506,-0.3124779164791107,-0.2259072363376617,0.0595243386924266,0.0,0.0,0.6732300519943237,-0.2872291803359985
-0.1686141043901443,0.1556719839572906,-0.0026560262776911,-0.2981702089309692,-0.222563162446022,0.0668812543153762,0.0,0.0,0.4159605503082275,-0.5037176012992859
-0.1686611175537109,0.1494480520486831,-0.0087281372398138,-0.2760203182697296,-0.2184931933879852,0.081398956477642,0.0,0.0,0.0177303552627563,-0.8459698557853699
-0.1688167601823806,0.1434079259634018,-0.0212687570601701,-0.2676179111003876,-0.2127358019351959,0.1151478290557861,0.0,0.0,-0.5259526968002319,-0.6451374888420105
-0.1690439283847808,0.1370540261268615,-0.0297394581139087,-0.2814017236232757,-0.2056460976600647,0.1417942345142364,0.0,0.0,0.5619432926177979,0.3359832763671875
-0.1691627502441406,0.1311030983924865,-0.0190284773707389,-0.2635103464126587,-0.1984549909830093,0.1438222825527191,0.0,0.0,0.5071218013763428,0.3103671073913574
-0.1691180169582367,0.1252693980932235,-0.0032058947253972,-0.2582665979862213,-0.1907249540090561,0.1546010822057724,0.0,0.0,0.5132555961608887,0.2444013357162475
-0.1688835173845291,0.1200027540326118,0.0153495045378804,-0.2330502420663833,-0.1825937926769256,0.1626233160495758,0.0,0.0,-0.0681120157241821,-0.453100323677063
-0.168664738535881,0.1144063100218772,0.0137813836336135,-0.2477546781301498,-0.1744736731052398,0.1624025553464889,0.0,0.0,0.6173121929168701,-0.2544865608215332
