x_pos,y_pos,x_vel,y_vel,angle,ang_vel,leg_1,leg_2,main_booster,lat_booster
-0.0015109062660485,1.403525471687317,-0.1530317366123199,-0.3286571204662323,0.0017391573637723,0.0343046784400939,0.0,0.0,0.9776928924505726,-0.6596977103390154
-0.0029950141906738,1.3968799114227295,-0.1516046226024627,-0.295367032289505,0.0049043269827961,0.063310220837593,0.0,0.0,-0.5486195111335159,-0.7107203826202837
-0.0045091630890965,1.3901290893554688,-0.1556995213031768,-0.3000519573688507,0.0091451359912753,0.084823839366436,0.0,0.0,-0.0886332619265399,0.9568157627116816
-0.0059490203857421,1.383277177810669,-0.1467337757349014,-0.3045523762702942,0.0118527719751,0.0541579723358154,0.0,0.0,-0.2414624591212739,-0.945712901425214
-0.0074334144592285,1.3763279914855957,-0.1526549160480499,-0.3088859915733337,0.016023876145482,0.08342956751585,0.0,0.0,-0.9478875447821656,0.6303994196105686
-0.0088424682617187,1.3692805767059326,-0.1435786932706833,-0.3132523000240326,0.0186586882919073,0.0527014546096324,0.0,0.0,-0.9456955735240328,0.939644198068629
-0.0101656913757324,1.3621360063552856,-0.1331803649663925,-0.3175482451915741,0.0195054970681667,0.0169375203549861,0.0,0.0,-0.7264937649636827,-0.7354661509606191
-0.0115174297243356,1.3548932075500488,-0.1371494233608245,-0.3219309449195862,0.0214563198387622,0.0390201322734355,0.0,0.0,-0.7358447627627205,-0.6012329898473507
-0.0129022598266601,1.3475563526153564,-0.1416985690593719,-0.3261342048645019,0.0246344357728958,0.0635682716965675,0.0,0.0,-0.0887062598957397,0.6327448601049978
-0.014221859164536,1.3401261568069458,-0.1339271366596222,-0.3302638828754425,0.0265802647918462,0.0389202088117599,0.0,0.0,-0.5915972016929365,-0.7027096064496104
-0.0155730247497558,1.332595705986023,-0.1383203715085983,-0.3347542881965637,0.0297481473535299,0.0633636191487312,0.0,0.0,0.5128723067508145,-0.9738031462480043
-0.0169255249202251,1.3256893157958984,-0.140512153506279,-0.3070635497570038,0.0349610075354576,0.1042664870619773,0.0,0.0,0.0384422784212215,0.7039070002991965
-0.0181278232485055,1.3193544149398804,-0.1242133602499961,-0.2816470861434936,0.0389043726027011,0.0788743644952774,0.0,0.0,-0.000644108648331,-0.8046859090874854
-0.0193695072084665,1.3129099607467651,-0.129629909992218,-0.2865737378597259,0.0443135276436805,0.1081928461790084,0.0,0.0,-0.2983668610066958,-0.8024073046052025
-0.020643139258027,1.3063719272613523,-0.1341121345758438,-0.2907916009426117,0.0509987138211727,0.1337157934904098,0.0,0.0,-0.2835261647271034,-0.817828840916447
-0.0219521522521972,1.2997218370437622,-0.1390634477138519,-0.2958551943302154,0.0590805746614933,0.1616521775722503,0.0,0.0,0.7702814862087519,-0.6949793990236637
-0.023193359375,1.294363498687744,-0.1341214925050735,-0.238562598824501,0.0689938217401504,0.1982828378677368,0.0,0.0,0.0236801258482224,0.6058851158771258
-0.0242857933044433,1.2892647981643677,-0.118255391716957,-0.2270497828722,0.0779166743159294,0.1784730851650238,0.0,0.0,0.2698054681838524,0.8405241151819136
-0.0252578742802143,1.2850160598754885,-0.1046976447105407,-0.1892324835062027,0.085340030491352,0.148480474948883,0.0,0.0,-0.4813368758957079,-0.7606314911813545
-0.026280116289854,1.2806601524353027,-0.1115298047661781,-0.1941535174846649,0.094582974910736,0.1848753988742828,0.0,0.0,0.8289933437802126,0.6527880889918685
-0.027160357683897,1.2774827480316162,-0.0965253934264183,-0.1417699009180069,0.1030196323990821,0.1687485575675964,0.0,0.0,-0.7396685774774505,-0.8857656323592271
-0.028090476989746,1.2741918563842771,-0.103358194231987,-0.1470069736242294,0.1133113875985145,0.2058536112308502,0.0,0.0,-0.4999127104280327,0.7905000633423697
-0.0289266593754291,1.2708150148391724,-0.0921752005815506,-0.1507508903741836,0.1218187808990478,0.1701633930206298,0.0,0.0,-0.7609532613276324,0.9264248589630666
-0.0296625141054391,1.26734459400177,-0.0801903903484344,-0.1547902524471283,0.1284108757972717,0.1318534910678863,0.0,0.0,0.4710752335544195,-0.8330334886400258
-0.0306591987609863,1.2645909786224363,-0.1079091653227806,-0.1231145039200782,0.1366244554519653,0.1642864644527435,0.0,0.0,-0.6168185693899131,0.7267694570613331
-0.0315921790897846,1.261730670928955,-0.1005976572632789,-0.1278126686811447,0.1438980549573898,0.145472377538681,0.0,0.0,0.852517855514701,-0.9856399265022704
-0.0326957702636718,1.259972095489502,-0.1197970882058143,-0.0791011005640029,0.1533204466104507,0.1884475201368332,0.0,0.0,-0.3508129027004485,0.96208618793233
-0.0337222106754779,1.2581392526626587,-0.110740065574646,-0.082315057516098,0.1614144891500473,0.1618810594081878,0.0,0.0,-0.6986396218114732,-0.7576186674131207
-0.0348016731441021,1.256197452545166,-0.1180741041898727,-0.0874342620372772,0.1715452671051025,0.2026153355836868,0.0,0.0,-0.5374930966729459,-0.6399378666276122
-0.0359129905700683,1.2541428804397583,-0.1227556690573692,-0.0927046537399292,0.1832096725702285,0.2332884818315506,0.0,0.0,0.6864086147284223,0.9866125418782534
-0.0370655059814453,1.2533038854599,-0.1251325905323028,-0.038540069013834,0.1931298375129699,0.198403388261795,0.0,0.0,0.7513092768449712,-0.8175145950671878
-0.0384393706917762,1.2530022859573364,-0.1489228904247284,-0.014949819073081,0.2047509998083114,0.2324231117963791,0.0,0.0,-0.2347139029407028,-0.80638622936853
-0.0398653969168663,1.2525895833969116,-0.1561644822359085,-0.0202746149152517,0.2184457629919052,0.2738950848579407,0.0,0.0,0.2123827789248673,0.7746701976612901
-0.0413201339542865,1.2524640560150146,-0.1576558351516723,-0.0074292966164648,0.2307807505130767,0.2467000037431717,0.0,0.0,-0.8497027141484845,-0.692308898415825
-0.0428069122135639,1.2522255182266235,-0.1624139845371246,-0.0128093510866165,0.2447283416986465,0.2789517045021057,0.0,0.0,-0.1954343457763174,0.960021021595133
-0.044199276715517,1.2519264221191406,-0.151220828294754,-0.0153380660340189,0.2569379806518554,0.2441925704479217,0.0,0.0,0.9972925827660644,-0.6484664718716531
-0.0457932464778423,1.2522941827774048,-0.1728037148714065,0.0139358378946781,0.2706476151943207,0.2741928696632385,0.0,0.0,0.401681570969896,0.9425939286059318
-0.0474339500069618,1.2535508871078491,-0.1758650541305542,0.0536304675042629,0.2827537655830383,0.2421231567859649,0.0,0.0,0.9862067841229254,-0.6209709883914001
-0.0494339950382709,1.2561359405517578,-0.213126927614212,0.1122913137078285,0.2962707281112671,0.2703393101692199,0.0,0.0,0.0290743387265637,-0.7806061366298725
-0.0515639297664165,1.259152054786682,-0.2279015034437179,0.1309369206428527,0.3116836249828338,0.3082582652568817,0.0,0.0,-0.8804615216645904,-0.9767719449345597
-0.0537621490657329,1.2620400190353394,-0.237184926867485,0.1245176792144775,0.3297429382801056,0.3611859977245331,0.0,0.0,-0.9225211143493652,0.9967539310455322
-0.0558506958186626,1.2648775577545166,-0.2240894734859466,0.1225595846772193,0.3456700444221496,0.3185428977012634,0.0,0.0,-0.898222804069519,0.9540725946426392
-0.0578351020812988,1.2676547765731812,-0.2117479145526886,0.1201710030436515,0.3596675395965576,0.2799497544765472,0.0,0.0,-0.8949300646781921,0.9704749584197998
-0.0597159378230571,1.2703814506530762,-0.199451133608818,0.11829424649477,0.3716822266578674,0.2402932941913604,0.0,0.0,-0.9187930822372437,0.853752613067627
-0.0615159980952739,1.273037075996399,-0.1901127398014068,0.1153637543320655,0.3824152648448944,0.2146609127521515,0.0,0.0,-0.9478527307510376,0.613908052444458
-0.0632461532950401,1.2756199836730957,-0.1821546852588653,0.1123143061995506,0.3921456933021545,0.1946088969707489,0.0,0.0,-0.9223259091377258,0.702448844909668
-0.0648992508649826,1.2781379222869873,-0.1732541918754577,0.1096916422247886,0.4006422758102417,0.1699322462081909,0.0,0.0,-0.8724703788757324,0.4719699621200561
-0.0665324181318283,1.280559539794922,-0.1715708822011947,0.1052692458033561,0.4095048904418945,0.1772515475749969,0.0,0.0,-0.5794044733047485,0.5003125667572021
-0.0681188553571701,1.2829071283340454,-0.1664611548185348,0.1020554602146148,0.4179258048534393,0.1684190481901168,0.0,0.0,-0.9161604642868042,0.5845104455947876
-0.0696446448564529,1.2851839065551758,-0.1596389412879943,0.0990806445479393,0.4255573451519012,0.1526314169168472,0.0,0.0,-0.8588677048683167,0.6838566064834595
-0.0710902214050293,1.2874053716659546,-0.1503317058086395,0.0969672575592994,0.4318140149116516,0.1251339465379715,0.0,0.0,-0.9063345193862916,0.1188116073608398
-0.072516344487667,1.2895301580429075,-0.1487158834934234,0.0925457328557968,0.4384609460830688,0.132938340306282,0.0,0.0,-0.9698342084884644,0.4647674560546875
-0.073923110961914,1.2915587425231934,-0.1471198350191116,0.0881234407424926,0.445503294467926,0.1408470124006271,0.0,0.0,-0.942640483379364,0.463948130607605
-0.0753107070922851,1.293491244316101,-0.1455450654029846,0.0837003737688064,0.4529459774494171,0.1488530933856964,0.0,0.0,-0.958733856678009,0.8142447471618652
-0.0766067504882812,1.2953767776489258,-0.1348238438367843,0.0820999816060066,0.4586756229400635,0.1145934462547302,0.0,0.0,-0.8778155446052551,0.4847738742828369
-0.0778840035200119,1.297166109085083,-0.1332981586456298,0.0776774659752845,0.4648143053054809,0.122773565351963,0.0,0.0,-0.8842750787734985,0.5409276485443115
-0.0791006088256836,1.2988964319229126,-0.1263883113861084,0.0753104984760284,0.4700488150119781,0.1046899929642677,0.0,0.0,-0.9141796231269836,0.1718025207519531
-0.080298900604248,1.3005304336547852,-0.1249184384942054,0.0708877891302108,0.4756995737552643,0.1130150333046913,0.0,0.0,-0.9507630467414856,0.2500185966491699
-0.0814790725708007,1.3020684719085691,-0.1234789937734603,0.0664644464850425,0.4817696511745453,0.1214014664292335,0.0,0.0,-0.9443976879119872,0.4070974588394165
-0.0826416015625,1.3035104274749756,-0.1220720261335372,0.0620404481887817,0.488261729478836,0.1298417747020721,0.0,0.0,-0.9712038040161132,0.0154657363891601
-0.0837868675589561,1.3048561811447144,-0.1206996887922287,0.0576157756149768,0.4951781630516052,0.1383284777402877,0.0,0.0,-0.8895764946937561,0.2679743766784668
-0.0849151611328125,1.306106448173523,-0.1193642243742942,0.0531904026865959,0.5025208592414856,0.1468539386987686,0.0,0.0,-0.975591242313385,0.081479787826538
-0.0860269516706466,1.3072608709335327,-0.1180679649114608,0.0487642958760261,0.5102913975715637,0.1554103791713714,0.0,0.0,-0.9570507407188416,0.5024501085281372
-0.0870873481035232,1.3083500862121582,-0.1123063191771507,0.0460573434829711,0.5173859000205994,0.1418905556201934,0.0,0.0,-0.9693701267242432,0.1235179901123046
-0.0881321877241134,1.309343695640564,-0.1110969185829162,0.041630994528532,0.5249101519584656,0.1504855006933212,0.0,0.0,-0.9806851744651794,0.1429222822189331
-0.0891619697213172,1.310241937637329,-0.109934352338314,0.0372039452195167,0.532864511013031,0.1590874940156936,0.0,0.0,-0.9257125854492188,0.5224273204803467
-0.0901429206132888,1.3110817670822144,-0.1043909043073654,0.034832552075386,0.5400898456573486,0.1445064693689346,0.0,0.0,-0.9668024778366088,0.1541198492050171
-0.091109849512577,1.3118261098861694,-0.1033313274383544,0.0304054152220487,0.5477447509765625,0.1530977934598922,0.0,0.0,-0.9913836717605592,0.3654936552047729
-0.0920634269714355,1.3124749660491943,-0.1023269295692443,0.0259776376187801,0.5558282732963562,0.161670908331871,0.0,0.0,-0.7863105535507202,0.6891738176345825
-0.0929645523428917,1.3130617141723633,-0.0963614135980606,0.0234703384339809,0.5631024241447449,0.1454846262931823,0.0,0.0,-0.95035058259964,0.3515031337738037
-0.0938535705208778,1.313552975654602,-0.0954772382974624,0.0190426744520664,0.5708022117614746,0.1539951860904693,0.0,0.0,-0.990377962589264,0.3587654829025268
-0.0947310477495193,1.3139489889144895,-0.0946569144725799,0.0146144479513168,0.5789251923561096,0.1624607741832733,0.0,0.0,-0.9523937702178956,0.5031975507736206
-0.0955740958452224,1.314279556274414,-0.0908132568001747,0.0118311559781432,0.5866104960441589,0.1537063866853714,0.0,0.0,-0.970894992351532,0.7480717897415161
-0.0963527709245681,1.3145686388015747,-0.0831746980547905,0.0104847960174083,0.5929087400436401,0.1259647905826568,0.0,0.0,-0.9730671644210817,0.139579176902771
-0.0971221923828125,1.3147622346878052,-0.0825657397508621,0.0060577932745218,0.5996206998825073,0.1342388093471527,0.0,0.0,-0.9686321020126344,0.5668329000473022
-0.0978403091430664,1.314896821975708,-0.0766251236200332,0.0037716689985245,0.6053920984268188,0.1154276877641677,0.0,0.0,-0.8086721301078796,0.2412962913513183
-0.0985506996512413,1.3149356842041016,-0.0761702060699462,-0.0006548048113472,0.6115682721138,0.1235238909721374,0.0,0.0,-0.8990341424942017,0.3097336292266845
-0.0992542281746864,1.314879059791565,-0.075795367360115,-0.0050815208815038,0.6181440353393555,0.131515234708786,0.0,0.0,-0.901274561882019,0.7290494441986084
-0.0999025329947471,1.3147882223129272,-0.0690838247537612,-0.0060683670453727,0.6233126521110535,0.1033722981810569,0.0,0.0,-0.9001341462135315,0.2804281711578369
-0.1005456000566482,1.3146015405654907,-0.0688770413398742,-0.0104940086603164,0.6288686990737915,0.1111212223768234,0.0,0.0,-0.7218461632728577,-0.0178636908531188
-0.1011846512556076,1.3143190145492554,-0.0687562525272369,-0.0149197299033403,0.6348052620887756,0.118731640279293,0.0,0.0,-0.9958479404449464,0.3088209629058838
-0.1018205657601356,1.3139410018920898,-0.0687228590250015,-0.0193455182015895,0.6411148309707642,0.1261916756629943,0.0,0.0,-0.984306573867798,0.3777773380279541
-0.1024542823433876,1.3134669065475464,-0.0687779188156127,-0.0237713530659675,0.6477892994880676,0.1334891617298126,0.0,0.0,-0.8689920902252197,0.2048710584640503
-0.1030868515372276,1.3128972053527832,-0.0689222067594528,-0.0281972158700227,0.6548198461532593,0.1406115293502807,0.0,0.0,-0.6594817638397217,0.4459881782531738
-0.1037193313241005,1.3122318983078003,-0.0691561251878738,-0.0326230749487876,0.6621971130371094,0.1475458890199661,0.0,0.0,-0.895860493183136,0.6494336128234863
-0.1043073683977127,1.3115237951278689,-0.0636476650834083,-0.0340109877288341,0.6682844161987305,0.1217477098107338,0.0,0.0,-0.909607231616974,0.0020184516906738
-0.1048970222473144,1.3107197284698486,-0.0640624538064003,-0.0384352318942546,0.674697756767273,0.1282665878534317,0.0,0.0,-0.9716482162475586,0.4368557929992676
-0.1054896339774131,1.3098194599151611,-0.0645661130547523,-0.0428592674434185,0.6814256310462952,0.1345570087432861,0.0,0.0,-0.8363651633262634,0.5666722059249878
-0.1060435324907302,1.308874487876892,-0.0596988201141357,-0.0443402789533138,0.6869067549705505,0.1096222549676895,0.0,0.0,-0.9889240860939026,0.3858617544174194
-0.1066022887825965,1.3078330755233765,-0.0603784509003162,-0.0487624928355217,0.6926774382591248,0.1154137700796127,0.0,0.0,-0.960988998413086,0.4921925067901611
-0.1071666702628135,1.3066954612731934,-0.0611430592834949,-0.0531842783093452,0.6987241506576538,0.120934173464775,0.0,0.0,-0.9181151390075684,0.2839714288711548
-0.1077377349138259,1.3054611682891846,-0.0619906857609748,-0.0576056018471717,0.7050325870513916,0.1261687576770782,0.0,0.0,-0.62718266248703,0.3524762392044067
-0.1083165183663368,1.3041303157806396,-0.0629190802574157,-0.0620264075696468,0.7115877270698547,0.1311028152704239,0.0,0.0,-0.9313532710075378,0.4813272953033447
-0.1089038848876953,1.3027029037475586,-0.0639257580041885,-0.0664466470479965,0.7183737754821777,0.1357214897871017,0.0,0.0,-0.9016884565353394,0.5092142820358276
-0.1094730347394943,1.3012127876281738,-0.0614596791565418,-0.0688842087984085,0.7243467569351196,0.1194581538438797,0.0,0.0,-0.9789072275161744,0.4728033542633056
-0.1100525856018066,1.2996259927749634,-0.0626158416271209,-0.0733022540807724,0.7305169105529785,0.1234020739793777,0.0,0.0,-0.9896579384803772,0.6508146524429321
-0.1106071472167968,1.297989845275879,-0.0591909103095531,-0.0749553814530372,0.7354759573936462,0.0991813689470291,0.0,0.0,-0.9967541694641112,0.362658143043518
-0.1111736297607421,1.296256422996521,-0.0604849569499492,-0.0793708190321922,0.7405955791473389,0.1023926734924316,0.0,0.0,-0.5796068906784058,0.2477165460586547
-0.1117527931928634,1.2944254875183103,-0.0618426091969013,-0.0837852880358696,0.7458564043045044,0.1052165850996971,0.0,0.0,-0.965709388256073,0.112598180770874
-0.1123454123735427,1.292496681213379,-0.0632606446743011,-0.0881987437605857,0.7512384057044983,0.1076395735144615,0.0,0.0,-0.9656049609184264,0.4698213338851928
-0.1129523292183876,1.290470004081726,-0.064735859632492,-0.0926111191511154,0.7567208409309387,0.1096486449241638,0.0,0.0,-0.9074114561080932,-0.0778287649154663
-0.1135740280151367,1.288345217704773,-0.0662650316953659,-0.0970223769545555,0.7622824311256409,0.1112314313650131,0.0,0.0,-0.979667901992798,0.2780326604843139
-0.1142114624381065,1.28612220287323,-0.0678450018167495,-0.1014324277639389,0.7679012417793274,0.112376295030117,0.0,0.0,-0.9886100888252258,0.328601598739624
-0.1148651093244552,1.2838006019592283,-0.0694726854562759,-0.1058412119746208,0.7735548615455627,0.113072469830513,0.0,0.0,-0.9815144538879396,0.2518150806427002
-0.1155356392264366,1.2813804149627686,-0.0711450725793838,-0.1102486848831176,0.7792203426361084,0.1133100613951683,0.0,0.0,-0.9491428136825562,0.3753975629806518
-0.1162236183881759,1.2788610458374023,-0.0728592500090599,-0.1146547868847847,0.7848743796348572,0.1130802258849144,0.0,0.0,-0.725774884223938,0.2284762859344482
-0.1169296279549598,1.2762428522109983,-0.0746124163269996,-0.1190594583749771,0.7904931306838989,0.112375296652317,0.0,0.0,-0.9808351397514344,0.0722529888153076
-0.1176540404558181,1.2735251188278198,-0.076401874423027,-0.1234626397490501,0.7960525751113892,0.1111887693405151,0.0,0.0,-0.9982158541679382,0.24662446975708
-0.118397518992424,1.2707078456878662,-0.0782250985503196,-0.1278642863035202,0.8015283346176147,0.1095153912901878,0.0,0.0,-0.9671450257301332,0.247926115989685
-0.1191606521606445,1.267790675163269,-0.0800796449184417,-0.1322643756866455,0.806895911693573,0.1073513403534889,0.0,0.0,-0.9534152746200562,0.6108168363571167
-0.1199146285653114,1.2648276090621948,-0.078096866607666,-0.1335789710283279,0.8107537627220154,0.0771575197577476,0.0,0.0,-0.9494449496269226,-0.4099689722061157
-0.1206889152526855,1.2617639303207395,-0.0800084322690963,-0.137975126504898,0.8144540786743164,0.0740064084529876,0.0,0.0,-0.999790608882904,-0.0150392055511474
-0.1214839965105056,1.2585995197296145,-0.0819447785615921,-0.142369657754898,0.8179721832275391,0.0703616961836814,0.0,0.0,-0.9999104142189026,-0.0068073272705078
-0.1223001480102539,1.2553341388702393,-0.0839039757847786,-0.1467625647783279,0.8212834596633911,0.0662252530455589,0.0,0.0,-0.9876481294631958,-0.0945693850517273
-0.1231377571821212,1.251967430114746,-0.0858842357993125,-0.1511538475751876,0.8243634700775146,0.0616002976894378,0.0,0.0,-0.999373197555542,-0.4892212152481079
-0.1239972114562988,1.2484993934631348,-0.0878838822245597,-0.1555435210466385,0.8271880745887756,0.0564915053546428,0.0,0.0,-0.998266100883484,-0.1786789894104004
-0.1248787865042686,1.244929313659668,-0.0899013504385948,-0.1599315702915191,0.8297333121299744,0.0509049110114574,0.0,0.0,-0.9975961446762084,0.1656403541564941
-0.125782772898674,1.2412574291229248,-0.0919351875782013,-0.1643180549144745,0.8319756984710693,0.0448478087782859,0.0,0.0,-0.9934455752372742,-0.2269436120986938
-0.1267095506191253,1.2374831438064575,-0.0939840227365493,-0.1687029898166656,0.8338921070098877,0.038328718394041,0.0,0.0,-0.9997216463088988,-0.4434783458709717
-0.127659410238266,1.2336063385009766,-0.0960466042160987,-0.173086404800415,0.8354599475860596,0.0313573293387889,0.0,0.0,-0.999718189239502,-0.3996829986572265
-0.1286324560642242,1.2296268939971924,-0.0981217473745346,-0.177468329668045,0.8366571664810181,0.0239442493766546,0.0,0.0,-0.9981023073196412,-0.6853825449943542
