x_pos,y_pos,x_vel,y_vel,angle,ang_vel,leg_1,leg_2,main_booster,lat_booster
-0.0015341758262366,1.403388500213623,-0.15594282746315,-0.3347361981868744,0.0022726110182702,0.0448670014739036,0.0,0.0,-0.6504372358322144,0.5167243480682373
-0.0030341148376464,1.3956420421600342,-0.1516155898571014,-0.344297856092453,0.0038721729069948,0.0319950804114341,0.0,0.0,0.0548022985458374,0.4895812273025512
-0.0044589997269213,1.3880465030670166,-0.1450216621160507,-0.3375906646251678,0.0063741556368768,0.0500443093478679,0.0,0.0,0.0680465698242187,0.6652100086212158
-0.0059295655228197,1.3806967735290527,-0.148650974035263,-0.3266565501689911,0.0079438677057623,0.0313972756266593,0.0,0.0,-0.1006049513816833,0.92669677734375
-0.0073197362944483,1.3731151819229126,-0.1388553231954574,-0.3369576036930084,0.0077841789461672,-0.0031939845066517,0.0,0.0,-0.292000412940979,0.6641762256622314
-0.0086531639099121,1.365297555923462,-0.1320437490940094,-0.3474422991275787,0.0065078372135758,-0.0255293250083923,0.0,0.0,-0.0241127610206604,0.022088885307312
-0.0099931713193655,1.3572441339492798,-0.1332148760557174,-0.3579281866550445,0.005728481337428,-0.015588809736073,0.0,0.0,-0.4776866436004638,0.7949447631835938
-0.0112612722441554,1.348957896232605,-0.1245343834161758,-0.3682738542556762,0.0034822216257452,-0.0449290573596954,0.0,0.0,0.1673471927642822,0.7523529529571533
-0.0124872205778956,1.3413312435150146,-0.1193172931671142,-0.3389634788036346,0.0002336314501008,-0.0649780556559562,0.0,0.0,-0.1696191430091858,0.488024353981018
-0.013718033209443,1.3334684371948242,-0.1203031316399574,-0.3494572937488556,-0.0025163346435874,-0.0550042875111103,0.0,0.0,-0.4642680883407593,0.2967689037322998
-0.0149532314389944,1.3253698348999023,-0.1212315782904625,-0.3599406778812408,-0.0047680982388556,-0.0450392886996269,0.0,0.0,-0.435865581035614,0.6052592992782593
-0.0161385536193847,1.3170338869094849,-0.1154167428612709,-0.3705034255981445,-0.0078614940866827,-0.0618737339973449,0.0,0.0,-0.4647122621536255,0.2415454387664795
-0.0173271186649799,1.308462142944336,-0.1162269935011863,-0.380989670753479,-0.0104554584249854,-0.0518838092684745,0.0,0.0,-0.0903273224830627,0.5461058616638184
-0.018470000475645,1.299648404121399,-0.1109641641378402,-0.391743928194046,-0.013758004643023,-0.0660570040345192,0.0,0.0,-0.5680815577507019,0.8926944732666016
-0.0195280071347951,1.2906064987182615,-0.1007510647177696,-0.4019196927547455,-0.0187456775456666,-0.0997625812888145,0.0,0.0,-0.3996617197990417,0.3821113109588623
-0.0205872543156147,1.2813286781311035,-0.1013871803879737,-0.4124072790145874,-0.0232336428016424,-0.0897674560546875,0.0,0.0,-0.6423646211624146,0.5099797248840332
-0.0215977672487497,1.2718195915222168,-0.095758780837059,-0.4227261841297149,-0.0284663494676351,-0.1046634316444397,0.0,0.0,-0.9075732231140136,-0.6672187447547913
-0.022648811340332,1.2620704174041748,-0.101343348622322,-0.4333697259426117,-0.0321888253092765,-0.0744564607739448,0.0,0.0,-0.5206196904182434,-0.6847295761108398
-0.0237448699772357,1.2520939111709597,-0.107499361038208,-0.4434466361999511,-0.0342724882066249,-0.0416768155992031,0.0,0.0,-0.821552038192749,0.8147826194763184
-0.0247844699770212,1.2418780326843262,-0.1009450331330299,-0.454109251499176,-0.0372609160840511,-0.0597739927470684,0.0,0.0,-0.961524486541748,-0.2777857184410095
-0.0258230213075876,1.231426239013672,-0.1013291031122207,-0.4645951688289642,-0.0397513136267662,-0.0498122237622737,0.0,0.0,-0.952706217765808,-0.2510404586791992
-0.0268598552793264,1.2207379341125488,-0.1016678586602211,-0.4750805497169494,-0.0417453125119209,-0.0398837104439735,0.0,0.0,-0.6471498012542725,-0.032025396823883
-0.0278946869075298,1.2098137140274048,-0.1019626706838607,-0.4855656027793884,-0.0432432480156421,-0.0299614556133747,0.0,0.0,-0.962679922580719,0.082095980644226
-0.0289270393550395,1.1986533403396606,-0.1022150143980979,-0.496050477027893,-0.0442458130419254,-0.0200532339513301,0.0,0.0,0.1293064355850219,-0.0974641442298889
-0.0300338752567768,1.1879222393035889,-0.1097248792648315,-0.4769627749919891,-0.0452038720250129,-0.0191627591848373,0.0,0.0,-0.8743535876274109,0.2890431880950928
-0.0311382301151752,1.1769334077835083,-0.1099607795476913,-0.4884026944637298,-0.0456677749752998,-0.0092782126739621,0.0,0.0,-0.7738008499145508,0.8222359418869019
-0.032173253595829,1.1657092571258545,-0.101872906088829,-0.4989070892333984,-0.0472841151058673,-0.0323266610503196,0.0,0.0,-0.8000296950340271,-0.893243134021759
-0.0332900062203407,1.1542640924453735,-0.11272444576025,-0.5086376070976257,-0.0462436638772487,0.0208090376108884,0.0,0.0,-0.8603139519691467,0.9512888193130492
-0.0343431457877159,1.1425867080688477,-0.1053726896643638,-0.5189990401268005,-0.0461930967867374,0.00101155473385,0.0,0.0,-0.8942860960960388,0.5987124443054199
-0.0353461280465126,1.1306675672531128,-0.0996787771582603,-0.5297580361366272,-0.0468020550906658,-0.0121792303398251,0.0,0.0,-0.9209990501403807,0.2882275581359863
-0.0363441482186317,1.1185123920440674,-0.0996787846088409,-0.5402402877807617,-0.0469214729964733,-0.0023883099202066,0.0,0.0,-0.7737241983413696,0.1498875617980957
-0.0373368263244628,1.1061208248138428,-0.0996500179171562,-0.5507224202156067,-0.0465524159371852,0.007381132338196,0.0,0.0,-0.8340160846710205,0.6536794900894165
-0.0382794365286827,1.0934960842132568,-0.0939805954694747,-0.5611057281494141,-0.046817347407341,-0.0052987691015005,0.0,0.0,-0.9007082581520081,0.7441627979278564
-0.0391637794673442,1.08062481880188,-0.0873215645551681,-0.5720940828323364,-0.0479213260114192,-0.0220796279609203,0.0,0.0,-0.9756562113761902,-0.425983190536499
-0.0400422103703022,1.0675172805786133,-0.0872191116213798,-0.5825763940811157,-0.0485406182706356,-0.0123860696330666,0.0,0.0,-0.6143090128898621,-0.7491322755813599
-0.0409717559814453,1.0541833639144895,-0.0942834839224815,-0.5925759673118591,-0.0472302287817001,0.02620804682374,0.0,0.0,-0.9084525108337402,0.0893009901046752
-0.0418951027095317,1.040613293647766,-0.0941425636410713,-0.603058397769928,-0.0454382114112377,0.0358399413526058,0.0,0.0,-0.8482021689414978,0.5161415338516235
-0.0427684783935546,1.0268081426620483,-0.0885300189256668,-0.6135294437408447,-0.0442575849592685,0.0236126165837049,0.0,0.0,-0.974279522895813,0.0734968185424804
-0.0436352714896202,1.0127665996551514,-0.0883591622114181,-0.6240118145942688,-0.0425989851355552,0.0331719405949115,0.0,0.0,-0.8573370575904846,0.3608640432357788
-0.0444953925907611,0.9984893202781676,-0.0881765335798263,-0.6344944834709167,-0.0404644757509231,0.0426903739571571,0.0,0.0,-0.9536229372024536,0.6619579792022705
-0.0453056320548057,0.9839786291122437,-0.0825659036636352,-0.6448754072189331,-0.0389388762414455,0.0305115170776844,0.0,0.0,-0.7930504083633423,0.2738640308380127
-0.046109102666378,0.969231903553009,-0.0823660641908645,-0.6553581357002258,-0.0369420200586319,0.0399369224905967,0.0,0.0,-0.9765764474868774,0.6194679737091064
-0.0468490608036518,0.9542391300201416,-0.0750388652086258,-0.6663211584091187,-0.0359085723757743,0.0206691604107618,0.0,0.0,-0.6689605116844177,-0.143816590309143
-0.0475822463631629,0.9390103220939636,-0.0748301520943641,-0.6768038272857666,-0.0344093553721904,0.0299842413514852,0.0,0.0,-0.5298686623573303,-0.0242703557014465
-0.0483084693551063,0.9235453605651855,-0.0746201202273368,-0.6872867345809937,-0.0324475392699241,0.039236657321453,0.0,0.0,-0.7112842798233032,0.6255174875259399
-0.0489748939871788,0.9078353643417358,-0.0677429512143135,-0.6981977820396423,-0.0313664078712463,0.0216226577758789,0.0,0.0,-0.4185760021209717,0.4173696041107178
-0.0496347434818744,0.8918892741203308,-0.0675363093614578,-0.7086808085441589,-0.0298298094421625,0.0307319462299346,0.0,0.0,0.1596618890762329,0.3545341491699219
-0.0503493323922157,0.8765882849693298,-0.0731031000614166,-0.6800156831741333,-0.0282068476080894,0.0324595160782337,0.0,0.0,-0.1886848211288452,0.7257688045501709
-0.0510126128792762,0.8610556125640869,-0.0672788918018341,-0.6903198957443237,-0.027261821553111,0.0189001429826021,0.0,0.0,-0.7908903360366821,-0.0152928829193115
-0.0516694076359272,0.8452869653701782,-0.067092128098011,-0.7008030414581299,-0.0258747413754463,0.0277415364980697,0.0,0.0,-0.8347564339637756,0.2916069030761719
-0.0523201934993267,0.8292822241783142,-0.0669157952070236,-0.7112863659858704,-0.0240509137511253,0.0364766046404838,0.0,0.0,-0.4663537740707397,0.5064932107925415
-0.0529285445809364,0.8130437731742859,-0.0621990971267223,-0.7216926217079163,-0.0227068904787302,0.026880357414484,0.0,0.0,-0.6867770552635193,-0.2943452596664428
-0.0535310730338096,0.796569287776947,-0.0620491318404674,-0.7321759462356567,-0.0209382679313421,0.0353726670145988,0.0,0.0,-0.5790219306945801,0.3041685819625854
-0.0541280731558799,0.7798587679862976,-0.0619150176644325,-0.7426595687866211,-0.0187519248574972,0.0437267497181892,0.0,0.0,-0.1079900860786438,0.2237354516983032
-0.0547197349369525,0.7629125118255615,-0.0617984645068645,-0.7531433701515198,-0.0161554291844367,0.0519300326704978,0.0,0.0,-0.5308768153190613,0.1624640226364135
-0.0553064346313476,0.7457302212715149,-0.0617011412978172,-0.7636274695396423,-0.0131569737568497,0.059969026595354,0.0,0.0,-0.5392576456069946,0.5928003787994385
-0.0558340065181255,0.7283163070678711,-0.0548150762915611,-0.7739291787147522,-0.0111282039433717,0.0405753664672374,0.0,0.0,0.0729275941848754,0.3837312459945678
-0.0562626831233501,0.7113221287727356,-0.0457302369177341,-0.7552786469459534,-0.0083015896379947,0.0565321668982505,0.0,0.0,0.4442925453186035,0.6889774799346924
-0.0565546043217182,0.6951772570610046,-0.0311804711818695,-0.7175425887107849,-0.0063400878570973,0.0392299443483352,0.0,0.0,-0.4070017337799072,0.7290761470794678
-0.0567924492061138,0.6788023114204407,-0.0248489882797002,-0.7277706861495972,-0.0052836472168564,0.0211289394646883,0.0,0.0,0.1038962602615356,0.2270553112030029
-0.0569913871586322,0.6625623106956482,-0.0214790757745504,-0.7217711210250854,-0.003720038337633,0.0312719792127609,0.0,0.0,-0.4966416358947754,0.7793252468109131
-0.057136058807373,0.6460902094841003,-0.0150779485702514,-0.7320913076400757,-0.0031125026289373,0.0121508250012993,0.0,0.0,-0.1246489286422729,-0.5014989972114563
-0.0573097243905067,0.6293811202049255,-0.0191155076026916,-0.742623507976532,-0.0013910372508689,0.0344293788075447,0.0,0.0,0.1608459949493408,0.1907272338867187
-0.0574642196297645,0.6130821704864502,-0.017585514113307,-0.7243974804878235,0.0007128395955078,0.0420775488018989,0.0,0.0,-0.4154056310653686,0.6738882064819336
-0.0575632080435752,0.596542477607727,-0.0109479743987321,-0.7351003289222717,0.0017486183205619,0.0207156799733638,0.0,0.0,0.0920096635818481,0.8596203327178955
-0.0576896667480468,0.5803532004356384,-0.0122063839808106,-0.7195208668708801,0.0013196206418797,-0.0085800485685467,0.0,0.0,0.5758177042007446,0.3831603527069092
-0.0577960982918739,0.5651525259017944,-0.0105668539181351,-0.675585150718689,0.00123838102445,-0.0016248074825853,0.0,0.0,-0.1102021336555481,0.5301487445831299
-0.0578550323843956,0.549709677696228,-0.004826103337109,-0.6863457560539246,0.0001926067052409,-0.0209154989570379,0.0,0.0,-0.4959498643875122,0.7566430568695068
-0.0578518882393837,0.5340398550033569,0.0027478272095322,-0.6964396834373474,-0.0022128452546894,-0.048108909279108,0.0,0.0,-0.0029571056365966,0.3359763622283935
-0.0578499808907508,0.5181341171264648,0.0024353577755391,-0.7069241404533386,-0.004427567590028,-0.0442945137619972,0.0,0.0,0.4171867370605469,-0.0129662752151489
-0.0579259879887104,0.502864420413971,-0.0051622022874653,-0.6786648631095886,-0.0068387752398848,-0.0482241138815879,0.0,0.0,-0.2426983714103698,0.715641975402832
-0.0579449646174907,0.4873596131801605,0.0019214643398299,-0.6891234517097473,-0.0106015019118785,-0.0752547681331634,0.0,0.0,0.8102766275405884,0.1911369562149047
-0.0580981262028217,0.4730093479156494,-0.0109709715470671,-0.6378257274627686,-0.0148974386975169,-0.0859185606241226,0.0,0.0,-0.6136154532432556,0.1988028287887573
-0.058255098760128,0.4584234356880188,-0.0114323636516928,-0.6483112573623657,-0.0190986171364784,-0.0840237885713577,0.0,0.0,0.1034537553787231,-0.363207459449768
-0.0584338195621967,0.4439942240715027,-0.0135783031582832,-0.6413586735725403,-0.0233349092304706,-0.0847259312868118,0.0,0.0,-0.1974521875381469,0.6797541379928589
-0.0585577003657817,0.4293201863765716,-0.0066176182590425,-0.6522805094718933,-0.0290333274751901,-0.1139683127403259,0.0,0.0,0.6670699119567871,-0.2319965958595276
-0.0587091445922851,0.4149256646633148,-0.0092368926852941,-0.6398849487304688,-0.0348624512553215,-0.1165828555822372,0.0,0.0,0.7955052852630615,-0.6699497699737549
-0.0588993057608604,0.4015970826148987,-0.0144375888630747,-0.5924926400184631,-0.0393914431333541,-0.0905798003077507,0.0,0.0,0.241385817527771,0.2102372646331787
-0.0590122230350971,0.3889481425285339,-0.0069481059908866,-0.5622969269752502,-0.0436780825257301,-0.0857330337166786,0.0,0.0,-0.725874125957489,-0.2098341584205627
-0.0591326728463172,0.3760635256767273,-0.0076411133632063,-0.5727827548980713,-0.0480265989899635,-0.0869699940085411,0.0,0.0,-0.2338302731513977,-0.7379480004310608
-0.0593323707580566,0.3629407882690429,-0.017288465052843,-0.5833219289779663,-0.0506801344454288,-0.0530708208680152,0.0,0.0,0.573455810546875,-0.3074800968170166
-0.0594644546508789,0.3507072925567627,-0.0105848107486963,-0.5438051223754883,-0.0532686300575733,-0.0517699941992759,0.0,0.0,-0.305480420589447,-0.2768071293830871
-0.0596059784293174,0.3382379412651062,-0.0113929463550448,-0.554290235042572,-0.0559941977262496,-0.0545113496482372,0.0,0.0,0.8321371078491211,-0.9125573635101318
-0.0598546974360942,0.3266742527484894,-0.023671144619584,-0.5139879584312439,-0.0571796260774135,-0.0237084478139877,0.0,0.0,0.5779246091842651,0.4182208776473999
-0.0600873008370399,0.3158758878707886,-0.0218226462602615,-0.4799804985523224,-0.0586015321314334,-0.0284380950033664,0.0,0.0,-0.5438903570175171,0.8435354232788086
-0.0602548606693744,0.3048354387283325,-0.0131696239113807,-0.4908333718776703,-0.0621508732438087,-0.0709869340062141,0.0,0.0,0.2119717597961425,-0.9283121824264526
-0.0604722015559673,0.2939310073852539,-0.019787261262536,-0.4847194850444793,-0.0640729889273643,-0.0384426563978195,0.0,0.0,-0.1996245384216308,-0.1680214405059814
-0.0607019439339637,0.2827910184860229,-0.020779762417078,-0.4952051937580108,-0.0662411227822303,-0.0433626994490623,0.0,0.0,0.4060841798782348,-0.0963668227195739
-0.0607873909175396,0.2721304297447204,-0.0066800764761865,-0.4738888442516327,-0.0680947974324226,-0.0370734259486198,0.0,0.0,-0.0905646681785583,0.1146638393402099
-0.0608863830566406,0.2612342238426208,-0.0077420333400368,-0.4843748211860657,-0.0702307373285293,-0.0427187941968441,0.0,0.0,0.3817156553268432,-0.8192409873008728
-0.0610249526798725,0.2510559260845184,-0.0130403982475399,-0.452408105134964,-0.0710394158959388,-0.0161734111607074,0.0,0.0,-0.4213264584541321,0.1426714658737182
-0.0611780174076557,0.2406420111656189,-0.0141685139387846,-0.462894082069397,-0.0721622332930564,-0.0224565900862216,0.0,0.0,0.3993827104568481,0.0638154745101928
-0.061199951916933,0.2308264821767807,-0.0012244097888469,-0.4362938106060028,-0.0731256902217865,-0.0192688945680856,0.0,0.0,-0.1971912980079651,-0.6830425262451172
-0.0612825378775596,0.2207731306552887,-0.008081067353487,-0.4468235969543457,-0.0733005180954933,-0.0034966624807566,0.0,0.0,0.0089894533157348,-0.2349080443382263
-0.0613900199532508,0.210953027009964,-0.010073073208332,-0.4364828467369079,-0.0739780366420745,-0.0135500188916921,0.0,0.0,0.1640268564224243,-0.2867505550384521
-0.0614093765616416,0.2018001228570938,-0.0011585799511522,-0.4068347513675689,-0.0747453272342681,-0.0153459925204515,0.0,0.0,-0.032570481300354,-0.9071369171142578
-0.0615196228027343,0.1924196779727935,-0.0117662260308861,-0.416869580745697,-0.0740124210715293,0.0146581185981631,0.0,0.0,-0.7139742970466614,-0.3192219138145447
-0.0616467483341693,0.1828037798404693,-0.0130683258175849,-0.427356094121933,-0.0736653432250022,0.0069418489001691,0.0,0.0,-0.1103854179382324,-0.3500609993934631
-0.0617911331355571,0.1729523539543151,-0.0143952639773488,-0.4378426373004913,-0.0737129747867584,-0.0009525732020847,0.0,0.0,0.0076328516006469,-0.4472219944000244
-0.0619520172476768,0.1635536104440689,-0.0154779311269521,-0.4177533984184265,-0.0743145868182182,-0.0120323868468403,0.0,0.0,-0.4112398624420166,-0.0288462042808532
-0.0621307380497455,0.1539193242788314,-0.0168505646288394,-0.4282400906085968,-0.0753266215324401,-0.0202403645962476,0.0,0.0,0.304201602935791,-0.2753182649612427
-0.0623175613582134,0.1446398049592971,-0.0171506013721227,-0.4125005900859833,-0.0768467709422111,-0.0304029937833547,0.0,0.0,-0.339913010597229,-0.662306010723114
-0.0625851601362228,0.1351327002048492,-0.0263872798532247,-0.4225564002990722,-0.0772157236933708,-0.0073792873881757,0.0,0.0,0.4767951965332031,-0.128017783164978
-0.0629694014787674,0.1261059641838073,-0.0369873195886611,-0.401265949010849,-0.0786362737417221,-0.0284108109772205,0.0,0.0,0.6606402397155762,0.0876036882400512
-0.0632095336914062,0.1179113462567329,-0.0226408429443836,-0.3642791211605072,-0.0799989700317382,-0.0272539742290973,0.0,0.0,-0.1843910813331604,-0.1678416728973388
-0.0634687393903732,0.1094813421368599,-0.0241026021540164,-0.3747662901878357,-0.0818010419607162,-0.0360416173934936,0.0,0.0,0.4400790929794311,-0.6359949111938477
-0.0636046379804611,0.101804219186306,-0.0128820436075329,-0.3412452042102813,-0.0824989601969719,-0.0139583172276616,0.0,0.0,-0.0687359571456909,-0.8861087560653687
-0.0638319998979568,0.0939080119132995,-0.0234302394092082,-0.3509041666984558,-0.0818102732300758,0.0137736797332763,0.0,0.0,0.6760445833206177,-0.0919252634048461
-0.0638637542724609,0.0870545729994773,-0.0040890178643167,-0.3045452535152435,-0.0809035673737526,0.0181341357529163,0.0,0.0,-0.2081388235092163,-0.8279669880867004
-0.0639721900224685,0.0799728259444236,-0.0127497538924217,-0.3146423995494842,-0.0790113881230354,0.0378437303006649,0.0,0.0,0.431257963180542,0.2112454175949096
-0.0640506744384765,0.0737141221761703,-0.0092695662751793,-0.2780911028385162,-0.077606089413166,0.0281057767570018,0.0,0.0,-0.3585829734802246,0.1229170560836792
-0.0641489997506141,0.0672199577093124,-0.0107858618721365,-0.2885783612728119,-0.076661504805088,0.0188919212669134,0.0,0.0,0.1669580936431884,0.5570070743560791
-0.0641359314322471,0.0609597526490688,0.0018233901355415,-0.2782597243785858,-0.0771755054593086,-0.0102800708264112,0.0,0.0,0.3581138849258423,-0.541251540184021
-0.0642552375793457,0.0552427135407924,-0.0117740342393517,-0.2540970742702484,-0.0773231089115142,-0.002952423878014,0.0,0.0,-0.1120622158050537,0.9006712436676025
-0.0643385872244834,0.0492814891040325,-0.0062898769974708,-0.2650514245033264,-0.0793506652116775,-0.0405513048171997,0.0,0.0,0.2938833236694336,0.0954705476760864
-0.0644237548112869,0.0437470525503158,-0.0059091956354677,-0.2461142688989639,-0.0819260329008102,-0.0515076331794261,0.0,0.0,0.5247354507446289,0.6075401306152344
-0.064414694905281,0.0387032143771648,0.005150188691914,-0.2244090586900711,-0.0861249640583992,-0.0839786380529403,0.0,0.0,0.3378303050994873,0.8200042247772217
-0.0642168074846267,0.0338283143937587,0.026020023971796,-0.2170352786779403,-0.0922984331846237,-0.1234692186117172,0.0,0.0,0.5022159814834595,-0.7652929425239563
-0.0639433860778808,0.0296452138572931,0.0323428064584732,-0.1862310916185379,-0.0972573012113571,-0.0991775766015052,0.0,0.0,0.2166738510131836,-0.5306745767593384
-0.0636532753705978,0.0261222943663597,0.033381063491106,-0.1568680852651596,-0.1015914231538772,-0.0866823717951774,0.0,0.0,0.0143474340438842,-0.0649252533912658
