x_pos,y_pos,x_vel,y_vel,angle,ang_vel,leg_1,leg_2,main_booster,lat_booster
-0.0015123367775231,1.4029560089111328,-0.153961107134819,-0.3539672493934631,0.0024510018993169,0.0483994372189044,0.0,0.0,-0.3166698813438415,0.8453747034072876
-0.0029417991172522,1.3943424224853516,-0.1442290693521499,-0.382824957370758,0.0037147512193769,0.0252780709415674,0.0,0.0,0.3643034696578979,0.9152686595916748
-0.0041643143631517,1.3855547904968262,-0.1225252524018287,-0.3905667662620544,0.0039898320101201,0.0055019720457494,0.0,0.0,0.0871785879135131,0.7998991012573242
-0.0054065706208348,1.3765885829925537,-0.123540498316288,-0.3984915912151336,0.0033146641217172,-0.0135045424103736,0.0,0.0,0.2531676292419433,0.477180004119873
-0.0065437317825853,1.3676962852478027,-0.1142186373472213,-0.3952142894268036,0.0038079866208136,0.0098674995824694,0.0,0.0,-0.1267111301422119,0.6781184673309326
-0.0076072691008448,1.3581347465515137,-0.1059004887938499,-0.4249579012393951,0.0033562590833753,-0.0090353908017277,0.0,0.0,0.3756352663040161,0.2446712255477905
-0.0086836814880371,1.348625898361206,-0.1078080981969833,-0.4226203560829162,0.0035217283293604,0.0033099383581429,0.0,0.0,-0.7570792436599731,0.6060638427734375
-0.0096936225891113,1.338450312614441,-0.1003617867827415,-0.4522472321987152,0.0028987869154661,-0.0124600622802972,0.0,0.0,-0.3645416498184204,0.4013495445251465
-0.0106971738860011,1.327606201171875,-0.1004374772310257,-0.4819613695144653,0.0029882313683629,0.0017889116425067,0.0,0.0,-0.0967923998832702,0.1171712875366211
-0.011694717220962,1.3160934448242188,-0.1005703210830688,-0.5116776823997498,0.0037915143184363,0.0160669423639774,0.0,0.0,0.0801631212234497,0.5128514766693115
-0.012585830874741,1.304496169090271,-0.0897425711154937,-0.5154395699501038,0.0044168555177748,0.0125082954764366,0.0,0.0,-0.4281020164489746,-0.8555273413658142
-0.0135315898805856,1.292228102684021,-0.0974429845809936,-0.5452624559402466,0.0072578135877847,0.0568240396678447,0.0,0.0,-0.7221595644950867,-0.2553740739822387
-0.0144729614257812,1.2792915105819702,-0.097727820277214,-0.5749780535697937,0.0108179068192839,0.0712080523371696,0.0,0.0,0.2296923398971557,0.1488686800003051
-0.0153616908937692,1.26608407497406,-0.0934459194540977,-0.5870401859283447,0.01534229144454,0.090495690703392,0.0,0.0,-0.4926031231880188,0.3067969083786011
-0.0162467956542968,1.2522083520889282,-0.0938140898942947,-0.6167624592781067,0.0205892734229564,0.1049492359161377,0.0,0.0,-0.2667555809020996,0.8018680810928345
-0.0170536991208791,1.2376575469970703,-0.0848256796598434,-0.6467711329460144,0.024680733680725,0.0818364769220352,0.0,0.0,-0.4261224269866943,0.0122774839401245
-0.0178576465696096,1.2224384546279907,-0.0852569937705993,-0.676490843296051,0.0294982567429542,0.0963590741157531,0.0,0.0,0.00662362575531,0.4153271913528442
-0.0185787193477153,1.206897497177124,-0.0781265944242477,-0.6908363699913025,0.0354483276605606,0.1190122216939926,0.0,0.0,-0.4542216062545776,0.7349698543548584
-0.0192301757633686,1.1906992197036743,-0.070179671049118,-0.720054566860199,0.0404288582503795,0.0996196120977401,0.0,0.0,-0.7860472202301025,0.6359121799468994
-0.0198359489440917,1.173835277557373,-0.0652288347482681,-0.7496416568756104,0.0450434125959873,0.0922991409897804,0.0,0.0,-0.4707263708114624,0.7335693836212158
-0.0203694347292184,1.156313419342041,-0.0569617822766304,-0.7788611054420471,0.0486184209585189,0.0715066641569137,0.0,0.0,0.2379791736602783,0.8065794706344604
-0.0208431240171194,1.138621211051941,-0.0501080863177776,-0.7864170670509338,0.051329106092453,0.0542183741927146,0.0,0.0,0.3357799053192138,0.621654748916626
-0.0211729053407907,1.12093186378479,-0.0354264304041862,-0.7862720489501953,0.0537539720535278,0.0485015548765659,0.0,0.0,0.430585503578186,0.4661191701889038
-0.0214548110961914,1.1029843091964722,-0.031666062772274,-0.797796368598938,0.0571878999471664,0.0686849206686019,0.0,0.0,0.4460771083831787,0.730083703994751
-0.0218472480773925,1.0852075815200806,-0.0417450554668903,-0.7901763916015625,0.0596624054014682,0.0494946651160717,0.0,0.0,0.1400091648101806,0.8510727882385254
-0.022315502166748,1.0674688816070557,-0.0482955835759639,-0.7884464859962463,0.0611151680350303,0.0290553383529186,0.0,0.0,0.5397331714630127,0.6762676239013672
-0.0227660182863473,1.050085425376892,-0.0458996295928955,-0.7726382613182068,0.0619561523199081,0.0168195236474275,0.0,0.0,0.663475513458252,0.6907117366790771
-0.0233547203242778,1.0332767963409424,-0.0587587058544158,-0.7470442056655884,0.061836801469326,-0.0023866796400398,0.0,0.0,0.2128589153289795,-0.134863018989563
-0.0240721702575683,1.0166425704956057,-0.0719041898846626,-0.7393022775650024,0.0619999840855598,0.0032635510433465,0.0,0.0,0.7965525388717651,0.8150944709777832
-0.0247806552797555,1.0001349449157717,-0.0700568780303001,-0.7336457371711731,0.0612167418003082,-0.0156650282442569,0.0,0.0,0.5389702320098877,0.1867260932922363
-0.0255175586789846,0.9841415286064148,-0.0737097188830375,-0.7108191251754761,0.0612372010946273,0.0004091518349014,0.0,0.0,-0.1751288175582885,0.0535989999771118
-0.0262517929077148,0.9674801230430604,-0.0741782337427139,-0.7405380606651306,0.0619792453944683,0.0148409958928823,0.0,0.0,0.1423912048339843,0.789064884185791
-0.0270211212337017,0.9509875774383544,-0.0767684951424598,-0.7329918146133423,0.0618198439478874,-0.0031879674643278,0.0,0.0,-0.6713041663169861,0.7503834962844849
-0.0277340896427631,0.9338253140449524,-0.0705100446939468,-0.7627386450767517,0.0610441416501998,-0.0155143439769744,0.0,0.0,0.8408106565475464,0.0440776348114013
-0.0284682270139455,0.9170429706573486,-0.0734372437000274,-0.7458837628364563,0.0610676109790802,0.0004696477262768,0.0,0.0,-0.5200290083885193,0.5786700248718262
-0.0291518215090036,0.89960116147995,-0.0679043754935264,-0.7751694321632385,0.0606163702905178,-0.0090249273926019,0.0,0.0,0.7699408531188965,-0.0153004527091979
-0.0298890117555856,0.8822191953659058,-0.0738561004400253,-0.7725381851196289,0.0607450529932975,0.0025736982934176,0.0,0.0,0.6619236469268799,0.6979236602783203
-0.0305718425661325,0.8653298616409302,-0.0678121298551559,-0.7506194710731506,0.0602794475853443,-0.0093121994286775,0.0,0.0,0.6494565010070801,-0.267496109008789
-0.0313400253653526,0.849028468132019,-0.0768615528941154,-0.7245080471038818,0.0603355355560779,0.0011216767597943,0.0,0.0,-0.5574178099632263,-0.0347092151641845
-0.0321029648184776,0.8320590257644653,-0.0770655497908592,-0.754226803779602,0.0610914155840873,0.0151173006743192,0.0,0.0,0.4121272563934326,0.7526763677597046
-0.0329436287283897,0.8154204487800598,-0.0838562697172164,-0.739483118057251,0.0608866959810256,-0.0040946146473288,0.0,0.0,-0.3206411600112915,-0.246742308139801
-0.0337784774601459,0.7981138229370117,-0.0839681178331375,-0.769201934337616,0.0613731667399406,0.0097293807193636,0.0,0.0,0.0821659564971923,0.7360615730285645
-0.0344881042838096,0.7804505825042725,-0.0707301869988441,-0.7850175499916077,0.0611405782401561,-0.0046518561430275,0.0,0.0,0.7343536615371704,0.3905220031738281
-0.0351208671927452,0.762959897518158,-0.0642139762639999,-0.7774051427841187,0.0620710551738739,0.0186096765100955,0.0,0.0,0.4218708276748657,0.9432801008224488
-0.0357270240783691,0.7451726198196411,-0.0603063628077507,-0.790532648563385,0.0617664866149425,-0.0060914354398846,0.0,0.0,0.7293083667755127,0.8780875205993652
-0.0362239852547645,0.7272434234619141,-0.0483877025544643,-0.7968007326126099,0.0604740418493747,-0.0258488953113555,0.0,0.0,0.8857840299606323,0.9341341257095336
-0.0365925803780555,0.709418535232544,-0.0344707444310188,-0.7921232581138611,0.0581191703677177,-0.0470974072813987,0.0,0.0,-0.0892356634140014,0.5584449768066406
-0.0369166359305381,0.6909347772598267,-0.0297756940126419,-0.8214012980461121,0.05551378428936,-0.0521078407764434,0.0,0.0,0.8279409408569336,-0.4527629613876343
-0.0374263748526573,0.6730768084526062,-0.0483050495386123,-0.7935928702354431,0.0528760403394699,-0.0527548566460609,0.0,0.0,0.6501476764678955,0.8692623376846313
-0.0379077903926372,0.6553128957748413,-0.0443366058170795,-0.789379358291626,0.0491100065410137,-0.0753205269575119,0.0,0.0,0.5715126991271973,0.4296660423278808
-0.0382692329585552,0.6377047300338745,-0.0336103104054927,-0.7825042009353638,0.0466039292514324,-0.0501214861869812,0.0,0.0,0.4083108901977539,0.3068349361419678
-0.038698099553585,0.6203659176826477,-0.0407407060265541,-0.7705480456352234,0.0444894656538963,-0.0422894395887851,0.0,0.0,0.2686424255371094,0.884290337562561
-0.0389639846980571,0.6028767228126526,-0.0233536325395107,-0.7772036194801331,0.0412931032478809,-0.0639275908470153,0.0,0.0,0.3246521949768066,0.1251462697982788
-0.0392416939139366,0.5856781005859375,-0.0251492615789175,-0.7643131017684937,0.0387044921517372,-0.0517722070217132,0.0,0.0,0.4754538536071777,0.5395200252532959
-0.0393373481929302,0.568472683429718,-0.006809911224991,-0.764614462852478,0.035976093262434,-0.0545680336654186,0.0,0.0,0.6443469524383545,0.7313134670257568
-0.0394831672310829,0.5512964129447937,-0.0107067180797457,-0.7633024454116821,0.0321538038551807,-0.0764459744095802,0.0,0.0,0.5907961130142212,0.2506195306777954
-0.0395494475960731,0.5346068143844604,-0.00374490278773,-0.7417017817497253,0.0293050426989793,-0.0569754838943481,0.0,0.0,0.9132297039031982,0.3038587570190429
-0.0394646637141704,0.5184269547462463,0.0100665055215358,-0.7190751433372498,0.0277344398200511,-0.0314117819070816,0.0,0.0,0.6623785495758057,0.8025059700012207
-0.0392417907714843,0.5028353333473206,0.0248142592608928,-0.6929182410240173,0.0252383686602115,-0.0499212145805358,0.0,0.0,0.2553539276123047,0.4187400341033935
-0.0390766151249408,0.4874684810638428,0.0188045650720596,-0.6829357147216797,0.0229782294481992,-0.0452029891312122,0.0,0.0,0.2331200838088989,0.8992661237716675
-0.0387866012752056,0.4718439280986786,0.0325875021517276,-0.6943734288215637,0.0194390378892421,-0.0707837268710136,0.0,0.0,0.1031773090362548,0.3662480115890503
-0.0385564789175987,0.4562515020370483,0.0264450348913669,-0.6929547786712646,0.0160533096641302,-0.0677147805690765,0.0,0.0,0.809627890586853,0.2570493221282959
-0.0381834991276264,0.4408435225486755,0.0396461151540279,-0.6847733855247498,0.0137342689558863,-0.0463809669017791,0.0,0.0,0.8544144630432129,-0.156106948852539
-0.0377764701843261,0.4257996082305908,0.0425080619752407,-0.6686046123504639,0.0119547499343752,-0.0355905890464782,0.0,0.0,0.7251169681549072,0.096921682357788
-0.0373487472534179,0.410715103149414,0.0441384650766849,-0.6704122424125671,0.0106050735339522,-0.0269935317337512,0.0,0.0,0.7223398685455322,0.5821982622146606
-0.037002183496952,0.3958851099014282,0.0371971055865287,-0.6590942144393921,0.0081040719524025,-0.0500202253460884,0.0,0.0,0.9503722190856934,0.0473605394363403
-0.0366201400756835,0.3819023668766022,0.0402807034552097,-0.6214465498924255,0.0060576158575713,-0.0409290343523025,0.0,0.0,0.6590218544006348,0.3426220417022705
-0.0361388213932514,0.3676923811435699,0.0495084710419178,-0.6315532922744751,0.0047004153020679,-0.0271441526710987,0.0,0.0,0.839855432510376,0.1141388416290283
-0.0356128700077533,0.3542400002479553,0.0535459294915199,-0.5978816747665405,0.0037593899760395,-0.0188205745071172,0.0,0.0,0.7662490606307983,-0.0936046838760376
-0.0351701751351356,0.3408775329589844,0.0454425029456615,-0.5938844084739685,0.0025977245531976,-0.0232332963496446,0.0,0.0,0.648712158203125,0.4749816656112671
-0.0348013862967491,0.3278597891330719,0.0382705926895141,-0.5785670876502991,0.0012233979068696,-0.0274865441024303,0.0,0.0,0.6919690370559692,-0.1991572380065918
-0.0343821533024311,0.3151294589042663,0.0429929457604885,-0.5657894015312195,0.0001713612000457,-0.0210406444966793,0.0,0.0,0.5263316631317139,-0.6265722513198853
-0.0341221801936626,0.3029078841209411,0.0259399153292179,-0.5431802868843079,0.000222019283683,0.0010133364703506,0.0,0.0,0.6627299785614014,0.4413169622421264
-0.0337683670222759,0.2908895015716553,0.0348873250186443,-0.5341494083404541,0.0007189722382463,0.009939051233232,0.0,0.0,0.7883973121643066,-0.2097750902175903
-0.0334309563040733,0.2788375914096832,0.0333441272377967,-0.5356432199478149,0.0011139252455905,0.0078991577029228,0.0,0.0,0.8777520656585693,0.0461236238479614
-0.0329961776733398,0.2666712999343872,0.042688250541687,-0.5407224297523499,0.0018952798563987,0.0156270992010831,0.0,0.0,0.7989723682403564,-0.3151990175247192
-0.0325758941471576,0.2543908059597015,0.0414079651236534,-0.5458019971847534,0.0025080034974962,0.0122544523328542,0.0,0.0,0.8500509262084961,0.4294096231460571
-0.0321464538574218,0.2427739650011062,0.0424118861556053,-0.516304612159729,0.003029303625226,0.01042609103024,0.0,0.0,0.4595049619674682,-0.6280315518379211
-0.0316708572208881,0.23157599568367,0.0456906631588935,-0.4976947009563446,0.0048739039339125,0.0368919558823108,0.0,0.0,0.6463940143585205,0.3046478033065796
-0.0312902443110942,0.220930278301239,0.0368453077971935,-0.473145842552185,0.0060764225199818,0.024050397798419,0.0,0.0,0.5341181755065918,-0.1327582597732544
-0.0310107227414846,0.2100762724876403,0.027457658201456,-0.482403427362442,0.0065606120042502,0.0096835596486926,0.0,0.0,0.635251522064209,-0.1327704191207885
-0.0306755062192678,0.1997276693582534,0.0330416820943355,-0.4599417150020599,0.0070296595804393,0.0093812337145209,0.0,0.0,0.4245171546936035,-0.1306240558624267
-0.0304102897644042,0.1894537359476089,0.0266932658851146,-0.4566152691841125,0.0068583921529352,-0.0034253827761858,0.0,0.0,0.6426804065704346,0.061612844467163
-0.0301833152770996,0.1795215457677841,0.0233986191451549,-0.4414258003234863,0.0061633726581931,-0.0139002725481987,0.0,0.0,0.7098170518875122,0.0234357118606567
-0.0299524310976266,0.1700062155723571,0.0241671819239854,-0.4229010343551636,0.0051051657646894,-0.0211640410125255,0.0,0.0,0.8450886011123657,-0.44379723072052
-0.029606532305479,0.160797581076622,0.0355405770242214,-0.4092683792114258,0.0041584335267543,-0.0189345739781856,0.0,0.0,0.5688685178756714,-0.7040584683418274
-0.0292723663151264,0.1514008343219757,0.0332854427397251,-0.4176346361637115,0.0042902184650301,0.0026356279850006,0.0,0.0,0.7080503702163696,-0.7567958831787109
-0.0288740154355764,0.1419546753168106,0.0383649431169033,-0.419836938381195,0.0057378830388188,0.0289534386247396,0.0,0.0,0.6110396385192871,-0.9046034216880798
-0.0283689498901367,0.1326757222414016,0.0474256351590156,-0.4124143719673157,0.0087788524106144,0.0608193948864936,0.0,0.0,0.4959497451782226,-0.7758846282958984
-0.0277675632387399,0.1232590302824974,0.055735845118761,-0.4185525476932525,0.0131327221170067,0.0870773047208786,0.0,0.0,0.8681613206863403,-0.251619815826416
-0.0271633155643939,0.1144478619098663,0.0565357431769371,-0.3916458487510681,0.0169742610305547,0.0768307968974113,0.0,0.0,0.6248917579650879,-0.7110739946365356
-0.0265744216740131,0.1060919612646102,0.0540046207606792,-0.3714357316493988,0.0217908155173063,0.0963312163949012,0.0,0.0,0.6167418956756592,-0.632572591304779
-0.0258975978940725,0.0980517715215683,0.0617574378848075,-0.3574418127536773,0.0276394207030534,0.1169723719358444,0.0,0.0,0.698735237121582,-0.1331443786621093
-0.0251065250486135,0.0898507237434387,0.0732604414224624,-0.3646086454391479,0.0334173217415809,0.1155580654740333,0.0,0.0,0.8725545406341553,-0.5410937070846558
-0.02442092821002,0.0818397104740142,0.0623772516846656,-0.3561932444572449,0.0395200029015541,0.1220537051558494,0.0,0.0,0.8586112260818481,-0.6959435939788818
-0.0237065311521291,0.0746264308691024,0.0642085671424865,-0.3208006024360657,0.0466634035110473,0.1428680270910263,0.0,0.0,0.4699385166168213,0.4983770847320556
-0.02301711961627,0.0675019845366478,0.0624196715652942,-0.3168577849864959,0.053105641156435,0.1288446933031082,0.0,0.0,0.7389984130859375,0.5525844097137451
-0.0224494934082031,0.0609605424106121,0.0523797497153282,-0.2908937335014343,0.0574477091431617,0.0868412926793098,0.0,0.0,0.538907527923584,0.8656561374664307
-0.0217411033809185,0.0547416768968105,0.0686985626816749,-0.2764778137207031,0.0595567226409912,0.0421804338693618,0.0,0.0,0.3494381904602051,-0.6669844388961792
-0.0211519245058298,0.0487671457231044,0.0561889223754406,-0.2656458020210266,0.0622596032917499,0.0540576353669166,0.0,0.0,0.3218786716461181,-0.0168855190277099
-0.0206476207822561,0.0430142730474472,0.0486628264188766,-0.2557562589645386,0.0639957636594772,0.0347233712673187,0.0,0.0,0.6678922176361084,-0.5150525569915771
-0.0202250480651855,0.0373366437852382,0.040228996425867,-0.2524269819259643,0.0660121887922287,0.0403285957872867,0.0,0.0,0.7057290077209473,0.3113541603088379
-0.0199458114802837,0.03190728276968,0.0271305236965417,-0.2413395196199417,0.0667896345257759,0.0155490357428789,0.0,0.0,0.7394282817840576,0.794350266456604
-0.0197972301393747,0.0266211125999689,0.0167193189263343,-0.2348589152097702,0.0649572387337684,-0.036648117005825,0.0,0.0,0.8447000980377197,0.7819247245788574
-0.0194932930171489,0.0218901261687278,0.0342446938157081,-0.2101035416126251,0.0611407235264778,-0.0763303413987159,0.0,0.0,0.3573458194732666,0.4061341285705566
-0.0191412921994924,0.0169487092643976,0.0395434536039829,-0.2194489985704422,0.0568500906229019,-0.0858129560947418,0.0,0.0,0.7882208824157715,-0.453472375869751
-0.0186635013669729,0.0125883677974343,0.0521101579070091,-0.1936333924531936,0.0525713227689266,-0.0855753943324089,0.0,0.0,0.4747051000595093,-0.7786052823066711
-0.0182910915464162,0.0085965609177947,0.0407650023698806,-0.177293598651886,0.0490842908620834,-0.0697405040264129,0.0,0.0,0.488990306854248,-0.5374407172203064
-0.0178457256406545,0.005102930124849,0.047369223088026,-0.1551823616027832,0.0462804175913333,-0.0560773536562919,0.0,0.0,0.2535498142242431,-0.8125607967376709
-0.0175024978816509,0.0023150776978582,0.0552990958094596,-0.1233872547745704,0.0255585052073001,-0.4144332408905029,0.0,1.0,0.5875768661499023,-0.118128478527069
-0.0171883590519428,4.35686124546919e-05,0.0525572374463081,-0.100730761885643,0.00469157891348,-0.4173383116722107,0.0,1.0,0.3311810493469238,-0.1404899358749389
-0.016828155145049,-0.0019386553904041,0.0569214224815368,-0.0881633907556533,-0.0159483775496482,-0.412799209356308,1.0,0.0,0.1278839111328125,-0.3431291580200195
-0.0163590423762798,-0.0036650681868195,0.0561510510742664,-0.0770932510495185,-0.02413010597229,-0.1624430119991302,1.0,0.0,0.2760336399078369,-0.134328544139862
-0.0158613212406635,-0.0047915959730744,0.0423591770231723,-0.0499768443405628,-0.0167828220874071,0.1469898074865341,1.0,0.0,0.1225069761276245,-0.4463679790496826
-0.015568733215332,-0.0049573923461139,0.0250031687319278,-0.0073535153642296,-0.0126378294080495,0.0828319415450096,1.0,1.0,-0.3762528896331787,0.2548861503601074
-0.0153985023498535,-0.0046801231801509,0.0146897556260228,0.0123210158199071,-0.0103698363527655,0.0453011915087699,1.0,1.0,-0.5979360342025757,0.2857065200805664
-0.0152295110747218,-0.0040360712446272,0.0146602597087621,0.0286222044378519,-0.0082051670178771,0.0432402417063713,1.0,1.0,-0.4981751441955566,-0.0637435913085937
-0.0150764463469386,-0.0030601406469941,0.0143933771178126,0.0433680042624473,-0.0073341028764843,0.0173756796866655,1.0,1.0,-0.1861969828605651,-0.0532890558242797
-0.014936065301299,-0.0018341564573347,0.0141802402213215,0.0544770769774913,-0.0075051193125545,-0.0034569955896586,1.0,1.0,-0.1197007894515991,0.1900382041931152
-0.0147002218291163,-0.0008130574133247,0.0157898254692554,0.0453939586877822,0.0001619841787032,0.1533069908618927,1.0,1.0,-0.6725620627403259,0.879073977470398
-0.0144251827150583,-0.00044498682837,0.0245644673705101,0.0163497161120176,0.0030296945478767,0.0573218874633312,1.0,1.0,-0.7398501038551331,-0.1641029119491577
