x_pos,y_pos,x_vel,y_vel,angle,ang_vel,leg_1,leg_2,main_booster,lat_booster
-0.0015094757545739,1.4032493829727173,-0.152904599905014,-0.3409254848957062,0.0017463816329836,0.0344478078186512,0.0,0.0,-0.295842170715332,0.9119510650634766
-0.0029273033142089,1.395222306251526,-0.1414951682090759,-0.3567583858966827,0.0014722865307703,-0.0054818564094603,0.0,0.0,0.2852476835250854,0.8960998058319092
-0.004141426179558,1.3872849941253662,-0.1194272637367248,-0.3527736365795135,-0.000486142176669,-0.0391724407672882,0.0,0.0,-0.3511480689048767,0.3894965648651123
-0.0053413389250636,1.3789722919464111,-0.1179867535829544,-0.3694561719894409,-0.0024654192384332,-0.0395891964435577,0.0,0.0,0.0095171928405761,-0.4701544046401977
-0.0064472197555005,1.3708819150924685,-0.1089507713913917,-0.3595775961875915,-0.0040901913307607,-0.0324985645711422,0.0,0.0,0.0780930519104003,0.5277009010314941
-0.007397174835205,1.3629461526870728,-0.0924572497606277,-0.3527049720287323,-0.0065929256379604,-0.0500594601035118,0.0,0.0,-0.7171860337257385,0.0974177122116088
-0.0083331111818552,1.354635238647461,-0.0910258963704109,-0.3693821728229522,-0.0091205146163702,-0.050556618720293,0.0,0.0,-0.7996203303337097,-0.1259539127349853
-0.0092549324035644,1.3459495306015017,-0.0895990431308746,-0.38605597615242,-0.011674708686769,-0.051088809967041,0.0,0.0,-0.8410882949829102,-0.3779439330101013
-0.0101628303527832,1.3368886709213257,-0.0881769135594368,-0.402730643749237,-0.0142565900459885,-0.051642470061779,0.0,0.0,-0.6620331406593323,-0.3619608283042907
-0.011056900024414,1.327452540397644,-0.0867600813508033,-0.4194060266017914,-0.0168672651052474,-0.0522182956337928,0.0,0.0,-0.2493944764137268,-0.0445595383644104
-0.0119370464235544,1.3176413774490356,-0.0853490009903907,-0.4360814690589905,-0.0195077508687973,-0.0528146848082542,0.0,0.0,-0.6676410436630249,0.007564902305603
-0.0128035545349121,1.3074551820755005,-0.0839442610740661,-0.4527569711208343,-0.0221790168434381,-0.053430289030075,0.0,0.0,-0.3280093669891357,-0.1051470637321472
-0.013656330294907,1.2968939542770386,-0.0825464874505996,-0.4694326221942901,-0.0248819403350353,-0.0540637485682964,0.0,0.0,-0.6735846400260925,-0.6611658930778503
-0.0145418168976902,1.285953164100647,-0.0869572609663009,-0.4862860739231109,-0.0264567974954843,-0.0314999148249626,0.0,0.0,-0.5768002867698669,-0.4819022417068481
-0.0154139520600438,1.274637222290039,-0.0855791345238685,-0.5029613375663757,-0.028065575286746,-0.0321785137057304,0.0,0.0,-0.6079338192939758,-0.5299144983291626
-0.016306972131133,1.2629412412643433,-0.0885120332241058,-0.5198329091072083,-0.0288485214114189,-0.0156604293733835,0.0,0.0,-0.7478524446487427,-0.0213409066200256
-0.0171868316829204,1.2508701086044312,-0.0871556922793388,-0.5365081429481506,-0.0296667367219924,-0.0163657255470752,0.0,0.0,-0.4263780117034912,-0.7655607461929321
-0.0180997848510742,1.2384194135665894,-0.0916118249297142,-0.5533580183982849,-0.0293601993471384,0.0061312736943364,0.0,0.0,0.3276669979095459,0.0438138246536254
-0.0189029686152935,1.2265574932098389,-0.0809534266591072,-0.5271913409233093,-0.0287250112742185,0.0127048240974545,0.0,0.0,-0.7374876737594604,-0.3656637668609619
-0.0196932796388864,1.214319944381714,-0.0796380788087844,-0.5438745021820068,-0.028126573190093,0.0119697209447622,0.0,0.0,-0.542712926864624,0.2361804246902465
-0.0204710010439157,1.2017074823379517,-0.0783366411924362,-0.5605474710464478,-0.0275651086121797,0.0112302517518401,0.0,0.0,-0.3013913035392761,-0.2001357078552246
-0.0212361328303813,1.1887198686599731,-0.0770513042807579,-0.5772215127944946,-0.0270411428064107,0.0104803498834371,0.0,0.0,-0.7754471898078918,-0.3352028727531433
-0.0219890587031841,1.1753568649291992,-0.0757834017276763,-0.5938968658447266,-0.0265549663454294,0.0097247418016195,0.0,0.0,-0.5938100218772888,-0.1597597002983093
-0.0227297786623239,1.1616188287734983,-0.0745344012975692,-0.6105722784996033,-0.0261068288236856,0.0089636957272887,0.0,0.0,-0.6838864684104919,-0.8028844594955444
-0.0235371589660644,1.147511005401611,-0.0831479057669639,-0.6269779801368713,-0.023723654448986,0.0476677566766738,0.0,0.0,-0.7055882215499878,0.2632715702056885
-0.0243331901729106,1.1330064535140991,-0.0819811969995498,-0.6446073055267334,-0.0213794857263565,0.0468836463987827,0.0,0.0,-0.7367801070213318,0.3234853744506836
-0.0251177791506052,1.1181269884109497,-0.0807985886931419,-0.6612809300422668,-0.0190738718956708,0.0461123026907444,0.0,0.0,-0.3745178580284118,0.6178550720214844
-0.025852870196104,1.1028776168823242,-0.0748315006494522,-0.6777306795120239,-0.0177685748785734,0.0261058900505304,0.0,0.0,-0.1368471384048462,-0.3026548624038696
-0.0265770908445119,1.087253212928772,-0.0737045034766197,-0.6944039463996887,-0.0165019035339355,0.0253334306180477,0.0,0.0,-0.3591145277023315,-0.4255757331848144
-0.0272907260805368,1.0712536573410034,-0.0726087838411331,-0.7110773324966431,-0.0152738159522414,0.0245616305619478,0.0,0.0,0.0387595891952514,-0.2584236860275268
-0.0279742237180471,1.0556771755218506,-0.0696109980344772,-0.6922788023948669,-0.0140298595651984,0.0248792916536331,0.0,0.0,-0.7706098556518555,-0.1591832041740417
-0.0286478996276855,1.0397253036499023,-0.0685853734612464,-0.7089521288871765,-0.0128243342041969,0.0241104960441589,0.0,0.0,-0.2088247537612915,-0.2542149424552917
-0.0293120387941598,1.0233986377716064,-0.0675987750291824,-0.7256254553794861,-0.0116571336984634,0.0233440697193145,0.0,0.0,-0.0537086129188537,0.2551949024200439
-0.0299671180546283,1.0066968202590942,-0.0666539743542671,-0.7422987818717957,-0.010528078302741,0.0225809924304485,0.0,0.0,0.1268538236618042,0.0973678827285766
-0.0305980686098337,0.9902611374855042,-0.0642446652054786,-0.7304608225822449,-0.0093856891617178,0.0228476859629154,0.0,0.0,0.2614412307739258,-0.0339853763580322
-0.0312014576047658,0.9743165373802184,-0.061524860560894,-0.7086451053619385,-0.0082168700173497,0.0233767740428447,0.0,0.0,0.1592313051223755,-0.2301834821701049
-0.0318130478262901,0.958476185798645,-0.06221404671669,-0.7040116786956787,-0.0071707251481711,0.0209228340536355,0.0,0.0,-0.0243626832962036,-0.6376582384109497
-0.0324646942317485,0.9422661662101746,-0.0673936605453491,-0.7204384207725525,-0.0049738786183297,0.0439369827508926,0.0,0.0,-0.4139087200164795,0.7063738107681274
-0.0330574996769428,0.9256885647773744,-0.0601422786712646,-0.7367849349975586,-0.0041267471387982,0.0169426687061786,0.0,0.0,-0.2329890131950378,-0.2568663358688354
-0.0336443893611431,0.9087355732917786,-0.0595080740749836,-0.7534581422805786,-0.0033162075560539,0.0162107087671756,0.0,0.0,0.6715072393417358,-0.686353325843811
-0.0343952178955078,0.8925959467887878,-0.0769897624850273,-0.7173172235488892,-0.0014348069671541,0.0376278311014175,0.0,0.0,-0.37384033203125,-0.5618180632591248
-0.0351767539978027,0.8760799765586853,-0.0809157639741897,-0.7340430021286011,0.0012989086098968,0.0546741597354412,0.0,0.0,-0.542157769203186,-0.0395998358726501
-0.0359540954232215,0.859188973903656,-0.0804724544286727,-0.7507168054580688,0.0039971405640244,0.0539647415280342,0.0,0.0,-0.6141712069511414,0.6844356060028076
-0.0366650596261024,0.8419216871261597,-0.0721798092126846,-0.7674316763877869,0.0050748982466757,0.0215548891574144,0.0,0.0,0.5001029968261719,0.6407787799835205
-0.0373641029000282,0.8246729969978333,-0.0695901662111282,-0.7666085362434387,0.00475919758901,-0.0063137584365904,0.0,0.0,-0.2449180483818054,-0.3855010271072387
-0.0380612388253212,0.8070490956306458,-0.0693545266985893,-0.7832817435264587,0.0044093201868236,-0.006997222546488,0.0,0.0,-0.119310975074768,-0.3416943550109863
-0.0387569442391395,0.7890501022338867,-0.0691903680562973,-0.7999550104141235,0.0040257372893393,-0.0076715559698641,0.0,0.0,0.3658082485198974,-0.6040825247764587
-0.0396045669913291,0.7717154622077942,-0.0853486955165863,-0.7704312205314636,0.0046043614856898,0.0115727251395583,0.0,0.0,0.1026256084442138,0.2454900741577148
-0.0405432693660259,0.7547940611839294,-0.0940087288618087,-0.7520638108253479,0.0047406079247593,0.0027247131802141,0.0,0.0,0.0960341691970825,0.2392832040786743
-0.0414984710514545,0.7380036115646362,-0.0955576375126838,-0.7462460994720459,0.0047795991413295,0.0007795929559506,0.0,0.0,0.1367155313491821,-0.5402567386627197
-0.042391013354063,0.7214276790618896,-0.0905468687415123,-0.7367157340049744,0.006061668973416,0.0256413128226995,0.0,0.0,-0.169869065284729,0.8910785913467407
-0.0432219505310058,0.7044829726219177,-0.0827405601739883,-0.7530925869941711,0.0057096322998404,-0.0070406696759164,0.0,0.0,0.2308123111724853,0.0317373275756835
-0.0439763069152832,0.6876607537269592,-0.0754285231232643,-0.7476567029953003,0.0057034469209611,-0.0001238912227563,0.0,0.0,0.3149845600128174,0.5138885974884033
-0.0446944236755371,0.6714208722114563,-0.0707477480173111,-0.7217723727226257,0.0046511041000485,-0.0210468992590904,0.0,0.0,0.2537473440170288,-0.353334367275238
-0.0453054420650005,0.6553616523742676,-0.0605363622307777,-0.7137457728385925,0.0040918155573308,-0.0111858071759343,0.0,0.0,-0.1727781295776367,0.3261393308639526
-0.0459214225411415,0.6389271020889282,-0.0609948262572288,-0.730418860912323,0.0035029733553528,-0.0117769623175263,0.0,0.0,-0.5695030689239502,0.3203991651535034
-0.0465428344905376,0.6221175789833069,-0.0615142211318016,-0.747092068195343,0.0028849875088781,-0.0123595762997865,0.0,0.0,0.20341157913208,0.7344529628753662
-0.046999741345644,0.6056735515594482,-0.0436871908605098,-0.7308462262153625,0.0009080012678168,-0.039539560675621,0.0,0.0,0.1390666961669922,0.6523206233978271
-0.0473541244864463,0.5897126793861389,-0.0321795120835304,-0.7093703746795654,-0.0023172227665781,-0.0645044147968292,0.0,0.0,-0.5613767504692078,0.0128213167190551
-0.0477157607674598,0.5733768939971924,-0.032866220921278,-0.7260444164276123,-0.0055703883990645,-0.0650630593299865,0.0,0.0,0.5843861103057861,-0.7332389950752258
-0.0480870231986045,0.5571923851966858,-0.0353888347744941,-0.7193192839622498,-0.0072900434024631,-0.0343932285904884,0.0,0.0,0.3193066120147705,0.6324417591094971
-0.0485007278621196,0.5414767265319824,-0.0381595306098461,-0.6984946131706238,-0.0104555394500494,-0.0633098408579826,0.0,0.0,0.3289158344268799,0.7050368785858154
-0.0487519279122352,0.5260056853294373,-0.0206490159034729,-0.6876410841941833,-0.0148780373856425,-0.0884497687220573,0.0,0.0,-0.4693496823310852,-0.7831284999847412
-0.0490717887878418,0.5101621150970459,-0.0289902426302433,-0.7041901350021362,-0.0178306400775909,-0.0590520426630973,0.0,0.0,0.4413021802902221,0.0372524261474609
-0.0493879318237304,0.4944678246974945,-0.0286265518516302,-0.6975622773170471,-0.0207779165357351,-0.0589455887675285,0.0,0.0,0.5031538009643555,0.2878695726394653
-0.0498151779174804,0.4792084693908691,-0.0391887202858924,-0.678246796131134,-0.0242721643298864,-0.0698849484324455,0.0,0.0,-0.220838189125061,0.4246349334716797
-0.0502525344491004,0.4635741412639618,-0.0401714816689491,-0.69492107629776,-0.0277920570224523,-0.0703977346420288,0.0,0.0,0.9841105937957764,-0.4781580567359924
-0.0505919456481933,0.4480873346328735,-0.0308169089257717,-0.6883646249771118,-0.030881306156516,-0.0617849603295326,0.0,0.0,0.9362401962280272,0.5096113681793213
-0.0508372299373149,0.4337280094623565,-0.0204541943967342,-0.6382807493209839,-0.0349076651036739,-0.0805272012948989,0.0,0.0,0.0215928554534912,-0.5661317706108093
-0.0511933341622352,0.4194357693195343,-0.0325490161776542,-0.6352835297584534,-0.0379262715578079,-0.0603719539940357,0.0,0.0,0.5830135345458984,0.454412579536438
-0.0516239181160926,0.4057460725307464,-0.0395655184984207,-0.608523964881897,-0.0413764789700508,-0.0690042525529861,0.0,0.0,-0.2189878821372985,0.1274656057357788
-0.0520659461617469,0.391681432723999,-0.0406878665089607,-0.6251981854438782,-0.0448510125279426,-0.0694905295968055,0.0,0.0,0.6977701187133789,0.0611177682876586
-0.0526129715144634,0.378551185131073,-0.0505432970821857,-0.5836961269378662,-0.0489619858562946,-0.0822194963693618,0.0,0.0,-0.4003893733024597,0.5154746770858765
-0.0531262382864952,0.3650428056716919,-0.0459719412028789,-0.6005581617355347,-0.0542476400732994,-0.1057132259011268,0.0,0.0,0.912845015525818,0.0897929668426513
-0.0536659248173236,0.3518409729003906,-0.048414546996355,-0.5869566798210144,-0.0597374662756919,-0.1097967848181724,0.0,0.0,0.838747501373291,0.5025863647460938
-0.0540767684578895,0.3387901782989502,-0.0347307436168193,-0.5803006291389465,-0.0660150200128555,-0.1255510747432708,0.0,0.0,0.6811366081237793,-0.5505649447441101
-0.0545552261173725,0.3258838951587677,-0.0424920320510864,-0.573857307434082,-0.071312129497528,-0.1059424728155136,0.0,0.0,0.3719722032546997,-0.9625381231307985
-0.0550827980041503,0.3136059641838074,-0.0493140444159507,-0.5458547472953796,-0.0747188404202461,-0.0681342408061027,0.0,0.0,0.8543870449066162,-0.5513801574707031
-0.0555025115609169,0.3023222386837005,-0.039889320731163,-0.501602828502655,-0.0767790377140045,-0.041203923523426,0.0,0.0,0.0865932703018188,-0.7078661918640137
-0.0560332313179969,0.2914906740188598,-0.0523143410682678,-0.4814440310001373,-0.0775285437703132,-0.0149902775883674,0.0,0.0,-0.2523245811462402,0.9048988819122314
-0.0565213188529014,0.2802681028842926,-0.0465981215238571,-0.4988954365253448,-0.0797177851200103,-0.0437848083674907,0.0,0.0,-0.3496512174606323,0.664395809173584
-0.0569662079215049,0.2686698138713836,-0.0408300310373306,-0.5156800746917725,-0.0833391696214675,-0.0724276229739189,0.0,0.0,0.3744233846664428,-0.7316470146179199
-0.0575356483459472,0.2574310600757599,-0.0545983016490936,-0.4996331930160522,-0.0856692120432853,-0.0466008558869361,0.0,0.0,0.5221818685531616,-0.1327921748161316
-0.058115292340517,0.2467570155858993,-0.0553482584655284,-0.4745517075061798,-0.0882540345191955,-0.0516964271664619,0.0,0.0,-0.5924907326698303,-0.5976125001907349
-0.0587559714913368,0.2357174009084701,-0.0626661926507949,-0.4907349348068237,-0.0896442830562591,-0.0278049651533365,0.0,0.0,-0.5144325494766235,0.0913419723510742
-0.0594099983572959,0.2243026345968246,-0.0639810040593147,-0.5074083805084229,-0.0910549908876419,-0.0282141827046871,0.0,0.0,0.2139012813568115,0.338832139968872
-0.0600372329354286,0.2128860801458358,-0.061361838132143,-0.5074848532676697,-0.0924052223563194,-0.0270048286765813,0.0,0.0,0.9613237380981444,0.2857366800308227
-0.0605241768062114,0.2017931044101715,-0.0478255152702331,-0.4930735528469085,-0.0932657346129417,-0.0172103065997362,0.0,0.0,0.858090877532959,0.1084096431732177
-0.0608000755310058,0.1912610381841659,-0.027472797781229,-0.4680967628955841,-0.0933801084756851,-0.002287512877956,0.0,0.0,0.3785891532897949,-0.3948875069618225
-0.060943029820919,0.180829107761383,-0.0147030027583241,-0.4636155068874359,-0.0929752513766288,0.0080971987918019,0.0,0.0,0.4144742488861084,-0.8219410181045532
-0.0611097328364849,0.1709984838962555,-0.018699312582612,-0.4367911517620086,-0.0909556671977043,0.0403913967311382,0.0,0.0,-0.0548295974731445,-0.1338528394699096
-0.0612899772822856,0.1607927232980728,-0.0200469121336936,-0.4534648358821869,-0.0889539495110511,0.0400344356894493,0.0,0.0,0.3104537725448608,-0.2248339653015136
-0.0613385215401649,0.1509893536567688,-0.0073177753947675,-0.4355615675449371,-0.0865125954151153,0.048827014863491,0.0,0.0,0.1312974691390991,-0.1332613825798034
-0.0613125786185264,0.1411359906196594,-0.0001825843937695,-0.4377684593200683,-0.0837685167789459,0.054881602525711,0.0,0.0,0.7811980247497559,0.365818977355957
-0.0613109581172466,0.1317353844642639,-0.0023255164269357,-0.4176683723926544,-0.0813026055693626,0.0493180602788925,0.0,0.0,0.450119137763977,-0.2273817062377929
-0.061187457293272,0.1230828613042831,0.0095242280513048,-0.384406715631485,-0.078508548438549,0.0558813102543354,0.0,0.0,0.3505573272705078,-0.3838950395584106
-0.0610602386295795,0.1147532761096954,0.0100009646266698,-0.3700647950172424,-0.0758173838257789,0.0538232252001762,0.0,0.0,0.539770245552063,-0.6697738766670227
-0.0610697753727436,0.1071841567754745,-0.004738594405353,-0.336219310760498,-0.072065569460392,0.0750361904501915,0.0,0.0,-0.0731496214866638,0.3038532733917236
-0.0610930435359478,0.0992400273680687,-0.00610460806638,-0.3528937101364136,-0.0683269426226615,0.0747723430395126,0.0,0.0,0.5550978183746338,0.3099744319915771
-0.0611320510506629,0.0919829681515693,-0.0074398191645741,-0.3223791718482971,-0.0648338198661804,0.0698627009987831,0.0,0.0,-0.03421151638031,0.5683451890945435
-0.0611460693180561,0.0843511894345283,-0.0039322492666542,-0.3390827775001526,-0.0623272322118282,0.050131905823946,0.0,0.0,0.7888401746749878,0.2864505052566528
-0.061167050153017,0.0771540701389312,-0.0045028724707663,-0.3197745978832245,-0.0599557757377624,0.0474292561411857,0.0,0.0,0.6715085506439209,0.6069345474243164
-0.0612445846199989,0.0705006942152977,-0.0086009763181209,-0.2956753075122833,-0.0591137893497943,0.0168397985398769,0.0,0.0,0.4652446508407593,0.8889113664627075
-0.0613890662789344,0.0641728267073631,-0.0133204907178878,-0.2812842726707458,-0.0602252855896949,-0.0222299788147211,0.0,0.0,0.2860389947891235,0.935271978378296
-0.0613441467285156,0.0582976453006267,0.0074472576379776,-0.2612415254116058,-0.0631507262587547,-0.0585086420178413,0.0,0.0,-0.2416449785232544,0.2356507778167724
-0.0613130554556846,0.0520473830401897,0.006078845821321,-0.2779153883457184,-0.0660824105143547,-0.0586340241134166,0.0,0.0,0.6784037351608276,-0.0913465023040771
-0.0610973350703716,0.0465675219893455,0.0238466523587703,-0.2436503618955612,-0.0683376118540763,-0.0451037362217903,0.0,0.0,-0.1699198484420776,0.6534407138824463
-0.0608454719185829,0.040713082998991,0.0287325046956539,-0.2603670060634613,-0.0718469619750976,-0.0701868459582328,0.0,0.0,0.4080743789672851,-0.8028130531311035
-0.0604815483093261,0.0355744697153568,0.0381364189088344,-0.2284656167030334,-0.0735742673277854,-0.0345461145043373,0.0,0.0,-0.2031232118606567,-0.1955826878547668
-0.0601312629878521,0.0300607774406671,0.0367731004953384,-0.2451390326023101,-0.0753029212355613,-0.034572847187519,0.0,0.0,0.4308569431304931,-0.1892426013946533
-0.0597475990653038,0.0252304412424564,0.0401404164731502,-0.2147749066352844,-0.0770604982972145,-0.0351514033973217,0.0,0.0,0.3658080101013183,0.4126334190368652
-0.059277344495058,0.0209928378462791,0.0485619083046913,-0.1884172856807708,-0.0785847827792167,-0.0304858591407537,0.0,0.0,-0.1870332956314087,0.0875569581985473
-0.0588206276297569,0.0163801535964012,0.0472056344151496,-0.2050906121730804,-0.0801063850522041,-0.0304321143776178,0.0,0.0,0.2802417278289795,0.7450318336486816
-0.058386705815792,0.0121157262474298,0.0465663745999336,-0.1897006630897522,-0.0832446590065956,-0.0627654567360878,0.0,0.0,0.3142714500427246,0.2935117483139038
-0.0580338463187217,0.0081012109294533,0.038923367857933,-0.1786301583051681,-0.0868498682975769,-0.0721042901277542,0.0,0.0,0.2591387033462524,0.1732546091079712
-0.0575878135859966,0.0050999615341424,0.0294648762792348,-0.1326056867837906,-0.071770928800106,0.3016885221004486,1.0,0.0,0.5174274444580078,-0.088877260684967
-0.0569863319396972,0.0030386305879801,0.0294878836721181,-0.0905821323394775,-0.0409749448299407,0.6165504455566406,1.0,0.0,0.2086598873138427,0.1562972068786621
-0.0562263503670692,0.0012781715486198,0.0367265716195106,-0.0776352882385253,-0.0021410218905657,0.7767424583435059,1.0,0.0,0.7992024421691895,0.5082508325576782
-0.0553395263850688,0.0002369737630942,0.0517188422381877,-0.0466255918145179,0.0343600362539291,0.7300212979316711,1.0,1.0,0.2744661569595337,0.9015958309173584
-0.0545269027352333,0.0001879429764812,0.0593935474753379,-0.003008036641404,0.0550633929669857,0.4129092097282409,0.0,1.0,-0.5308054685592651,0.9675930738449096
