x_pos,y_pos,x_vel,y_vel,angle,ang_vel,leg_1,leg_2,main_booster,lat_booster
-0.0015480995643883,1.4030613899230957,-0.1564393192529678,-0.3492748141288757,0.0014607744524255,0.0287927482277154,0.0,0.0,-0.5758720636367798,0.7762761116027832
-0.0030529021751135,1.394659161567688,-0.1499220579862594,-0.3734310269355774,0.0009068264625966,-0.0110792219638824,0.0,0.0,0.1663722991943359,0.3181555271148681
-0.0044847489334642,1.3861212730407717,-0.1427856236696243,-0.3794586360454559,0.0005127155454829,-0.0078829638659954,0.0,0.0,0.152614951133728,0.1579227447509765
-0.0060192109085619,1.3775430917739868,-0.1523705571889877,-0.381254494190216,-0.0005569155327975,-0.021394420415163,0.0,0.0,0.6638487577438354,0.3829038143157959
-0.0074411393143236,1.3693866729736328,-0.1414777785539627,-0.3625035881996155,-0.0012628028634935,-0.0141193326562643,0.0,0.0,-0.2807084918022156,0.5883947610855103
-0.0088224411010742,1.3606661558151243,-0.1357129067182541,-0.387577474117279,-0.0036396172363311,-0.0475407727062702,0.0,0.0,0.2119421958923339,0.1107654571533203
-0.010232925415039,1.3520184755325315,-0.1383513361215591,-0.384353369474411,-0.0063176923431456,-0.0535665452480316,0.0,0.0,-0.4655829071998596,0.637068510055542
-0.0115938186645507,1.342808961868286,-0.131581038236618,-0.4093337655067444,-0.0107746087014675,-0.0891463905572891,0.0,0.0,-0.3504317998886108,0.6998622417449951
-0.0129118915647268,1.3330436944961548,-0.1257421672344207,-0.4340676665306091,-0.0167755018919706,-0.1200290545821189,0.0,0.0,-0.0778590440750122,0.2629799842834472
-0.0142397880554199,1.3227159976959229,-0.1265530288219452,-0.4590947329998016,-0.022944126278162,-0.1233836561441421,0.0,0.0,0.5642049312591553,-0.55672287940979
-0.0155191421508789,1.3126685619354248,-0.1228950172662735,-0.4466390907764435,-0.0279299635440111,-0.0997255742549896,0.0,0.0,0.3716115951538086,0.8478720188140869
-0.0166600234806537,1.302708625793457,-0.1072966679930687,-0.4428029060363769,-0.0346481017768383,-0.1343750059604644,0.0,0.0,0.0436595678329467,-0.7152139544487
-0.0177531242370605,1.292850375175476,-0.1039241179823875,-0.4382838010787964,-0.0399768240749836,-0.1065839752554893,0.0,0.0,-0.8689936399459839,0.6126542091369629
-0.0187970157712698,1.2824205160140991,-0.097546249628067,-0.463746964931488,-0.0467569641768932,-0.1356153190135955,0.0,0.0,-0.6172143220901489,-0.5749616026878357
-0.0198787692934274,1.27143657207489,-0.1021337360143661,-0.4883729815483093,-0.0527377612888813,-0.1196267157793045,0.0,0.0,-0.9521448016166688,-0.8017833232879639
-0.0210146903991699,1.2598848342895508,-0.1088119968771934,-0.5135905742645264,-0.0574775338172912,-0.0948041677474975,0.0,0.0,0.5982739925384521,-0.4519469738006592
-0.0219712257385253,1.2489980459213257,-0.0914526805281639,-0.4840242266654968,-0.0616332180798053,-0.0831212401390075,0.0,0.0,-0.7744390964508057,0.2955434322357178
-0.0229278560727834,1.2375483512878418,-0.0914468318223953,-0.5090606808662415,-0.0658133849501609,-0.0836106091737747,0.0,0.0,-0.5645397901535034,-0.91742604970932
-0.0239440910518169,1.225550413131714,-0.0989337414503097,-0.5333642363548279,-0.0684687793254852,-0.0531126037240028,0.0,0.0,-0.7851990461349487,-0.854152500629425
-0.025034999474883,1.2129967212677002,-0.1083620637655258,-0.5579702854156494,-0.0691899359226226,-0.0144246267154812,0.0,0.0,-0.3600669503211975,-0.6659038066864014
-0.0261647216975688,1.1998893022537231,-0.1133221983909607,-0.5825392603874207,-0.0688409730792045,0.0069797113537788,0.0,0.0,0.0944970846176147,-0.7260432839393616
-0.0273198131471872,1.1866583824157717,-0.1173644214868545,-0.5879608392715454,-0.0669994205236435,0.0368341505527496,0.0,0.0,-0.3531191349029541,0.2002797126770019
-0.0284711830317974,1.1728641986846924,-0.1170512065291404,-0.6129885911941528,-0.065101645886898,0.0379591099917888,0.0,0.0,-0.3108944892883301,-0.2292016148567199
-0.0296181682497262,1.1585068702697754,-0.1166909486055374,-0.6380130052566528,-0.0631318166851997,0.0394002497196197,0.0,0.0,-0.3525327444076538,0.6825892925262451
-0.0307189933955669,1.1435846090316772,-0.1111155971884727,-0.6631713509559631,-0.0621133595705032,0.0203710421919822,0.0,0.0,-0.4258360862731933,-0.6529927849769592
-0.0318792350590229,1.1280871629714966,-0.1187906041741371,-0.6886606216430664,-0.0593786686658859,0.05469386652112,0.0,0.0,-0.4279637336730957,0.2886624336242676
-0.0330336578190326,1.1120266914367676,-0.1183228716254234,-0.7136832475662231,-0.0565292984247207,0.0569873265922069,0.0,0.0,0.4509289264678955,0.082547903060913
-0.0342554077506065,1.0964984893798828,-0.1246574148535728,-0.6900523900985718,-0.054082877933979,0.0489285178482532,0.0,0.0,-0.4043666124343872,-0.0056644678115844
-0.0354707725346088,1.0804072618484497,-0.1241521090269088,-0.7150747776031494,-0.0514957159757614,0.0517433770000934,0.0,0.0,0.0009295940399169,-0.4018609523773193
-0.0366768836975097,1.0641963481903076,-0.1233269795775413,-0.7203887701034546,-0.0488143973052501,0.0536263771355152,0.0,0.0,0.4631385803222656,0.3400100469589233
-0.0378230102360248,1.0485448837280271,-0.1175700202584266,-0.6955366730690002,-0.0458916239440441,0.0584553889930248,0.0,0.0,-0.8672040104866028,0.3113815784454345
-0.0389621742069721,1.0323301553726196,-0.1170538514852523,-0.7205593585968018,-0.0427927896380424,0.0619765035808086,0.0,0.0,-0.302868127822876,0.3805923461914062
-0.0400944724678993,1.0155525207519531,-0.1165460124611854,-0.7455820441246033,-0.0395071469247341,0.0657129362225532,0.0,0.0,-0.2715196013450622,0.4005635976791382
-0.0412197113037109,0.9982119202613832,-0.1160523742437362,-0.7706049084663391,-0.0360244251787662,0.0696542710065841,0.0,0.0,0.1582976579666137,0.0733249187469482
-0.0423109047114849,0.9809668064117432,-0.1129073649644851,-0.766356885433197,-0.0322821624577045,0.0748454555869102,0.0,0.0,0.1442868709564209,0.8751800060272217
-0.0432944297790527,0.9639467597007751,-0.1006050333380699,-0.7564020156860352,-0.0300582572817802,0.0444780141115188,0.0,0.0,0.4394304752349853,-0.3429572582244873
-0.0442824363708496,0.9469594359397888,-0.1011735424399375,-0.7549470067024231,-0.0277153234928846,0.0468585267663002,0.0,0.0,-0.4237518310546875,-0.0494587421417236
-0.0452642440795898,0.9294089078903198,-0.1007943004369735,-0.7799695730209351,-0.0251393374055624,0.0515198782086372,0.0,0.0,0.7528977394104004,0.6133584976196289
-0.0462141036987304,0.9126427173614502,-0.0964835658669471,-0.7451378107070923,-0.0236552059650421,0.0296825915575027,0.0,0.0,-0.6240046620368958,0.0831482410430908
-0.0471585281193256,0.8953135013580322,-0.0961948484182357,-0.7701600790023804,-0.0219229366630315,0.0346455052495002,0.0,0.0,0.7727932929992676,-0.4450507164001465
-0.0481942184269428,0.8786779642105103,-0.1050430312752723,-0.739337146282196,-0.0204656943678855,0.0291448775678873,0.0,0.0,-0.1862518787384033,0.4587544202804565
-0.0492254272103309,0.8614793419837952,-0.1048659831285476,-0.7643594741821289,-0.0187470968812704,0.03437190502882,0.0,0.0,0.3495820760726928,-0.317632794380188
-0.0501687042415142,0.844099760055542,-0.096708059310913,-0.7724005579948425,-0.016394080594182,0.0470601581037044,0.0,0.0,0.8779994249343872,0.1148967742919921
-0.0509860999882221,0.8270556330680847,-0.0849200934171676,-0.7574866414070129,-0.0132462242618203,0.0629569590091705,0.0,0.0,-0.4513327479362488,0.7093315124511719
-0.0517486557364463,0.8094390630722046,-0.0783879905939102,-0.7829415202140808,-0.0111363939940929,0.0421964600682258,0.0,0.0,0.2654447555541992,-0.3073693513870239
-0.0524713508784771,0.7916429042816162,-0.0748541057109832,-0.7909272313117981,-0.0085814036428928,0.0510999076068401,0.0,0.0,0.7070537805557251,0.5650560855865479
-0.053076647222042,0.773971676826477,-0.0624594762921333,-0.7853754162788391,-0.006685855332762,0.0379109941422939,0.0,0.0,0.3667069673538208,0.2253581285476684
-0.0537702552974224,0.756773054599762,-0.0711323469877243,-0.7643774747848511,-0.0049300412647426,0.0351162776350975,0.0,0.0,-0.4101219177246094,0.5536468029022217
-0.0544301979243755,0.7390159964561462,-0.0672093033790588,-0.7891970872879028,-0.0037388601340353,0.0238235723227262,0.0,0.0,0.4591113328933716,0.2789466381072998
-0.0551088340580463,0.7213699221611023,-0.0692807883024215,-0.7842682003974915,-0.0023374340962618,0.0280284918844699,0.0,0.0,0.4316942691802978,0.6988387107849121
-0.0555959716439247,0.7039021849632263,-0.0492810234427452,-0.7763408422470093,-0.0017824439564719,0.0110999420285224,0.0,0.0,-0.1452133059501648,-0.1861225366592407
-0.0560867302119731,0.6858714818954468,-0.0499403961002826,-0.8013634085655212,-0.0009259941289201,0.0171288885176181,0.0,0.0,0.3717435598373413,0.5306670665740967
-0.056441307067871,0.6678282618522644,-0.0357921309769153,-0.8019184470176697,-0.0005932602798566,0.0066545223817229,0.0,0.0,0.3666081428527832,0.4882433414459228
-0.0567984580993652,0.6502118110656738,-0.0363711528480052,-0.7829525470733643,5.638057700707577e-05,0.0129928141832351,0.0,0.0,0.5440195798873901,-0.4614133834838867
-0.0570230484008789,0.6327159404754639,-0.0240825451910495,-0.7775970697402954,0.0016559058567509,0.0319906249642372,0.0,0.0,0.2749054431915283,0.7439892292022705
-0.0572803504765033,0.6151990294456482,-0.0260502956807613,-0.7785274386405945,0.0019760718569159,0.0064031453803181,0.0,0.0,0.569038987159729,0.603922963142395
-0.057403564453125,0.5982605218887329,-0.0119667695835232,-0.7528226375579834,0.0016275435918942,-0.0069705983623862,0.0,0.0,0.3920273780822754,-0.1787101030349731
-0.0574215874075889,0.5816116333007812,-0.0023043737746775,-0.7399492859840393,0.0021236257161945,0.0099215162917971,0.0,0.0,0.2440723180770874,0.844249963760376
-0.0573209747672081,0.5653389096260071,0.0109014669433236,-0.7232326865196228,0.0012990828836336,-0.0164908859878778,0.0,0.0,0.6734808683395386,0.591209888458252
-0.0572702400386333,0.5497021675109863,0.0070046596229076,-0.6949652433395386,-0.0006037163548171,-0.0380562953650951,0.0,0.0,0.5243380069732666,0.5703418254852295
-0.0571368224918842,0.5340099930763245,0.0159798823297023,-0.697434663772583,-0.0032140789553523,-0.0522071123123168,0.0,0.0,0.2456851005554199,-0.125176191329956
-0.0570924766361713,0.5185484886169434,0.0071288459002971,-0.6871846914291382,-0.0058710323646664,-0.0531391128897666,0.0,0.0,0.2051823139190673,0.19711434841156
-0.0569721236824989,0.5030891299247742,0.0139984991401433,-0.6870909929275513,-0.0078098597005009,-0.0387764349579811,0.0,0.0,-0.12253338098526,-0.6089392304420471
-0.0569156631827354,0.4870682954788208,0.006124454550445,-0.7120432257652283,-0.008285891264677,-0.0095205921679735,0.0,0.0,0.865074634552002,0.493615984916687
-0.0568655952811241,0.4711629152297973,0.0051526818424463,-0.7069035768508911,-0.0084241833537817,-0.0027660564519464,0.0,0.0,0.6170058250427246,0.0606042146682739
-0.0569519028067588,0.4555637836456299,-0.0082204360514879,-0.6932987570762634,-0.0088288346305489,-0.0080928429961204,0.0,0.0,0.517261266708374,0.6757214069366455
-0.0569774620234966,0.4405873119831085,-0.0011300866026431,-0.6656288504600525,-0.0102426381781697,-0.028275903314352,0.0,0.0,0.7887887954711914,0.678815484046936
-0.0568726547062397,0.4255123734474182,0.0127568868920207,-0.6700140237808228,-0.0124918138608336,-0.0449833646416664,0.0,0.0,0.9760706424713136,-0.0140426754951477
-0.056746769696474,0.4114053249359131,0.0144320921972393,-0.6269968152046204,-0.0143073936924338,-0.0363119505345821,0.0,0.0,0.7740325927734375,0.7940728664398193
-0.0566867813467979,0.3974951505661011,0.0093725193291902,-0.6182629466056824,-0.0176429711282253,-0.0667114779353141,0.0,0.0,0.7582050561904907,0.6207342147827148
-0.0566966049373149,0.3841070830821991,0.0036326847039163,-0.5950907468795776,-0.0222009290009737,-0.0911590456962585,0.0,0.0,0.7226901054382324,-0.6211497783660889
-0.056734275072813,0.3711308240890503,-0.0007625551661476,-0.5767699480056763,-0.0251670125871896,-0.0593216903507709,0.0,0.0,-0.2690229415893554,0.1287888288497924
-0.056800939142704,0.3575915396213531,-0.0039245327934622,-0.6017926931381226,-0.0278667602688074,-0.0539950914680957,0.0,0.0,0.7299230098724365,0.1036089658737182
-0.0568038932979106,0.344392716884613,0.0018161141779273,-0.586656391620636,-0.0299493968486785,-0.0416528433561325,0.0,0.0,0.9205754995346068,0.6524491310119629
-0.0568150505423545,0.331306904554367,0.002159028314054,-0.5816572308540344,-0.0331831946969032,-0.0646759867668151,0.0,0.0,0.9720116853713988,-0.1789399981498718
-0.0567646995186805,0.3182358145713806,0.0076811127364635,-0.5809984803199768,-0.035791378468275,-0.0521639063954353,0.0,0.0,0.8756763935089111,0.1272084712982177
-0.0567699447274208,0.3051812648773193,0.0020382520742714,-0.5802654027938843,-0.0383213125169277,-0.0505986735224723,0.0,0.0,0.9555795192718506,-0.1396067142486572
-0.0567837730050087,0.2929715514183044,0.0009849459165707,-0.5427178144454956,-0.0406590364873409,-0.0467546246945858,0.0,0.0,0.9441925287246704,0.2619787454605102
-0.0567001327872276,0.2816318273544311,0.0100491503253579,-0.5040374994277954,-0.0423293560743331,-0.0334063023328781,0.0,0.0,0.7354176044464111,-0.2000858783721923
-0.0567347519099712,0.2710230648517608,-0.0014493148773908,-0.4715582728385925,-0.0443198233842849,-0.0398093536496162,0.0,0.0,0.288765549659729,0.6512367725372314
-0.0568564422428607,0.2602357864379883,-0.0088656200096011,-0.4795363843441009,-0.0475772805511951,-0.065149188041687,0.0,0.0,0.2160794734954834,0.0561591386795043
-0.0569595322012901,0.2497551590204239,-0.0073643708601593,-0.4659021496772766,-0.0504860691726207,-0.0581758022308349,0.0,0.0,0.2278076410293579,-0.5878351330757141
-0.0572102554142475,0.2393619120121002,-0.0233658216893672,-0.4619790911674499,-0.0521726086735725,-0.0337306819856166,0.0,0.0,0.4054524898529053,0.8567458391189575
-0.0574563965201377,0.2292718738317489,-0.0213269032537937,-0.4485670328140259,-0.0554271601140499,-0.0650909021496772,0.0,0.0,-0.455284833908081,0.1531945466995239
-0.0577441230416297,0.2186187803745269,-0.0256729573011398,-0.4735895693302154,-0.0584924072027206,-0.0613050386309623,0.0,0.0,0.1063138246536254,-0.4977084994316101
-0.0579931251704692,0.2079808562994003,-0.0222601071000099,-0.4729007184505462,-0.0611058883368968,-0.0522694401443004,0.0,0.0,0.6882636547088623,-0.5473788380622864
-0.0582815185189247,0.1972997933626175,-0.0275455899536609,-0.4747680127620697,-0.0623879134654998,-0.0256404988467693,0.0,0.0,0.4845895767211914,-0.0390002727508544
-0.0585080161690712,0.1865894198417663,-0.0219199322164058,-0.4760462343692779,-0.0631182193756103,-0.0146060017868876,0.0,0.0,0.6366643905639648,0.4466849565505981
-0.0585981383919715,0.1761490404605865,-0.0091099832206964,-0.4640140533447265,-0.0630160942673683,0.0020425547845661,0.0,0.0,0.730473518371582,-0.2110677361488342
-0.0585617050528526,0.1657501608133316,0.0026987507008016,-0.4621353149414062,-0.0620883032679557,0.0185557305812835,0.0,0.0,0.5353621244430542,0.2020696401596069
-0.0585331916809082,0.1558337807655334,0.0017938336823135,-0.4406818747520447,-0.0610426552593708,0.0209129359573125,0.0,0.0,0.4369462728500366,-0.2047635912895202
-0.0584840774536132,0.1463396847248077,0.0035929367877542,-0.42190682888031,-0.059738352894783,0.0260861180722713,0.0,0.0,-0.2846996784210205,-0.3784869909286499
-0.0584819801151752,0.1362824738025665,-0.0012407262111082,-0.4469288885593414,-0.0583079345524311,0.0286082420498132,0.0,0.0,0.9541078805923462,0.0073697566986083
-0.0583859458565712,0.1262299865484237,0.0074866139329969,-0.446696400642395,-0.0562076382339,0.0420058742165565,0.0,0.0,0.915640115737915,0.326802134513855
-0.0583654418587684,0.1165038645267486,9.691217564977704e-05,-0.4321996867656708,-0.0542791485786438,0.0385697111487388,0.0,0.0,0.9498467445373536,-0.1451326608657837
-999.0,0.1077317595481872,0.0101893376559019,-0.3897828757762909,-0.051786508411169,0.0498525761067867,0.0,0.0,0.5249063968658447,-0.1565898060798645
-0.0581542961299419,0.0991852357983589,0.0058931517414748,-0.3797613084316253,-0.0492993034422397,0.0497442707419395,0.0,0.0,0.9268664121627808,0.5944854021072388
-0.0581809990108013,0.0914790704846382,-0.0036426417063921,-0.3424648344516754,-0.0483346842229366,0.0192923508584499,0.0,0.0,0.5270321369171143,-0.5144650936126709
-0.0581800453364849,0.0841755270957946,-0.0022282768040895,-0.3245281279087066,-0.0460432581603527,0.0458285138010978,0.0,0.0,0.342808723449707,0.7196269035339355
-0.0581919662654399,0.0772273167967796,-0.002061225939542,-0.3087819218635559,-0.0451858416199684,0.0171482376754283,0.0,0.0,0.5253061056137085,0.2088193893432617
-0.0582985877990722,0.0707571804523468,-0.011233645491302,-0.2875447273254394,-0.0446182638406753,0.0113514382392168,0.0,0.0,-0.0143387913703918,0.9219810962677002
-0.0583850853145122,0.0637162774801254,-0.0075004128739237,-0.3129644691944122,-0.0457537360489368,-0.0227092131972312,0.0,0.0,0.8369174003601074,0.6564775705337524
-0.0585783012211322,0.0571209751069545,-0.0165597908198833,-0.293209969997406,-0.0484933480620384,-0.0547922365367412,0.0,0.0,0.8089489936828613,0.9217488765716552
-0.0589035041630268,0.0508280135691165,-0.0276250876486301,-0.2798534631729126,-0.0533293783664703,-0.0967207923531532,0.0,0.0,0.7101480960845947,0.9488040208816528
-0.0590407364070415,0.0450765006244182,-0.0071363383904099,-0.2558745145797729,-0.0598423741757869,-0.1302600055932998,0.0,0.0,0.3414791822433471,0.648007869720459
-0.0591035857796669,0.0391960255801677,0.0014736641896888,-0.2616863846778869,-0.0675189420580864,-0.1535310894250869,0.0,0.0,0.7499558925628662,0.0680352449417114
-0.0590079315006732,0.0339469760656356,0.0165881980210542,-0.2336224019527435,-0.0744626894593238,-0.1388749778270721,0.0,0.0,0.4039913415908813,-0.1417992115020752
-0.058931540697813,0.0291242226958274,0.0147294951602816,-0.2147143930196762,-0.081480473279953,-0.14035564661026,0.0,0.0,0.5195555686950684,-0.179656445980072
-0.0587089546024799,0.0248979907482862,0.0287152081727981,-0.1881982833147049,-0.0878812223672866,-0.1280146390199661,0.0,0.0,0.1892726421356201,-0.2920705080032348
-0.0584433563053607,0.0207254737615585,0.0327560305595397,-0.1858227699995041,-0.0940236002206802,-0.1228475794196128,0.0,0.0,0.1255900859832763,-0.6648468971252441
-0.0582307800650596,0.0168357715010643,0.0261177532374858,-0.1731863766908645,-0.0988465845584869,-0.0964597389101982,0.0,0.0,0.4866781234741211,0.0919784307479858
-0.0579413399100303,0.013433227315545,0.0335618741810321,-0.1515375226736068,-0.1034232676029205,-0.0915333926677703,0.0,0.0,0.0984050035476684,0.2503494024276733
-0.0576138496398925,0.0099143842235207,0.0371216386556625,-0.1567008793354034,-0.1077632009983062,-0.0867988988757133,1.0,0.0,0.4014080762863159,-0.0788224935531616
-0.0572493560612201,0.0073875999078154,0.023261334747076,-0.1116705387830734,-0.0938839614391326,0.2786309719085693,1.0,0.0,0.2325007915496826,-0.2300528287887573
-0.056838035583496,0.0054671382531523,0.0117313582450151,-0.0837772414088249,-0.0647047385573387,0.5836462378501892,1.0,0.0,0.0327236652374267,0.1153705120086669
-0.0563670173287391,0.0038278079591691,0.0094581684097647,-0.0716657415032386,-0.0274553745985031,0.7450560331344604,1.0,0.0,0.6950325965881348,0.9217908382415771
-0.0558052062988281,0.0024161434266716,0.0218775942921638,-0.0624614171683788,0.0064123217016458,0.6773539781570435,1.0,0.0,0.2554554939270019,0.8747676610946655
-0.0550617203116416,0.000859603867866,0.0417357273399829,-0.0696346759796142,0.0386191979050636,0.6441384553909302,0.0,1.0,0.335996150970459,0.933985948562622
-0.0543297752737998,2.56514540524222e-05,0.0564875118434429,-0.0377740673720836,0.0542142316699028,0.3107340931892395,0.0,1.0,-0.8423000574111938,0.8976030349731445
-0.0537554733455181,-0.0008375549223273,0.0623215660452842,-0.0382014401257038,0.0493485480546951,-0.0973516777157783,0.0,1.0,-0.1596524119377136,-0.1568288207054138
