x_pos,y_pos,x_vel,y_vel,angle,ang_vel,leg_1,leg_2,main_booster,lat_booster
-0.0015003203880041,1.4030040502548218,-0.1520417481660843,-0.3518247902393341,0.001804691972211,0.0356020182371139,0.0,0.0,-0.1412412040067654,0.986875663524497
-0.0028880119789391,1.3944861888885498,-0.1384493112564087,-0.3785724341869354,0.0014871932798996,-0.0063496986404061,0.0,0.0,0.1026541394476898,0.7133559378573768
-0.0040850639343261,1.3857470750808716,-0.1181171759963035,-0.3884083032608032,-8.751434506848454e-05,-0.0314966887235641,0.0,0.0,0.2166317316501849,0.6256342510518715
-0.0052922246977686,1.3769371509552002,-0.1177350431680679,-0.3915510475635528,-0.0030447102617472,-0.0591497719287872,0.0,0.0,-0.5699651017271985,-0.6828191475860019
-0.0064992904663085,1.367509126663208,-0.1188050359487533,-0.4190230965614319,-0.0049123056232929,-0.0373549684882164,0.0,0.0,0.2991724560452709,0.8752313982091018
-0.0074648857116699,1.3580988645553589,-0.0930671691894531,-0.4182483255863189,-0.0083696609362959,-0.0691536888480186,0.0,0.0,-0.2224464024302099,-0.8796092410226662
-0.0084515567868947,1.3480690717697144,-0.0970072224736213,-0.4457781016826629,-0.0100038293749094,-0.0326862186193466,0.0,0.0,0.343536854745349,-0.7492820979186698
-0.0093010906130075,1.3382091522216797,-0.0850291103124618,-0.4382198750972748,-0.0099330274388194,0.0014159509446471,0.0,0.0,0.8589979272447383,-0.6411872048433589
-0.0101481433957815,1.3291490077972412,-0.0860288068652153,-0.4026691615581512,-0.0086267022415995,0.0261289868503808,0.0,0.0,-0.4459156133312232,-0.991865344608984
-0.0110119823366403,1.3194752931594849,-0.0896847695112228,-0.4299206435680389,-0.0053526838310062,0.0654864013195037,0.0,0.0,-0.8674424750194354,-0.8740441436202732
-0.0118700983002781,1.30918288230896,-0.0906169265508651,-0.457436203956604,-0.0005999834393151,0.0950623899698257,0.0,0.0,0.3083810965932942,-0.9054837413173772
-0.0126673700287938,1.298896074295044,-0.0863891988992691,-0.4572048783302307,0.0059916321188211,0.1318444013595581,0.0,0.0,-0.5605316690585134,0.9321572932832428
-0.0133049013093113,1.287994623184204,-0.0681286752223968,-0.48453089594841,0.0103201726451516,0.0865783914923667,0.0,0.0,0.5451630046495484,-0.7143062599007861
-0.013858032412827,1.2769651412963867,-0.0612505450844764,-0.4902585446834564,0.0161899831146001,0.1174069195985794,0.0,0.0,-0.2884425071967302,-0.8843698114593875
-0.014389419928193,1.265323281288147,-0.0604010447859764,-0.5175055861473083,0.0233777686953544,0.143768697977066,0.0,0.0,-0.4258056256747822,-0.9995151386839356
-0.0149074550718069,1.2530479431152344,-0.0606883056461811,-0.5457303524017334,0.0321604907512664,0.1756704300642013,0.0,0.0,-0.7213316916303436,-0.9060972398154314
-0.0154013633728027,1.2401611804962158,-0.0596331134438514,-0.5729901194572449,0.042296040803194,0.2027294933795929,0.0,0.0,-0.689440787230384,-0.9104142806400254
-0.0158684737980365,1.2266442775726318,-0.0583043023943901,-0.6011123657226562,0.0537760891020298,0.2296214550733566,0.0,0.0,-0.4119212337445086,0.8204457709781973
-0.0161775592714548,1.2125223875045776,-0.0405393205583095,-0.6280160546302795,0.0633201524615287,0.1908984631299972,0.0,0.0,0.0369364657275537,-0.9880177972047745
-0.0165630336850881,1.198299527168274,-0.050139557570219,-0.6326571702957153,0.0748111754655838,0.2298410385847091,0.0,0.0,0.7564713205737561,0.6699819088589897
-0.0167229659855365,1.184680700302124,-0.0265322923660278,-0.6058436036109924,0.0852689817547798,0.2091749459505081,0.0,0.0,-0.4087880550510143,0.9421125447554792
-0.0167190544307231,1.170446515083313,-0.008175766095519,-0.6331310272216797,0.0937652140855789,0.1699400246143341,0.0,0.0,-0.9092642950552056,-0.7382627584230609
-0.0166716575622558,1.155585765838623,-0.0049194567836821,-0.6611116528511047,0.1033614873886108,0.1919424831867218,0.0,0.0,0.9061340371834006,0.8755010491817079
-0.0164134018123149,1.1406574249267578,0.0178061723709106,-0.6640479564666748,0.1113290041685104,0.1593648344278335,0.0,0.0,-0.1423884875610679,0.9570695407168734
-0.0160065647214651,1.1251215934753418,0.0342075452208519,-0.6909779906272888,0.1177765056490898,0.1289616376161575,0.0,0.0,-0.6851260325367003,-0.6969535276169421
-0.0155736925080418,1.1089361906051636,0.0351213291287422,-0.7200122475624084,0.1258873641490936,0.1622172892093658,0.0,0.0,0.6823032044050747,0.9199181182859384
-0.0150643344968557,1.0932520627975464,0.0446991547942161,-0.6976112723350525,0.1321005225181579,0.1242632418870925,0.0,0.0,0.3974609489374558,-0.7075542282872838
-0.0147302625700831,1.077958106994629,0.0260300878435373,-0.6804056167602539,0.1394527107477188,0.147043377161026,0.0,0.0,0.0842415597600363,0.6307211369785193
-0.0144183160737156,1.0627946853637695,0.0252801571041345,-0.674493670463562,0.1453506499528885,0.1179585456848144,0.0,0.0,-0.2078997871288777,-0.7215606948796216
-0.0140686985105276,1.046995759010315,0.0276280008256435,-0.7029038071632385,0.1526735723018646,0.1464585661888122,0.0,0.0,-0.7764040431306101,-0.7699396802095853
-0.0136816976591944,1.030572533607483,0.0299439635127782,-0.7308495044708252,0.1614133268594741,0.1747947931289672,0.0,0.0,0.997499646251986,-0.825856195369082
-0.0134479524567723,1.01426899433136,0.0132788959890604,-0.7257277369499207,0.171515554189682,0.2020447254180908,0.0,0.0,0.1219500362853049,-0.9316842305663438
-0.0133483884856104,0.9981239438056946,-0.0018996052676811,-0.7189703583717346,0.1834026277065277,0.2377414256334304,0.0,0.0,0.3827559806347522,0.635203901508664
-0.0132135394960641,0.981797218322754,0.0031063160859048,-0.7269511818885803,0.193832978606224,0.2086068838834762,0.0,0.0,0.713499611104802,0.7419374302280233
-0.0130300521850585,0.9658324122428894,0.0095021836459636,-0.7107294797897339,0.2027350068092346,0.1780407577753067,0.0,0.0,-0.6433696168988898,-0.7991650416430294
-0.0128085138276219,0.9492357969284058,0.0118635380640625,-0.7390797734260559,0.2131146341562271,0.2075925171375274,0.0,0.0,-0.9556425159903854,-0.6562180403647809
-0.0125401495024561,0.9319995641708374,0.0152826653793454,-0.7677649855613708,0.2247982621192932,0.2336728870868683,0.0,0.0,-0.9859598314088622,0.7547471690205396
-0.0121113779023289,0.9141710996627808,0.0330225154757499,-0.793910801410675,0.2347837835550308,0.199710339307785,0.0,0.0,0.9778665767589384,0.9665586154590156
-0.0117956157773733,0.8972135186195374,0.0238402392715215,-0.7549262642860413,0.2426431626081466,0.1571879088878631,0.0,0.0,-0.7841545068942739,0.7874814257434612
-0.0113165853545069,0.8796603083610535,0.041886456310749,-0.7811471819877625,0.2487599551677703,0.1223358288407325,0.0,0.0,0.48245377647813,-0.7251262059382724
-0.0110683441162109,0.8624483942985535,0.0176549758762121,-0.7662049531936646,0.2560756802558899,0.1463144719600677,0.0,0.0,0.959282398223877,0.9979615211486816
-0.0106428144499659,0.8456066846847534,0.0371817052364349,-0.7494657039642334,0.261561244726181,0.1097112447023391,0.0,0.0,0.9649779796600342,0.9921654462814332
-0.0100112911313772,0.8287545442581177,0.0596002452075481,-0.7496170401573181,0.2651821374893188,0.0724181979894638,0.0,0.0,0.7797838449478149,0.9927010536193848
-0.0092363357543945,0.8121821880340576,0.0758318156003952,-0.7368500232696533,0.2668812572956085,0.0339826717972755,0.0,0.0,0.7992235422134399,0.9398987293243408
-0.0084186550229787,0.7954525351524353,0.0821080803871154,-0.7434861063957214,0.2665341198444366,-0.0069430195726454,0.0,0.0,0.7480001449584961,0.9870816469192504
-0.007463073823601,0.7786561846733093,0.0978452637791633,-0.7460845708847046,0.2641931176185608,-0.0468192920088768,0.0,0.0,0.6477174758911133,0.8721908330917358
-0.0063896179199218,0.7619337439537048,0.1113319024443626,-0.742507815361023,0.2601172029972076,-0.0815181210637092,0.0,0.0,0.5465735197067261,0.7942377328872681
-0.0054692267440259,0.7457095980644226,0.097866415977478,-0.7200489044189453,0.2541640102863312,-0.1190632805228233,0.0,0.0,0.8139156103134155,0.5820140838623047
-0.0047720908187329,0.7300854325294495,0.0771989971399307,-0.693138062953949,0.2465398162603378,-0.1524839103221893,0.0,0.0,-0.1700068116188049,0.3596487045288086
-0.0039732931181788,0.7138412594795227,0.0874512270092964,-0.7207138538360596,0.238841101527214,-0.1539743244647979,0.0,0.0,0.1264214515686035,0.6727221012115479
-0.0030059814453125,0.6976026892662048,0.1055952757596969,-0.7203031182289124,0.2298401147127151,-0.1800196915864944,0.0,0.0,0.5732131004333496,0.344078779220581
-0.002150249434635,0.681750476360321,0.0947824195027351,-0.7031369805335999,0.2205124199390411,-0.1865535676479339,0.0,0.0,0.1151672601699829,0.7942302227020264
-0.0011136054527014,0.6657624840736389,0.1144957691431045,-0.709001362323761,0.2095675617456436,-0.2188970148563385,0.0,0.0,0.1297129392623901,0.1226139068603515
-8.668899681651965e-05,0.649956464767456,0.1136046797037124,-0.7009853720664978,0.1985615640878677,-0.2201201468706131,0.0,0.0,-0.0489428043365478,-0.3211208581924438
0.0010416985023766,0.6335313320159912,0.1238498091697692,-0.7285668253898621,0.1874853521585464,-0.221524029970169,0.0,0.0,0.6343059539794922,-0.6337655186653137
0.0020351409912109,0.6171286702156067,0.1094193235039711,-0.7277675867080688,0.1773783266544342,-0.2021405398845672,0.0,0.0,0.9028768539428712,-0.7638707756996155
0.0030237198807299,0.6014840006828308,0.1072285622358322,-0.6943424344062805,0.1689921617507934,-0.1677230447530746,0.0,0.0,0.8211970329284668,0.049282431602478
0.0041386606171727,0.5863573551177979,0.1192355379462242,-0.6714358925819397,0.161243051290512,-0.1549821346998214,0.0,0.0,0.8925347328186035,-0.2179418802261352
0.0052879331633448,0.5720279216766357,0.1223508119583129,-0.6360788345336914,0.1538246572017669,-0.1483682543039322,0.0,0.0,0.5344877243041992,-0.2846943140029907
0.0063567161560058,0.5581443309783936,0.1146937012672424,-0.6162625551223755,0.1460153013467788,-0.1561871170997619,0.0,0.0,0.6635129451751709,-0.7580735683441162
0.0074696540832519,0.5441869497299194,0.1175471171736717,-0.619727373123169,0.1397727131843567,-0.1248517632484436,0.0,0.0,0.6110544204711914,-0.3834918141365051
0.0084912301972508,0.5306051969528198,0.1089385524392128,-0.6030134558677673,0.1330173313617706,-0.135107472538948,0.0,0.0,0.535219669342041,-0.93768048286438
0.0096052167937159,0.5171266794204712,0.1162188425660133,-0.5986254811286926,0.1282242685556411,-0.0958612635731697,0.0,0.0,0.2398016452789306,-0.7303996682167053
0.0107232090085744,0.5037059187889099,0.1151890978217125,-0.5961890816688538,0.1248571649193763,-0.0673421919345855,0.0,0.0,0.413643479347229,0.0075912475585937
0.01190528832376,0.490176647901535,0.1216242313385009,-0.6010210514068604,0.1214659661054611,-0.0678239911794662,0.0,0.0,0.0346810817718505,-0.2209659814834594
0.0130655290558934,0.4765640497207641,0.119847871363163,-0.6046968102455139,0.1176630184054374,-0.076058804988861,0.0,0.0,0.3825130462646484,-0.7435287833213806
0.0142021179199218,0.4633997678756714,0.1160150989890098,-0.5848977565765381,0.1153193190693855,-0.0468741096556186,0.0,0.0,-0.5728315114974976,-0.6406464576721191
0.0153950694948434,0.4495998322963714,0.1205888390541076,-0.6132296919822693,0.1140338778495788,-0.025708770379424,0.0,0.0,-0.0455211400985717,-0.787653386592865
0.0166271217167377,0.4351783394813537,0.1230329722166061,-0.6409661769866943,0.1141988039016723,0.003298528958112,0.0,0.0,0.2384510040283203,-0.2974156141281128
0.0178470611572265,0.4206531345844269,0.1222029775381088,-0.6455476880073547,0.113992653787136,-0.0041230414062738,0.0,0.0,0.1595696210861206,-0.5251032114028931
0.0189992897212505,0.4061987400054931,0.1145553141832351,-0.642467200756073,0.1146524176001548,0.0131953582167625,0.0,0.0,0.1042318344116211,0.5679779052734375
0.0202686302363872,0.391756534576416,0.1274235844612121,-0.6418420672416687,0.114175297319889,-0.0095426673069596,0.0,0.0,0.1541255712509155,-0.2976139187812805
0.0214785579591989,0.3775575459003448,0.1219265311956405,-0.6309908628463745,0.1132439002394676,-0.0186281520873308,0.0,0.0,0.3692052364349365,-0.7798738479614258
0.0227375980466604,0.3634527027606964,0.1252177208662033,-0.626937210559845,0.1139246225357055,0.0136144878342747,0.0,0.0,0.587531566619873,-0.2597652077674866
0.0240176208317279,0.3492818474769592,0.1275034695863723,-0.6298526525497437,0.1144221797585487,0.00995100941509,0.0,0.0,0.4323720932006836,0.0830029249191284
0.0254193302243948,0.3349206447601318,0.1394274830818176,-0.6383315920829773,0.1151615232229232,0.0147869531065225,0.0,0.0,0.6965832710266113,-0.4874680042266845
0.0268434528261423,0.3204528093338012,0.1418377608060836,-0.6430572867393494,0.1157222613692283,0.0112151093780994,0.0,0.0,0.9448959827423096,-0.6746192574501038
0.0281894691288471,0.3067508935928345,0.1327438801527023,-0.6091218590736389,0.1175737306475639,0.0370293520390987,0.0,0.0,0.6830071210861206,0.3575153350830078
0.0296120643615722,0.293680876493454,0.1400448679924011,-0.5810679197311401,0.1197787821292877,0.0441010259091854,0.0,0.0,0.6249388456344604,-0.2045091986656189
0.0309213642030954,0.2811677455902099,0.1292380392551422,-0.5562704801559448,0.1214521899819374,0.0334683842957019,0.0,0.0,0.6996238231658936,-0.5277704000473022
0.0320985801517963,0.2685029506683349,0.1153880506753921,-0.5630731582641602,0.1237736418843269,0.0464288592338562,0.0,0.0,0.8170062303543091,-0.3324778079986572
0.0333027839660644,0.2565200328826904,0.1179011240601539,-0.532782256603241,0.1262842863798141,0.0502129271626472,0.0,0.0,0.8490762710571289,-0.0988516211509704
0.0344026573002338,0.2448538690805435,0.1080077141523361,-0.5186638236045837,0.1282568573951721,0.0394513085484504,0.0,0.0,0.960291028022766,-0.6021870970726013
0.0353715904057025,0.2337439358234405,0.093909166753292,-0.4940339922904968,0.1312285214662552,0.0594333931803703,0.0,0.0,0.8856699466705322,-0.4269752502441406
0.0363096222281456,0.2231979966163635,0.0908833891153335,-0.4689704775810241,0.1341286897659301,0.0580035038292408,0.0,0.0,0.8952169418334961,-0.5170551538467407
0.0373085029423236,0.2130369991064071,0.0956329330801963,-0.4519869387149811,0.1383692324161529,0.0848108381032943,0.0,0.0,0.9087941646575928,0.0882346630096435
0.0383643135428428,0.2028491050004959,0.1012041941285133,-0.4532075226306915,0.1427333205938339,0.0872820168733596,0.0,0.0,0.9742821455001832,-0.815087616443634
0.0394909866154193,0.1927617192268371,0.1063928380608558,-0.4489408135414123,0.1489912271499633,0.1251578629016876,0.0,0.0,0.9131405353546144,-0.4590654373168945
0.0407693870365619,0.1830734312534332,0.1207790151238441,-0.4313138127326965,0.1560393571853637,0.1409625262022018,0.0,0.0,0.8753719329833984,0.1770774126052856
0.0422142036259174,0.173465758562088,0.136700838804245,-0.4278450310230255,0.1638242602348327,0.1556980907917022,0.0,0.0,0.2451884746551513,-0.7068705558776855
0.0435843467712402,0.1640668660402298,0.1278267502784729,-0.4187692105770111,0.1730227023363113,0.1839686334133148,0.0,0.0,0.6000170707702637,0.4568880796432495
0.044933795928955,0.1551419049501419,0.1256218254566192,-0.3977773487567901,0.1823699027299881,0.1869438588619232,0.0,0.0,0.7594091892242432,-0.2026610970497131
0.0463591590523719,0.1466818004846573,0.1326081454753875,-0.3772552609443664,0.1923434734344482,0.199471578001976,0.0,0.0,0.6018509864807129,0.7118940353393555
0.0479578003287315,0.138108029961586,0.1511407941579818,-0.3822121322154999,0.201121374964714,0.1755579262971878,0.0,0.0,0.8618764877319336,-0.2933612465858459
0.0494540221989154,0.1297406107187271,0.1411733478307724,-0.3730548918247223,0.2096436768770218,0.1704462468624115,0.0,0.0,0.7010288238525391,-0.2618205547332763
0.0509188659489154,0.1220844388008117,0.1376190930604934,-0.3415566086769104,0.21859011054039,0.1789284795522689,0.0,0.0,0.7728750705718994,-0.1014858484268188
0.0522926338016986,0.114695131778717,0.1286255419254303,-0.3297343254089355,0.2274445742368698,0.1770893037319183,0.0,0.0,0.4687461853027344,0.5991160869598389
0.0534983649849891,0.1077004969120025,0.1132638603448867,-0.3120189011096954,0.2348514348268509,0.1481379121541977,0.0,0.0,0.7632300853729248,-0.4253872632980346
0.054682157933712,0.1012051925063133,0.1106343045830726,-0.2899340093135834,0.2427171915769577,0.157315507531166,0.0,0.0,0.3782685995101928,-0.1560001373291015
0.0557306297123432,0.0949856117367744,0.0972910895943641,-0.2776903212070465,0.250408262014389,0.1538213193416595,0.0,0.0,0.4779070615768432,0.3018559217453003
0.0565972328186035,0.0890924781560897,0.0794238001108169,-0.263170838356018,0.257791519165039,0.147665336728096,0.0,0.0,0.4102320671081543,-0.4725955128669739
0.0573881156742572,0.0831881836056709,0.0719184577465057,-0.2636913955211639,0.2651137411594391,0.1464446783065796,0.0,0.0,-0.207319974899292,0.3394298553466797
0.0582292564213275,0.0766643360257148,0.0769213587045669,-0.2912692129611969,0.2724758088588714,0.1472413092851638,0.0,0.0,0.4059094190597534,0.2703697681427002
0.0588745102286338,0.0701131671667099,0.0578848309814929,-0.292419821023941,0.2792879641056061,0.136243000626564,0.0,0.0,0.4032225608825683,0.7530496120452881
0.0595486648380756,0.063892513513565,0.0620917975902557,-0.2775004804134369,0.2847605943679809,0.1094527617096901,0.0,0.0,0.3352499008178711,-0.3331711888313293
0.060228157788515,0.0575023517012596,0.0623576752841472,-0.2851116359233856,0.2905100286006927,0.1149888262152671,0.0,0.0,0.4956926107406616,0.8369688987731934
0.060951042920351,0.0515826791524887,0.0681270211935043,-0.2639340460300445,0.2948001623153686,0.0858030021190643,0.0,0.0,0.3030179738998413,0.7425796985626221
0.0615667328238487,0.0459438897669315,0.0588533394038677,-0.2511619627475738,0.2976005673408508,0.0560078099370002,0.0,0.0,0.5340652465820312,0.7381539344787598
0.0621755607426166,0.0409209355711936,0.059330116957426,-0.2235590815544128,0.2992026805877685,0.0320424064993858,0.0,0.0,0.3774821758270263,-0.1687915325164795
0.0627316460013389,0.0359987579286098,0.053718127310276,-0.2191558182239532,0.3011559247970581,0.0390651561319828,0.0,0.0,0.5070515871047974,0.4938051700592041
0.0630862265825271,0.0315204001963138,0.0335422754287719,-0.1994365751743316,0.3031378388404846,0.0396380499005317,0.0,0.0,0.4633803367614746,0.790285587310791
0.0633337944746017,0.0284857843071222,0.0415253713726997,-0.1315758824348449,0.2856327295303345,-0.350420743227005,0.0,1.0,0.9460732936859132,0.6699701547622681
0.06349678337574,0.0264311414211988,0.0491989031434059,-0.0855017006397247,0.2512484490871429,-0.6886540651321411,0.0,1.0,0.895176887512207,-0.4399579763412475
0.0632916465401649,0.0250963307917118,0.0218161083757877,-0.0526758097112178,0.2082463055849075,-0.8601362109184265,0.0,1.0,0.5388879776000977,-0.536034882068634
0.0628561004996299,0.0237725358456373,-0.0034736662637442,-0.0536887310445308,0.1679603457450866,-0.8057205080986023,0.0,1.0,0.5019029378890991,0.1025266647338867
0.0623133666813373,0.0226026624441146,-0.0138378720730543,-0.0479211695492267,0.1275860369205474,-0.8074876070022583,0.0,0.0,-0.9930166006088256,-0.5194984674453735
0.0617491714656353,0.0208249669522047,-0.0168369580060243,-0.0760935768485069,0.0882722809910774,-0.7862764596939087,0.0,0.0,-0.951949417591095,-0.6930555105209351
0.0611574165523052,0.0184347964823246,-0.0206153709441423,-0.1043953448534011,0.0501111298799514,-0.7632242441177368,0.0,0.0,0.2790994644165039,-0.947733759880066
0.0605636611580848,0.0162408202886581,-0.0227547548711299,-0.0966811180114746,0.0139460423961281,-0.7233028411865234,0.0,0.0,-0.2374827861785888,-0.8327553868293762
0.0599162094295024,0.013449678197503,-0.0297970436513423,-0.1240846589207649,-0.0205602999776601,-0.6901276111602783,0.0,0.0,0.8747682571411133,-0.926220178604126
0.0592890754342079,0.010573492385447,-0.0298569053411483,-0.1286039054393768,-0.0530151687562465,-0.6490983366966248,0.0,0.0,0.9029085636138916,-0.9772577881813048
0.0587515830993652,0.008152637630701,-0.0231912396848201,-0.1089513599872589,-0.0832495763897895,-0.6046887040138245,0.0,0.0,0.8338315486907959,-0.8984806537628174
