x_pos,y_pos,x_vel,y_vel,angle,ang_vel,leg_1,leg_2,main_booster,lat_booster
-0.0015090942615643,1.4032304286956787,-0.1535139232873916,-0.3417622447013855,0.0023325916845351,0.0460546799004077,0.0,0.0,0.7959780290887828,-0.9572481968884434
-0.0030161857139319,1.395917534828186,-0.1556027382612228,-0.3250297009944916,0.0071693733334541,0.0967456623911857,0.0,0.0,-0.1084228368191428,-0.8904651411808598
-0.0045615197159349,1.3882036209106443,-0.1613598018884658,-0.3428933918476105,0.0139274867251515,0.1351749151945114,0.0,0.0,0.466460733812839,0.9563427934299716
-0.006141185760498,1.3807573318481443,-0.1633087694644928,-0.3310080468654632,0.0192020591348409,0.1055012568831443,0.0,0.0,-0.4627305349949342,0.9221532570195268
-0.0076152803376317,1.372922658920288,-0.1510380059480667,-0.3482585251331329,0.0227968525141477,0.0719026699662208,0.0,0.0,-0.4934963638620135,-0.6758482872068374
-0.0091119762510061,1.3646920919418335,-0.1548877507448196,-0.3658911883831024,0.0279499497264623,0.1030714735388755,0.0,0.0,-0.2808341667646634,0.6493076988546809
-0.0105409622192382,1.356070041656494,-0.1473678648471832,-0.3832911849021911,0.0323781482875347,0.0885720625519752,0.0,0.0,-0.1113719093661986,0.9611842272678046
-0.011856460943818,1.3470618724822998,-0.1341380029916763,-0.4004258513450622,0.0349345542490482,0.051132708787918,0.0,0.0,0.0049770292099895,0.9080329627662516
-0.0131078716367483,1.3384360074996948,-0.1264093965291977,-0.3833982348442077,0.0361838191747665,0.0249878894537687,0.0,0.0,-0.8791908265357162,0.9579749226274088
-0.0142645835876464,1.3294265270233154,-0.1155028715729713,-0.4004242718219757,0.0360158905386924,-0.0033586248755455,0.0,0.0,-0.1025122216403773,0.9802764938308322
-0.0153134344145655,1.32002854347229,-0.1029426231980323,-0.4176375567913055,0.0340939275920391,-0.0384427309036254,0.0,0.0,0.2167021176748687,-0.606611161286247
-0.0163459777832031,1.310819387435913,-0.1030911952257156,-0.4092940986156463,0.0339336208999156,-0.0032063133548945,0.0,0.0,-0.8529745149181016,-0.789213547862854
-0.0174077991396188,1.301217794418335,-0.1077121049165725,-0.4267711937427521,0.0354364961385726,0.0300602111965417,0.0,0.0,0.1346029269040081,0.6092716276195106
-0.0183581355959177,1.2915878295898438,-0.0958424508571624,-0.4280194938182831,0.0362387187778949,0.0160458143800497,0.0,0.0,0.7902992396104547,-0.8868168231185279
-0.0192230232059955,1.2829177379608154,-0.0897891297936439,-0.3854222893714905,0.0395140722393989,0.0655134096741676,0.0,0.0,0.0049963934444499,-0.9139178005019296
-0.0200685504823923,1.2741144895553589,-0.0900788530707359,-0.3914048075675964,0.0449754074215889,0.1092365384101867,0.0,0.0,0.4192433872598959,0.7849778312789346
-0.0207353588193655,1.2660415172576904,-0.0711952000856399,-0.3589461147785187,0.0494453459978103,0.0894069448113441,0.0,0.0,-0.8233585810875785,-0.7407378796843107
-0.0214292518794536,1.2575652599334717,-0.0754013434052467,-0.3769337832927704,0.0553912930190563,0.1189295500516891,0.0,0.0,-0.4693479849894031,-0.7745497521498454
-0.0221582408994436,1.2486987113952637,-0.0805404782295227,-0.3943597376346588,0.0629562884569168,0.1513136476278305,0.0,0.0,-0.6135860478799295,0.687644995202533
-0.0228246692568063,1.23944354057312,-0.0733919963240623,-0.4116460382938385,0.0696458667516708,0.1338037550449371,0.0,0.0,-0.8295058428024249,-0.626995328116178
-0.0235153194516897,1.2297954559326172,-0.077107585966587,-0.4291886985301971,0.0776050463318824,0.1591980308294296,0.0,0.0,-0.6592557809648854,0.6388404886062258
-0.0241408348083496,1.219756841659546,-0.0695311948657035,-0.4465353786945343,0.0845324695110321,0.1385610997676849,0.0,0.0,0.2602331019339372,-0.9632844000046006
-0.0247493740171194,1.209949612617493,-0.0700543746352195,-0.4364151060581207,0.0936663001775741,0.1826927810907364,0.0,0.0,0.3460681185852183,0.6950256974060066
-0.0252516753971576,1.2001383304595947,-0.0583693757653236,-0.4365845322608948,0.1017353609204292,0.1613960415124893,0.0,0.0,0.2387230668239723,-0.7917038026618294
-0.0259757991880178,1.1906285285949707,-0.0821831598877906,-0.4233503937721252,0.1114511117339134,0.1943323314189911,0.0,0.0,0.6704491645157036,-0.6185078280247541
-0.0269753448665142,1.181734919548035,-0.1107471361756324,-0.3961204588413238,0.1221798062324523,0.214573860168457,0.0,0.0,0.9560684160622404,-0.9706223915942516
-0.0281434059143066,1.173722505569458,-0.1296758353710174,-0.3572052717208862,0.1349891871213913,0.2561877071857452,0.0,0.0,-0.4186887413993352,0.6113204626316006
-0.0292679779231548,1.1653324365615845,-0.1244550198316574,-0.3740241825580597,0.1469483226537704,0.2391827553510666,0.0,0.0,0.9742927945800766,0.6446420649977043
-0.030638312920928,1.1579033136367798,-0.147350937128067,-0.3312300741672516,0.1572540700435638,0.2061152905225753,0.0,0.0,-0.3478329687544976,-0.6528661177394108
-0.0320574752986431,1.1500669717788696,-0.1536283642053604,-0.3495582938194275,0.168965145945549,0.234221413731575,0.0,0.0,0.3231333573273252,0.7377033822592269
-0.033515740185976,1.1428683996200562,-0.1560712456703186,-0.3211494386196136,0.1792386621236801,0.205470472574234,0.0,0.0,-0.97377742922891,0.993809927752642
-0.0349055305123329,1.135289192199707,-0.1474855840206146,-0.3379002809524536,0.1877726465463638,0.1706798821687698,0.0,0.0,-0.5556022477578775,-0.743887948378992
-0.0363633148372173,1.127305269241333,-0.155905932188034,-0.3561562895774841,0.1979615837335586,0.2037786692380905,0.0,0.0,-0.5856915937030578,-0.7199959399365214
-0.0378849990665912,1.118903875350952,-0.1637987047433853,-0.3749959170818329,0.209686279296875,0.2344936579465866,0.0,0.0,0.9879602194866955,-0.6235745083918905
-0.0395966544747352,1.111209750175476,-0.1839658170938491,-0.3438237905502319,0.2226220816373825,0.2587156593799591,0.0,0.0,0.3270312888454507,-0.9223401065992684
-0.0415049567818641,1.1040008068084717,-0.2053097486495971,-0.3226468861103058,0.2372925579547882,0.2934091091156006,0.0,0.0,0.4935486414631731,-0.6788730138564659
-0.0435956940054893,1.0969692468643188,-0.2246470153331756,-0.3151077032089233,0.253126323223114,0.3166756331920624,0.0,0.0,0.5202742291576532,0.8354429796327805
-0.0457720756530761,1.0906085968017578,-0.2313558757305145,-0.285118043422699,0.2671318054199219,0.2801100611686706,0.0,0.0,-0.585956204339078,-0.9110256495019136
-0.0480368621647357,1.0838357210159302,-0.2418344318866729,-0.3039019703865051,0.2828753888607025,0.3148718476295471,0.0,0.0,-0.6833291707722322,0.9025250874275388
-0.0502450950443744,1.0767028331756592,-0.234007328748703,-0.3196304738521576,0.2964532673358917,0.2715581953525543,0.0,0.0,0.1137397281003054,-0.7051640078291919
-0.0527556426823139,1.0698758363723757,-0.2652394473552704,-0.3063721358776092,0.3111054599285126,0.2930430471897125,0.0,0.0,-0.8853601217269897,0.9445985555648804
-0.0551992431282997,1.062695026397705,-0.2559342980384826,-0.3216743171215057,0.3231382071971893,0.240654855966568,0.0,0.0,-0.879867434501648,0.9768610000610352
-0.0575759895145893,1.0551526546478271,-0.2466962337493896,-0.3372564613819122,0.3325380384922027,0.1879971772432327,0.0,0.0,-0.8889064788818359,0.9248132705688475
-0.0598943717777729,1.0472553968429563,-0.2383897304534912,-0.3525138199329376,0.3393832743167877,0.1369052082300186,0.0,0.0,-0.9047688245773317,0.994593381881714
-0.0621652603149414,1.03898823261261,-0.2314667254686355,-0.3684663772583008,0.3439649641513824,0.0916337221860885,0.0,0.0,-0.8957836031913757,0.9959204196929932
-0.0643804520368576,1.0303585529327393,-0.2234144210815429,-0.3839974105358124,0.3459605276584625,0.0399112105369567,0.0,0.0,-0.9299004077911376,0.9557900428771972
-0.0665443390607833,1.0213701725006104,-0.2158330380916595,-0.399349957704544,0.3453806042671203,-0.0115982145071029,0.0,0.0,-0.9209238290786744,0.9473061561584472
-0.0686834305524826,1.012026071548462,-0.2114061862230301,-0.4146934151649475,0.3427641689777374,-0.0523287057876586,0.0,0.0,-0.994513988494873,0.9939900636672974
-0.0707987770438194,1.0023250579833984,-0.2070696055889129,-0.4300977289676666,0.3380840420722961,-0.093602642416954,0.0,0.0,-0.9849534630775452,0.9884397983551024
-0.0728764533996582,0.99226313829422,-0.2009583264589309,-0.4456201791763305,0.3309698402881622,-0.1422839760780334,0.0,0.0,-0.9930309057235718,0.9892692565917968
-0.0748986229300499,0.9818527102470398,-0.1925016194581985,-0.4604949653148651,0.3208483755588531,-0.2024292647838592,0.0,0.0,-0.9976094365119934,0.988239288330078
-0.0768931359052658,0.9710872769355774,-0.1874371469020843,-0.4758540093898773,0.3083750307559967,-0.249467134475708,0.0,0.0,-0.9957259893417358,0.9892714023590088
-0.0788384452462196,0.9599649310112,-0.1796490550041198,-0.4912465214729309,0.2929899394512176,-0.3077024817466736,0.0,0.0,-0.9852604269981384,0.980921745300293
-0.0807528495788574,0.9484922289848328,-0.1739900708198547,-0.5064904093742371,0.2750401198863983,-0.3589965999126434,0.0,0.0,-0.9941571950912476,0.969296932220459
-0.0826185196638107,0.9366637468338012,-0.166068285703659,-0.521994948387146,0.2540773451328277,-0.4192562699317932,0.0,0.0,-0.9961934089660645,0.2938016653060913
-0.0845295935869216,0.9244450330734252,-0.1699258685111999,-0.5395285487174988,0.2325367927551269,-0.4308114051818847,0.0,0.0,-0.9942331314086914,0.4637477397918701
-0.0864876732230186,0.9118366241455078,-0.1739362180233001,-0.5570650696754456,0.2104065120220184,-0.4426060616970062,0.0,0.0,-0.9925529956817628,0.0550590753555297
-0.0884943008422851,0.8988392949104309,-0.1780956089496612,-0.5746048092842102,0.1876754015684127,-0.4546228945255279,0.0,0.0,-0.9965157508850098,0.0319724082946777
-0.0905510932207107,0.8854534029960632,-0.1824000179767608,-0.5921478867530823,0.1643331050872802,-0.4668455123901367,0.0,0.0,-0.9904049038887024,0.3677202463150024
-0.0926594734191894,0.8716796040534973,-0.1868451833724975,-0.6096945405006409,0.1403702050447464,-0.4792584478855133,0.0,0.0,-0.994492769241333,0.2493348121643066
-0.0948208793997764,0.8575183749198914,-0.191426619887352,-0.6272449493408203,0.1157778576016426,-0.4918472170829773,0.0,0.0,-0.9918748736381532,0.6565451622009277
-0.0969936400651931,0.8429816961288452,-0.1907676458358764,-0.6442302465438843,0.0894544571638107,-0.5264683365821838,0.0,0.0,-0.989776611328125,-0.7272914052009583
-0.0992673859000206,0.8280512690544128,-0.2013134211301803,-0.6622167229652405,0.0636387541890144,-0.516313910484314,0.0,0.0,-0.9836864471435548,-0.7491550445556641
-0.1016548126935958,0.8127304911613464,-0.2134126722812652,-0.6800327897071838,0.0386037640273571,-0.5006998777389526,0.0,0.0,-0.9959980249404908,0.6220649480819702
-0.1040500625967979,0.7970227599143982,-0.2122261971235275,-0.6976367831230164,0.0116573078557848,-0.5389297604560852,0.0,0.0,-0.9885000586509703,-0.0410208702087402
-0.1065039634704589,0.7809309363365173,-0.2174144238233566,-0.7152071595191956,-0.0159534197300672,-0.5522147417068481,0.0,0.0,-0.9043007493019104,0.5857465267181396
-0.1089692115783691,0.7644617557525635,-0.2166773527860641,-0.7325426340103149,-0.0454398728907108,-0.5897294878959656,0.0,0.0,-0.888831615447998,-0.8938582539558411
-0.1115564331412315,0.7476037740707397,-0.2297603785991668,-0.7503702044487,-0.0740665644407272,-0.5725339651107788,0.0,0.0,0.3238719701766968,-0.8887560963630676
-0.1141988784074783,0.7314013838768005,-0.236478641629219,-0.7217043042182922,-0.101579450070858,-0.5502581000328064,0.0,0.0,-0.4004221558570862,-0.4359525442123413
-0.1169032081961631,0.7148164510726929,-0.2420505732297897,-0.739283561706543,-0.1297763288021087,-0.5639379024505615,0.0,0.0,0.67313551902771,-0.9338561296463012
-0.1197573691606521,0.6989070177078247,-0.2581802308559418,-0.7096784114837646,-0.1569399833679199,-0.5432730317115784,0.0,0.0,0.6720962524414062,0.0280977487564086
-0.122545339167118,0.6835409998893738,-0.2511270642280578,-0.6860930919647217,-0.1846517622470855,-0.5542354583740234,0.0,0.0,-0.1416265964508056,-0.3004869222640991
-0.125396728515625,0.6677929759025574,-0.2569185495376587,-0.7036774754524231,-0.2130590230226516,-0.5681454539299011,0.0,0.0,0.8974618911743164,-0.9303057789802552
-0.1281521767377853,0.6526288390159607,-0.2488121092319488,-0.6780421137809753,-0.2401314675807953,-0.5414489507675171,0.0,0.0,0.8820878267288208,-0.8585674166679382
-0.1309738159179687,0.6377637982368469,-0.2565259337425232,-0.6650583744049072,-0.266259491443634,-0.5225602388381958,0.0,0.0,0.7832468748092651,-0.2849071025848388
-0.1336967498064041,0.6229950785636902,-0.246488481760025,-0.6613004803657532,-0.2927533090114593,-0.5298765897750854,0.0,0.0,0.7280377149581909,-0.9290799498558044
-0.1364891976118087,0.6083924174308777,-0.2547196745872497,-0.6541430354118347,-0.3181299865245819,-0.5075334906578064,0.0,0.0,0.9189159870147704,-0.9250521063804626
-0.1391360312700271,0.5947660803794861,-0.2414682805538177,-0.6108978986740112,-0.3423402309417724,-0.4842048585414886,0.0,0.0,0.6694726943969727,-0.9653030037879944
-0.1415548324584961,0.5819220542907715,-0.2201813906431198,-0.5761688947677612,-0.3651649355888366,-0.4564944207668304,0.0,0.0,0.5660618543624878,-0.9857252240180968
-0.1439450234174728,0.5698943734169006,-0.2186434268951416,-0.5399056673049927,-0.38678178191185,-0.4323366582393646,0.0,0.0,0.6149617433547974,-0.990012526512146
-0.1464858949184417,0.5580472350120544,-0.2349630147218704,-0.5318684577941895,-0.4072329699993133,-0.409024178981781,0.0,0.0,0.2754037380218506,-0.993286907672882
-0.1488862037658691,0.5466878414154053,-0.2223286628723144,-0.5100690722465515,-0.4263296723365783,-0.3819345533847809,0.0,0.0,0.6850337982177734,-0.9614014029502868
-0.1512833535671234,0.5358629822731018,-0.223213642835617,-0.4862138330936432,-0.4442925453186035,-0.3592573702335357,0.0,0.0,0.6483452320098877,-0.9864142537117004
-0.1535794287919998,0.5256609320640564,-0.2143946588039398,-0.458342045545578,-0.4609824419021606,-0.333797812461853,0.0,0.0,0.7515436410903931,-0.9402597546577454
-0.155688002705574,0.5161309838294983,-0.1968649923801422,-0.4282601475715637,-0.4764437675476074,-0.3092267215251922,0.0,0.0,0.5358264446258545,-0.9752806425094604
-0.1575989723205566,0.5069242715835571,-0.1784874349832534,-0.4135957062244415,-0.4905072748661041,-0.2812703549861908,0.0,0.0,0.7425174713134766,-0.9948647022247314
-0.1594513952732086,0.4978344440460205,-0.1739475280046463,-0.4080676436424255,-0.5031875967979431,-0.2536066770553589,0.0,0.0,0.9482378959655762,-0.9975857734680176
-0.1611032485961914,0.4889431893825531,-0.1553242802619934,-0.3988283574581146,-0.5143231153488159,-0.2227100580930709,0.0,0.0,0.7401565313339233,-0.9965009093284608
-0.1624389588832855,0.4803781509399414,-0.125158205628395,-0.3838664889335632,-0.5238818526268005,-0.1911746710538864,0.0,0.0,0.7561162710189819,-0.9924018979072572
-0.1635536253452301,0.4718963503837585,-0.104456290602684,-0.37968909740448,-0.5318843126296997,-0.1600494682788849,0.0,0.0,0.0512470006942749,-0.9738998413085938
-0.1645545065402984,0.4637111723423004,-0.0942887440323829,-0.3660755157470703,-0.5385396480560303,-0.1331072747707367,0.0,0.0,0.1600708961486816,-0.9950587153434752
-0.1653852462768554,0.4558696150779724,-0.0784923136234283,-0.3503478169441223,-0.5438113212585449,-0.105433702468872,0.0,0.0,0.6624155044555664,-0.9579827189445496
-0.1658709496259689,0.4484526216983795,-0.0452767834067344,-0.3309758603572845,-0.5476173162460327,-0.0761196166276931,0.0,0.0,-0.5427891612052917,-0.9836426377296448
-0.1664739549160003,0.4406881034374237,-0.0578658878803253,-0.3460851907730102,-0.5504331588745117,-0.0563170127570629,0.0,0.0,-0.0422037839889526,-0.9920727014541626
-0.1672074347734451,0.4325982630252838,-0.0722614079713821,-0.3599945604801178,-0.55169278383255,-0.0251925252377986,0.0,0.0,0.5433409214019775,-0.9172253608703612
-0.1675560921430587,0.4251445233821869,-0.0349116772413253,-0.3312561213970184,-0.5516279935836792,0.0012953972909599,0.0,0.0,-0.3853905797004699,-0.9797157645225524
-0.1680273115634918,0.4173638820648193,-0.0484161153435707,-0.3452750742435455,-0.5501341819763184,0.0298767443746328,0.0,0.0,0.0867903232574462,-0.8876224756240845
-0.1684165000915527,0.410000205039978,-0.0412232354283332,-0.3263393044471741,-0.5474638342857361,0.0534054152667522,0.0,0.0,-0.018448531627655,-0.9907180666923524
-0.1689121276140213,0.402303397655487,-0.0527964942157268,-0.340766966342926,-0.5437219142913818,0.0748383551836013,0.0,0.0,0.3617500066757202,-0.860694408416748
-0.1692357957363128,0.3951079249382019,-0.0365362577140331,-0.3181266784667969,-0.5389218330383301,0.0960030779242515,0.0,0.0,0.0129504203796386,-0.9916911125183104
-0.1694883406162262,0.3882278203964233,-0.0306899547576904,-0.3036379814147949,-0.5326895117759705,0.1246457323431968,0.0,0.0,-0.4315483570098877,-0.9448656439781188
-0.1698542535305023,0.381014883518219,-0.0432065762579441,-0.3179901242256164,-0.525116503238678,0.1514599025249481,0.0,0.0,0.1565539836883545,-0.9354281425476074
-0.1701986342668533,0.374087780714035,-0.0421827919781208,-0.304901510477066,-0.5162965059280396,0.1764000207185745,0.0,0.0,0.3563634157180786,-0.9098462462425232
-0.1705575883388519,0.3674890398979187,-0.0446439087390899,-0.2900011241436004,-0.5063891410827637,0.1981465220451355,0.0,0.0,0.240989089012146,-0.9236061573028564
-0.1706744134426117,0.3612005114555359,-0.0215853117406368,-0.2758720517158508,-0.4952435493469238,0.2229114323854446,0.0,0.0,0.3399171829223633,-0.8925616145133972
-0.1706994026899337,0.3549216389656067,-0.0135164409875869,-0.2751507759094238,-0.4829365015029907,0.2461409121751785,0.0,0.0,0.4338178634643554,-0.7940461039543152
-0.1703793555498123,0.3490854501724243,0.0199313480406999,-0.2552254498004913,-0.4695176184177398,0.2683774530887604,0.0,0.0,0.0051373243331909,-0.7478321194648743
-0.1699414253234863,0.3435497283935547,0.0308738239109516,-0.2417339384555816,-0.4552735984325409,0.2848804593086242,0.0,0.0,0.3423871994018554,-0.6939188838005066
-0.1691575050354004,0.3385204076766968,0.0645751729607582,-0.2190899848937988,-0.4401221573352813,0.3030290901660919,0.0,0.0,0.1239461898803711,-0.7660251259803772
-0.1682312935590744,0.3336396217346191,0.0778662487864494,-0.2123759388923645,-0.4240834712982178,0.3207736909389496,0.0,0.0,-0.1559241414070129,-0.8590723276138306
-0.1673872917890548,0.3284221291542053,0.0685557425022125,-0.2272119969129562,-0.4069738984107971,0.3421913087368011,0.0,0.0,-0.2177172303199768,-0.8656754493713379
-0.1666163504123687,0.3228615820407867,0.0602929480373859,-0.2424162328243255,-0.3889890611171722,0.3596965968608856,0.0,0.0,-0.2136170864105224,-0.7853385210037231
-0.1659121513366699,0.3169418573379516,0.0529037415981292,-0.2584269940853119,-0.3703517317771911,0.3727459907531738,0.0,0.0,-0.59787517786026,-0.3890796899795532
-0.1652205437421798,0.3106358051300049,0.0522015281021595,-0.2759869694709778,-0.3524609208106994,0.357816994190216,0.0,0.0,-0.5553406476974487,-0.6892338395118713
-0.1646006554365158,0.303975760936737,0.0440030433237552,-0.2917072474956512,-0.3336029052734375,0.3771601617336273,0.0,0.0,-0.3588536977767944,-0.6394636631011963
-0.1640361845493316,0.2969548106193542,0.0377675853669643,-0.3078448474407196,-0.3141361176967621,0.3893358111381531,0.0,0.0,-0.7524374127388,0.0247985124588012
-0.1634741723537445,0.2895476818084717,0.0381170734763145,-0.3254044950008392,-0.2954137325286865,0.374447762966156,0.0,0.0,-0.943058431148529,0.3932328224182129
-0.1629111319780349,0.2817535400390625,0.0388340875506401,-0.342960923910141,-0.2774345576763153,0.359583705663681,0.0,0.0,-0.779340922832489,0.7510842084884644
-0.1622769385576248,0.2735468447208404,0.0483241863548755,-0.3619541823863983,-0.2619637846946716,0.3094154894351959,0.0,0.0,-0.7126433253288269,0.5688681602478027
-0.1615883857011795,0.264938473701477,0.0555758848786354,-0.3802815675735473,-0.2484272271394729,0.2707313895225525,0.0,0.0,-0.6092220544815063,0.0128957033157348
