x_pos,y_pos,x_vel,y_vel,angle,ang_vel,leg_1,leg_2,main_booster,lat_booster
-0.0015676498878747,1.4029878377914429,-0.1591082513332367,-0.3525458574295044,0.0020981743000447,0.0414132848381996,0.0,0.0,-0.0572650432586669,0.6551792621612549
-0.0031234740745276,1.3944391012191772,-0.1565576493740081,-0.3799461126327514,0.0030620030593127,0.0192792229354381,0.0,0.0,0.09519624710083,0.8720107078552246
-0.0045513152144849,1.38564932346344,-0.1424239575862884,-0.3906540274620056,0.0026980203110724,-0.0072801513597369,0.0,0.0,0.1114591360092163,0.309128999710083
-0.0061034201644361,1.3767266273498535,-0.154840663075447,-0.396561324596405,0.0023302126210182,-0.0073564662598073,0.0,0.0,0.1168242692947387,0.8187954425811768
-0.0075341225601732,1.3678317070007324,-0.1415326297283172,-0.3953295052051544,0.0008204947807826,-0.0301973819732666,0.0,0.0,0.2047085762023925,0.1144564151763916
-0.0089073181152343,1.3588942289352417,-0.1367196142673492,-0.3972212672233581,0.000221710812184,-0.0119768781587481,0.0,0.0,0.3242402076721191,0.8392140865325928
-0.0102773662656545,1.350014328956604,-0.1351495236158371,-0.3946604132652282,-0.0016070521669462,-0.0365785546600818,0.0,0.0,-0.014255404472351,0.6779382228851318
-0.0116224288940429,1.3404996395111084,-0.1314549148082733,-0.4228803813457489,-0.0046299588866531,-0.0604638084769248,0.0,0.0,0.2451554536819458,0.7615195512771606
-0.0129562374204397,1.331302523612976,-0.1292959302663803,-0.4087807834148407,-0.0086722671985626,-0.0808535516262054,0.0,0.0,0.2265042066574096,0.3238911628723144
-0.0143269542604684,1.322277545928955,-0.1335101425647735,-0.4011355638504028,-0.0121945925056934,-0.0704528987407684,0.0,0.0,0.2193225622177124,0.7865570783615112
-0.0155984880402684,1.3132719993591309,-0.1226438283920288,-0.4002842903137207,-0.016654934734106,-0.0892146453261375,0.0,0.0,0.1504760980606079,-0.257333755493164
-0.016854953020811,1.30418062210083,-0.1219347491860389,-0.4041146636009216,-0.0203210730105638,-0.0733291655778884,0.0,0.0,-0.3295530080795288,0.7737536430358887
-0.018076991662383,1.2944540977478027,-0.1172015890479087,-0.4323625862598419,-0.0252751354128122,-0.0990900620818138,0.0,0.0,-0.3542747497558594,0.1903886795043945
-0.0193386077880859,1.2840909957885742,-0.1217527762055397,-0.4606571197509765,-0.0296341143548488,-0.0871876031160354,0.0,0.0,-0.3268105983734131,0.5734734535217285
-0.0205833427608013,1.2730950117111206,-0.1192707791924476,-0.4888279139995575,-0.0347875207662582,-0.103077232837677,0.0,0.0,-0.7129882574081421,0.5190832614898682
-0.0218185428529977,1.2614537477493286,-0.1177161931991577,-0.5175361037254333,-0.0405350252985954,-0.1149604544043541,0.0,0.0,0.6630825996398926,0.6361774206161499
-0.0228567123413085,1.2504618167877195,-0.0977385267615318,-0.4887092709541321,-0.04654486104846,-0.1202077642083168,0.0,0.0,-0.9513717889785768,-0.3502203226089477
-0.0239325519651174,1.238832950592041,-0.1021774262189865,,-0.0519057624042034,-0.1072277650237083,0.0,0.0,-0.7634949684143066,-0.678684651851654
-0.025090504437685,1.2265771627426147,-0.1121932417154312,-0.5448281168937683,-0.0554741695523262,-0.0713743269443512,0.0,0.0,0.2546114921569824,-0.3091606497764587
-0.0263227466493845,1.214333176612854,-0.1200073137879371,-0.544297456741333,-0.0586587972939014,-0.0636982172727584,0.0,0.0,0.4400553703308105,-0.8655576705932617
-0.0274954792112112,1.202434539794922,-0.1166431307792663,-0.5288496613502502,-0.0592862404882907,-0.0125499069690704,0.0,0.0,0.1960388422012329,-0.4641563296318054
-0.0286767967045307,1.190377712249756,-0.1182280555367469,-0.5358623266220093,-0.0591866225004196,0.0019926105160266,0.0,0.0,-0.3972970247268677,0.5576949119567871
-0.0298398975282907,1.177677869796753,-0.115757368505001,-0.5644540190696716,-0.0597382709383964,-0.0110338265076279,0.0,0.0,-0.0917631983757019,-0.7668635845184326
-0.0310915950685739,1.164337396621704,-0.1266872584819793,-0.5928552150726318,-0.0582378916442394,0.0300101935863494,0.0,0.0,0.4858516454696655,0.337334394454956
-0.0324711799621582,1.1512374877929688,-0.1395973861217498,-0.582152783870697,-0.0566194728016853,0.0323715098202228,0.0,0.0,-0.0541750788688659,0.3140938282012939
-0.0338850021362304,1.137478947639465,-0.143735185265541,-0.6114010214805603,-0.0542828328907489,0.0467326715588569,0.0,0.0,-0.7128924131393433,0.3912861347198486
-0.0353311523795127,1.1230833530426023,-0.1477127969264984,-0.6396920680999756,-0.0512229539453983,0.0611976757645607,0.0,0.0,-0.7991853356361389,0.6575629711151123
-0.0367679595947265,1.1080546379089355,-0.1464793980121612,-0.6678549647331238,-0.0484581477940082,0.0552964396774768,0.0,0.0,-0.7153192162513733,0.3558311462402344
-0.0382353775203228,1.0923888683319092,-0.1502862572669983,-0.6961462497711182,-0.0449605025351047,0.0699527859687805,0.0,0.0,-0.6151193976402283,0.809511661529541
-0.0396708473563194,1.0760791301727295,-0.1462555825710296,-0.7248060703277588,-0.0422809198498725,0.0535914972424507,0.0,0.0,0.5861788988113403,0.805533766746521
-0.0410166755318641,1.060354232788086,-0.1364469826221466,-0.6988345384597778,-0.0404288321733474,0.0370417758822441,0.0,0.0,-0.1585654616355896,0.4478130340576172
-0.0423897728323936,1.043992280960083,-0.1399400234222412,-0.7271261811256409,-0.0378329530358314,0.0519173964858055,0.0,0.0,0.1260042190551757,0.4516756534576416
-0.0438245758414268,1.027815580368042,-0.1466031223535537,-0.7188862562179565,-0.034750822931528,0.0616428442299366,0.0,0.0,0.2542309761047363,0.4076189994812011
-0.045323085039854,1.0114151239395142,-0.153501495718956,-0.7288291454315186,-0.0311434529721736,0.0721474513411521,0.0,0.0,-0.347180962562561,0.6444566249847412
-0.0467926040291786,0.9943768382072448,-0.1500304192304611,-0.7571987509727478,-0.0281011685729026,0.0608455948531627,0.0,0.0,-0.8089670538902283,0.5626850128173828
-0.0482379905879497,0.9767038822174072,-0.1472198516130447,-0.7854120135307312,-0.0254583545029163,0.0528563186526298,0.0,0.0,0.4014915227890014,0.875666618347168
-0.0496499054133892,0.9589672684669496,-0.142842411994934,-0.7882687449455261,-0.0238300804048776,0.0325655937194824,0.0,0.0,-0.438491940498352,0.2086513042449951
-0.0510804168879985,0.9405937790870668,-0.1454653739929199,-0.8165612816810608,-0.0214459393173456,0.0476828143000602,0.0,0.0,0.801773190498352,0.8380911350250244
-0.0524888038635253,0.9229702949523926,-0.1422359645366668,-0.7832460999488831,-0.0200607776641845,0.0277032759040594,0.0,0.0,0.1869868040084839,-0.0027461647987365
-0.0538828857243061,0.905364453792572,-0.1416803151369094,-0.782455325126648,-0.0178242158144712,0.0447312444448471,0.0,0.0,-0.7980554103851318,-0.0977733731269836
-0.0552899353206157,0.8871216773986816,-0.1437402665615081,-0.8107484579086304,-0.0148296533152461,0.0598913058638572,0.0,0.0,0.7890274524688721,0.9666330814361572
-0.0564736351370811,0.8690853714942932,-0.12045319378376,-0.8015919923782349,-0.0127750597894191,0.0410917997360229,0.0,0.0,0.9440097808837892,0.8368685245513916
-0.0574702247977256,0.8509530425071716,-0.1010850071907043,-0.8058722615242004,-0.0113665321841835,0.028170421719551,0.0,0.0,0.2414368391036987,0.7509220838546753
-0.0583250038325786,0.8327757120132446,-0.0862595736980438,-0.8078741431236267,-0.010594381019473,0.0154432179406285,0.0,0.0,0.7421493530273438,0.143410325050354
-0.0592236518859863,0.8144280910491943,-0.0912105292081832,-0.8154372572898865,-0.0092626865953207,0.0266338344663381,0.0,0.0,0.9012030363082886,0.9185161590576172
-0.0599896423518657,0.7960095405578613,-0.0769693478941917,-0.8186045289039612,-0.008895362727344,0.0073462976142764,0.0,0.0,0.8267210721969604,0.6025080680847168
-0.0606308951973915,0.7776904106140137,-0.0642434582114219,-0.8141819834709167,-0.0087790302932262,0.0023267841897904,0.0,0.0,0.7231117486953735,0.1705427169799804
-0.0613789558410644,0.7600403428077698,-0.0751431807875633,-0.7844389081001282,-0.0084491372108459,0.0065978481434285,0.0,0.0,0.5978403091430664,0.1796422004699707
-0.0622437484562397,0.7428988218307495,-0.0869811996817588,-0.7618489861488342,-0.0079578720033168,0.0098252007737755,0.0,0.0,0.5399432182312012,-0.333340585231781
-0.0631171241402626,0.7258318066596985,-0.0884989276528358,-0.7585269808769226,-0.0068038525059819,0.023080313578248,0.0,0.0,-0.2769199013710022,0.7779536247253418
-0.0639043822884559,0.7081272006034851,-0.0787137448787689,-0.7868731617927551,-0.0068124309182167,-0.0001715351536404,0.0,0.0,0.816698431968689,0.4124950170516968
-0.0647372230887413,0.6910017132759094,-0.0837388187646865,-0.7611353397369385,-0.0063621527515351,0.0090053705498576,0.0,0.0,0.3354761600494385,0.9602451324462892
-0.0653751343488693,0.673771321773529,-0.063137486577034,-0.7657929062843323,-0.0070088929496705,-0.0129347322508692,0.0,0.0,-0.4723061323165893,0.5151443481445312
-0.0659552589058876,0.6559087038040161,-0.0570816993713378,-0.7938991189002991,-0.0079361293464899,-0.0185444373637437,0.0,0.0,0.5750482082366943,0.4650650024414062
-0.0663707703351974,0.6381049752235413,-0.0420412272214889,-0.7912769913673401,-0.0074583510868251,0.0095554199069738,0.0,0.0,0.7993783950805664,-0.3147605657577514
-0.0668655410408973,0.6204354166984558,-0.0502319149672985,-0.7853091359138489,-0.0067154564894735,0.0148577215149998,0.0,0.0,0.8235263824462891,0.0935758352279663
-0.0672275573015213,0.603447675704956,-0.0381985791027545,-0.7550035119056702,-0.0047475011087954,0.0393593832850456,0.0,0.0,0.6332657337188721,0.973064422607422
-0.0673303604125976,0.5868257284164429,-0.0112523324787616,-0.7387514710426331,-0.0037832246161997,0.0192854143679142,0.0,0.0,0.6065027713775635,0.6576930284500122
-0.0672719925642013,0.5707740187644958,0.0052557634189724,-0.7134074568748474,-0.0032108700834214,0.0114470953121781,0.0,0.0,0.2759966850280761,0.5902571678161621
-0.067200943827629,0.5550012588500977,0.0070812432095408,-0.7010118961334229,-0.0031953181605786,0.0003110564721282,0.0,0.0,0.3900039196014404,0.917924165725708
-0.0669768303632736,0.5390505790710449,0.0234593302011489,-0.708919107913971,-0.0042220870964229,-0.0205357093364,0.0,0.0,0.1115555763244628,0.2027218341827392
-0.0667860954999923,0.523171603679657,0.0196753274649381,-0.7057335376739502,-0.0048235179856419,-0.012028613127768,0.0,0.0,0.7521684169769287,0.3421386480331421
-0.0664283782243728,0.5074777603149414,0.0350241065025329,-0.6975018978118896,-0.0040832315571606,0.014805955812335,0.0,0.0,0.1674010753631591,0.2290136814117431
-0.0660173445940017,0.4917968511581421,0.0395295992493629,-0.6969261169433594,-0.0025317887775599,0.031028876081109,0.0,0.0,-0.1178261637687683,0.591667652130127
-0.0655227676033973,0.4754747748374939,0.0483540818095207,-0.7254246473312378,-0.0014398065395653,0.021839540451765,0.0,0.0,0.9265093803405762,-0.5037105083465576
-0.0651822090148925,0.4595506191253662,0.0316662564873695,-0.7077418565750122,0.000922500679735,0.0472460202872753,0.0,0.0,-0.1078596115112304,0.420138955116272
-0.0648031234741211,0.4429898560047149,0.0347819402813911,-0.7360362410545349,0.0040135756134986,0.0618214383721351,0.0,0.0,0.9597707986831664,0.0830501317977905
-0.0642883330583572,0.4263137578964233,0.0471489503979682,-0.7411797046661377,0.0082818577066063,0.0853656753897667,0.0,0.0,0.95414400100708,0.5765383243560791
-0.0636616721749305,0.4105234742164612,0.0586669258773326,-0.7018159031867981,0.0122245131060481,0.0788533240556716,0.0,0.0,0.9039020538330078,0.3180247545242309
-0.0631086379289627,0.3949131667613983,0.0510852038860321,-0.6938326358795166,0.0163881238549947,0.0832722932100296,0.0,0.0,0.9429099559783936,0.8185243606567383
-0.0625794380903244,0.379862904548645,0.0498816147446632,-0.6689350008964539,0.019392717629671,0.0600915625691413,0.0,0.0,0.9170194864273072,0.5760781764984131
-0.061937429010868,0.3652628660202026,0.0614821724593639,-0.6489277482032776,0.0220760609954595,0.0536668375134468,0.0,0.0,0.8525352478027344,0.5705767869949341
-0.0613814368844032,0.3514494299888611,0.0537351667881011,-0.6139606833457947,0.0239140316843986,0.0367593988776207,0.0,0.0,0.883088231086731,0.8270548582077026
-0.0606394782662391,0.337992250919342,0.0730857700109481,-0.5981147885322571,0.0250064730644226,0.021848851814866,0.0,0.0,0.928686022758484,0.5622713565826416
-0.0598610863089561,0.3245790600776672,0.0772650837898254,-0.5961524248123169,0.0255713481456041,0.0112977297976613,0.0,0.0,0.6798553466796875,0.3930003643035888
-0.0589763633906841,0.3110277652740478,0.0868614763021469,-0.6023080348968506,0.0271627679467201,0.0318284593522548,0.0,0.0,0.8451216220855713,0.770148515701294
-0.0580331794917583,0.2974017858505249,0.0936341807246208,-0.6056119799613953,0.0278436355292797,0.0136171551421284,0.0,0.0,0.8129544258117676,0.2710283994674682
-0.0570766441524028,0.284444123506546,0.0942950993776321,-0.5759192705154419,0.0291816722601652,0.0267608668655157,0.0,0.0,0.7996715307235718,0.5940234661102295
-0.0559586510062217,0.2721946537494659,0.1106823235750198,-0.5444434881210327,0.030279517173767,0.0219569467008113,0.0,0.0,0.1734619140625,0.2493195533752441
-0.0548904426395893,0.2601756453514099,0.1053774356842041,-0.5342084169387817,0.0317001789808273,0.0284134503453969,0.0,0.0,0.5154561996459961,-0.2449211478233337
-0.0539028160274028,0.24797023832798,0.0971921682357788,-0.5424985289573669,0.0332588218152523,0.0311726126819849,0.0,0.0,0.821038007736206,0.0502527952194213
-0.0528514869511127,0.2364370226860046,0.1026526466012001,-0.5126450061798096,0.0357050374150276,0.0489245243370533,0.0,0.0,0.6251382827758789,0.258634090423584
-0.0518715865910053,0.2251108735799789,0.0952916219830513,-0.5034511089324951,0.038366712629795,0.0532334446907043,0.0,0.0,0.6442339420318604,0.3355002403259277
-0.0509234443306922,0.2141565233469009,0.0916925817728042,-0.4869419038295746,0.0414466224610805,0.0615983232855796,0.0,0.0,0.7568590641021729,-0.0736317038536071
-0.0499700531363487,0.2036797404289245,0.0916130319237709,-0.4657419323921203,0.0451318770647048,0.0737050250172615,0.0,0.0,0.6429555416107178,0.497269868850708
-0.0489070899784565,0.1934398561716079,0.1014974266290664,-0.455258697271347,0.0498753786087036,0.0948701873421669,0.0,0.0,0.5637034177780151,0.1746408939361572
-0.0477887168526649,0.183051124215126,0.1062786355614662,-0.4619140625,0.0553721636533737,0.1099358424544334,0.0,0.0,0.4589117765426636,-0.16819828748703
-0.046558953821659,0.1725661158561706,0.116389475762844,-0.4662579894065857,0.0618890635669231,0.1303377300500869,0.0,0.0,0.6655821800231934,-0.6624587774276733
-0.0452068336308002,0.1623175740242004,0.1262823045253753,-0.4558823406696319,0.0707205906510353,0.1766304671764373,0.0,0.0,0.5400190353393555,-0.3623200058937073
-0.0437016487121582,0.1519980728626251,0.140360489487648,-0.4591556191444397,0.0807752907276153,0.2010942995548248,0.0,0.0,0.7948517799377441,0.0053011178970336
-0.0422189719974994,0.1422635167837143,0.1375301778316497,-0.4332601130008697,0.0914127603173255,0.2127492725849151,0.0,0.0,0.3624733686447143,0.4111459255218506
-0.0407184585928916,0.1328325867652893,0.1385969221591949,-0.4198901057243347,0.1027677655220031,0.2271002829074859,0.0,0.0,0.4014520645141601,-0.194018542766571
-0.0391215309500694,0.1236283183097839,0.1471777558326721,-0.4099864661693573,0.1151981577277183,0.2486080825328827,0.0,0.0,0.5819501876831055,-0.1322805881500244
-0.0374152176082134,0.1142729148268699,0.157110720872879,-0.4168934226036072,0.1286480575799942,0.2689979076385498,0.0,0.0,0.8722062110900879,0.097445011138916
-0.0357925407588481,0.1051312983036041,0.1484743058681488,-0.4075401127338409,0.1423801034688949,0.2746409773826599,0.0,0.0,0.8723855018615723,0.2468146085739135
-0.0341644287109375,0.0968290418386459,0.1480577290058136,-0.3704635202884674,0.1570970714092254,0.2943392395973205,0.0,0.0,0.7250440120697021,0.8300484418869019
-0.0325420387089252,0.0887831300497055,0.1487163305282592,-0.3590812981128692,0.1706280559301376,0.2706198692321777,0.0,0.0,0.8019137382507324,0.7928252220153809
-0.031103515997529,0.0813716500997543,0.1317381709814071,-0.3308351635932922,0.1827708333730697,0.2428556233644485,0.0,0.0,0.8742414712905884,0.276853084564209
-0.0296630859375,0.074521504342556,0.1310389339923858,-0.3061093091964721,0.1958541721105575,0.2616663873195648,0.0,0.0,0.5294338464736938,0.7043169736862183
-0.0283084865659475,0.0680652484297752,0.1235179752111435,-0.2885698676109314,0.2078773230314254,0.2404630929231643,0.0,0.0,0.6365358829498291,0.6908166408538818
-0.0270934104919433,0.0620579570531845,0.1107400506734848,-0.2685436308383941,0.218757078051567,0.217595025897026,0.0,0.0,0.0917191505432128,0.8129744529724121
-0.02585687674582,0.0559104047715663,0.1141186505556106,-0.2746642827987671,0.2284059524536132,0.1929775476455688,0.0,0.0,0.8286665678024292,0.6799136400222778
-0.0248065944761037,0.0500725619494915,0.0968103855848312,-0.2607540786266327,0.2367371469736099,0.1666238456964492,0.0,0.0,0.7854166030883789,0.7531366348266602
-0.0239556320011615,0.0443821996450424,0.0784118622541427,-0.2539983987808227,0.243533968925476,0.1359370201826095,0.0,0.0,0.9118130207061768,0.960974097251892
-0.0230528824031353,0.0393493026494979,0.0849673002958297,-0.2245723903179168,0.248937040567398,0.1080613955855369,0.0,0.0,0.5351269245147705,0.4781734943389892
-0.0221319198608398,0.0342007502913475,0.086252823472023,-0.2298303544521331,0.2548974156379699,0.119207739830017,0.0,0.0,0.8670144081115723,0.4531817436218261
-0.0212224964052438,0.0297304019331932,0.0841038152575492,-0.1998863220214843,0.2618759274482727,0.1395695656538009,0.0,0.0,0.3157942295074463,-0.1029784083366394
-0.0204851143062114,0.0264533143490552,0.0845297425985336,-0.1437439620494842,0.2509066760540008,-0.2193146646022796,0.0,1.0,0.9411258697509766,0.4846854209899902
-0.0199357978999614,0.0247982125729322,0.0815545469522476,-0.0692392513155937,0.2238460928201675,-0.5412274599075317,0.0,1.0,0.2462228536605835,-0.1611276865005493
-0.0194809921085834,0.0235938653349876,0.0814806669950485,-0.0484700687229633,0.1875167489051818,-0.7266053557395935,0.0,1.0,0.0769908428192138,-0.6470577120780945
-0.0191514007747173,0.0225091073662042,0.0662939101457595,-0.0443352349102497,0.1541157513856887,-0.6680206060409546,0.0,0.0,-0.9877057671546936,-0.3644241094589233
-0.0187767036259174,0.0208027213811874,0.0707872360944747,-0.0727248042821884,0.1209044754505157,-0.6642262935638428,0.0,0.0,-0.9464132189750672,-0.6823788285255432
-0.0184029582887887,0.0184621904045343,0.0694742873311042,-0.1017357110977172,0.0890266746282577,-0.6375566720962524,0.0,0.0,-0.556921124458313,-0.879336953163147
-0.0180678367614746,0.0154879428446292,0.0634803771972656,-0.1306734830141067,0.0593697279691696,-0.5931393504142761,0.0,0.0,0.3315982818603515,-0.7777296304702759
-0.0178900714963674,0.0124915214255452,0.0463047698140144,-0.1322835385799408,0.0311851277947425,-0.5636926889419556,0.0,0.0,0.7598490715026855,-0.7175540924072266
-0.0177679061889648,0.0097645735368132,0.0393405631184577,-0.1208502948284149,0.0044031958095729,-0.5356391072273254,0.0,0.0,0.5713846683502197,-0.8916298151016235
-0.0176464077085256,0.0071690534241497,0.0374615415930748,-0.1154723316431045,-0.0205781739205122,-0.4996277391910553,0.0,0.0,0.8298622369766235,-0.9212173819541932
-0.0173851959407329,0.0045306896790862,0.0493452884256839,-0.1177384480834007,-0.0435082912445068,-0.4586025774478912,0.0,0.0,0.7698116302490234,-0.8894825577735901
-0.0169121734797954,0.0030920959543436,0.0491226948797702,-0.0639883652329444,-0.04531055316329,-0.0360546894371509,1.0,0.0,0.300402283668518,-0.4581897258758545
-0.0162821765989065,0.0025795435067266,0.0475665256381034,-0.0223852451890707,-0.0300607420504093,0.3049981594085693,1.0,0.0,-0.6754117608070374,-0.1644161343574524
-0.0155907627195119,0.0018176531884819,0.0431254096329212,-0.0335379056632518,-0.0043753273785114,0.5137173533439636,1.0,0.0,0.1855446100234985,-0.3112696409225464
