x_pos,y_pos,x_vel,y_vel,angle,ang_vel,leg_1,leg_2,main_booster,lat_booster
-0.0014784813392907,1.4034303426742554,-0.1496771574020385,-0.3328815698623657,0.0016364930197596,0.0322718136012554,0.0,0.0,0.1581947803497314,0.8331791162490845
-0.0028068542014807,1.3962507247924805,-0.1327379792928695,-0.3190938234329223,0.0015436363173648,-0.0018568190280348,0.0,0.0,-0.3009822368621826,0.1229844093322753
-0.0040938379243016,1.3888763189315796,-0.1285650134086609,-0.3277520835399627,0.0014088791795074,-0.002695093397051,0.0,0.0,0.1369894742965698,0.5211451053619385
-0.0053912163712084,1.381821632385254,-0.1283555924892425,-0.3135407567024231,4.328519935370423e-05,-0.0273146070539951,0.0,0.0,-0.2820464372634887,0.1998498439788818
-0.0066514015197753,1.3745726346969604,-0.1246552914381027,-0.3221760392189026,-0.0012989857932552,-0.0268480516970157,0.0,0.0,-0.0106682181358337,0.2578849792480469
-0.0078763961791992,1.3671295642852783,-0.1211903095245361,-0.330805629491806,-0.0025868439115583,-0.0257596373558044,0.0,0.0,-0.1239111423492431,-0.3502131700515747
-0.0090681072324514,1.3594921827316284,-0.1179568171501159,-0.3394365906715393,-0.0037880996242165,-0.0240275040268898,0.0,0.0,-0.5379630327224731,0.6595439910888672
-0.0101637840270996,1.3516623973846436,-0.1068255752325058,-0.3480029106140136,-0.006500544026494,-0.0542538277804851,0.0,0.0,-0.4197257757186889,0.7734484672546387
-0.0111702922731637,1.3436464071273804,-0.0965485274791717,-0.3562934100627899,-0.0105642741546034,-0.0812819749116897,0.0,0.0,-0.6429117918014526,0.67030930519104
-0.0120966909453272,1.335439682006836,-0.0873613804578781,-0.3647865056991577,-0.015774417668581,-0.1042123213410377,0.0,0.0,-0.6220480799674988,-0.5932484269142151
-0.0130372997373342,1.3270403146743774,-0.0900295227766037,-0.3733478784561157,-0.0197679493576288,-0.0798779129981994,0.0,0.0,-0.7044872641563416,-0.5576671957969666
-0.0139929773285985,1.3184471130371094,-0.0927544981241226,-0.3819677233695984,-0.0225497558712959,-0.0556409060955047,0.0,0.0,-0.9106324911117554,-0.2701138257980346
-0.0149267194792628,1.309659481048584,-0.0908186286687851,-0.3905992209911346,-0.0250680912286043,-0.0503714308142662,0.0,0.0,-0.889891505241394,0.6192996501922607
-0.0157856941223144,1.30066978931427,-0.0822640433907508,-0.3996009230613708,-0.0286660827696323,-0.0719664990901947,0.0,0.0,-0.8298290967941284,0.1612513065338134
-0.0166259761899709,1.2914862632751465,-0.080715075135231,-0.408232569694519,-0.0319490619003772,-0.0656653195619583,0.0,0.0,-0.5050715208053589,0.2753101587295532
-0.0174492839723825,1.282108187675476,-0.0793521776795387,-0.4168640971183777,-0.0348944552242755,-0.0589131414890289,0.0,0.0,-0.8470695614814758,-0.5761107206344604
-0.0182920452207326,1.272544503211975,-0.0825507640838623,-0.4250951409339905,-0.0365968495607376,-0.0340506136417388,0.0,0.0,-0.9344885945320128,-0.0029286742210388
-0.0191207882016897,1.2627863883972168,-0.0815408155322074,-0.4337259829044342,-0.0379188992083072,-0.0264434032142162,0.0,0.0,-0.8280702829360962,-0.6308926939964294
-0.0199786182492971,1.2528424263000488,-0.0859196037054061,-0.4419597089290619,-0.0377886295318603,0.002605547895655,0.0,0.0,-0.9736070036888124,-0.386546790599823
-0.0208253860473632,1.2427036762237549,-0.0852328762412071,-0.4505899548530578,-0.0372404269874095,0.0109651796519756,0.0,0.0,-0.7611055374145508,0.3818593025207519
-0.0216624252498149,1.2323707342147827,-0.084693819284439,-0.4592200815677643,-0.0362565591931343,0.0196788944303989,0.0,0.0,-0.9232364296913148,0.3485909700393677
-0.0224907882511615,1.2218433618545532,-0.0842948332428932,-0.4678503274917602,-0.0348214097321033,0.0287056565284729,0.0,0.0,-0.879396915435791,-0.7272158265113831
-0.0233570095151662,1.211122989654541,-0.0896861106157302,-0.4763940274715423,-0.0317862629890441,0.0607085227966308,0.0,0.0,-0.8465037941932678,0.4232791662216186
-0.0242170337587595,1.200208306312561,-0.0895454213023185,-0.4850248992443084,-0.0282720923423767,0.0702895373106002,0.0,0.0,-0.4447284936904907,0.3487814664840698
-0.0250717159360647,1.1890995502471924,-0.0895187258720398,-0.493656188249588,-0.0242656525224447,0.0801357850432396,0.0,0.0,-0.837172269821167,0.778255820274353
-0.0258756633847951,1.1777774095535278,-0.0837697386741638,-0.50315260887146,-0.0209280326962471,0.0667523294687271,0.0,0.0,-0.1679909825325012,0.4285206794738769
-0.0266759879887104,1.1662611961364746,-0.0839322060346603,-0.5117820501327515,-0.0170753505080938,0.0770536512136459,0.0,0.0,-0.8857861161231995,0.8852049112319946
-0.0274184234440326,1.1545586585998535,-0.0772884339094162,-0.5200818181037903,-0.0140755819156765,0.0599954798817634,0.0,0.0,-0.7815682888031006,0.7267768383026123
-0.0281136520206928,1.1426670551300049,-0.0719553977251052,-0.528497576713562,-0.0116736004129052,0.0480396971106529,0.0,0.0,-0.9675142765045166,0.2515226602554321
-0.028807258233428,1.130581259727478,-0.0723481178283691,-0.5371267795562744,-0.0087292427197098,0.0588872358202934,0.0,0.0,-0.9911967515945436,0.6885373592376709
-0.0294436458498239,1.1183083057403564,-0.0657457262277603,-0.5454524159431458,-0.0066464953124523,0.0416551455855369,0.0,0.0,-0.9224677085876464,0.6560826301574707
-0.0300341602414846,1.1058369874954224,-0.060575358569622,-0.5542771816253662,-0.0051430873572826,0.0300680603832006,0.0,0.0,-0.5946798324584961,0.4807683229446411
-0.0306244846433401,1.0931713581085205,-0.0611167922616004,-0.5629064440727234,-0.0030765107367187,0.0413314402103424,0.0,0.0,-0.92448890209198,-0.5841136574745178
-0.0312657356262207,1.0803067684173584,-0.0681044533848762,-0.5717588067054749,0.0008433281909674,0.0783971697092056,0.0,0.0,-0.9867556095123292,0.9348134994506836
-0.0318312644958496,1.06725013256073,-0.0591665729880332,-0.5802974104881287,0.003428065450862,0.0516947917640209,0.0,0.0,-0.773676335811615,0.5247188806533813
-0.0323541648685932,1.0540035963058472,-0.0544084124267101,-0.5887404084205627,0.0055165393278002,0.0417694859206676,0.0,0.0,-0.7553529143333435,-0.1524876356124878
-0.032877255231142,1.0405631065368652,-0.0550215058028698,-0.5973703265190125,0.0081879775971174,0.0534290000796318,0.0,0.0,-0.966492474079132,0.5594570636749268
-0.0333535186946392,1.0269333124160769,-0.0497261993587017,-0.6057770848274231,0.0102631971240043,0.0415043160319328,0.0,0.0,-0.8846442699432373,0.6850734949111938
-0.0337790474295616,1.013118028640747,-0.0439688637852668,-0.6140256524085999,0.011654932051897,0.0278349220752716,0.0,0.0,-0.9156708717346193,-0.1900968551635742
-0.0342043861746788,0.9991087317466736,-0.0445422604680061,-0.6226556897163391,0.0136399092152714,0.0396993085741996,0.0,0.0,-0.9197840690612792,0.3510999679565429
-0.0346291549503803,0.9849053025245668,-0.0450850129127502,-0.6312860250473022,0.0162208005785942,0.051617719233036,0.0,0.0,-0.8970460891723633,0.7512732744216919
-0.0349811539053916,0.9705079197883606,-0.036599077284336,-0.6398951411247253,0.0175998266786336,0.0275803059339523,0.0,0.0,-0.8252587914466858,0.406835675239563
-0.0353317260742187,0.955916702747345,-0.0370550267398357,-0.6485254764556885,0.0195792447775602,0.0395882800221443,0.0,0.0,-0.8199488520622253,0.4081840515136719
-0.03568010404706,0.9411315321922302,-0.0374550484120845,-0.6571561098098755,0.0221608821302652,0.0516326911747455,0.0,0.0,-0.7109959721565247,0.5963571071624756
-0.0359816551208496,0.9261467456817628,-0.0322599820792675,-0.666019856929779,0.0242408849298954,0.0415998958051204,0.0,0.0,-0.7052569389343262,0.7173948287963867
-0.0362184531986713,0.9109629988670348,-0.024847362190485,-0.6748519539833069,0.0253909826278686,0.0230022352188825,0.0,0.0,-0.2219897508621215,0.0155553817749023
-0.0364510528743267,0.895585298538208,-0.0250311996787786,-0.6834825873374939,0.0271473322063684,0.035127006471157,0.0,0.0,-0.7025018930435181,0.3993180990219116
-0.0366784110665321,0.8800137639045715,-0.0251273661851882,-0.6921135783195496,0.0295108407735824,0.0472700037062168,0.0,0.0,-0.600321888923645,0.6793415546417236
-0.0368577949702739,0.8642562627792358,-0.0198826547712087,-0.7003750205039978,0.0314279906451702,0.0383430160582065,0.0,0.0,-0.5911905765533447,0.3029675483703613
-0.037030030041933,0.8483049273490906,-0.0197811909019947,-0.7090063095092773,0.0339535400271415,0.050511110574007,0.0,0.0,-0.0352621674537658,0.8297380208969116
-0.0371127128601074,0.8321635723114014,-0.0093738585710525,-0.7174170017242432,0.0350442379713058,0.0218141954392194,0.0,0.0,-0.5122080445289612,0.8497233390808105
-0.0371253006160259,0.8158373236656189,-0.0014332903083413,-0.7256181836128235,0.035214502364397,0.0034053926356136,0.0,0.0,0.0494706630706787,0.4608194828033447
-0.0370677933096885,0.7997440695762634,0.0046386253088712,-0.7152788639068604,0.0363150648772716,0.0220108721405267,0.0,0.0,0.2129530906677246,0.6547222137451172
-0.0369653701782226,0.7843438982963562,0.0098346536979079,-0.6844610571861267,0.0367252863943576,0.0082044247537851,0.0,0.0,-0.2155818343162536,0.0328314304351806
-0.0368494987487793,0.7687498927116394,0.010549915023148,-0.6930924654006958,0.0377442650496959,0.0203796662390232,0.0,0.0,-0.2598693370819092,0.3512905836105346
-0.0367190353572368,0.752962052822113,0.0114064458757638,-0.7017238736152649,0.0393716730177402,0.0325482077896595,0.0,0.0,-0.5873538255691528,0.8503308296203613
-0.0364947319030761,0.7369927763938904,0.022143805399537,-0.7097519636154175,0.0396501682698726,0.0055700661614537,0.0,0.0,-0.1428864002227783,0.803544282913208
-0.0361747741699218,0.7208377718925476,0.0330904237926006,-0.7179791927337646,0.0385706946253776,-0.021589558571577,0.0,0.0,-0.006620168685913,0.4305914640426636
-0.0358355529606342,0.7044886946678162,0.0344024822115898,-0.726610541343689,0.0380979552865028,-0.0094547132030129,0.0,0.0,-0.6613103151321411,0.447888970375061
-0.0354754440486431,0.6879457235336304,0.0358758755028247,-0.7352418899536133,0.0382311828434467,0.0026646524202078,0.0,0.0,-0.1184585690498352,0.5922627449035645
-0.0350418090820312,0.6712068915367126,0.0439040884375572,-0.7439388632774353,0.0376918613910675,-0.0107863908633589,0.0,0.0,-0.3021161556243896,0.8324087858200073
-0.0345293059945106,0.654281497001648,0.0525860972702503,-0.7522051334381104,0.0363758653402328,-0.0263198502361774,0.0,0.0,-0.0388445854187011,0.7219306230545044
-0.033922005444765,0.637164294719696,0.0632046312093734,-0.7607080936431885,0.0339325554668903,-0.0488663129508495,0.0,0.0,-0.6571023464202881,0.0505989789962768
-0.0332870483398437,0.6198530793190002,0.0653614178299903,-0.7693396210670471,0.032091200351715,-0.0368270650506019,0.0,0.0,-0.1661784052848816,-0.269800066947937
-0.0326225273311138,0.602348268032074,0.0676966607570648,-0.7779709100723267,0.0308505836874246,-0.024812126532197,0.0,0.0,0.0310577154159545,0.6684122085571289
-0.0319734588265419,0.5852012038230896,0.0669856369495391,-0.7620503306388855,0.0287957675755023,-0.0410962775349617,0.0,0.0,0.2397488355636596,0.0054579973220825
-0.0312937721610069,0.5688238143920898,0.0693721920251846,-0.7278571724891663,0.0274135842919349,-0.027643721550703,0.0,0.0,-0.2891480922698974,0.5141370296478271
-0.0305328369140625,0.5522482395172119,0.0780649185180664,-0.7366549372673035,0.0254666730761528,-0.0389382466673851,0.0,0.0,-0.0758466720581054,-0.4472426176071167
-0.0297352783381938,0.5354787707328796,0.0811327546834945,-0.7452858686447144,0.0241148900240659,-0.027035653591156,0.0,0.0,0.2860692739486694,0.0907150506973266
-0.0289811138063669,0.5190653204917908,0.076518714427948,-0.7294710278511047,0.0230177585035562,-0.0219424962997436,0.0,0.0,-0.0844773054122924,0.1837140321731567
-0.0281867031008005,0.5024577975273132,0.079958401620388,-0.7381016612052917,0.0225125290453434,-0.0101047176867723,0.0,0.0,0.1442276239395141,-0.6370037198066711
-0.0273862835019826,0.4863030314445495,0.0786433517932891,-0.7180107235908508,0.0238979812711477,0.0277091860771179,0.0,0.0,0.5899038314819336,0.0871341228485107
-0.0266850478947162,0.471168577671051,0.0687023773789405,-0.6726636290550232,0.0252983029931783,0.0280063599348068,0.0,0.0,-0.819132387638092,0.0055079460144042
-0.0259379390627145,0.4558402299880981,0.0726978629827499,-0.6812943816184998,0.0272851046174764,0.0397360660135746,0.0,0.0,-0.1753098964691162,0.4311980009078979
-0.0251431465148925,0.4403180181980133,0.0768765062093734,-0.6899253726005554,0.0298564415425062,0.0514267869293689,0.0,0.0,0.6698582172393799,-0.1201997399330139
-0.0242399219423532,0.4250976741313934,0.0868051424622535,-0.6765326261520386,0.0333282314240932,0.069435678422451,0.0,0.0,-0.2511419057846069,0.4111135005950928
-0.0232854839414358,0.4096837043762207,0.0913447886705398,-0.6851646900177002,0.0373804345726966,0.0810437873005867,0.0,0.0,0.6817928552627563,0.3568350076675415
-0.0223166458308696,0.3952858746051788,0.0922353640198707,-0.6400262117385864,0.0419714264571666,0.0918201059103012,0.0,0.0,-0.5950329899787903,0.2510271072387695
-0.0212930683046579,0.3806944489479065,0.0971264988183975,-0.6486594080924988,0.0471383705735206,0.1033387631177902,0.0,0.0,0.5533941984176636,0.4981186389923095
-0.0203547477722167,0.3670536577701568,0.0885248035192489,-0.606433629989624,0.0523908175528049,0.1050486341118812,0.0,0.0,-0.4405094385147095,0.6166360378265381
-0.0193198211491107,0.3532161116600036,0.0985783264040947,-0.6151824593544006,0.0572520717978477,0.0972251370549202,0.0,0.0,-0.2111731767654419,0.6249295473098755
-0.0181727409362792,0.3391951620578766,0.1105625480413436,-0.6233163475990295,0.0613535232841968,0.0820291116833686,0.0,0.0,0.1328649520874023,0.2078120708465576
-0.0170578956604003,0.3255652487277984,0.1070894747972488,-0.605961799621582,0.065699353814125,0.0869164913892746,0.0,0.0,0.1548480987548828,0.3823142051696777
-0.0159495361149311,0.3124472498893738,0.1060475930571556,-0.58323734998703,0.0704308524727821,0.0946301817893982,0.0,0.0,-0.1811984777450561,0.6403939723968506
-0.0147275924682617,0.2991444170475006,0.1181133165955543,-0.5914345383644104,0.0744716599583625,0.0808159261941909,0.0,0.0,0.0840581655502319,0.3151264190673828
-0.0134112359955906,0.2862257659435272,0.1267232447862625,-0.5744184851646423,0.0793339237570762,0.0972454622387886,0.0,0.0,-0.2385236024856567,0.4920622110366821
-0.0120278354734182,0.2731137573719024,0.1328762918710708,-0.5830535292625427,0.0847496837377548,0.1083150878548622,0.0,0.0,0.587830662727356,0.0220143795013427
-0.0105198863893747,0.2603984475135803,0.1443597078323364,-0.5655040144920349,0.0911278277635574,0.1275629550218582,0.0,0.0,0.5393158197402954,0.2814655303955078
-0.0088541032746434,0.2483037561178207,0.1589539051055908,-0.5380253195762634,0.0986863225698471,0.1511701494455337,0.0,0.0,0.1015901565551757,0.1419315338134765
-0.0070507051423192,0.2364226430654525,0.1717297136783599,-0.52863609790802,0.1072170808911323,0.1706151217222213,0.0,0.0,0.4380825757980346,0.0889080762863159
-0.0052502630278468,0.225323736667633,0.1709374189376831,-0.4939647614955902,0.1162630841135978,0.180920124053955,0.0,0.0,-0.057172954082489,0.5247551202774048
-0.0033336640335619,0.2140439301729202,0.1831354051828384,-0.5020066499710083,0.1247399598360061,0.1695375293493271,0.0,0.0,0.4104688167572021,0.5172317028045654
-0.001259422278963,0.2034505009651184,0.1991379261016845,-0.4715357720851898,0.1329902708530426,0.1650061458349228,0.0,0.0,-0.1679909825325012,-0.0921754837036132
0.0008900642278604,0.1926647275686264,0.2061376273632049,-0.4801766574382782,0.1417642533779144,0.1754799038171768,0.0,0.0,0.2488855123519897,0.3184938430786133
0.0030218125320971,0.1822500377893448,0.2040495425462722,-0.4637695550918579,0.1508726775646209,0.1821684837341308,0.0,0.0,0.4735250473022461,-0.3829298019409179
0.0051894187927246,0.1728015691041946,0.2067886292934417,-0.4209732711315155,0.1608425676822662,0.1993974894285202,0.0,0.0,-0.1943161487579345,-0.2776728868484497
0.0074347495101392,0.163161426782608,0.214063212275505,-0.429617702960968,0.1713183522224426,0.2095153331756591,0.0,0.0,0.4696569442749023,-0.3493908047676086
0.009528636932373,0.1543472558259964,0.1989588737487793,-0.3929764926433563,0.1817810833454132,0.2092547118663787,0.0,0.0,-0.4163239002227783,-0.34589684009552
0.011701488867402,0.145341694355011,0.206384927034378,-0.4016223847866058,0.192735493183136,0.2190879583358764,0.0,0.0,-0.1778637170791626,-0.05314302444458
0.0139539716765284,0.1361447870731353,0.2138771116733551,-0.4102694392204284,0.2041735798120498,0.2287617623805999,0.0,0.0,0.1369401216506958,-0.3630700707435608
0.0161260608583688,0.1274963468313217,0.2056687772274017,-0.3860116004943847,0.2158233970403671,0.2329966127872467,0.0,0.0,-0.0233548283576965,-0.2840948104858398
0.01837844774127,0.118657000362873,0.213273212313652,-0.3946605026721954,0.2279390543699264,0.2423128187656402,0.0,0.0,0.593400239944458,0.0290169715881347
0.0204710010439157,0.1104360669851303,0.1973718106746673,-0.3672578930854797,0.2399899959564209,0.2410186529159546,0.0,0.0,0.3108739852905273,-0.838876485824585
0.0223495475947856,0.1025562360882759,0.1740443259477615,-0.3525325357913971,0.2540512681007385,0.2812256515026092,0.0,0.0,0.2225559949874878,0.285990834236145
0.0242514610290527,0.095287948846817,0.1756355613470077,-0.3256219625473022,0.2689084112644195,0.2971429824829101,0.0,0.0,0.0243364572525024,-0.2889269590377807
0.0262101180851459,0.0881759524345398,0.1808022558689117,-0.3189332187175751,0.284362256526947,0.3090766072273254,0.0,0.0,-0.0229935646057128,0.0576311349868774
0.0282497406005859,0.0808744058012962,0.188569575548172,-0.3275914490222931,0.3002232909202575,0.3172214925289154,0.0,0.0,0.0441462993621826,0.1844288110733032
0.0302114486694335,0.0740799754858017,0.1805289834737777,-0.3052882850170135,0.3164101839065552,0.323738545179367,0.0,0.0,0.3685059547424316,0.4597163200378418
0.0321455970406532,0.068160593509674,0.1769957244396209,-0.2667663991451263,0.3335210680961609,0.342217743396759,0.0,0.0,0.1961522102355957,-0.1954318881034851
0.034074880182743,0.0626742914319038,0.176013246178627,-0.2478451281785965,0.351248025894165,0.354539155960083,0.0,0.0,0.0344241857528686,0.2337801456451416
0.0359038338065147,0.0577170699834823,0.1657903045415878,-0.2246079295873642,0.3692969381809234,0.3609783053398132,0.0,0.0,0.2153913974761963,-0.2222757935523986
0.0376446731388568,0.0534060820937156,0.1565955877304077,-0.1962275803089141,0.3878762423992157,0.3715861737728119,0.0,0.0,-0.3340701460838318,-0.3730401992797851
0.0394643768668174,0.0489066950976848,0.1643187999725341,-0.204893484711647,0.4067594707012176,0.3776647448539734,0.0,0.0,0.1346184015274047,0.4390610456466675
0.041117001324892,0.0447541326284408,0.1478554308414459,-0.1896723806858062,0.4255369007587433,0.3755484521389007,0.0,0.0,-0.1092495918273925,0.2938776016235351
0.0428486838936805,0.041370328515768,0.1711775064468383,-0.1509929001331329,0.4276919364929199,0.0430910177528858,0.0,1.0,0.987988829612732,0.977786660194397
0.0442744269967079,0.0396999940276145,0.157397374510765,-0.0698400661349296,0.4116141498088836,-0.3216254115104675,0.0,1.0,0.9610495567321776,0.1091136932373046
0.0452845580875873,0.0392002426087856,0.129248633980751,-0.0142957335337996,0.3813693821430206,-0.6049100160598755,0.0,1.0,0.891974687576294,-0.3599061965942383
0.0462401397526264,0.0392610393464565,0.1260522603988647,0.010526324622333,0.3491107821464538,-0.6451722979545593,0.0,1.0,0.5946500301361084,-0.636414647102356
0.0470619201660156,0.040064200758934,0.1095067113637924,0.0420677661895751,0.3205257356166839,-0.5717006921768188,0.0,1.0,0.146672248840332,-0.5737420320510864
0.0476792342960834,0.0414730422198772,0.0881761983036995,0.0682279542088508,0.2931366264820099,-0.5477826595306396,0.0,0.0,-0.99999737739563,-0.634677529335022
0.0483314506709575,0.0426716655492782,0.0905127972364425,0.058144100010395,0.2671438157558441,-0.5198569297790527,0.0,0.0,-0.9999960064888,-0.3208012580871582
