x_pos,y_pos,x_vel,y_vel,angle,ang_vel,leg_1,leg_2,main_booster,lat_booster
-0.0015451430808752,1.403132438659668,-0.1562294065952301,-0.3461208045482635,0.0015345480060204,0.030253704637289,0.0,0.0,-0.9467855538353676,-0.9271712880119642
-0.0031781196594238,1.3948712348937988,-0.1662247031927108,-0.3671727776527405,0.0044293026439845,0.0579009540379047,0.0,0.0,0.0946813774652255,0.8744262573884121
-0.0046604154631495,1.3865137100219729,-0.1491406857967376,-0.3714480996131897,0.0053357728756964,0.018130961805582,0.0,0.0,0.1477411294462651,-0.5716924266798016
-0.006300926208496,1.3781816959381104,-0.1656093001365661,-0.3703207075595855,0.006875954568386,0.0308067239820957,0.0,0.0,-0.4763761879932922,0.7177340498262306
-0.0078921318054199,1.3693604469299316,-0.1585901081562042,-0.3920544981956482,0.0063441046513617,-0.0106378775089979,0.0,0.0,0.0944437474215891,0.7059633099227258
-0.0093452455475926,1.360587239265442,-0.1430958062410354,-0.3899101912975311,0.0041622230783104,-0.0436419174075126,0.0,0.0,-0.790191572690955,-0.5148096832109275
-0.0108582498505711,1.3513216972351074,-0.1497620493173599,-0.4117996394634247,0.0026443947572261,-0.0303593873977661,0.0,0.0,-0.0977773455755992,-0.9347717011267644
-0.0124440193176269,1.341566562652588,-0.1580203473567962,-0.4335592985153198,0.0021032651420682,-0.0108237843960523,0.0,0.0,0.9967075461743864,0.7576410612730327
-0.0140046123415231,1.332844853401184,-0.1535164415836334,-0.3876320123672485,-0.0004152548499405,-0.0503751523792743,0.0,0.0,0.5727526410346251,-0.7073879084749528
-0.0156374927610158,1.3246724605560305,-0.161698043346405,-0.3632179200649261,-0.0019905348308384,-0.0315085127949714,0.0,0.0,0.8648818714512219,-0.998683693144462
-0.017254639416933,1.3170151710510254,-0.1618205457925796,-0.3403259515762329,-0.0018867632606998,0.0020756109151989,0.0,0.0,0.1705012529924554,0.6630139248918919
-0.018777560442686,1.3094252347946167,-0.150638610124588,-0.3373261094093323,-0.0035119806416332,-0.0325074046850204,0.0,0.0,-0.1929107799298466,-0.737876754381549
-0.02036027982831,1.3013476133346558,-0.1572578996419906,-0.359016478061676,-0.0045049423351883,-0.0198612250387668,0.0,0.0,-0.7985933935534031,-0.6105761881841874
-0.0219991691410541,1.29277241230011,-0.1634308248758316,-0.3811231851577759,-0.0049602123908698,-0.0091061433777213,0.0,0.0,-0.8055483897429896,-0.5733827293879157
-0.0236857421696186,1.2837111949920654,-0.1685216873884201,-0.402715802192688,-0.0050952592864632,-0.002701171208173,0.0,0.0,0.0560730853998363,-0.7113689600670007
-0.0253596305847167,1.2744346857070925,-0.1681850105524063,-0.4122937619686126,-0.0043136565946042,0.0156335849314928,0.0,0.0,0.249020871414906,-0.9705210557389344
-0.0269974712282419,1.265647053718567,-0.1659900844097137,-0.3905573487281799,-0.002140789059922,0.0434614494442939,0.0,0.0,-0.1706809666642197,0.8304220969168251
-0.028565788641572,1.2563598155975342,-0.1563517153263092,-0.4127631783485412,-0.0026047972496598,-0.0092810001224279,0.0,0.0,0.1508713022418295,-0.7913840889649136
-0.0301279071718454,1.2474268674850464,-0.156786173582077,-0.3970189094543457,-0.002044971100986,0.0111978352069854,0.0,0.0,0.6362097227706422,-0.7513475203190394
-0.0318463332951068,1.2388427257537842,-0.1731122732162475,-0.381522387266159,-0.0007937668124213,0.0250263921916484,0.0,0.0,0.2239090465946602,0.749038345633968
-0.0334077849984169,1.230607032775879,-0.1553838849067688,-0.3660295605659485,-0.0015432451618835,-0.0149909313768148,0.0,0.0,0.744406118107855,0.6462603313423736
-0.0349131599068641,1.222576379776001,-0.1478507816791534,-0.3569291830062866,-0.0041942209936678,-0.053024023771286,0.0,0.0,0.3263056315641892,0.8583534849961298
-0.0362383835017681,1.2147067785263062,-0.1275715082883834,-0.3497736155986786,-0.0090955263003706,-0.0980352908372879,0.0,0.0,0.8997262646203632,-0.7900259235775702
-0.0375433936715126,1.2068748474121094,-0.1266445070505142,-0.34811532497406,-0.0129080256447196,-0.0762566477060318,0.0,0.0,0.5413478908559819,0.8228873146028384
-0.0389309898018837,1.199455738067627,-0.1323224604129791,-0.3298077583312988,-0.0192687790840864,-0.1272263973951339,0.0,0.0,0.1306147492239866,0.8437999742950778
-0.0403656959533691,1.1922526359558103,-0.1345768868923187,-0.3202827870845794,-0.028054129332304,-0.1757068783044815,0.0,0.0,-0.7438899038578575,-0.5090755471172295
-0.0418472290039062,1.1845635175704956,-0.139567494392395,-0.3419245481491089,-0.0365350544452667,-0.1696184426546096,0.0,0.0,-0.5275804998076055,-0.6110172416606139
-0.0433938987553119,1.1763931512832642,-0.1468596011400222,-0.3633398711681366,-0.0442465208470821,-0.1542292833328247,0.0,0.0,0.3905881164087061,0.6791036338671854
-0.0449851974844932,1.1687192916870115,-0.1490238159894943,-0.3413920700550079,-0.0542422086000442,-0.199913740158081,0.0,0.0,0.5596845248081108,-0.7684714820994345
-0.046640109270811,1.1612484455108645,-0.1561531871557235,-0.3324061036109924,-0.0634736493229866,-0.1846290528774261,0.0,0.0,-0.8416957421197724,0.5763266612273876
-0.0482531562447547,1.153289556503296,-0.1500424146652221,-0.3542470335960388,-0.0746197253465652,-0.2229215800762176,0.0,0.0,-0.9841969013214112,0.9653596878051758
-0.0498052611947059,1.144828200340271,-0.141516238451004,-0.3767952919006347,-0.0881811827421188,-0.2712293565273285,0.0,0.0,-0.9688746333122252,0.5402193069458008
-0.0513251312077045,1.1358788013458252,-0.1366144865751266,-0.398731917142868,-0.1034157052636146,-0.3046906590461731,0.0,0.0,-0.9211699962615968,0.0902843475341796
-0.0528493896126747,1.126441478729248,-0.1363249123096466,-0.4206264913082123,-0.1194016560912132,-0.3197194933891296,0.0,0.0,-0.9295989871025084,-0.1858395338058471
-0.0543777458369731,1.1165169477462769,-0.1360097378492355,-0.4425240159034729,-0.1361443549394607,-0.3348540663719177,0.0,0.0,-0.8264085650444031,-0.8113616704940796
-0.0559709556400775,1.106123924255371,-0.1433589160442352,-0.4634498953819275,-0.1520734578371048,-0.3185824155807495,0.0,0.0,-0.7744617462158203,-0.4451261758804321
-0.0575679764151573,1.0952439308166504,-0.1430009305477142,-0.4853493571281433,-0.1687688529491424,-0.3339079320430755,0.0,0.0,-0.8602808713912964,-0.7778925895690918
-0.0592245087027549,1.083897590637207,-0.1496940553188324,-0.50617915391922,-0.1847712844610214,-0.3200490176677704,0.0,0.0,-0.8036152720451355,-0.6873226761817932
-0.0609404556453228,1.072087645530701,-0.156360775232315,-0.5268566012382507,-0.2000741809606552,-0.3060578107833862,0.0,0.0,0.2524312734603882,-0.907739281654358
-0.062613770365715,1.0604830980300903,-0.1532055586576461,-0.517731785774231,-0.2143169939517974,-0.284856379032135,0.0,0.0,-0.9640220403671264,-0.5459334254264832
-0.0643390640616417,1.048411846160889,-0.15896937251091,-0.5385261178016663,-0.2280445098876953,-0.2745499014854431,0.0,0.0,-0.7640674114227295,-0.8071261644363403
-0.0661172866821289,1.035868525505066,-0.1647908389568328,-0.5595434904098511,-0.2412647455930709,-0.2644048929214477,0.0,0.0,-0.868051290512085,-0.7061311602592468
-0.0679452866315841,1.0228471755981443,-0.1702090948820114,-0.5808423161506653,-0.2540835440158844,-0.2563757300376892,0.0,0.0,0.4746623039245605,-0.4726160168647766
-0.0695720687508583,1.0099903345108032,-0.1497546136379242,-0.5737107396125793,-0.2672823071479797,-0.2639755308628082,0.0,0.0,-0.9898472428321838,-0.7853712439537048
-0.0712674111127853,0.9966633915901184,-0.1575367450714111,-0.5945441126823425,-0.279583990573883,-0.2460336238145828,0.0,0.0,-0.9326562881469728,-0.9136576056480408
-0.0730318054556846,0.9828676581382751,-0.1653575152158737,-0.6152991056442261,-0.2909769117832184,-0.227858155965805,0.0,0.0,0.247617483139038,-0.812264621257782
-0.0747144669294357,0.9690702557563782,-0.1581002920866012,-0.6152875423431396,-0.3014741837978363,-0.2099453508853912,0.0,0.0,-0.8933336734771729,-0.9306003451347352
-0.076481819152832,0.9548333883285522,-0.1679907739162445,-0.6345888376235962,-0.3105119466781616,-0.1807555556297302,0.0,0.0,0.1825990676879882,-0.858523428440094
-0.0782476440072059,0.9410027861595154,-0.1687520891427993,-0.6163883209228516,-0.3186456263065338,-0.1626734882593155,0.0,0.0,0.5634716749191284,-0.9013975262641908
-0.0799559578299522,0.9274114966392516,-0.1639821678400039,-0.6055848002433777,-0.3257717192173004,-0.1425218433141708,0.0,0.0,0.6132863759994507,-0.9626102447509766
-0.0814120322465896,0.9140845537185668,-0.1400530189275741,-0.5935648083686829,-0.3315540850162506,-0.1156479865312576,0.0,0.0,-0.4967634677886963,-0.921581506729126
-0.0829461067914962,0.9003140330314636,-0.1490865647792816,-0.6130223870277405,-0.3360680937767029,-0.0902801901102066,0.0,0.0,-0.8224257826805115,-0.9111557006835938
-0.0845413208007812,0.8860794305801392,-0.1558968126773834,-0.6334989070892334,-0.3398654460906982,-0.0759471803903579,0.0,0.0,-0.0651126503944397,-0.933141827583313
-0.0862084403634071,0.8714010715484619,-0.164132222533226,-0.652980387210846,-0.3425567746162414,-0.0538268312811851,0.0,0.0,-0.043918490409851,-0.9237824082374572
-0.0879329666495323,0.8562585711479187,-0.1704754531383514,-0.6734712719917297,-0.344632476568222,-0.0415144190192222,0.0,0.0,0.2223178148269653,-0.947674572467804
-0.0896941199898719,0.8411955237388611,-0.1751927435398101,-0.6696905493736267,-0.3455948829650879,-0.0192483030259609,0.0,0.0,0.5659587383270264,-0.8692324757575989
-0.0911737456917762,0.8267015814781189,-0.1481106281280517,-0.6441367864608765,-0.3454372882843017,0.0031516503077,0.0,0.0,0.0586165189743042,-0.8684452772140503
-0.0924787521362304,0.8123143911361694,-0.1315848678350448,-0.6391738057136536,-0.344299167394638,0.0227621756494045,0.0,0.0,0.6438050270080566,-0.9494408369064332
-0.0935031920671463,0.798599898815155,-0.1047190651297569,-0.6089844107627869,-0.3419061303138733,0.0478605963289737,0.0,0.0,-0.6383823156356812,-0.949500560760498
-0.0946118384599685,0.7844473123550415,-0.1144851893186569,-0.628153383731842,-0.3381167650222778,0.0757874771952629,0.0,0.0,0.1165542602539062,-0.780383825302124
-0.0956667885184288,0.7701649069786072,-0.1098936945199966,-0.6337504982948303,-0.333516389131546,0.0920075699687004,0.0,0.0,-0.3447009325027466,-0.8808043003082275
-0.0968048125505447,0.7554383873939514,-0.1194644719362258,-0.653222382068634,-0.32761150598526,0.1180968284606933,0.0,0.0,-0.310318112373352,-0.9081089496612548
-0.0980053916573524,0.7402487993240356,-0.1263734698295593,-0.6736735105514526,-0.3210351467132568,0.1315272748470306,0.0,0.0,0.100880742073059,-0.7662203907966614
-0.0991255789995193,0.7251736521720886,-0.1190978735685348,-0.668457567691803,-0.313681811094284,0.1470668166875839,0.0,0.0,-0.163173496723175,-0.2267351150512695
-0.100255012512207,0.7096104025840759,-0.1192630678415298,-0.6903511881828308,-0.307126522064209,0.1311060637235641,0.0,0.0,0.3360902070999145,-0.7350427508354187
-0.1014114394783973,0.694319486618042,-0.1225058212876319,-0.6781554818153381,-0.3000255823135376,0.1420187950134277,0.0,0.0,-0.5560567378997803,-0.3876409530639648
-0.1025781631469726,0.6785404086112976,-0.1227720156311988,-0.7000478506088257,-0.2937192320823669,0.1261268556118011,0.0,0.0,0.2088774442672729,-0.6342803835868835
-0.1036788970232009,0.6625654101371765,-0.1167696714401245,-0.7086613178253174,-0.2868217229843139,0.1379501074552536,0.0,0.0,-0.2312369346618652,-0.189488410949707
-0.1047908812761306,0.6461021304130554,-0.117141880095005,-0.730552613735199,-0.2807145118713379,0.1221442073583602,0.0,0.0,0.4898648262023926,-0.6042848229408264
-0.1059313789010047,0.6298208832740784,-0.1202313676476478,-0.7224357724189758,-0.2743725776672363,0.1268388032913208,0.0,0.0,0.6839563846588135,-0.3181470036506653
-0.1069872826337814,0.6140853762626648,-0.1105991378426551,-0.6984246969223022,-0.2692486345767975,0.1024789065122604,0.0,0.0,0.4620542526245117,-0.5407668352127075
-0.1079222708940506,0.5986636281013489,-0.0988796353340148,-0.6844320893287659,-0.2637403309345245,0.1101658716797828,0.0,0.0,0.5668251514434814,-0.7355065941810608
-0.1088462844491005,0.5839959383010864,-0.0982548147439956,-0.6508535146713257,-0.2577610313892364,0.1195858269929885,0.0,0.0,0.6009378433227539,-0.6281827688217163
-0.1096149459481239,0.5696404576301575,-0.0833765938878059,-0.6368914842605591,-0.2511119246482849,0.1329821944236755,0.0,0.0,-0.6373122334480286,-0.6811441779136658
-0.1104538887739181,0.5548120737075806,-0.0910958498716354,-0.6578254103660583,-0.2437849789857864,0.1465393155813217,0.0,0.0,0.2701406478881836,-0.0411484241485595
-0.1111968979239463,0.5398396253585815,-0.0809964686632156,-0.6643482446670532,-0.2369830757379531,0.1360380947589874,0.0,0.0,0.5043735504150391,0.0063508749008178
-0.1119110137224197,0.5248388051986694,-0.0772324353456497,-0.6657776236534119,-0.2310764789581298,0.1181318014860153,0.0,0.0,0.5179588794708252,-0.8511903882026672
-0.1125469207763671,0.5104464292526245,-0.0703652054071426,-0.6386167407035828,-0.2242165058851242,0.1371996998786926,0.0,0.0,0.496680736541748,-0.1268787384033203
-0.1129646301269531,0.4966213703155517,-0.0481369011104106,-0.6134937405586243,-0.2177727967500686,0.1288739740848541,0.0,0.0,0.4012084007263183,0.1726136207580566
-0.1133428588509559,0.4833529591560364,-0.043016392737627,-0.5889513492584229,-0.2125150263309478,0.1051552146673202,0.0,0.0,-0.4011455774307251,-0.1064122319221496
-0.1137388199567794,0.4695948660373688,-0.0440750680863857,-0.6108353734016418,-0.2079965025186538,0.0903704017400741,0.0,0.0,0.7686736583709717,-0.5979223847389221
-0.1139784827828407,0.4565944671630859,-0.029033463448286,-0.5770893692970276,-0.2028847485780716,0.1022350415587425,0.0,0.0,-0.2711055278778076,-0.1191329360008239
-0.1142369285225868,0.4431042969226837,-0.0302059203386306,-0.5989724397659302,-0.1984976679086685,0.0877419263124466,0.0,0.0,0.6530554294586182,-0.728090226650238
-0.1144958510994911,0.4301593899726867,-0.0308780670166015,-0.5746718049049377,-0.1934827268123626,0.1002984270453453,0.0,0.0,0.6293439865112305,0.0119738578796386
-0.1146535873413086,0.4177429676055908,-0.0200028605759143,-0.551293134689331,-0.1892299503087997,0.085056185722351,0.0,0.0,0.3998900651931762,-0.3263139724731445
-0.1146662682294845,0.4055419266223907,-0.0051493886858224,-0.5417793393135071,-0.1853333115577697,0.0779329016804695,0.0,0.0,0.5325161218643188,-0.4924066066741943
-0.1146195381879806,0.3933126926422119,0.0013714210363104,-0.5431119799613953,-0.1820224374532699,0.0662174597382545,0.0,0.0,0.2538377046585083,-0.773622989654541
-0.1145210266113281,0.3810334205627441,0.0055999243631958,-0.5452301502227783,-0.1777530461549759,0.0853874012827873,0.0,0.0,0.7674052715301514,-0.4923007488250732
-0.1141810417175293,0.3691240549087524,0.0296743772923946,-0.5287945866584778,-0.1734196543693542,0.0866679400205612,0.0,0.0,0.5669295787811279,-0.5919800400733948
-0.1137041077017784,0.3572476506233215,0.0424958541989326,-0.5272404551506042,-0.168216586112976,0.1040617823600769,0.0,0.0,0.5534367561340332,-0.733514130115509
-0.1131935119628906,0.3459470272064209,0.0450404807925224,-0.5015814900398254,-0.1621883362531662,0.1205647960305213,0.0,0.0,0.1622723340988159,-0.570814847946167
-0.1126394271850586,0.334955483675003,0.0488055273890495,-0.4878072440624237,-0.1555940359830856,0.1318861991167068,0.0,0.0,-0.1080864071846008,0.0049875974655151
-0.1121082305908203,0.3234736919403076,0.0471187904477119,-0.5096873641014099,-0.1496044397354126,0.1197922974824905,0.0,0.0,0.5498952865600586,-0.0104546546936035
-0.1114609688520431,0.3119344711303711,0.0588704831898212,-0.5122748613357544,-0.1437640786170959,0.1168073788285255,0.0,0.0,0.7832419872283936,-0.0331311225891113
-0.1108144745230674,0.3007328510284424,0.0596233196556568,-0.4973717629909515,-0.1387538015842437,0.1002059206366539,0.0,0.0,0.0535026788711547,-0.2426851987838745
-0.1100620254874229,0.289846658706665,0.0705142989754676,-0.4833983480930328,-0.1340410113334655,0.0942553728818893,0.0,0.0,0.2436761856079101,-0.2119920253753662
-0.109293557703495,0.2791099548339844,0.0727289989590644,-0.4768202006816864,-0.1299345642328262,0.0821288675069809,0.0,0.0,0.2453494071960449,-0.687378466129303
-0.1086287498474121,0.2688114941120147,0.0616302117705345,-0.4572965502738952,-0.1251040697097778,0.0966098383069038,0.0,0.0,0.1295652389526367,-0.7410778403282166
-0.1079187393188476,0.2587341070175171,0.0650693476200103,-0.4473963379859924,-0.119207315146923,0.1179350391030311,0.0,0.0,-0.1583361029624939,-0.4797747135162353
-0.1072329506278038,0.2481659203767776,0.063106432557106,-0.4692724645137787,-0.1137602999806404,0.1089404970407486,0.0,0.0,0.3318650722503662,-0.4602592587471008
-0.1065690070390701,0.2380175143480301,0.0616495683789253,-0.4506842195987701,-0.1090431213378906,0.0943430811166763,0.0,0.0,0.0805754661560058,-0.511667788028717
-0.1059518828988075,0.2278714776039123,0.0563560537993907,-0.4505532085895538,-0.1037304326891899,0.1062538400292396,0.0,0.0,0.1963564157485962,0.344482421875
-0.1053978949785232,0.2178970873355865,0.0508030839264392,-0.4429949522018432,-0.0991681367158889,0.0912457853555679,0.0,0.0,0.3505482673645019,-0.1671407222747802
-0.1049480438232421,0.2080886512994766,0.0412947461009025,-0.4356916546821594,-0.0955012068152427,0.0733387023210525,0.0,0.0,0.2147126197814941,0.1098567247390747
-0.1043941527605056,0.1985663771629333,0.0516175217926502,-0.422972708940506,-0.0917655900120735,0.0747120529413223,0.0,0.0,0.0620229244232177,-0.0969494581222534
-0.1038031578063964,0.1889014840126037,0.0554054081439971,-0.4293284714221954,-0.0881027951836586,0.0732557922601699,0.0,0.0,0.2117351293563842,-0.1128302812576294
-0.1030805557966232,0.1795670390129089,0.0682815089821815,-0.4146359264850616,-0.0841654241085052,0.0787474736571312,0.0,0.0,0.008327841758728,-0.7895843386650085
-0.1024197563529014,0.1704654842615127,0.0606969073414802,-0.404222697019577,-0.0788364335894584,0.1065797805786132,0.0,0.0,-0.3169442415237427,0.4384862184524536
-0.1017822250723838,0.1608723253011703,0.0585115738213062,-0.4260947108268738,-0.0736459344625473,0.1038099750876426,0.0,0.0,0.7715436220169067,0.4630913734436035
-0.1010402664542198,0.1517083197832107,0.0686633586883544,-0.4070276319980621,-0.0681745260953903,0.1094282418489456,0.0,0.0,0.4965941905975342,0.5702776908874512
-0.1002324074506759,0.1431612372398376,0.0764796286821365,-0.3796791732311249,-0.0639095455408096,0.085299827158451,0.0,0.0,0.0708160400390625,-0.7998544573783875
-0.0994314178824424,0.13489530980587,0.0741630047559738,-0.3671317994594574,-0.058042723685503,0.1173364147543907,0.0,0.0,-0.2344503402709961,-0.4940850734710693
-0.098652459681034,0.1261377930641174,0.0719349533319473,-0.3890033066272735,-0.052146803587675,0.1179182305932045,0.0,0.0,0.686261773109436,0.4202132225036621
-0.0979867950081825,0.1178437545895576,0.061110783368349,-0.3684463798999786,-0.0467566363513469,0.1078034043312072,0.0,0.0,0.7130558490753174,0.5348312854766846
-0.0974170714616775,0.1098631471395492,0.0528703220188617,-0.3545704185962677,-0.0427055098116397,0.0810226649045944,0.0,0.0,0.6098682880401611,0.7021324634552002
-0.0968121513724327,0.1022113412618637,0.0577006861567497,-0.340005487203598,-0.039942231029272,0.0552657470107078,0.0,0.0,0.5101892948150635,0.2487629652023315
-0.0961842536926269,0.0947968587279319,0.0596796572208404,-0.3294526934623718,-0.0368714444339275,0.0614159107208251,0.0,0.0,0.6401057243347168,0.1282145977020263
-0.0954334288835525,0.0874183475971221,0.0711213201284408,-0.3278428316116333,-0.0329626500606536,0.0781757459044456,0.0,0.0,0.5221471786499023,0.3636976480484009
-0.094591423869133,0.0804878771305084,0.0795390605926513,-0.3079245388507843,-0.028360616415739,0.0920406803488731,0.0,0.0,0.3809660673141479,0.8013410568237305
-0.0936619788408279,0.0740804076194763,0.0895456671714782,-0.2847155332565307,-0.0250049121677875,0.067114345729351,0.0,0.0,-0.1684367656707763,-0.1948186159133911
