x_pos,y_pos,x_vel,y_vel,angle,ang_vel,leg_1,leg_2,main_booster,lat_booster
-0.0015060424339026,1.403250813484192,-0.1526016294956207,-0.340856671333313,0.0017860273364931,0.0352328456938266,0.0,0.0,-0.042813241481781,0.6673074960708618
-0.0029376982711255,1.3952279090881348,-0.1434886902570724,-0.3565713465213775,0.0021110665984451,0.0065020485781133,0.0,0.0,-0.530979573726654,0.8071894645690918
-0.0042740823701024,1.3868253231048584,-0.1320034861564636,-0.373447984457016,0.0004955792683176,-0.0323127880692482,0.0,0.0,-0.0178089141845703,0.770575761795044
-0.0055439947172999,1.378046631813049,-0.1241234391927719,-0.3901676833629608,-0.0023421230725944,-0.0567594990134239,0.0,0.0,-0.3285076022148132,-0.0167973041534423
-0.0067960740998387,1.368894338607788,-0.1223353147506713,-0.4067743420600891,-0.005186797119677,-0.0568986944854259,0.0,0.0,-0.0967916846275329,0.2042297124862671
-0.0080304145812988,1.3593685626983645,-0.1205416768789291,-0.4233810007572174,-0.0080466596409678,-0.0572026148438453,0.0,0.0,0.720947265625,-0.2841853499412536
-0.0092656137421727,1.3503718376159668,-0.1204957962036132,-0.399874597787857,-0.0110414652153849,-0.0599015541374683,0.0,0.0,-0.2078867554664611,0.4605021476745605
-0.0104830740019679,1.3410013914108276,-0.118690513074398,-0.416488766670227,-0.0140662575140595,-0.0605012588202953,0.0,0.0,-0.214652419090271,-0.2628622651100158
-0.0116827962920069,1.331257462501526,-0.1168803572654724,-0.4330927729606628,-0.017128525301814,-0.0612509362399578,0.0,0.0,-0.3507431745529175,0.1503452062606811
-0.0128648756071925,1.3211400508880615,-0.1150657162070274,-0.449699193239212,-0.0202353149652481,-0.0621415376663208,0.0,0.0,0.495288610458374,0.5693149566650391
-0.0138890268281102,1.3114526271820068,-0.0982984453439712,-0.4306139349937439,-0.0243130009621381,-0.0815609246492385,0.0,0.0,-0.3204042911529541,-0.0352435111999511
-0.014895630069077,1.3013916015625,-0.0964731574058532,-0.4472283124923706,-0.0284483470022678,-0.0827142596244812,0.0,0.0,-0.7475660443305969,0.0775198936462402
-0.0158844944089651,1.29095721244812,-0.0946442633867263,-0.4638336896896362,-0.0326481759548187,-0.0840044021606445,0.0,0.0,0.2236709594726562,-0.1842350959777832
-0.0167959220707416,1.2805414199829102,-0.087084412574768,-0.463020771741867,-0.0366772599518299,-0.0805888026952743,0.0,0.0,-0.8659549355506897,-0.2091022729873657
-0.0176898948848247,1.269752025604248,-0.0852502882480621,-0.4796319603919983,-0.0407830961048603,-0.0821238458156585,0.0,0.0,-0.4428911209106445,-0.591912567615509
-0.0186047554016113,1.25858473777771,-0.0882223546504974,-0.4964171350002289,-0.0440108813345432,-0.064561627805233,0.0,0.0,-0.9107930064201356,-0.9031567573547364
-0.0195568092167377,1.2470579147338867,-0.0932477116584777,-0.5123555064201355,-0.0459420345723629,-0.0386265888810157,0.0,0.0,-0.7840460538864136,-0.4675195217132568
-0.0204913131892681,1.2351577281951904,-0.0914128944277763,-0.528963029384613,-0.0479668974876403,-0.0405007004737854,0.0,0.0,-0.6022394895553589,-0.0734007358551025
-0.0214086528867483,1.222883939743042,-0.0895759239792823,-0.5455706119537354,-0.0500897169113159,-0.0424604564905166,0.0,0.0,0.4026345014572143,-0.6972861886024475
-0.0224152561277151,1.210965871810913,-0.0996739566326141,-0.5297201871871948,-0.0510645918548107,-0.0194993298500776,0.0,0.0,-0.0828737616539001,-0.3019736409187317
-0.0234045982360839,1.198674201965332,-0.0978379994630813,-0.5463329553604126,-0.05214748904109,-0.0216601490974426,0.0,0.0,-0.62398362159729,-0.6469116806983948
-0.0244268421083688,1.1860092878341677,-0.1022948771715164,-0.5628815293312073,-0.0520816855132579,0.0013163180556148,0.0,0.0,0.5246262550354004,0.5479593276977539
-0.0252335555851459,1.1737091541290283,-0.0798461511731147,-0.5466965436935425,-0.0529002696275711,-0.0163729414343833,0.0,0.0,-0.7644698619842529,-0.4334675669670105
-0.0260231010615825,1.1610355377197266,-0.078008159995079,-0.5633099675178528,-0.0538383312523365,-0.018763031810522,0.0,0.0,-0.5940243005752563,-0.8048983812332153
-0.0268740653991699,1.1479969024658203,-0.0860209390521049,-0.5794618129730225,-0.0529200881719589,0.0183666422963142,0.0,0.0,-0.8901078104972839,-0.2209873795509338
-0.0277087204158306,1.134563446044922,-0.0842628628015518,-0.5970215201377869,-0.0521291047334671,0.0158195253461599,0.0,0.0,-0.7517507672309875,0.1033474206924438
-0.0285263061523437,1.1207562685012815,-0.0824271440505981,-0.6136267781257629,-0.0514679811894893,0.0132225286215543,0.0,0.0,-0.6617693305015564,-0.0917093753814697
-0.0293269157409667,1.1065757274627686,-0.0805922299623489,-0.630232036113739,-0.0509395003318786,0.0105698322877287,0.0,0.0,-0.7543627619743347,0.1838210821151733
-0.0301104541867971,1.0920214653015137,-0.0787583887577056,-0.6468372941017151,-0.05054622143507,0.0078657567501068,0.0,0.0,-0.4935535192489624,-0.7662330865859985
-0.0309399608522653,1.0770957469940186,-0.0847990959882736,-0.6633054614067078,-0.0487131923437118,0.0366606190800666,0.0,0.0,-0.1576018333435058,-0.3502883911132812
-0.0317524895071983,1.0617964267730713,-0.0829683616757392,-0.6799108982086182,-0.0470198988914489,0.0338659659028053,0.0,0.0,0.0734175443649292,0.4070427417755127
-0.0325852409005165,1.0465538501739502,-0.0846128389239311,-0.6774044036865234,-0.0457021333277225,0.0263553597033023,0.0,0.0,-0.2886383533477783,-0.5648998022079468
-0.0334518440067768,1.0309466123580933,-0.0891418159008026,-0.6935798525810242,-0.0432489551603794,0.0490636751055717,0.0,0.0,0.2812825441360473,-0.0082006454467773
-0.0343389511108398,1.0153883695602417,-0.0908155888319015,-0.6914196014404297,-0.0411695018410682,0.0415889658033847,0.0,0.0,-0.3708776235580444,0.6624114513397217
-0.0351555831730365,0.9994546175003052,-0.0822416394948959,-0.7081490755081177,-0.0405897200107574,0.0115955062210559,0.0,0.0,-0.1089752316474914,0.0635626316070556
-0.0359554290771484,0.9831473231315612,-0.0804245769977569,-0.7247541546821594,-0.0401575788855552,0.0086429072543978,0.0,0.0,0.4885224103927612,-0.1441037654876709
-0.0367457382380962,0.967082977294922,-0.0792150124907493,-0.7139732837677002,-0.0399834774434566,0.0034820523578673,0.0,0.0,0.4599307775497436,-0.1503159999847412
-0.0374590866267681,0.9516510367393494,-0.071511797606945,-0.6858568787574768,-0.0398032963275909,0.0036035072989761,0.0,0.0,-0.7171847820281982,-0.187612235546112
-0.0381558425724506,0.9358456134796144,-0.0697079747915268,-0.7024620175361633,-0.0397733002901077,0.0006000218563713,0.0,0.0,-0.2481718063354492,0.1277515888214111
-0.0388361923396587,0.9196667075157166,-0.0679095834493637,-0.7190672159194946,-0.0398939773440361,-0.0024136039428412,0.0,0.0,0.2968075275421142,-0.8541353344917297
-0.0396387092769146,0.9040473699569702,-0.0816173702478408,-0.6941630244255066,-0.0385519973933696,0.0268396995961666,0.0,0.0,-0.8189860582351685,-0.4253816604614258
-0.0404250137507915,0.888054370880127,-0.0798316523432731,-0.7107682824134827,-0.0373612083494663,0.0238158255815505,0.0,0.0,-0.1676007509231567,-0.2800235748291015
-0.0411950126290321,0.8716878890991211,-0.0780532583594322,-0.7273734211921692,-0.0363216288387775,0.0207917671650648,0.0,0.0,-0.0274978280067443,0.1359102725982666
-0.0419487953186035,0.8549477458000183,-0.0762829259037971,-0.7439786195755005,-0.0354330837726593,0.017770716920495,0.0,0.0,-0.7313534021377563,-0.1460392475128173
-0.0426865592598915,0.8378344178199768,-0.0745214447379112,-0.760583758354187,-0.0346953049302101,0.0147558031603693,0.0,0.0,0.6952799558639526,-0.1837080717086792
-0.043349266052246,0.8208589553833008,-0.0670886933803558,-0.7544480562210083,-0.0338897332549095,0.0161113776266574,0.0,0.0,0.6158702373504639,-0.5023141503334045
-0.0439574234187603,0.8041611909866333,-0.0626675561070442,-0.7420806884765625,-0.0320602543652057,0.0365898869931697,0.0,0.0,-0.154255986213684,0.190494418144226
-0.0445498451590538,0.787090003490448,-0.0609382204711437,-0.7586859464645386,-0.0303796622902154,0.0336120761930942,0.0,0.0,0.0333883762359619,0.1043109893798828
-0.0451945289969444,0.7703880667686462,-0.0656287744641304,-0.7422813177108765,-0.0292309150099754,0.022974768653512,0.0,0.0,0.4850625991821289,-0.4265205860137939
-0.0458292961120605,0.7539989948272705,-0.0644009560346603,-0.7283841967582703,-0.0283170826733112,0.0182763691991567,0.0,0.0,-0.0816503763198852,-0.1602405309677124
-0.0464486107230186,0.7372364401817322,-0.0627139434218406,-0.744989275932312,-0.027548948302865,0.0153628531843423,0.0,0.0,0.0572856664657592,-0.577286958694458
-0.0471264831721782,0.72081458568573,-0.0695250034332275,-0.7298253774642944,-0.0258372947573661,0.0342332459986209,0.0,0.0,-0.7000973224639893,-0.1799026727676391
-0.0477893836796283,0.7040193676948547,-0.0678733214735984,-0.7464305758476257,-0.0242684334516525,0.031377263367176,0.0,0.0,0.2877030372619629,0.6091034412384033
-0.0483711250126361,0.6877865195274353,-0.058405976742506,-0.7214515805244446,-0.0240465998649597,0.0044366926886141,0.0,0.0,-0.2793421745300293,-0.4181816577911377
-0.0489382743835449,0.671180248260498,-0.0567965097725391,-0.7380564212799072,-0.0239641014486551,0.0016498612239956,0.0,0.0,0.0697948932647705,-0.3422490954399109
-0.0495455749332904,0.654660165309906,-0.0603746362030506,-0.7342321872711182,-0.0243052039295434,-0.0068225585855543,0.0,0.0,-0.5000923871994019,-0.274804949760437
-0.0501384735107421,0.6377665400505066,-0.0588155016303062,-0.7508370876312256,-0.0247816480696201,-0.0095290038734674,0.0,0.0,0.7041535377502441,0.1887348890304565
-0.0505579002201557,0.6215372085571289,-0.0419949069619178,-0.7213018536567688,-0.0247327368706464,0.0009784371359273,0.0,0.0,-0.5797547101974487,-0.3949760198593139
-0.0509636886417865,0.6049343347549438,-0.0404955931007862,-0.7379066944122314,-0.024814561009407,-0.001636522472836,0.0,0.0,0.6763430833816528,0.0831742286682128
-0.0514135360717773,0.5891563892364502,-0.0444127023220062,-0.7012526392936707,-0.0253821667283773,-0.0113519728183746,0.0,0.0,-0.2706378698348999,0.3008610010147095
-0.0518504157662391,0.5730049014091492,-0.0429841428995132,-0.7178574800491333,-0.0260753985494375,-0.0138645498082041,0.0,0.0,0.2363756895065307,-0.1748704314231872
-0.0523359291255474,0.5572698712348938,-0.0473752692341804,-0.6993557810783386,-0.0272386688739061,-0.0232652965933084,0.0,0.0,-0.836687445640564,-0.4416505098342895
-0.0528092384338378,0.541161298751831,-0.0460299029946327,-0.7159607410430908,-0.0285219140350818,-0.0256650187075138,0.0,0.0,0.4428929090499878,0.1327806711196899
-0.0532349571585655,0.5254809260368347,-0.0412419624626636,-0.6969298124313354,-0.0298269353806972,-0.0261006988584995,0.0,0.0,0.6789627075195312,0.3251844644546509
-0.053629208356142,0.5100374817848206,-0.0380202010273933,-0.6864045262336731,-0.0312090441584587,-0.0276422761380672,0.0,0.0,0.9387166500091552,0.2143373489379882
-0.0541360862553119,0.4952671229839325,-0.0484988540410995,-0.6565080285072327,-0.0333737656474113,-0.0432941354811191,0.0,0.0,-0.5675187110900879,0.6290197372436523
-0.0545809753239154,0.4801280200481415,-0.0408813431859016,-0.6729313135147095,-0.0369406640529632,-0.0713378712534904,0.0,0.0,0.5376267433166504,-0.0626590251922607
-0.0549298301339149,0.4650193750858307,-0.031524620950222,-0.6715839505195618,-0.040257878601551,-0.0663446187973022,0.0,0.0,0.6901909112930298,-0.2124514579772949
-0.0552067756652832,0.4508445262908935,-0.0243653357028961,-0.6300846934318542,-0.043547336012125,-0.0657891482114791,0.0,0.0,-0.8959956169128418,-0.2864055633544922
-0.0554754249751567,0.436296284198761,-0.0234277211129665,-0.6466906070709229,-0.0469332449138164,-0.0677183270454406,0.0,0.0,0.2347249984741211,0.3067516088485718
-0.0557810775935649,0.4221377968788147,-0.0267224609851837,-0.629392683506012,-0.0507293194532394,-0.0759215801954269,0.0,0.0,0.7806979417800903,0.1109862327575683
-0.0560125336050987,0.4086082279682159,-0.0193774364888668,-0.6014446020126343,-0.0544608570635318,-0.0746308341622352,0.0,0.0,0.7311750650405884,-0.561907172203064
-0.056378174573183,0.3960524797439575,-0.0334412045776844,-0.5581508874893188,-0.0575430318713188,-0.0616436786949634,0.0,0.0,-0.8304452896118164,-0.6879119873046875
-0.0567861571907997,0.3831273317337036,-0.0388105735182762,-0.574526846408844,-0.0595040172338485,-0.0392197854816913,0.0,0.0,-0.4301905632019043,0.0943118333816528
-0.0571895614266395,0.3698287904262543,-0.0382815077900886,-0.5911322236061096,-0.0615417547523975,-0.0407547056674957,0.0,0.0,0.5725150108337402,-0.1607036590576172
-0.0575057044625282,0.3566139340400696,-0.0297826137393713,-0.5874029994010925,-0.0633527040481567,-0.0362189523875713,0.0,0.0,0.2241283655166626,-0.4109053611755371
-0.0578265190124511,0.3434042930603027,-0.0300733838230371,-0.5871812701225281,-0.0653403848409652,-0.0397537611424922,0.0,0.0,0.9223568439483644,-0.3470839262008667
-0.0580948814749717,0.3312035501003265,-0.0247229821979999,-0.5423489809036255,-0.0674373805522918,-0.0419397726655006,0.0,0.0,0.2443499565124511,-0.4511860013008117
-0.0582608208060264,0.319542795419693,-0.0146980108693242,-0.5183442234992981,-0.0693154633045196,-0.0375617668032646,0.0,0.0,0.2273327112197876,0.3220090866088867
-0.0584679618477821,0.3084257245063782,-0.0183661915361881,-0.4942013025283813,-0.0716349110007286,-0.0463890023529529,0.0,0.0,-0.2476006150245666,-0.0408338904380798
-0.0586760528385639,0.2969352006912231,-0.0184137653559446,-0.510806679725647,-0.0740058273077011,-0.0474185720086097,0.0,0.0,0.4792430400848388,-0.6993328928947449
-0.0588488578796386,0.2861378490924835,-0.0163214951753616,-0.4799301028251648,-0.0749559849500656,-0.0190028417855501,0.0,0.0,-0.173398733139038,-0.0650935769081115
-0.0590245239436626,0.2749669849872589,-0.0165651924908161,-0.4965350329875946,-0.0759491473436355,-0.0198636166751384,0.0,0.0,0.3179936408996582,-0.3744938373565674
-0.0592065826058387,0.2642363011837005,-0.0169567354023456,-0.4769844114780426,-0.0771834999322891,-0.0246870052069425,0.0,0.0,-0.4394950270652771,-0.1725301742553711
-0.0593933090567588,0.25313201546669,-0.0173909403383731,-0.4935893714427948,-0.0784525945782661,-0.0253820028156042,0.0,0.0,0.601163387298584,-0.335538387298584
-0.0594572052359581,0.2424874454736709,-0.0054659652523696,-0.4731406569480896,-0.079361468553543,-0.0181775167584419,0.0,0.0,-0.2479609847068786,-0.6537534594535828
-0.0595772750675678,0.2314687818288803,-0.0123312082141637,-0.489701360464096,-0.0790480077266693,0.0062693832442164,0.0,0.0,-0.0597797632217407,-0.7556754350662231
-0.0597554221749305,0.2200770527124405,-0.0193887166678905,-0.5062172412872314,-0.0774856358766555,0.031247291713953,0.0,0.0,0.4287735223770141,-0.068389892578125
-0.0597764030098915,0.2090355008840561,-0.0042561441659927,-0.4906239509582519,-0.0753536969423294,0.0426388941705226,0.0,0.0,0.6621416807174683,0.1465950012207031
-0.0596364960074424,0.1981981545686721,0.0112005118280649,-0.4815230071544647,-0.0725882351398468,0.0553088672459125,0.0,0.0,0.7774105072021484,-0.0250928997993469
-0.0594534873962402,0.1881970912218094,0.0155492974445223,-0.4443601667881012,-0.0698626339435577,0.0545118972659111,0.0,0.0,-0.6099708676338196,-0.3184062242507934
-0.0592805854976177,0.1778225302696228,0.014543080702424,-0.4609654545783996,-0.0671451538801193,0.0543493740260601,0.0,0.0,0.2544413805007934,-0.0489453077316284
-0.0589900985360145,0.1678229719400406,0.0258633140474557,-0.4442835748195648,-0.0639950186014175,0.0630026385188102,0.0,0.0,0.2306129932403564,-0.4178566336631775
-0.0586205497384071,0.1578068137168884,0.0334299579262733,-0.4450174272060394,-0.0604988671839237,0.0699227377772331,0.0,0.0,0.7284368276596069,-0.32106614112854
-0.0582854263484478,0.148219883441925,0.030229777097702,-0.4259597659111023,-0.0572554357349872,0.0648689195513725,0.0,0.0,0.1139189004898071,-0.3307369947433471
-0.0578723922371864,0.1391256153583526,0.0377435386180877,-0.4040554165840149,-0.0537434220314025,0.0702402591705322,0.0,0.0,0.1496050357818603,-0.7860620617866516
-0.0575318336486816,0.1302575170993805,0.0289338491857051,-0.3939642310142517,-0.0486742593348026,0.1013831049203872,0.0,0.0,0.2223708629608154,-0.0849335193634033
-0.0572678558528423,0.121904619038105,0.0216900147497653,-0.3710945546627044,-0.0440208874642849,0.0930671393871307,0.0,0.0,0.2654052972793579,0.4557859897613525
-0.056927490979433,0.1139750108122825,0.0290044546127319,-0.3522888123989105,-0.0390464961528778,0.0994876623153686,0.0,0.0,-0.2587339878082275,0.5378291606903076
-0.0565623268485069,0.1056736782193183,0.0324491932988166,-0.3688490688800812,-0.0350313633680343,0.080302745103836,0.0,0.0,0.516250491142273,0.2102456092834472
-0.0562634468078613,0.098033033311367,0.0261617749929428,-0.3395002484321594,-0.0313501879572868,0.073623239994049,0.0,0.0,0.2471071481704712,0.2094620466232299
-0.0559863075613975,0.0905834287405014,0.0240545365959405,-0.3310213088989258,-0.0277365613728761,0.0722726583480835,0.0,0.0,0.2222079038619995,0.2337279319763183
-0.0557981505990028,0.0834310874342918,0.0155378906056284,-0.3178261816501617,-0.0245009325444698,0.064712569117546,0.0,0.0,0.1531167030334472,0.947030544281006
-0.0556652061641216,0.0764529779553413,0.011918039061129,-0.3101150095462799,-0.0231412593275308,0.0271934866905212,0.0,0.0,0.2108799219131469,0.444514513015747
-0.0554580688476562,0.0698884353041648,0.0189526882022619,-0.2917307913303375,-0.0213979315012693,0.0348664596676826,0.0,0.0,0.0235496759414672,0.834380030632019
-0.0551511757075786,0.0632823333144187,0.0305736158043146,-0.2936053872108459,-0.0212819203734397,0.0023203797172755,0.0,0.0,0.1798372268676757,0.879855751991272
-0.0546586029231548,0.0571204051375389,0.0508250966668129,-0.2738865613937378,-0.0228304658085107,-0.0309709254652261,0.0,0.0,-0.183290421962738,0.7137418985366821
-0.0541277900338172,0.0505890473723411,0.0560012459754943,-0.2903311848640442,-0.0257159657776355,-0.0577098727226257,0.0,0.0,0.6797984838485718,-0.8235574960708618
-0.0534955970942974,0.0449927411973476,0.0641728639602661,-0.2487402409315109,-0.0266506411135196,-0.0186934396624565,0.0,0.0,-0.4390537738800049,0.1175572872161865
-0.0528799071907997,0.039022859185934,0.0624887868762016,-0.2653448283672333,-0.027555564418435,-0.0180987082421779,0.0,0.0,0.2678587436676025,-0.1496772766113281
-0.0522690787911415,0.0336191020905971,0.0619907453656196,-0.2401844561100006,-0.0284558795392513,-0.0180061180144548,0.0,0.0,-0.2236074805259704,-0.0085178017616271
-0.0516751296818256,0.0278417691588401,0.0602776892483234,-0.2567890286445617,-0.0293256249278783,-0.0173946842551231,0.0,0.0,0.1271554231643676,-0.2966811656951904
-0.0510339736938476,0.0221573449671268,0.0647075623273849,-0.252651959657669,-0.0299103651195764,-0.0116949267685413,0.0,0.0,0.7910394668579102,0.4845482110977173
-0.0505223274230957,0.0171102862805128,0.0523442551493644,-0.2243383675813675,-0.0310778599232435,-0.0233495533466339,0.0,0.0,0.4617664813995361,0.4262665510177612
-0.0501272194087505,0.0123777249827981,0.0411933586001396,-0.2103702276945114,-0.0327402614057064,-0.0332482643425464,0.0,0.0,0.7791304588317871,-0.0178605914115905
-0.0497527122497558,0.0081828571856021,0.03921614959836,-0.1864779442548751,-0.0344799123704433,-0.0347931683063507,0.0,0.0,0.2932932376861572,0.7760646343231201
-0.0492968559265136,0.0042347167618572,0.0488581247627735,-0.1755532473325729,-0.0377065911889076,-0.0645333975553512,0.0,0.0,0.3104243278503418,0.3227353096008301
-0.0486509315669536,0.0010497546754777,0.0481991693377494,-0.1412166804075241,-0.0215411689132452,0.3232790529727936,1.0,0.0,0.7611284255981445,-0.2247943878173828
-0.0477869026362896,-0.0008848333382047,0.0545357465744018,-0.0858310759067535,0.0099504888057708,0.6298626661300659,1.0,0.0,0.3860261440277099,0.9315693378448486
-0.0470758453011512,-0.0016115331090986,0.0623114630579948,-0.0323949493467807,0.0185607448220253,0.1721198856830597,1.0,1.0,-0.2055579423904419,-0.5380557775497437
