x_pos,y_pos,x_vel,y_vel,angle,ang_vel,leg_1,leg_2,main_booster,lat_booster
-0.0015523910988122,1.402997970581055,-0.1575593203306198,-0.3520976603031158,0.0020669272635132,0.0407950803637504,0.0,0.0,0.1281497478485107,0.7877976894378662
-0.0030330657027661,1.394941329956055,-0.1488367915153503,-0.358072817325592,0.0028293135110288,0.0152497692033648,0.0,0.0,-0.3087396621704101,0.5381138324737549
-0.0044931410811841,1.386253833770752,-0.1457166969776153,-0.3861091732978821,0.0025530199054628,-0.0055268658325076,0.0,0.0,0.2976230382919311,0.2245413064956665
-0.0060795783065259,1.377528190612793,-0.1581667959690094,-0.3878114521503448,0.0020821641664952,-0.009417911991477,0.0,0.0,0.1094517707824707,0.9513790607452391
-0.007522297091782,1.3688362836837769,-0.1421515345573425,-0.386309951543808,-1.135550883191172e-05,-0.0418744720518589,0.0,0.0,-0.1438280344009399,0.6773405075073242
-0.0089331623166799,1.3595166206359863,-0.1375511586666107,-0.414203941822052,-0.0035094323102384,-0.0699682161211967,0.0,0.0,-0.2074394226074218,0.338780403137207
-0.0103784557431936,1.349570870399475,-0.1412284523248672,-0.4420493543148041,-0.0067740879021584,-0.0652989968657493,0.0,0.0,0.7188320159912109,0.7975015640258789
-0.0116205215454101,1.3400081396102903,-0.1198978275060653,-0.4250338673591614,-0.0110427550971508,-0.085381232202053,0.0,0.0,0.0155025720596313,0.4173128604888916
-0.0129003524780273,1.3305904865264893,-0.1238518580794334,-0.4185964465141296,-0.0151282073929905,-0.0817165300250053,0.0,0.0,-0.058712899684906,0.7726640701293945
-0.0141560556367039,1.3205500841140747,-0.1201035752892494,-0.4463099837303161,-0.0205315854400396,-0.1080775260925293,0.0,0.0,0.768465518951416,-0.158634603023529
-0.0153436660766601,1.310834884643555,-0.11394864320755,-0.4318637251853943,-0.0252936203032732,-0.0952492803335189,0.0,0.0,-0.2147847414016723,0.391350507736206
-0.0165692325681448,1.3004930019378662,-0.117944061756134,-0.4597202241420746,-0.0298609100282192,-0.0913540944457054,0.0,0.0,0.6551668643951416,0.0524046421051025
-0.017681885510683,1.2905696630477903,-0.1074708104133606,-0.4411157667636871,-0.0336235463619232,-0.0752594023942947,0.0,0.0,-0.9308870434761048,-0.0853990316390991
-0.018833827227354,1.2800196409225464,-0.111566349864006,-0.4689724147319793,-0.0372069850564003,-0.0716752409934997,0.0,0.0,0.003286600112915,-0.0153409838676452
-0.0199210159480571,1.269589066505432,-0.1056857258081436,-0.4636668860912323,-0.0402148142457008,-0.0601619184017181,0.0,0.0,-0.7852457165718079,-0.5001628398895264
-0.0210808757692575,1.258527755737305,-0.1139251813292503,-0.4916729927062988,-0.0422476567327976,-0.0406603701412677,0.0,0.0,0.3236134052276611,0.2697474956512451
-0.0221419334411621,1.2478599548339844,-0.1047314181923866,-0.4741648733615875,-0.043606337159872,-0.0271760784089565,0.0,0.0,-0.828517496585846,-0.6305233240127563
-0.0232820510864257,1.2365622520446775,-0.1137513890862464,-0.5021197199821472,-0.0438617020845413,-0.005107638426125,0.0,0.0,0.2460639476776123,-0.4989851713180542
-0.024363612756133,1.2255406379699707,-0.1083855032920837,-0.4898430407047272,-0.0436341427266597,0.0045513790100812,0.0,0.0,-0.9133630394935608,-0.7814302444458008
-0.0255565643310546,1.21389639377594,-0.1214417070150375,-0.5174587965011597,-0.0415137745440006,0.0424111895263195,0.0,0.0,0.0642900466918945,0.4158387184143066
-0.0266890525817871,1.2023465633392334,-0.1159036308526992,-0.513256847858429,-0.038885835558176,0.0525635369122028,0.0,0.0,-0.2495275735855102,0.7155129909515381
-0.0278058052062988,1.1901626586914062,-0.1129906997084617,-0.5414774417877197,-0.0375910475850105,0.0258979853242635,0.0,0.0,-0.6043501496315002,-0.1740817427635193
-0.0289645195007324,1.177351951599121,-0.1172918304800987,-0.5693220496177673,-0.0361854173243045,0.0281151626259088,0.0,0.0,-0.3357530832290649,0.6526808738708496
-0.0301077850162982,1.1639044284820557,-0.1143830418586731,-0.5976660847663879,-0.0361265614628791,0.0011770592536777,0.0,0.0,0.0961232185363769,0.3768904209136963
-0.0313715934753418,1.1504755020141602,-0.1260981857776641,-0.5968493819236755,-0.0364080481231212,-0.005630062893033,0.0,0.0,-0.699951708316803,-0.4039641618728637
-0.0326776504516601,1.136398434638977,-0.1304151117801666,-0.625652551651001,-0.0366004928946495,-0.0038492102175951,0.0,0.0,-0.6975852251052856,0.5655292272567749
-0.0339802727103233,1.1216959953308103,-0.1290027946233749,-0.6534789204597473,-0.0378426946699619,-0.024844067171216,0.0,0.0,-0.4679130315780639,0.2510870695114136
-0.0353242866694927,1.1063668727874756,-0.1332184374332428,-0.6813243627548218,-0.039009902626276,-0.0233440492302179,0.0,0.0,0.1700011491775512,0.5236061811447144
-0.0367477424442768,1.0912412405014038,-0.139979749917984,-0.6723126173019409,-0.0413517281413078,-0.0468364432454109,0.0,0.0,-0.3311505317687988,-0.6949832439422607
-0.03826904296875,1.07548987865448,-0.1512635797262191,-0.700078010559082,-0.0422014407813549,-0.0169943068176507,0.0,0.0,-0.9003352522850037,0.5232820510864258
-0.0397878661751747,1.0591154098510742,-0.1499891430139541,-0.7278121113777161,-0.0440683662891387,-0.0373385027050972,0.0,0.0,0.2746345996856689,-0.7075364589691162
-0.0414549820125103,1.042624831199646,-0.1661933660507202,-0.7329220175743103,-0.0445749461650848,-0.0101318042725324,0.0,0.0,-0.6827694177627563,-0.2350804805755615
-0.043161392211914,1.025507926940918,-0.1701763272285461,-0.7607675790786743,-0.045038316398859,-0.0092673525214195,0.0,0.0,0.3726255893707275,-0.8871907591819763
-0.0450238212943077,1.008214235305786,-0.1875422894954681,-0.7685703635215759,-0.0437585785984993,0.0255951378494501,0.0,0.0,-0.5934059023857117,0.7566542625427246
-0.0468629822134971,0.9902914762496948,-0.1836733967065811,-0.7965709567070007,-0.0439926423132419,-0.0046816831454634,0.0,0.0,0.9372109174728394,-0.7787649631500244
-0.048738669604063,0.9730796813964844,-0.1889802515506744,-0.7649310827255249,-0.0425979755818843,0.0278935581445693,0.0,0.0,-0.2585992813110351,-0.034054160118103
-0.0506508834660053,0.9552413821220398,-0.1926594972610473,-0.792776882648468,-0.0411815904080867,0.0283277034759521,0.0,0.0,0.6351168155670166,-0.3794566392898559
-0.0525301918387413,0.9379032850265504,-0.1895536482334137,-0.7705399394035339,-0.0395740717649459,0.0321503467857837,0.0,0.0,0.4847075939178467,-0.5305196642875671
-0.0544940941035747,0.92108416557312,-0.1990007758140564,-0.7474458813667297,-0.0369927249848842,0.0516268126666545,0.0,0.0,-0.7030764222145081,0.0460776090621948
-0.0564916618168354,0.9036387801170348,-0.2023784220218658,-0.7752920985221863,-0.0344033651053905,0.051787506788969,0.0,0.0,-0.6192311644554138,0.4160490036010742
-0.058521844446659,0.8855667114257812,-0.205640822649002,-0.8031383156776428,-0.0318100340664386,0.0518667511641979,0.0,0.0,-0.6567411422729492,0.6479344367980957
-0.0605216026306152,0.8668639063835144,-0.2010349482297897,-0.8312139511108398,-0.0307696908712387,0.0208070315420627,0.0,0.0,0.2411719560623169,0.5162265300750732
-0.0624240860342979,0.8478764891624451,-0.1904263943433761,-0.8438785076141357,-0.0305882692337036,0.0036283736117184,0.0,0.0,0.9471020698547364,0.2567018270492553
-0.0642192810773849,0.829191267490387,-0.1802422702312469,-0.8304376006126404,-0.0298724081367254,0.0143171157687902,0.0,0.0,-0.1405838727951049,0.4482090473175049
-0.066041849553585,0.8098796606063843,-0.1829674988985061,-0.858283281326294,-0.0291664376854896,0.014119160361588,0.0,0.0,0.9888668060302734,0.9859395027160645
-0.0677393898367881,0.7905285358428955,-0.1685824692249298,-0.8600770831108093,-0.0303291343152523,-0.0232541672885417,0.0,0.0,0.9797859191894532,0.2842181921005249
-0.0693719834089279,0.7713502645492554,-0.162402331829071,-0.8523790836334229,-0.031169107183814,-0.0167992636561393,0.0,0.0,0.8884704113006592,0.9374876022338868
-0.0710652321577072,0.7529879212379456,-0.166320115327835,-0.8161747455596924,-0.034136839210987,-0.0593546740710735,0.0,0.0,0.3508243560791015,0.6843521595001221
-0.0728233307600021,0.7349745035171509,-0.1712063997983932,-0.8007028698921204,-0.0386870130896568,-0.0910033881664276,0.0,0.0,0.8149341344833374,0.6605072021484375
-0.0745516791939735,0.7171692252159119,-0.1668175756931305,-0.7915183901786804,-0.0446346402168273,-0.1189523190259933,0.0,0.0,0.7812808752059937,-0.0735090374946594
-0.0761151313781738,0.6996498703956604,-0.1510280072689056,-0.7788007259368896,-0.0498903319239616,-0.1051138043403625,0.0,0.0,0.8895337581634521,-0.1846435666084289
-0.077717401087284,0.6827716827392578,-0.1545781195163726,-0.7503398060798645,-0.0554755665361881,-0.1117048412561416,0.0,0.0,0.3540209531784057,-0.4129757285118103
-0.079223059117794,0.6658056974411011,-0.1453083902597427,-0.7542510628700256,-0.0606724210083484,-0.1039371341466903,0.0,0.0,0.7350468635559082,-0.1675346493721008
-0.0806854218244552,0.649467408657074,-0.1409701853990554,-0.7263669371604919,-0.0658808052539825,-0.1041676253080368,0.0,0.0,0.5479059219360352,-0.0685461163520813
-0.0819870978593826,0.633172869682312,-0.1255257129669189,-0.7244109511375427,-0.0704711377620697,-0.0918066874146461,0.0,0.0,-0.22139573097229,-0.7184610366821289
-0.0833610519766807,0.6162559390068054,-0.1343993842601776,-0.7520123720169067,-0.0734329894185066,-0.0592370331287384,0.0,0.0,0.9381563663482666,0.1781232357025146
-0.0845603942871093,0.6000989079475403,-0.1174308881163597,-0.7182100415229797,-0.0759131908416748,-0.0496040284633636,0.0,0.0,0.0037906169891357,0.5237698554992676
-0.085595890879631,0.5839153528213501,-0.10010527074337,-0.7194499373435974,-0.0793156698346138,-0.0680498108267784,0.0,0.0,0.8288166522979736,-0.7796828150749207
-0.0865291580557823,0.568472683429718,-0.0916317626833915,-0.6864314675331116,-0.0810014605522155,-0.0337154939770698,0.0,0.0,0.6298911571502686,-0.3548614978790283
-0.0874712914228439,0.5535717010498047,-0.0921351164579391,-0.6623801589012146,-0.0830627456307411,-0.0412257984280586,0.0,0.0,-0.4834809303283691,0.0235592126846313
-0.0884077101945877,0.538044273853302,-0.091519609093666,-0.6902263760566711,-0.0851512998342514,-0.0417708940804004,0.0,0.0,0.8859230279922485,-0.0624581575393676
-0.0893813148140907,0.5231017470359802,-0.0947026163339614,-0.6642684936523438,-0.0877958163619041,-0.0528902895748615,0.0,0.0,0.5481665134429932,0.1990754604339599
-0.0901861190795898,0.5082416534423828,-0.0783241838216781,-0.6605757474899292,-0.0899302884936332,-0.0426895096898078,0.0,0.0,-0.1393334865570068,0.1080210208892822
-0.0909771919250488,0.4927551448345184,-0.0769198611378669,-0.6884219646453857,-0.0920887812972068,-0.0431699827313423,0.0,0.0,0.7963869571685791,-0.0337600708007812
-0.0917030349373817,0.4772920310497284,-0.0704308822751045,-0.687384307384491,-0.0942305102944374,-0.0428345426917076,0.0,0.0,0.9464603662490844,-0.6520096063613892
-0.0925512313842773,0.4622720181941986,-0.083542987704277,-0.6676379442214966,-0.0955009311437606,-0.0254085250198841,0.0,0.0,0.8658716678619385,-0.1524078249931335
-0.0932612419128418,0.4480651617050171,-0.0698110982775688,-0.6314898729324341,-0.0966781377792358,-0.0235440172255039,0.0,0.0,0.8395428657531738,-0.3421629071235657
-0.093824103474617,0.4337047040462494,-0.0555140152573585,-0.6382898688316345,-0.097449317574501,-0.0154237551614642,0.0,0.0,0.6481369733810425,0.5724782943725586
-0.094202421605587,0.4199849367141723,-0.0359610058367252,-0.6098897457122803,-0.0993003994226455,-0.0370219238102436,0.0,0.0,0.387264609336853,-0.4776940941810608
-0.0945899039506912,0.4062438011169433,-0.0364942699670791,-0.6108707785606384,-0.1015289351344108,-0.0445707701146602,0.0,0.0,0.4837629795074463,-0.9281740188598632
-0.0950488075613975,0.3928128182888031,-0.045404277741909,-0.5969647765159607,-0.1020138934254646,-0.0096990959718823,0.0,0.0,0.8628491163253784,0.0317384004592895
-0.095366284251213,0.3797971606254577,-0.0314177572727203,-0.5784963965415955,-0.1023447141051292,-0.0066162208095192,0.0,0.0,0.5887424945831299,-0.3781300783157348
-0.0956859588623046,0.3673858344554901,-0.0310545414686203,-0.5516794919967651,-0.1032517924904823,-0.0181417390704154,0.0,0.0,0.7539057731628418,-0.0080790519714355
-0.0958241447806358,0.3552505075931549,-0.0132738752290606,-0.5393842458724976,-0.1037979871034622,-0.0109237134456634,0.0,0.0,0.6801164150238037,-0.4557979106903076
-0.0959121733903884,0.343087375164032,-0.0080864001065492,-0.5406326651573181,-0.1044992581009864,-0.0140256378799676,0.0,0.0,0.894341230392456,-0.3800541758537292
-0.0958379730582237,0.3308415412902832,0.0077558397315442,-0.5442826151847839,-0.1048327535390853,-0.0066701127216219,0.0,0.0,0.7315027713775635,-0.6925582885742188
-0.0957692116498947,0.3185071945190429,0.0058963834308087,-0.5481230616569519,-0.1038576290011406,0.0195026602596044,0.0,0.0,0.8506565093994141,0.0878633260726928
-0.0955671295523643,0.3068733215332031,0.0192585326731205,-0.5169926285743713,-0.1029111668467521,0.0189291648566722,0.0,0.0,0.454923152923584,-0.6348671913146973
-0.0952110290527343,0.2956870794296264,0.0331940427422523,-0.4970042109489441,-0.1005199626088142,0.0478240251541137,0.0,0.0,0.1121929883956909,-0.4632190465927124
-0.0948198288679122,0.2847068309783935,0.0370385944843292,-0.4878725707530975,-0.0984553694725036,0.0412920787930488,0.0,0.0,-0.1551795601844787,-0.3816494941711426
-0.0943714156746864,0.2731001079082489,0.0427377894520759,-0.5157182812690735,-0.0963636264204979,0.0418348014354705,0.0,0.0,0.5578124523162842,-0.7304429411888123
-0.0938072204589843,0.2619886100292206,0.0527320690453052,-0.4936136901378631,-0.0927037894725799,0.0731965899467468,0.0,0.0,0.4312962293624878,0.0197153091430664
-0.0932228118181228,0.2510074377059936,0.055122684687376,-0.4878478348255157,-0.0894141793251037,0.0657920986413955,0.0,0.0,0.5782932043075562,-0.5651805400848389
-0.0926177948713302,0.2403832226991653,0.0561469905078411,-0.4719316363334656,-0.0850970149040222,0.086343415081501,0.0,0.0,-0.0418066382408142,-0.0559546947479248
-0.0919474586844444,0.2291326820850372,0.0626266449689865,-0.4997784495353699,-0.0807348936796188,0.0872425958514213,0.0,0.0,0.4060335159301758,0.3105430603027344
-0.0910961180925369,0.2179872095584869,0.0803272277116775,-0.4951041042804718,-0.0759799480438232,0.0950987488031387,0.0,0.0,0.8900343179702759,-0.4778867959976196
-0.0901193618774414,0.2067980319261551,0.0927018076181411,-0.4970511794090271,-0.0710453614592552,0.0986915379762649,0.0,0.0,0.7860994338989258,-0.6714447140693665
-0.0889862030744552,0.1956233084201812,0.1066633909940719,-0.496355801820755,-0.0644582957029342,0.1317413747310638,0.0,0.0,0.8269932270050049,-0.7419677972793579
-0.0876220688223838,0.1847563534975052,0.1277890056371688,-0.4826289713382721,-0.0559390299022197,0.1703852862119674,0.0,0.0,0.7435961961746216,-0.490873634815216
-0.0860142707824707,0.1738748848438263,0.1514006555080413,-0.4832981526851654,-0.0466710142791271,0.1853604614734649,0.0,0.0,0.6756532192230225,-0.5857646465301514
-0.0843482017517089,0.1635176241397857,0.1559799313545227,-0.4600198566913605,-0.0361796431243419,0.209827572107315,0.0,0.0,0.5309233665466309,-0.7860432863235474
-0.0826107040047645,0.1535969525575637,0.1614228934049606,-0.4406677782535553,-0.0239941887557506,0.2437091171741485,0.0,0.0,0.7028231620788574,-0.8035303354263306
-0.080700971186161,0.1440832018852234,0.1766599118709564,-0.4226637780666351,-0.0098651368170976,0.2825810313224792,0.0,0.0,0.5226143598556519,-0.7839371562004089
-0.0786682143807411,0.1343883424997329,0.1871244013309478,-0.4308528900146484,0.0060779601335525,0.3188616335391998,0.0,0.0,0.876537561416626,-0.0821579694747924
-0.076618768274784,0.1249374449253082,0.1889906525611877,-0.4201832115650177,0.0218359306454658,0.3151594698429107,0.0,0.0,0.8409383296966553,0.2101794481277465
-0.0744148269295692,0.1163082420825958,0.2038911581039428,-0.3838421702384949,0.0381255559623241,0.3257925510406494,0.0,0.0,0.8306142091751099,-0.1375213861465454
-0.072178840637207,0.1079998314380645,0.2071374207735061,-0.3697621524333954,0.0543954819440841,0.3253985941410064,0.0,0.0,0.7941148281097412,-0.3771451711654663
-0.0700417533516883,0.1003511771559715,0.1977843195199966,-0.3405909240245819,0.0701444074511528,0.3149783313274383,0.0,0.0,0.6449730396270752,-0.0031976103782653
-0.0677830725908279,0.0931283086538314,0.2094460725784301,-0.3218642771244049,0.086402527987957,0.3251626193523407,0.0,0.0,0.6373413801193237,0.588910698890686
-0.0655146613717079,0.0863963216543197,0.2116496860980987,-0.3001429736614227,0.1014572232961654,0.301094114780426,0.0,0.0,0.4538331031799316,0.0822761058807373
-0.0632998496294021,0.0800131633877754,0.206523448228836,-0.2847748696804046,0.1162916868925094,0.296689510345459,0.0,0.0,-0.0721104741096496,0.4266772270202636
-0.0609990134835243,0.07300665974617,0.2150441110134124,-0.3126400411128998,0.1312466263771057,0.2990991473197937,0.0,0.0,0.6728379726409912,0.2409620285034179
-0.0588081367313861,0.0662590116262435,0.204503059387207,-0.301241010427475,0.1457793414592743,0.2906548976898193,0.0,0.0,0.7675058841705322,0.148959994316101
-0.056770421564579,0.0596843101084232,0.1898351460695266,-0.2936326265335083,0.1596952527761459,0.2783183455467224,0.0,0.0,0.75837242603302,0.1906068325042724
-0.0546549782156944,0.0536454766988754,0.1969943195581436,-0.2700171172618866,0.1742639541625976,0.2913743257522583,0.0,0.0,0.7578108310699463,-0.0298015475273132
-0.0524545684456825,0.0475802533328533,0.2050814181566238,-0.2713876068592071,0.1892692744731903,0.3001062273979187,0.0,0.0,0.8189295530319214,-0.1956281661987304
-0.0501663200557231,0.0421745628118515,0.2130477726459503,-0.242348164319992,0.2051510959863662,0.3176368772983551,0.0,0.0,0.347724437713623,-0.3487337231636047
-0.0479356758296489,0.0370699279010295,0.2072774469852447,-0.2291405797004699,0.2210874110460281,0.3187266290187835,0.0,0.0,0.2054550647735595,-0.2345690727233886
-0.0456502921879291,0.0322893001139164,0.2121983766555786,-0.2150053232908249,0.2376490086317062,0.3312318623065948,0.0,0.0,-0.0379921793937683,-0.1717109680175781
-0.0432746894657611,0.0268861874938011,0.2211494445800781,-0.2428762316703796,0.2543570399284363,0.3341603577136993,0.0,0.0,0.4604001045227051,-0.1584324836730957
-0.0410196296870708,0.0228620152920484,0.2266909182071685,-0.1786716431379318,0.2531218528747558,-0.0247552897781133,0.0,1.0,0.9913502931594848,0.5229009389877319
-0.0390471443533897,0.0203793626278638,0.2176165878772735,-0.1071521714329719,0.231977641582489,-0.4234887063503265,0.0,1.0,0.4669090509414673,-0.8488955497741699
-0.0373581871390342,0.0183368772268295,0.2037449330091476,-0.0857014432549476,0.1966896951198578,-0.7058488130569458,0.0,1.0,0.5915466547012329,-0.9533743858337402
-0.0360767357051372,0.0167045928537845,0.1683307439088821,-0.0677338615059852,0.1563052088022232,-0.8077910542488098,0.0,1.0,0.3105659484863281,-0.8513572812080383
-0.0350247398018837,0.0150070050731301,0.1431876271963119,-0.0719140768051147,0.1183991208672523,-0.7581812143325806,0.0,1.0,0.1121593713760376,-0.9522811770439148
-0.034095000475645,0.0132293794304132,0.1284037232398986,-0.0765744298696518,0.0832380875945091,-0.7032212018966675,0.0,0.0,-0.7704766392707825,-0.9715665578842164
-0.0331477150321006,0.0108298398554325,0.128243863582611,-0.1051161289215087,0.0500820577144622,-0.6631210446357727,0.0,0.0,0.026538610458374,-0.9893997311592102
-0.0320998206734657,0.0081447698175907,0.136251300573349,-0.1185779571533203,0.0189978498965501,-0.6216846704483032,0.0,0.0,0.8302545547485352,-0.9559139013290404
-0.0309296604245901,0.0059865927323699,0.1462239623069763,-0.0957962200045585,-0.00984054710716,-0.5767679810523987,0.0,0.0,0.4458968639373779,-0.9785251021385192
-0.0297122001647949,0.0042812800966203,0.1488073170185089,-0.0761866047978401,-0.036557525396347,-0.5343393087387085,0.0,0.0,0.7002183198928833,-0.9751911163330078
