x_pos,y_pos,x_vel,y_vel,angle,ang_vel,leg_1,leg_2,main_booster,lat_booster
-0.0015759468078613,1.40309739112854,-0.1595383882522583,-0.3476792573928833,0.0017391035798937,0.0343036912381649,0.0,0.0,-0.3261757401579512,-0.5043399632348187
-0.0032390593551099,1.3947681188583374,-0.1688669025897979,-0.3701949715614319,0.0042708949185907,0.0506413765251636,0.0,0.0,-0.3496428373977351,-0.7613613490266984
-0.004997634794563,1.385905385017395,-0.1795099377632141,-0.3939103484153747,0.0078928042203187,0.0724447816610336,0.0,0.0,0.8882826960706904,0.6023867438884087
-0.0069055557250976,1.3773691654205322,-0.1927447021007537,-0.3794048130512237,0.0098159769549965,0.0384670458734035,0.0,0.0,-0.7972043965361242,-0.8949075890757985
-0.0089138029143214,1.3683075904846191,-0.2040783166885376,-0.4027619361877441,0.0130374133586883,0.0644346103072166,0.0,0.0,0.7773160528072693,-0.8920337842444875
-0.0108791347593069,1.3595958948135376,-0.2017783373594284,-0.3872348070144653,0.0182253420352935,0.1037681326270103,0.0,0.0,0.4934796810478903,0.951782197223496
-0.0128433229401707,1.3511415719985962,-0.1996161639690399,-0.3757904767990112,0.0213915817439556,0.0633306801319122,0.0,0.0,0.7338580924030416,-0.6613194388095347
-0.0147433280944824,1.343183994293213,-0.1948367953300476,-0.3537401854991913,0.0261756926774978,0.0956908389925956,0.0,0.0,0.6489245051237165,-0.9329435260455348
-0.0167893413454294,1.3359588384628296,-0.2111622095108032,-0.3212485313415527,0.0326619520783424,0.1297370344400406,0.0,0.0,0.0044597712714942,0.5018721432321424
-0.0188460350036621,1.328873872756958,-0.2110859155654907,-0.3150140941143036,0.0380221158266067,0.1072128862142562,0.0,0.0,-0.6752585318901534,-0.7179682533889011
-0.0209842678159475,1.3212599754333496,-0.220340609550476,-0.3385769426822662,0.0444665104150772,0.1288998425006866,0.0,0.0,-0.043923792243647,-0.8342412922807086
-0.0232116691768169,1.3131139278411863,-0.2305887937545776,-0.3622984588146209,0.0522278323769569,0.1552405506372451,0.0,0.0,0.4533661568960176,0.9300427235844771
-0.0252973549067974,1.3053836822509766,-0.2145287245512008,-0.3437854647636413,0.0581362694501876,0.1181797385215759,0.0,0.0,-0.1005491736770798,0.9354815260849132
-0.0273279193788766,1.2971248626708984,-0.2067796736955642,-0.3672117292881012,0.0618225187063217,0.073731742799282,0.0,0.0,0.5534886501740575,-0.6955060748132542
-0.029341697692871,1.2895151376724243,-0.2066347897052765,-0.3384358286857605,0.067029133439064,0.1041417270898819,0.0,0.0,-0.7647923358478255,-0.961779964881746
-0.0314406380057334,1.2813608646392822,-0.2165583372116089,-0.3627249300479889,0.0736325830221176,0.1320808678865432,0.0,0.0,-0.0257494756660172,-0.8809916169031196
-0.0336155891418457,1.2726843357086182,-0.2253409326076507,-0.3860279321670532,0.0814100503921508,0.1555633842945099,0.0,0.0,-0.3881892298118021,-0.7625441732092257
-0.0358563438057899,1.263469099998474,-0.2328982800245285,-0.410061776638031,0.0901676565408706,0.1751681417226791,0.0,0.0,-0.2496827497586997,0.9510746108822185
-0.038029383867979,1.2537481784820557,-0.223721295595169,-0.4324427843093872,0.0965397357940673,0.1274528950452804,0.0,0.0,0.8454607443131334,0.6221332227726574
-0.0403274521231651,1.2444370985031128,-0.2345290631055832,-0.4141453504562378,0.1012292057275772,0.0937977731227874,0.0,0.0,0.9254671005388556,-0.5235159753647018
-0.0426139831542968,1.235927700996399,-0.2347009479999542,-0.3786147534847259,0.1072383821010589,0.1201943978667259,0.0,0.0,0.1861912167988366,0.5540786920571112
-0.0448951721191406,1.2273703813552856,-0.2328725755214691,-0.380677580833435,0.1119609773159027,0.0944605469703674,0.0,0.0,0.3389638721527372,0.8973761581534716
-0.0470474250614643,1.2189743518829346,-0.2180780470371246,-0.3733744621276855,0.1147949546575546,0.0566845946013927,0.0,0.0,-0.8934350512533324,0.8568841154662079
-0.0491344444453716,1.2100543975830078,-0.2094259560108184,-0.3965023458003998,0.1155170947313308,0.0144439581781625,0.0,0.0,0.9997427622187268,0.8328327862936138
-0.0514412894845008,1.201748967170715,-0.2291218787431717,-0.3690112829208374,0.1139595732092857,-0.031153168529272,0.0,0.0,0.4170019188427647,0.8793587852163476
-0.0538951866328716,1.193786859512329,-0.2416766136884689,-0.3535881340503692,0.1102759465575218,-0.073672741651535,0.0,0.0,-0.9273601809814778,0.5239034786966281
-0.056314468383789,1.1853077411651611,-0.236927717924118,-0.3764857053756714,0.1053191572427749,-0.0991361290216445,0.0,0.0,-0.036266866979445,0.8393979973325081
-0.058687973767519,1.1763187646865845,-0.2308054715394973,-0.3990701138973236,0.0988246202468872,-0.1298907697200775,0.0,0.0,-0.0867134648760106,0.9627900753704248
-0.0610069260001182,1.1668195724487305,-0.2235959023237228,-0.4216544032096863,0.0905968695878982,-0.1645554006099701,0.0,0.0,0.1566549973534476,0.7979212742135259
-0.0633137673139572,1.157307505607605,-0.2205267250537872,-0.4221781194210052,0.0805376172065734,-0.2011852711439132,0.0,0.0,0.8582458672255278,-0.5984168674380869
-0.065724566578865,1.1486966609954834,-0.2319390475749969,-0.3822361826896667,0.0714962631464004,-0.1808274835348129,0.0,0.0,-0.7964935302734375,0.8279435634613037
-0.068079374730587,1.1395612955093384,-0.2246593683958053,-0.4055418372154236,0.0607857182621955,-0.2142110764980316,0.0,0.0,-0.7957843542098999,0.7921398878097534
-0.0703809708356857,1.1299128532409668,-0.2177106142044067,-0.428372323513031,0.0484761260449886,-0.2461916953325271,0.0,0.0,-0.8888351321220398,0.6278092861175537
-0.0726377516984939,1.1197365522384644,-0.2118405550718307,-0.4518842101097107,0.0348120257258415,-0.2732822000980377,0.0,0.0,-0.764596700668335,0.91285502910614
-0.0748192816972732,1.1090418100357056,-0.202184110879898,-0.4750256538391113,0.0190427899360656,-0.3153849244117737,0.0,0.0,-0.9070662260055542,0.944067358970642
-0.0769222229719162,1.0978330373764038,-0.1921146810054779,-0.498036116361618,0.0010977711062878,-0.3589006066322326,0.0,0.0,-0.5814093351364136,0.8319902420043945
-0.0789598450064659,1.0860977172851562,-0.1837327182292938,-0.5216736197471619,-0.0186713766306638,-0.3953831791877746,0.0,0.0,-0.8671373724937439,0.6837239265441895
-0.0809370055794715,1.0738447904586792,-0.1759790331125259,-0.5449897050857544,-0.0401280596852302,-0.4291341304779053,0.0,0.0,-0.8175877332687378,0.0556930303573608
-0.0829106345772743,1.0610711574554443,-0.1754072606563568,-0.5684561133384705,-0.0618269927799701,-0.4339785575866699,0.0,0.0,-0.8727337718009949,0.5437829494476318
-0.084835335612297,1.0477735996246338,-0.1691559702157974,-0.5921260714530945,-0.0849010869860649,-0.4614821374416351,0.0,0.0,-0.6914421916007996,-0.1905122399330139
-0.0867557525634765,1.0339564085006714,-0.1685236990451812,-0.6155993342399597,-0.108216643333435,-0.4663117825984955,0.0,0.0,-0.7501102089881897,-0.928854763507843
-0.0887296646833419,1.019626498222351,-0.1751777678728103,-0.6386387348175049,-0.1303007006645202,-0.4416815340518951,0.0,0.0,-0.1151750683784484,0.0941160917282104
-0.0906987190246582,1.0047764778137207,-0.1745140701532364,-0.6621090769767761,-0.1526244282722473,-0.4464744925498962,0.0,0.0,0.2812514305114746,-0.7942665815353394
-0.0925763100385665,0.9900065064430236,-0.166885420680046,-0.6587156653404236,-0.1735039949417114,-0.4175913333892822,0.0,0.0,0.2635644674301147,-0.6546140313148499
-0.0944959670305252,0.9750627875328064,-0.1721729934215545,-0.6665926575660706,-0.1933680474758148,-0.3972812592983246,0.0,0.0,0.7392514944076538,-0.888181746006012
-0.0963604003190994,0.9601112604141236,-0.1683423966169357,-0.6669835448265076,-0.211601585149765,-0.3646706938743591,0.0,0.0,0.7718541622161865,-0.945180356502533
-0.0981216430664062,0.945335328578949,-0.1598564833402633,-0.6591200232505798,-0.2280594706535339,-0.3291578888893127,0.0,0.0,-0.246886134147644,-0.911860167980194
-0.0999601334333419,0.9300746321678162,-0.169558972120285,-0.6805295944213867,-0.2425578832626342,-0.289968341588974,0.0,0.0,0.9101412296295166,-0.9963451027870178
-0.1018159836530685,0.9157151579856871,-0.1728545278310775,-0.6403542757034302,-0.2555297613143921,-0.2594367563724518,0.0,0.0,0.36611008644104,-0.9822465777397156
-0.1036568656563758,0.9014758467674256,-0.1731008142232895,-0.6348108649253845,-0.2667512893676758,-0.2244305312633514,0.0,0.0,0.692618727684021,-0.937449872493744
-0.1052528396248817,0.8875221014022827,-0.1505005806684494,-0.621855616569519,-0.2760653793811798,-0.1862819939851761,0.0,0.0,-0.8999567627906799,-0.93027663230896
-0.1069220528006553,0.873081624507904,-0.1596670448780059,-0.6431892514228821,-0.2835208177566528,-0.14910888671875,0.0,0.0,0.8964395523071289,-0.9703511595726012
-0.1083869934082031,0.8588185906410217,-0.1411749571561813,-0.6349534392356873,-0.2889981269836426,-0.1095462664961814,0.0,0.0,-0.8813203573226929,-0.9620060324668884
-0.1099209785461425,0.844070315361023,-0.1497750878334045,-0.6562033295631409,-0.2927266955375671,-0.0745716467499733,0.0,0.0,-0.5223498344421387,-0.9552213549613952
-0.1115089431405067,0.8288167715072632,-0.156406745314598,-0.6784155964851379,-0.295195996761322,-0.0493853017687797,0.0,0.0,-0.887965738773346,-0.9704212546348572
-0.1131823509931564,0.8130714297294617,-0.1669783443212509,-0.6998652219772339,-0.2955756187438965,-0.007592212408781,0.0,0.0,0.8392337560653687,-0.928902268409729
-0.1145552620291709,0.7980622053146362,-0.1387548893690109,-0.6667741537094116,-0.2940542697906494,0.0304271783679723,0.0,0.0,0.3264544010162353,-0.8320072293281555
-0.1157140731811523,0.783281147480011,-0.1189546212553978,-0.6563218832015991,-0.2908919155597687,0.0632470995187759,0.0,0.0,-0.0698605179786682,-0.8868980407714844
-0.1169320121407508,0.7680087089538574,-0.1262385547161102,-0.6778891086578369,-0.2863132059574127,0.0915744453668594,0.0,0.0,0.6915569305419922,-0.7188324928283691
-0.1180605888366699,0.7534341216087341,-0.1184072643518447,-0.6466882228851318,-0.280608206987381,0.1141000390052795,0.0,0.0,0.3120450973510742,-0.3719960451126098
-0.1190727204084396,0.7387401461601257,-0.1068064197897911,-0.6519982814788818,-0.2748701870441437,0.1147606596350669,0.0,0.0,-0.0922119617462158,-0.386052668094635
-0.1200900077819824,0.7235202193260193,-0.107183538377285,-0.6754313111305237,-0.2692784070968628,0.1118354052305221,0.0,0.0,0.3384976387023926,-0.5191864371299744
-0.1209369674324989,0.7083516716957092,-0.0913078337907791,-0.6729585528373718,-0.262526124715805,0.135045513510704,0.0,0.0,0.5403989553451538,0.4590166807174682
-0.1216218024492263,0.6934763789176941,-0.0750621557235717,-0.6599605679512024,-0.2557997107505798,0.1345282196998596,0.0,0.0,-0.1149407029151916,-0.1605986356735229
-0.1223149299621582,0.6780748963356018,-0.0757950693368911,-0.6833937764167786,-0.2491906732320785,0.1321803629398346,0.0,0.0,-0.5674999356269836,-0.1785701513290405
-0.123017594218254,0.6621472835540771,-0.0766548216342926,-0.7068265676498413,-0.2426885217428207,0.1300427764654159,0.0,0.0,0.7289443016052246,-0.0897994637489318
-0.123493954539299,0.6469892859458923,-0.0540414936840534,-0.6726459860801697,-0.2361784130334854,0.1302017569541931,0.0,0.0,0.1409668922424316,-0.374250054359436
-0.1238799095153808,0.6315796971321106,-0.0451864823698997,-0.6838306784629822,-0.2294906675815582,0.133755013346672,0.0,0.0,0.4494872093200683,-0.2813296318054199
-0.1240856200456619,0.6167296767234802,-0.0272072162479162,-0.6589837670326233,-0.2227660119533538,0.134493201971054,0.0,0.0,-0.2359864711761474,-0.0676444172859191
-0.124305821955204,0.6013532280921936,-0.028609424829483,-0.6824156641960144,-0.2161018550395965,0.1332833468914032,0.0,0.0,0.390754222869873,-0.5749430060386658
-0.1245457679033279,0.5863296389579773,-0.0315210632979869,-0.6666334867477417,-0.20850770175457,0.151883378624916,0.0,0.0,0.2801799774169922,0.1535342931747436
-0.1246798485517501,0.5714800953865051,-0.0210048016160726,-0.658926784992218,-0.2008381485939026,0.1533907353878021,0.0,0.0,0.1836898326873779,0.7326409816741943
-0.1247562393546104,0.5570154786109924,-0.0136759905144572,-0.6420654654502869,-0.1947686225175857,0.1213906034827232,0.0,0.0,0.1974415779113769,0.0758845806121826
-0.1247193366289138,0.542624831199646,-0.0025796832051128,-0.6387754678726196,-0.188460573554039,0.1261612772941589,0.0,0.0,0.3639817237854004,-0.1547870635986328
-0.1246704086661338,0.5281911492347717,-0.0012713882606476,-0.6407303214073181,-0.182275041937828,0.1237106546759605,0.0,0.0,0.7310677766799927,-0.2228530645370483
-0.1245122924447059,0.5137138366699219,0.0092958640307188,-0.6426509022712708,-0.1757394224405288,0.1307124644517898,0.0,0.0,0.5330226421356201,-0.0551844239234924
-0.1243518814444542,0.4991827011108398,0.0096136964857578,-0.6450815200805664,-0.1693043410778045,0.1287018358707428,0.0,0.0,0.765782356262207,0.235655665397644
-0.1240827590227127,0.4853806495666504,0.0204707644879817,-0.6127068996429443,-0.1628607362508773,0.1288722157478332,0.0,0.0,0.5880849361419678,0.5437382459640503
-0.1235886588692665,0.4721871614456177,0.0437775626778602,-0.585767924785614,-0.1572267860174179,0.112678661942482,0.0,0.0,0.1347306966781616,0.023362398147583
-0.1231108680367469,0.4593166410923004,0.042420782148838,-0.5714671611785889,-0.1518692970275879,0.1071496605873107,0.0,0.0,-0.2261661887168884,-0.1077210903167724
-0.1226624473929405,0.4459191858768463,0.0393772982060909,-0.5948953628540039,-0.1464164853096008,0.1090562716126442,0.0,0.0,0.4788691997528076,-0.3436570763587951
-0.1221058815717697,0.4330368638038635,0.0499148219823837,-0.5719903707504272,-0.1406860202550888,0.1146092638373375,0.0,0.0,0.160799503326416,-0.749653160572052
-0.1216636672616005,0.4202578961849212,0.0369139239192009,-0.5672835111618042,-0.13340824842453,0.145555317401886,0.0,0.0,-0.0851184129714965,0.2174738645553589
-0.1212548241019249,0.4069522619247436,0.0334251597523689,-0.5907134413719177,-0.1259890645742416,0.1483838260173797,0.0,0.0,0.5308880805969238,0.2906281948089599
-0.1208103150129318,0.3940863311290741,0.0368875339627265,-0.5712007284164429,-0.1184643879532814,0.1504933089017868,0.0,0.0,0.652601957321167,0.8778643608093262
-0.1201674491167068,0.3815310001373291,0.0581582784652709,-0.5575395226478577,-0.1123701259493827,0.1218851804733276,0.0,0.0,0.7334421873092651,0.3171101808547973
-0.1194967254996299,0.3689799904823303,0.0606260187923908,-0.5573529005050659,-0.1059737205505371,0.1279282569885254,0.0,0.0,0.3930051326751709,0.4432348012924194
-0.1187508553266525,0.3563961386680603,0.067577838897705,-0.5588015913963318,-0.099013440310955,0.1392058134078979,0.0,0.0,0.6989556550979614,0.4892041683197021
-0.1178359985351562,0.3441397249698639,0.0835465639829635,-0.5442244410514832,-0.0911365449428558,0.1575376838445663,0.0,0.0,0.4815871715545654,0.6704143285751343
-0.1167405098676681,0.3318538665771484,0.1024465933442115,-0.5456222295761108,-0.0840970948338508,0.1407889872789383,0.0,0.0,0.6130917072296143,0.1027233600616455
-0.1156308203935623,0.3201383948326111,0.1036375015974044,-0.5202944278717041,-0.0768376141786575,0.1451897621154785,0.0,0.0,0.1415178775787353,0.4997550249099731
-0.1145026236772537,0.3086776435375213,0.1051227822899818,-0.5089910626411438,-0.069219633936882,0.1523595303297042,0.0,0.0,-0.3615376949310303,0.7561681270599365
-0.1133463829755783,0.296685516834259,0.1094843372702598,-0.5327133536338806,-0.0631447285413742,0.1214983090758323,0.0,0.0,0.6997206211090088,0.1408360004425048
-0.1121106147766113,0.2846595048904419,0.116667054593563,-0.5342133641242981,-0.056303396821022,0.1368264853954315,0.0,0.0,0.4732340574264526,0.4676289558410644
-0.1109420806169509,0.2727907598018646,0.109845258295536,-0.5272504687309265,-0.0493794344365596,0.1384790241718292,0.0,0.0,0.5611921548843384,0.7359988689422607
-0.1096338257193565,0.2616147398948669,0.1248130947351455,-0.4965284168720245,-0.0434426106512546,0.1187367215752601,0.0,0.0,0.0733252763748169,0.5989723205566406
-0.1083271950483322,0.2504636943340301,0.1255589723587036,-0.4954639673233032,-0.0383975394070148,0.1009015589952468,0.0,0.0,0.2760027647018432,-0.0260332822799682
-0.107141874730587,0.2397121042013168,0.1135372668504715,-0.4777280390262604,-0.0334614627063274,0.0987213253974914,0.0,0.0,0.0244275331497192,0.5371911525726318
-0.1058890372514724,0.2290798276662826,0.1209134086966514,-0.4724555909633636,-0.0291517600417137,0.0861942321062088,0.0,0.0,0.1696329116821289,0.7494337558746338
-0.1046549826860427,0.2187214940786361,0.1202296614646911,-0.4603085517883301,-0.0260175056755542,0.0626852586865425,0.0,0.0,0.240199327468872,-0.0246461629867553
-0.1035196334123611,0.2086814492940902,0.1102822571992874,-0.446172833442688,-0.0228027533739805,0.0642953142523765,0.0,0.0,0.0982860326766967,-0.1821473240852356
-0.1024451255798339,0.1986112892627716,0.1038897782564163,-0.4475127756595611,-0.0192868914455175,0.0703173577785492,0.0,0.0,0.2452683448791504,0.3687244653701782
-0.1015022248029708,0.188696414232254,0.0907398760318756,-0.4406183958053589,-0.0157907959073781,0.0699218958616256,0.0,0.0,0.4259282350540161,0.7049591541290283
-0.1006934195756912,0.1789329648017883,0.0786127969622612,-0.4339091181755066,-0.0135512808337807,0.0447903051972389,0.0,0.0,0.611268162727356,0.8127155303955078
-0.0997498482465744,0.169694721698761,0.0931276455521583,-0.4105788767337799,-0.0123299024999141,0.0244273450225591,0.0,0.0,-0.1932198405265808,0.1599595546722412
-0.0988602638244628,0.1599293351173401,0.0872948095202446,-0.4340057075023651,-0.0106961065903306,0.0326759777963161,0.0,0.0,0.2715017795562744,0.2201607227325439
-0.0979074463248252,0.1505156308412552,0.0926804840564727,-0.4183672666549682,-0.0081259664148092,0.0514027886092662,0.0,0.0,0.5581874847412109,0.0623475313186645
-0.0970252007246017,0.1416729986667633,0.0852915495634079,-0.3929921090602875,-0.0052284253761172,0.0579507276415824,0.0,0.0,0.3792486190795898,-0.5652424097061157
-0.0961094871163368,0.1333793997764587,0.0867711454629898,-0.3685959279537201,-0.0004881994682364,0.0948045924305915,0.0,0.0,-0.290380597114563,0.8808372020721436
-0.0951706916093826,0.1245589330792427,0.0906229242682457,-0.3920245468616485,0.0027188167441636,0.0641405433416366,0.0,0.0,0.6894488334655762,-0.2639110088348388
-0.0942974090576171,0.1164638847112655,0.0836650505661964,-0.3597930371761322,0.0063380538485944,0.0723846480250358,0.0,0.0,0.2279636859893798,0.0956437587738037
-0.0934386253356933,0.1087203845381736,0.081540934741497,-0.3441794812679291,0.0106177404522895,0.0855938419699668,0.0,0.0,-0.1495348811149597,0.811835527420044
-0.0925629585981369,0.1004471629858017,0.084614984691143,-0.3677236437797546,0.0135242957621812,0.0581311993300914,0.0,0.0,0.8929014205932617,-0.6480703949928284
-0.0919549018144607,0.0927065908908844,0.0564830601215362,-0.344069629907608,0.0177951734513044,0.0854176729917526,0.0,0.0,0.9038300514221193,0.994905948638916
-0.0914993286132812,0.0853239372372627,0.0430272854864597,-0.3281508684158325,0.0202917493879795,0.0499317348003387,0.0,0.0,0.6565234661102295,0.9101858139038086
-0.091063305735588,0.0782629325985908,0.042460773140192,-0.3138387799263,0.0214138571172952,0.0224420186132192,0.0,0.0,0.8155179023742676,0.9924271106719972
-0.0905852317810058,0.0715558379888534,0.0481388196349144,-0.2980914115905761,0.0210839323699474,-0.0065985070541501,0.0,0.0,0.8386799097061157,0.9915764331817628
-0.0899303406476974,0.0649204105138778,0.0670866668224334,-0.2948844730854034,0.0195055566728115,-0.031567420810461,0.0,0.0,0.6718912124633789,0.815208911895752
-0.0891708359122276,0.0588045455515384,0.0785094052553176,-0.2717852592468261,0.016981091350317,-0.0504894480109214,0.0,0.0,0.3219811916351318,0.8237601518630981
-0.0883894935250282,0.0531400069594383,0.0818390101194381,-0.2517205774784088,0.0133271412923932,-0.0730792731046676,0.0,0.0,0.0831336975097656,0.6219043731689453
-0.0875692367553711,0.0472504459321498,0.086418405175209,-0.2617269158363342,0.008986584842205,-0.0868110880255699,0.0,0.0,0.3616347312927246,0.6633883714675903
