x_pos,y_pos,x_vel,y_vel,angle,ang_vel,leg_1,leg_2,main_booster,lat_booster
-0.0014659881126135,1.4034312963485718,-0.1484921127557754,-0.3328345417976379,0.0016962809022516,0.0334557816386222,0.0,0.0,-0.7327514290809631,0.7749319076538086
-0.0028052330017089,1.3957688808441162,-0.1338634341955185,-0.3405493497848511,0.0016383517067879,-0.0011582480510696,0.0,0.0,-0.1439356803894043,0.2426574230194091
-0.0040808678604662,1.3879128694534302,-0.1274472624063491,-0.349156767129898,0.0015235875034704,-0.0022956207394599,0.0,0.0,0.1227205991744995,0.3381441831588745
-0.0053717615082859,1.3803727626800537,-0.1285067200660705,-0.3351165354251861,0.0009536087163724,-0.0114011038094758,0.0,0.0,-0.2773654460906982,0.6481447219848633
-0.0065318108536303,1.3726415634155271,-0.1137695908546447,-0.3436098396778106,-0.0012483943719416,-0.0440441891551017,0.0,0.0,-0.3050581216812134,-0.3983935117721557
-0.0076201437041163,1.3647172451019287,-0.1065148264169693,-0.3521920442581177,-0.0035349898971617,-0.0457362830638885,0.0,0.0,-0.5378953218460083,0.5785887241363525
-0.0085902214050292,1.3565998077392578,-0.0934918895363807,-0.3607894778251648,-0.0070187281817197,-0.0696812570095062,0.0,0.0,-0.3042614459991455,-0.4779349565505981
-0.0094834323972463,1.3482893705368042,-0.0856993421912193,-0.3693744540214538,-0.0106050204485654,-0.0717320665717125,0.0,0.0,-0.3968956470489502,-0.0957480072975158
-0.0102972034364938,1.3397860527038574,-0.077647253870964,-0.3779594302177429,-0.0143032073974609,-0.0739703550934791,0.0,0.0,-0.6337262988090515,-0.3066468238830566
-0.0110292434692382,1.3310896158218384,-0.0693410709500312,-0.3865446150302887,-0.0181214120239019,-0.0763712301850318,0.0,0.0,-0.7801294922828674,-0.7125120162963867
-0.0117251398041844,1.322202205657959,-0.0668216869235038,-0.3950347900390625,-0.0208574850112199,-0.0547261722385883,0.0,0.0,-0.7488728761672974,-0.8284565806388855
-0.0123922349885106,1.313121676445007,-0.0652607679367065,-0.4035954177379608,-0.022280566394329,-0.0284643061459064,0.0,0.0,-0.8404121398925781,-0.0528584122657775
-0.0129704475402832,1.3038482666015625,-0.0562361404299736,-0.4121800661087036,-0.0238476879894733,-0.0313456133008003,0.0,0.0,-0.8152897357940674,-0.6908729672431946
-0.0135060306638479,1.2943769693374634,-0.0530434735119342,-0.4209547638893127,-0.0243525840342044,-0.0100986938923597,0.0,0.0,-0.7413610816001892,-0.5353609323501587
-0.0139806745573878,1.2847193479537964,-0.0476199723780155,-0.4292274117469787,-0.0242017023265361,0.003017947776243,0.0,0.0,-0.9180924892425536,-0.6913988590240479
-0.0144048687070608,1.2748620510101318,-0.0435464903712272,-0.438082605600357,-0.0230934880673885,0.0221662819385528,0.0,0.0,-0.7577027082443237,-0.2707029581069946
-0.0147318840026855,1.2648117542266846,-0.0336567461490631,-0.4466671943664551,-0.0221562311053276,0.0187470279633998,0.0,0.0,-0.9083628058433532,-0.5126873850822449
-0.0149908065795898,1.2545650005340576,-0.0274499617516994,-0.4553885459899902,-0.0206183195114135,0.0307613518089056,0.0,0.0,-0.7060515880584717,-0.6022658348083496
-0.0151885990053415,1.244132161140442,-0.0221653878688812,-0.4636520743370056,-0.0182592906057834,0.0471846051514148,0.0,0.0,-0.9681223034858704,-0.5235057473182678
-0.0153306005522608,1.2335073947906494,-0.0175831951200962,-0.4721768796443939,-0.0149092227220535,0.067007340490818,0.0,0.0,-0.9254447817802428,-0.2912887930870056
-0.0153680797666311,1.2226896286010742,-0.0069432603195309,-0.4807624518871307,-0.0117521006613969,0.0631482899188995,0.0,0.0,-0.9218159914016724,-0.5866216421127319
-0.0153450965881347,1.2116763591766355,-0.0018385148141533,-0.4894508421421051,-0.0076493541710078,0.0820620954036712,0.0,0.0,-0.7828057408332825,-0.3144090175628662
-0.0152142522856593,1.200470209121704,0.0091333696618676,-0.4980371594429016,-0.0037490695249289,0.0780126899480819,0.0,0.0,-0.9022077322006226,-0.0575821995735168
-0.0149743082001805,1.1890711784362793,0.0202623959630727,-0.5066229701042175,-5.472524935612455e-05,0.0738932937383651,0.0,0.0,-0.8046953678131104,-0.0752496123313903
-0.014623736962676,1.1774790287017822,0.0315409861505031,-0.5152087807655334,0.0034294230863451,0.0696890875697135,0.0,0.0,-0.9393633008003236,-0.8259201049804688
-0.0142421722412109,1.1656765937805176,0.0327809080481529,-0.5245766043663025,0.0087396912276744,0.1062052398920059,0.0,0.0,-0.6536476016044617,0.7388763427734375
-0.0136882783845067,0.0,0.0517268665134906,-0.5329132676124573,0.0123548898845911,0.0723040252923965,0.0,0.0,-0.953300952911377,-0.4084150791168213
-0.0130196567624807,0.0,0.0634199306368827,-0.5414964556694031,0.0157513171434402,0.0679285675287246,0.0,0.0,-0.6762303709983826,-0.4994288682937622
-0.0122351646423339,1.1291277408599854,0.0752338320016861,-0.5500795245170593,0.0189266018569469,0.06350589543581,0.0,0.0,-0.8859050273895264,-0.5234062075614929
-0.0113764759153127,0.0,0.0817871391773223,-0.558817982673645,0.0229558963328599,0.0805861055850982,0.0,0.0,-0.8692700862884521,-0.4119614362716675
-0.0103997234255075,1.103790521621704,0.093823030591011,-0.5674013495445251,0.0267598945647478,0.0760798007249832,0.0,0.0,-0.930008053779602,-0.5708966851234436
-0.0093548772856593,1.0908271074295044,0.0995676070451736,-0.5762466788291931,0.0316191613674163,0.0971851423382759,0.0,0.0,-0.8822043538093567,-0.5076677203178406
-0.0082357404753565,1.0776734352111816,0.1060611978173255,-0.5847395658493042,0.0373971760272979,0.1155602782964706,0.0,0.0,-0.9019162654876708,-0.0082727670669555
-0.0069957734085619,1.0643270015716553,0.1183829084038734,-0.5933240056037903,0.0429447367787361,0.1109511852264404,0.0,0.0,-0.9213393330574036,-0.6950241327285767
-0.0056877136230468,1.050785779953003,0.1240751966834068,-0.6020361185073853,0.0496055372059345,0.1332158893346786,0.0,0.0,-0.8292344212532043,-0.5919386148452759
-0.0043025971390306,1.037053108215332,0.1308499872684478,-0.6106127500534058,0.0571745447814464,0.1513803154230117,0.0,0.0,-0.8658360242843628,-0.6429018378257751
-0.0028471946716308,1.023120403289795,0.1367656290531158,-0.6195985674858093,0.0658450871706008,0.1734107136726379,0.0,0.0,-0.9230247735977172,-0.3388881683349609
-0.0012681961525231,1.0089952945709229,0.1493860632181167,-0.628186047077179,0.0742801055312156,0.1687003970146179,0.0,0.0,-0.8557135462760925,-0.7020775079727173
0.0003758430539164,0.9946789741516112,0.1546226143836975,-0.6367947459220886,0.0839659869670867,0.1937173455953598,0.0,0.0,-0.943050980567932,-0.6994795203208923
0.0020921707618981,0.9801650047302246,0.1607581079006195,-0.6457139849662781,0.0947422832250595,0.2155258953571319,0.0,0.0,-0.7726278305053711,0.0019718408584594
0.0039339065551757,0.9654592275619508,0.173545241355896,-0.6543042659759521,0.1052803918719291,0.2107624113559723,0.0,0.0,-0.8650990128517151,0.5835577249526978
0.0059568407014012,0.9505686163902284,0.1933305114507675,-0.6624630093574524,0.114177793264389,0.1779480576515197,0.0,0.0,-0.9661301970481871,-0.4022079706192016
0.0081060407683253,0.935485541820526,0.2062020301818847,-0.6710497736930847,0.1228357627987861,0.1731595546007156,0.0,0.0,-0.9022036790847778,-0.83701092004776
0.0103269573301076,0.9201982617378236,0.212233230471611,-0.6802785992622375,0.1326500028371811,0.196285143494606,0.0,0.0,-0.4349934458732605,-0.3772562146186828
0.0126747135072946,0.9047186970710754,0.225169688463211,-0.688866376876831,0.142223834991455,0.19147689640522,0.0,0.0,-0.8333629369735718,0.3257954120635986
0.0151495933532714,0.8890467286109924,0.2381308823823928,-0.6974535584449768,0.1515569239854812,0.1866613626480102,0.0,0.0,-0.898425817489624,-0.5860423445701599
0.0177108757197856,0.8731700778007507,0.2459737062454223,-0.7067075967788696,0.1617042422294616,0.2029465436935424,0.0,0.0,-0.5242381691932678,-0.2888282537460327
0.0203995704650878,0.8571008443832397,0.2589700818061828,-0.7152953743934631,0.1716102659702301,0.1981204450130462,0.0,0.0,-0.7806329727172852,-0.7655234336853027
0.0231420509517192,0.8408271670341492,0.2627589106559753,-0.7246426343917847,0.1831426173448562,0.2306471168994903,0.0,0.0,-0.7663822770118713,-0.5780336856842041
0.0259658806025981,0.8243472576141357,0.2699481248855591,-0.7340267896652222,0.1956347525119781,0.249842569231987,0.0,0.0,-0.6850883960723877,0.2873586416244507
0.028917122632265,0.8076755404472351,0.2829609811306,-0.742618203163147,0.2078853249549865,0.2450115233659744,0.0,0.0,-0.9194735884666444,0.2712979316711426
0.0319956764578819,0.7908119559288025,0.2959688007831573,-0.7512087225914001,0.2198944240808487,0.2401823699474334,0.0,0.0,0.024518609046936,-0.5329629182815552
0.0351743698120117,0.7741681933403015,0.305074393749237,-0.7416810393333435,0.2328564226627349,0.2592399716377258,0.0,0.0,-0.8323164582252502,-0.2824599742889404
0.0384801849722862,0.7573326826095581,0.3180573284626007,-0.7502725720405579,0.245577335357666,0.254418134689331,0.0,0.0,-0.6495721340179443,-0.5040090680122375
0.0418841354548931,0.7402927279472351,0.3273954391479492,-0.7595558166503906,0.2588250935077667,0.264955461025238,0.0,0.0,-0.2517578601837158,0.0580546855926513
0.0454145446419715,0.7230610251426697,0.3403318226337433,-0.7681474089622498,0.2718324661254883,0.2601470649242401,0.0,0.0,-0.4799379110336303,0.1106928586959838
0.0490712150931358,0.7056376934051514,0.3532361686229706,-0.7767381072044373,0.2845998406410217,0.2553476691246032,0.0,0.0,-0.039583146572113,0.3517576456069946
0.0528538711369037,0.688022255897522,0.3661026060581207,-0.7853280901908875,0.29712775349617,0.2505585253238678,0.0,0.0,0.5423952341079712,-0.4224543571472168
0.0566035285592079,0.6713479161262512,0.3627809584140777,-0.7436214685440063,0.3097394406795501,0.2522336542606354,0.0,0.0,0.3422023057937622,-0.0305211544036865
0.0602248199284076,0.6553651094436646,0.3504801392555237,-0.7128750681877136,0.3218266069889068,0.2417441606521606,0.0,0.0,0.8580267429351807,0.0745823383331298
0.0638933181762695,0.6398098468780518,0.3552299737930298,-0.6939666867256165,0.33394256234169,0.2423193007707595,0.0,0.0,0.7443537712097168,0.2951606512069702
0.0673428550362587,0.6250598430633545,0.334076464176178,-0.6581141948699951,0.345331996679306,0.2277885973453521,0.0,0.0,0.8461898565292358,0.625394344329834
0.0709059685468673,0.6110315322875977,0.3465568125247955,-0.6258535385131836,0.355581521987915,0.2049907147884369,0.0,0.0,0.9180350303649902,0.0055495500564575
0.0743694305419921,0.5978252291679382,0.3367315530776977,-0.5893594622612,0.3657225370407104,0.2028200179338455,0.0,0.0,0.1083524227142334,0.1843299865722656
0.0778631195425987,0.5848054885864258,0.3399972915649414,-0.5810813903808594,0.3756536245346069,0.1986219882965088,0.0,0.0,0.3588635921478271,0.0303965806961059
0.0812046080827713,0.5722149610519409,0.3254566788673401,-0.561890184879303,0.3848805427551269,0.1845384240150451,0.0,0.0,0.5479161739349365,0.4179059267044067
0.0843833908438682,0.5605572462081909,0.3093482851982116,-0.5204473733901978,0.3939683735370636,0.1817564219236374,0.0,0.0,0.7397761344909668,0.7830994129180908
0.0877092331647872,0.5492140054702759,0.3256446421146393,-0.5060831904411316,0.4013984799385071,0.1486028581857681,0.0,0.0,0.4779764413833618,0.2500562667846679
0.0908764824271202,0.5387458801269531,0.3099110722541809,-0.4671953916549682,0.4087105989456177,0.1462425887584686,0.0,0.0,0.4406385421752929,0.5863869190216064
0.0939568504691124,0.5286239981651306,0.3027587831020355,-0.4513968229293823,0.4143929183483124,0.1136462688446044,0.0,0.0,0.818173885345459,0.6569528579711914
0.0967987030744552,0.5192990899085999,0.2806374728679657,-0.4154880940914154,0.4182220101356506,0.076582059264183,0.0,0.0,0.7498694658279419,0.9077814817428588
0.0995838195085525,0.510750412940979,0.2768752872943878,-0.3804278075695038,0.4199932217597961,0.0354234501719474,0.0,0.0,0.3725209236145019,0.953826665878296
0.1021475791931152,0.502948522567749,0.256852775812149,-0.3466067910194397,0.4194734990596771,-0.0103941727429628,0.0,0.0,0.0222165584564209,0.7861168384552002
0.1047802940011024,0.4955118894577026,0.2654673159122467,-0.3298693001270294,0.4171096682548523,-0.0472764559090137,0.0,0.0,0.213747501373291,0.6913893222808838
0.1074303612112999,0.4882862269878387,0.2687534391880035,-0.3200372457504272,0.4130622446537018,-0.080948568880558,0.0,0.0,0.1564446687698364,0.7386369705200195
0.1101996451616287,0.4812395274639129,0.2822674512863159,-0.3116374611854553,0.407320499420166,-0.1148350089788436,0.0,0.0,0.5078634023666382,-0.2363324165344238
0.1129234284162521,0.4744086265563965,0.278049886226654,-0.3019779920578003,0.4012263715267181,-0.1218822747468948,0.0,0.0,0.7824103832244873,-0.5854485630989075
0.1153616905212402,0.4685378074645996,0.2486109435558319,-0.2595803141593933,0.396094262599945,-0.1026423573493957,0.0,0.0,0.4395880699157715,-0.7732043862342834
0.1176381111145019,0.4634736478328705,0.2310598790645599,-0.224125251173973,0.3924450278282165,-0.072984829545021,0.0,0.0,0.6722266674041748,0.0084736347198486
0.1195893287658691,0.4592969119548797,0.1992308497428894,-0.1845027506351471,0.3880570232868194,-0.0877593606710434,0.0,0.0,0.5171624422073364,-0.2027533650398254
0.1214085593819618,0.4552812576293945,0.1867593973875045,-0.1771665215492248,0.3829083442687988,-0.1029736772179603,0.0,0.0,0.7166228294372559,0.2423759698867797
0.1230499297380447,0.4522381126880646,0.1689908802509308,-0.1339572221040725,0.3777447938919067,-0.1032707542181015,0.0,0.0,0.561159610748291,0.7501752376556396
0.12453393638134,0.4497336447238922,0.1550991684198379,-0.109558068215847,0.3706468343734741,-0.1419595181941986,0.0,0.0,0.6032791137695312,0.8849694728851318
0.1258713752031326,0.447964459657669,0.1424441337585449,-0.0764035359025001,0.36143958568573,-0.1841448992490768,0.0,0.0,-0.0251686573028564,0.9492301940917968
0.1273551881313324,0.4460457861423492,0.1591427028179168,-0.0826052725315094,0.3501146137714386,-0.226499393582344,0.0,0.0,-0.3110309243202209,0.2280576229095459
0.1289144456386566,0.4439347982406616,0.1669156700372696,-0.0911921113729476,0.3385922312736511,-0.2304476946592331,0.0,0.0,-0.1227555871009826,0.1240196228027343
0.1305449455976486,0.4416315257549286,0.1742747277021408,-0.0997796133160591,0.3268757462501526,-0.2343297004699707,0.0,0.0,-0.4267622232437134,-0.1214799880981445
0.1322424858808517,0.4391360580921173,0.1811977922916412,-0.1083677932620048,0.3149687349796295,-0.2381405085325241,0.0,0.0,-0.6097237467765808,-0.2895400524139404
0.1340024024248123,0.4364486336708069,0.1876625716686248,-0.1169566586613655,0.3028749823570251,-0.2418749332427978,0.0,0.0,-0.8161439299583435,-0.3339606523513794
0.1358199119567871,0.4335692226886749,0.1936469227075576,-0.1255462020635604,0.290598601102829,-0.2455275952816009,0.0,0.0,-0.5287240147590637,-0.6724400520324707
0.1376380026340484,0.4304794669151306,0.1925753951072693,-0.1352159529924392,0.2795180976390838,-0.2216099202632904,0.0,0.0,-0.5126053094863892,-0.2963991165161133
0.1395035684108734,0.427197515964508,0.1975324302911758,-0.1438042521476745,0.268263965845108,-0.2250829190015792,0.0,0.0,-0.1484007239341735,-0.5644904971122742
0.1413768827915191,0.4237115085124969,0.1976189911365509,-0.1530882865190506,0.2577460408210754,-0.2103588134050369,0.0,0.0,-0.1454164385795593,-0.5108739733695984
0.1432552337646484,0.4200150668621063,0.19747194647789,-0.162625253200531,0.2479297071695327,-0.1963271051645279,0.0,0.0,-0.0417951345443725,-0.6210706830024719
0.1451133787631988,0.4161047637462616,0.1942624747753143,-0.1723862141370773,0.2393210381269455,-0.1721730828285217,0.0,0.0,0.0465658903121948,-0.7225162982940674
0.1468698531389236,0.4128081500530243,0.1828091591596603,-0.1453678607940673,0.2320540994405746,-0.1453388035297393,0.0,0.0,0.0386710166931152,-0.8421253561973572
0.1484816521406173,0.4098117351531982,0.1668182611465454,-0.1322963386774063,0.2263372540473938,-0.1143370419740676,0.0,0.0,-0.7833675146102905,-0.5006350874900818
0.1500590294599533,0.4066105186939239,0.1623214781284332,-0.1415783613920211,0.2216943055391311,-0.0928587168455123,0.0,0.0,-0.5408474206924438,-0.4073010683059692
0.1516427993774414,0.4032161235809326,0.1630996167659759,-0.1501601189374923,0.2169183939695358,-0.0955183058977127,0.0,0.0,-0.6537389755249023,-0.1199862957000732
0.1532265692949295,0.3996286392211914,0.1632292121648788,-0.1587421596050262,0.2120164781808853,-0.0980384051799774,0.0,0.0,-0.2899046540260315,-0.6873441338539124
0.154742807149887,0.3958331942558288,0.1550444960594177,-0.168199360370636,0.2085648626089096,-0.0690321773290634,0.0,0.0,-0.8072931170463562,-0.7817420959472656
0.1561836302280426,0.3918218910694122,0.1459865719079971,-0.1780102401971817,0.2066409885883331,-0.0384774729609489,0.0,0.0,-0.7161696553230286,-0.8285125494003296
0.1575284004211425,0.3875941038131714,0.1345182806253433,-0.1878987401723861,0.2066016197204589,-0.0007875069277361,0.0,0.0,-0.4288859963417053,-0.7278802990913391
0.1587771475315094,0.3831492066383362,0.1231968626379966,-0.1977866142988205,0.2082972228527069,0.0339119397103786,0.0,0.0,-0.5314798355102539,-0.5728697776794434
0.1599566489458084,0.378502756357193,0.115411028265953,-0.2068668901920318,0.2108525484800338,0.0511065050959587,0.0,0.0,-0.2839704751968384,-0.6014110445976257
0.1610563248395919,0.3736445903778076,0.1064417138695716,-0.2164255082607269,0.2144196331501007,0.0713416635990142,0.0,0.0,-0.2602599859237671,-0.8037822246551514
0.1620631217956543,0.3685840964317322,0.0960021615028381,-0.2255961447954177,0.2191398739814758,0.0944049507379531,0.0,0.0,0.027840256690979,-0.77409428358078
-999.0,0.3640185594558716,0.0712506473064422,-0.2038368433713913,0.2253459990024566,0.1241224408149719,0.0,0.0,0.2020783424377441,-0.160660982131958
0.1635158509016037,0.3602041006088257,0.061348807066679,-0.1705465167760849,0.2319803535938263,0.1326874345541,0.0,0.0,-0.4343183040618896,0.3910775184631347
0.1641318351030349,0.3561969995498657,0.0551028326153755,-0.1791317462921142,0.2385720312595367,0.1318339407444,0.0,0.0,0.107406735420227,0.0228803157806396
0.1645451486110687,0.3527932465076446,0.0349077619612216,-0.1523378640413284,0.2451081126928329,0.1307215392589569,0.0,0.0,-0.3747592568397522,-0.1569222807884216
0.1648845672607422,0.3491967916488647,0.0275414735078811,-0.1609233170747757,0.2516205310821533,0.130248874425888,0.0,0.0,0.1775939464569091,0.2508412599563598
0.1651189774274826,0.345903992652893,0.0168132670223712,-0.1475000083446502,0.2583847045898437,0.1352835893630981,0.0,0.0,-0.0374550819396972,0.1888993978500366
0.1652692854404449,0.3424186706542969,0.0084130000323057,-0.1560860723257064,0.265144795179367,0.1352019608020782,0.0,0.0,0.2985687255859375,0.6452832221984863
0.165166288614273,0.3393008112907409,-0.0154542801901698,-0.1395129561424255,0.2704175412654876,0.1054550632834434,0.0,0.0,0.0594122409820556,0.7086985111236572
0.1649120301008224,0.3365284204483032,-0.0291707012802362,-0.1239176094532013,0.2742580473423004,0.0768099948763847,0.0,0.0,0.2206432819366455,0.5608782768249512
0.1645165383815765,0.3341577053070068,-0.0422471053898334,-0.1058731824159622,0.2770281136035919,0.0554011352360248,0.0,0.0,-0.0500196814537048,0.9588842391967772
-999.0,0.3316234052181244,-0.0411271825432777,-0.1127178594470024,0.2774762213230133,0.0089621692895889,0.0,0.0,-0.8247339129447937,0.9333971738815308
0.163678839802742,0.3289353251457214,-0.0414173193275928,-0.1191559880971908,0.2757669985294342,-0.034184243530035,0.0,0.0,-0.8187148571014404,0.9652725458145142
0.1632136404514312,0.326095700263977,-0.0429139174520969,-0.1255300641059875,0.2720664441585541,-0.0740113630890846,0.0,0.0,-0.9627513885498048,0.9919365644454956
0.1627214401960373,0.3230877518653869,-0.0435044206678867,-0.132635697722435,0.2662196457386017,-0.1169367209076881,0.0,0.0,-0.9466580152511596,0.992599606513977
0.1622014045715332,0.3199250400066376,-0.0440713092684745,-0.1391400694847107,0.2581097781658172,-0.1621969044208526,0.0,0.0,-0.9871731996536256,0.9823005199432372
