x_pos,y_pos,x_vel,y_vel,angle,ang_vel,leg_1,leg_2,main_booster,lat_booster
-0.0016217231750488,1.4035099744796753,-0.1637559831142425,-0.3293394148349762,0.0014079782413318,0.0277472343295812,0.0,0.0,-0.4192181999772222,-0.980645681449016
-0.0034164427779614,1.3960037231445312,-0.1822090148925781,-0.3336212337017059,0.0041228723712265,0.0543038472533226,0.0,0.0,0.823474281362742,0.997954500952574
-0.0050750733353197,1.3890453577041626,-0.1664563566446304,-0.3092583119869232,0.0047056460753083,0.0116564845666289,0.0,0.0,0.1611601219956318,-0.7175384492134124
-0.0069949151948094,1.3824957609176636,-0.1934527456760406,-0.2911015450954437,0.0061582564376294,0.0290546603500843,0.0,0.0,0.471234097394549,-0.8868893882991751
-0.0089693069458007,1.3767058849334717,-0.2004229724407196,-0.2573390305042267,0.0091109918430447,0.0590602532029151,0.0,0.0,-0.4136538561279306,0.857599439029213
-0.0109743122011423,1.3708014488220217,-0.2009449899196624,-0.2624250650405884,0.0095507428050041,0.0087957065552473,0.0,0.0,-0.6816006360609299,-0.8368579032336423
-0.013163280673325,1.3647814989089966,-0.2206449955701828,-0.2675646543502807,0.0112819643691182,0.0346276685595512,0.0,0.0,0.9089885708033448,-0.9487478895025392
-0.0153619768097996,1.3597731590270996,-0.2234464585781097,-0.2226264625787735,0.0148197123780846,0.0707616358995437,0.0,0.0,-0.97512947524499,0.7062997714019299
-0.0176259037107229,1.354658842086792,-0.2281531989574432,-0.227316528558731,0.0165569763630628,0.0347483269870281,0.0,0.0,-0.7332300082910472,-0.8844737646372435
-0.0200811382383108,1.3494341373443604,-0.2486148178577423,-0.2322523891925811,0.0196222532540559,0.061311237514019,0.0,0.0,-0.2362938267154077,0.9346301706685848
-0.0225750915706157,1.3440978527069092,-0.2499279528856277,-0.2371739745140075,0.0201425980776548,0.0104078408330678,0.0,0.0,0.6322392576435751,0.808608640964395
-0.0250629428774118,1.3394322395324707,-0.2473993748426437,-0.2073417603969574,0.0187784098088741,-0.0272862799465656,0.0,0.0,0.1077912400893532,-0.8563750329966866
-0.0276508331298828,1.335360765457153,-0.2587399780750274,-0.1809587031602859,0.0187331363558769,-0.0009057860588654,0.0,0.0,-0.8706523516069098,-0.7831532580029135
-0.0304202083498239,1.3311655521392822,-0.2778519988059997,-0.1864598244428634,0.0196381527930498,0.0181019194424152,0.0,0.0,0.7766602108527256,0.9685686912863096
-0.0330891609191894,1.3282028436660769,-0.2657056152820587,-0.1316656619310379,0.0184625815600156,-0.0235137566924095,0.0,0.0,0.8387534020924272,-0.695604021526159
-0.0358160026371479,1.325615406036377,-0.2727887630462646,-0.1150020062923431,0.0185689590871334,0.0021277177147567,0.0,0.0,0.5393598532225359,0.8361841804939135
-0.0384781844913959,1.3241243362426758,-0.264444887638092,-0.0662513002753257,0.0168158747255802,-0.0350648015737533,0.0,0.0,-0.028809465727924,-0.8910045976381291
-0.0413247123360633,1.3225094079971311,-0.2838205099105835,-0.0717598870396614,0.0159944668412208,-0.0164297893643379,0.0,0.0,0.1099869792966099,0.8756285172198524
-0.044165801256895,1.3216009140014648,-0.2811257839202881,-0.0403527207672596,0.0130389556288719,-0.05911560729146,0.0,0.0,-0.7267523440696961,-0.8641508334537477
-0.0472164154052734,1.320575714111328,-0.3036245107650757,-0.045551598072052,0.011612057685852,-0.0285402275621891,0.0,0.0,0.2918286016275442,-0.7862451231305384
-0.0503560081124305,1.320324420928955,-0.3138074278831482,-0.0111648309975862,0.0114631494507193,-0.0029785668011754,0.0,0.0,0.6153995580582148,0.8984620332802675
-0.0535500533878803,1.3206037282943726,-0.3170432448387146,0.0124312974512577,0.0091311363503336,-0.0466443039476871,0.0,0.0,-0.0745100158774612,0.818180157139735
-0.0567992217838764,1.3207685947418213,-0.3201427459716797,0.0073499241843819,0.0044091516174376,-0.0944479927420616,0.0,0.0,0.4700579148536365,0.9291654725711748
-0.0600396171212196,1.321226716041565,-0.3170544505119324,0.0203671921044588,-0.0024980113375931,-0.138155847787857,0.0,0.0,-0.1149724874870037,-0.6561492630675306
-0.0634788498282432,1.3215728998184204,-0.3381484150886535,0.0153646953403949,-0.008204311132431,-0.1141361221671104,0.0,0.0,0.6960818348936932,0.9669635079761464
-0.0671389549970626,1.3228743076324463,-0.3576351106166839,0.057772222906351,-0.01647181622684,-0.165349930524826,0.0,0.0,-0.2823214012964181,0.6328064326313804
-0.0708841308951377,1.3240652084350586,-0.3644496202468872,0.0527848154306411,-0.0264166146516799,-0.1988960802555084,0.0,0.0,-0.6617166453354881,0.8127111242754835
-0.074714757502079,1.3251498937606812,-0.3712926805019378,0.0479520931839942,-0.0380370952188968,-0.2324095517396927,0.0,0.0,-0.526801041570897,-0.9547871868427285
-0.0787731185555458,1.3261348009109497,-0.396003782749176,0.043494876474142,-0.0477560870349407,-0.1943797767162323,0.0,0.0,-0.3299793002791413,-0.8601830436367595
-0.0830384269356727,1.3270083665847778,-0.4180744290351867,0.0385354980826377,-0.0561146326363086,-0.1671708971261978,0.0,0.0,0.8223241367047787,0.8265625622420821
-0.0872996300458908,1.329169511795044,-0.4156413078308105,0.0956225916743278,-0.0664818212389946,-0.2073439657688141,0.0,0.0,-0.0696639038799455,0.8196484720438053
-0.0916415229439735,1.3312077522277832,-0.4218676686286926,0.0899981260299682,-0.0786805897951126,-0.2439754009246826,0.0,0.0,0.1871194167774572,0.6062153028214122
-0.0960927009582519,1.334003448486328,-0.4310647547245025,0.1234529390931129,-0.0926030501723289,-0.2784491181373596,0.0,0.0,0.1780087497627789,0.8860472871737615
-0.1006404906511306,1.3370617628097534,-0.4385297298431396,0.1348432451486587,-0.1087258905172348,-0.322456806898117,0.0,0.0,-0.1128463510065993,0.6687250765479885
-0.1052712425589561,1.3400025367736816,-0.4450701773166656,0.1292988508939743,-0.1266260743141174,-0.3580033183097839,0.0,0.0,0.4829521422254854,-0.7424086634901474
-0.1099932640790939,1.3438570499420166,-0.4553413391113281,0.1697938144207,-0.1434177756309509,-0.3358339667320251,0.0,0.0,-0.2221990302041372,0.8945281603691797
-0.1147859543561935,1.3475831747055054,-0.4603305459022522,0.1636672616004943,-0.1623291671276092,-0.3782281875610351,0.0,0.0,0.4458578702932974,-0.6462748846371946
-0.1196219474077224,1.3521946668624878,-0.4656747281551361,0.2028954327106475,-0.1802775710821151,-0.3589683771133423,0.0,0.0,0.908646039724022,0.7934458719945718
-0.1244065314531326,1.358138918876648,-0.4585029184818268,0.2616413235664367,-0.2003235667943954,-0.4009202420711517,0.0,0.0,-0.8290644417003334,0.9576373849709392
-0.1292502433061599,1.3639532327651978,-0.4621090888977051,0.2552464008331299,-0.2227882146835327,-0.4492931365966797,0.0,0.0,-0.9423013763385916,0.7089612835286351
-0.1341848373413086,1.3696517944335938,-0.4697597026824951,0.2495160400867462,-0.2468271255493164,-0.4807786047458648,0.0,0.0,0.1778104305267334,0.980370044708252
-0.1389891654253006,1.3757199048995972,-0.4545587599277496,0.2651264071464538,-0.2732504308223724,-0.5284668207168579,0.0,0.0,0.4829894304275512,0.9621853828430176
-0.1436865776777267,1.3820101022720337,-0.4418582320213318,0.2740961015224457,-0.3019476234912872,-0.5739442706108093,0.0,0.0,0.1026272773742675,0.8266966342926025
-0.1482791900634765,1.388638973236084,-0.4296394884586334,0.2881675660610199,-0.3327012956142425,-0.6150739192962646,0.0,0.0,0.398029088973999,-0.4331428408622741
-0.1529576331377029,1.3955373764038086,-0.438009113073349,0.2994098365306854,-0.3640145659446716,-0.6262651681900024,0.0,0.0,0.2548048496246338,-0.5772950649261475
-0.1576881408691406,1.402688980102539,-0.4443673193454742,0.3102675974369049,-0.3944773077964782,-0.6092553734779358,0.0,0.0,-0.1063282489776611,-0.830999493598938
-0.162608340382576,1.409769058227539,-0.4647422730922699,0.3068101704120636,-0.4238020777702331,-0.5864952206611633,0.0,0.0,0.5644556283950806,-0.8796550035476685
-0.1675068885087967,1.4179507493972778,-0.464118093252182,0.3556298613548279,-0.4518363773822784,-0.560686469078064,0.0,0.0,0.1774382591247558,-0.4790898561477661
-0.1723792999982834,1.4268499612808228,-0.4610875248908996,0.3867793083190918,-0.4807059466838836,-0.5773918032646179,0.0,0.0,-0.1569601893424987,-0.5276099443435669
-0.1774233877658844,1.435675024986267,-0.4793310165405273,0.3832282125949859,-0.5088270902633667,-0.5624227523803711,0.0,0.0,-0.1841692924499511,-0.645900547504425
-0.182634636759758,1.4444252252578735,-0.4969784617424011,0.3796487748622894,-0.5363043546676636,-0.5495448708534241,0.0,0.0,-0.0313144326210022,-0.9161332845687866
-0.1880441606044769,1.4531365633010864,-0.5187066793441772,0.3781244456768036,-0.5620325207710266,-0.5145636200904846,0.0,0.0,-0.1660702228546142,-0.8840221166610718
-0.193636417388916,1.4617843627929688,-0.5383034944534302,0.375343918800354,-0.5866149663925171,-0.4916489124298095,0.0,0.0,0.1363770961761474,-0.9492510557174684
-0.199114128947258,1.4710785150527954,-0.5285686254501343,0.4043724238872528,-0.6095342636108398,-0.4583858549594879,0.0,0.0,-0.5078223943710327,-0.9051618576049804
-0.2047697007656097,1.480309247970581,-0.5475403070449829,0.4016925692558288,-0.6313767433166504,-0.4368496835231781,0.0,0.0,-0.343065083026886,-0.9076268672943116
-0.2106258869171142,1.4895023107528689,-0.5694049596786499,0.4005267918109894,-0.6513292789459229,-0.3990503847599029,0.0,0.0,-0.3009729385375976,-0.8289870023727417
-0.2166549265384674,1.498643159866333,-0.5878611207008362,0.3984776139259338,-0.6701264381408691,-0.3759446740150451,0.0,0.0,-0.4203954935073852,-0.6700790524482727
-0.2228469401597976,1.5077155828475952,-0.6049715280532837,0.3955711424350738,-0.6881681680679321,-0.3608351349830627,0.0,0.0,-0.0360563397407531,-0.6300291419029236
-0.2292016446590423,1.5167254209518433,-0.622099757194519,0.3929922878742218,-0.7053616046905518,-0.3438687920570373,0.0,0.0,-0.6920777559280396,-0.5105220079421997
-0.2357203513383865,1.5256733894348145,-0.639387845993042,0.3904918134212494,-0.7216500639915466,-0.3257693350315094,0.0,0.0,-0.4423105716705322,-0.5671061277389526
-0.2424032688140869,1.53454852104187,-0.6565613150596619,0.3874782621860504,-0.7371656894683838,-0.3103129267692566,0.0,0.0,-0.5254849791526794,-0.6325922608375549
-0.249258279800415,1.5433745384216309,-0.6748890280723572,0.3857572972774505,-0.7513970732688904,-0.2846269011497497,0.0,0.0,-0.4794865250587463,-0.0922895669937133
-0.2562443315982818,1.552091360092163,-0.6878715753555298,0.3806369006633758,-0.7659874558448792,-0.2918073534965515,0.0,0.0,-0.7434014678001404,-0.3314868211746216
-0.2633607983589172,1.560699224472046,-0.7008033394813538,0.3755161464214325,-0.7809308767318726,-0.2988686561584472,0.0,0.0,-0.451288104057312,-0.401553213596344
-0.2706068456172943,1.5691978931427002,-0.7136797904968262,0.3703950345516205,-0.7962208390235901,-0.3058009147644043,0.0,0.0,-0.5510917901992798,-0.6794698238372803
-0.2780257165431976,1.5776548385620115,-0.7321858406066895,0.3691743314266205,-0.8100007772445679,-0.2755984365940094,0.0,0.0,-0.5575459599494934,-0.2809542417526245
-0.2855729460716247,1.5860024690628052,-0.7449311017990112,0.3640558123588562,-0.8241127729415894,-0.2822394073009491,0.0,0.0,-0.7140195965766907,-0.4194177389144897
-0.2932476103305816,1.594240665435791,-0.7576045989990234,0.3589372038841247,-0.8385485410690308,-0.2887154221534729,0.0,0.0,-0.4179562330245971,-0.6816431283950806
-0.3010782599449157,1.6024298667907717,-0.7741477489471436,0.3572705686092376,-0.8518009781837463,-0.2650490403175354,0.0,0.0,-0.8470140099525452,-0.4107462763786316
-0.3090345859527588,1.6105092763900757,-0.7866540551185608,0.3521542251110077,-0.865358829498291,-0.2711566984653473,0.0,0.0,-0.6997442245483398,-0.6983047127723694
-0.3171541690826416,1.6185506582260132,-0.8041216135025024,0.3511939346790313,-0.8773608207702637,-0.2400391846895218,0.0,0.0,-0.5212235450744629,-0.3667485117912292
-0.3253974914550781,1.6264816522598269,-0.816430389881134,0.3460805118083954,-0.8896468877792358,-0.2457207888364792,0.0,0.0,-0.2820945978164673,-0.5319864153862
-0.3337914049625397,1.6343631744384766,-0.8323765993118286,0.3444690406322479,-0.9007054567337036,-0.2211714535951614,0.0,0.0,-0.8412420153617859,-0.4254194498062134
-0.3423067629337311,1.6421340703964231,-0.8444541692733765,0.3393582999706268,-0.9120237827301024,-0.2263661623001098,0.0,0.0,-0.81819087266922,-0.5043649077415466
-0.3509690761566162,1.6498396396636963,-0.8598615527153015,0.3369399607181549,-0.9223610758781432,-0.2067461907863617,0.0,0.0,-0.8548023104667664,-0.2951549291610718
-0.3597500324249267,1.657434344291687,-0.8716692924499512,0.3318317532539367,-0.9329307675361632,-0.2113930732011795,0.0,0.0,-0.6487318873405457,-0.3519219756126404
-0.368647962808609,1.6649177074432373,-0.8833268880844116,0.3267242312431335,-0.9437179565429688,-0.2157436609268188,0.0,0.0,-0.7762425541877747,-0.7770267128944397
-0.3776925206184387,1.6723663806915283,-0.899054229259491,0.3260428011417389,-0.9528567790985109,-0.1827750504016876,0.0,0.0,-0.5317997336387634,-0.595192551612854
-0.3868701457977295,1.6797544956207275,-0.913030445575714,0.323889285326004,-0.960964560508728,-0.1621555387973785,0.0,0.0,-0.7891932129859924,-0.41458261013031
-0.3961594700813293,1.6870306730270386,-0.9241557121276855,0.3187872469425201,-0.9692411422729492,-0.1655328124761581,0.0,0.0,-0.9063868522644044,-0.4345268011093139
-0.4055582880973816,1.6941943168640137,-0.9350775480270386,0.3136862516403198,-0.9776691198349,-0.1685594022274017,0.0,0.0,-0.7996889352798462,-0.6974565982818604
-0.4150885939598083,1.701310396194458,-0.9490658044815063,0.3123299181461334,-0.9846905469894408,-0.1404280662536621,0.0,0.0,-0.73489910364151,-0.2420381903648376
-0.4247237145900726,1.7083137035369873,-0.9595321416854858,0.3072323799133301,-0.9918266534805298,-0.1427219808101654,0.0,0.0,-0.8744922280311584,-0.4314988851547241
-0.4344611167907715,1.715203881263733,-0.9697472453117372,0.3021360635757446,-0.9990584254264832,-0.1446361392736435,0.0,0.0,-0.7261995077133179,-0.5646966099739075
-0.4443199634552002,1.722037434577942,-0.982641577720642,0.3003317713737488,-1.0050023794174194,-0.1188792586326599,0.0,0.0,-0.8609904050827026,0.2098246812820434
-0.454275369644165,1.7287575006484983,-0.992299735546112,0.2952388823032379,-1.0110031366348269,-0.1200156807899475,0.0,0.0,-0.8387102484703064,-0.1355502009391784
-0.4643242359161377,1.7353636026382446,-1.0016528367996216,0.2901473939418793,-1.0170409679412842,-0.1207572370767593,0.0,0.0,-0.9002373814582825,-0.1811673045158386
-0.4744631350040436,1.7418558597564695,-1.0106818675994873,0.2850572764873504,-1.0230960845947266,-0.1211028322577476,0.0,0.0,-0.8707802295684814,-0.8256235718727112
-0.4847133755683899,1.7482943534851074,-1.0226216316223145,0.2835064828395843,-1.0276691913604736,-0.0914621651172638,0.0,0.0,-0.8837021589279175,-0.7779058218002319
-0.4950734078884125,1.7546730041503906,-1.03436541557312,0.2816866636276245,-1.0308103561401367,-0.0628227740526199,0.0,0.0,-0.9076918363571168,-0.2718461751937866
-0.5055125951766968,1.760936975479126,-1.0423023700714111,0.2766019999980926,-1.0339096784591677,-0.0619874596595764,0.0,0.0,-0.9038060903549194,-0.5313493013381958
-0.5160438418388367,1.7671371698379517,-1.0521793365478516,0.2744921445846557,-1.0357434749603271,-0.0366758033633232,0.0,0.0,-0.7879226803779602,-0.7021283507347107
-0.5266658067703247,1.7732772827148438,-1.0619752407073977,0.2726575434207916,-1.0361688137054443,-0.0085070338100194,0.0,0.0,-0.8855851888656616,-0.4529318809509277
-0.5373539328575134,1.7793021202087402,-1.068648338317871,0.2675773799419403,-1.036495566368103,-0.0065362127497792,0.0,0.0,-0.8773548603057861,-0.255927562713623
-0.5481036901473999,1.7852110862731934,-1.0748637914657593,0.2624985575675964,-1.036705732345581,-0.004204505123198,0.0,0.0,-0.7492721080780029,-0.6805906295776367
-0.5589278936386108,1.7910652160644531,-1.083110213279724,0.2609552443027496,-1.035377860069275,0.026557708159089,0.0,0.0,-0.8370358347892761,-0.4936802983283996
-0.5698038935661316,1.7968031167984009,-1.0883615016937256,0.2558788359165191,-1.0338990688323977,0.0295762326568365,0.0,0.0,-0.6782522201538086,-0.6953794360160828
-0.5807551741600037,1.8025097846984863,-1.0970274209976196,0.2557450532913208,-1.030248522758484,0.0730106681585311,0.0,0.0,-0.7692210078239441,-0.209480881690979
-0.5917477607727051,1.80810022354126,-1.1012580394744873,0.2506704032421112,-1.026415228843689,0.0766642838716507,0.0,0.0,-0.8745384812355042,-0.066590130329132
-0.6027761101722717,1.813573956489563,-1.1049604415893557,0.2455966919660568,-1.0223844051361084,0.0806144922971725,0.0,0.0,-0.6822628378868103,-0.162020742893219
-0.6138349175453186,1.818930983543396,-1.1081255674362185,0.2405238896608352,-1.0181421041488647,0.0848461613059043,0.0,0.0,-0.6430506110191345,-0.441314697265625
-0.624918520450592,1.82417094707489,-1.1107463836669922,0.2354519367218017,-1.0136748552322388,0.089344322681427,0.0,0.0,-0.6865730285644531,-0.4614953994750976
-0.6360214352607727,1.8292938470840452,-1.112817883491516,0.2303807288408279,-1.0089701414108276,0.0940938666462898,0.0,0.0,-0.4937281012535095,-0.2088955640792846
-0.6471379995346069,1.8342998027801516,-1.1143372058868408,0.2253101915121078,-1.0040161609649658,0.0990795940160751,0.0,0.0,-0.4316645860671997,-0.3263174295425415
-0.6582626104354858,1.8391884565353396,-1.1153042316436768,0.2202402949333191,-0.9988018274307252,0.1042872294783592,0.0,0.0,-0.3410016298294067,-0.2135302424430847
-0.6693896055221558,1.8439598083496092,-1.1157203912734983,0.2151709198951721,-0.9933167099952698,0.1097021251916885,0.0,0.0,-0.3969517946243286,-0.3449668884277344
-0.6805135011672974,1.848613739013672,-1.1155894994735718,0.2101020365953445,-0.987551212310791,0.115310214459896,0.0,0.0,-0.299001932144165,-0.4306644201278686
-0.6916287541389465,1.8531502485275269,-1.1149177551269531,0.205033540725708,-0.9814963340759276,0.1210980042815208,0.0,0.0,-0.207425057888031,-0.6633719801902771
-0.7027469277381897,1.857621431350708,-1.116093397140503,0.2029548734426498,-0.9739401936531068,0.1511223018169403,0.0,0.0,0.0343624353408813,-0.5788581371307373
-0.7135400772094727,1.8622699975967407,-1.084625005722046,0.2117538750171661,-0.964670479297638,0.1853937208652496,0.0,0.0,0.0744721889495849,-0.4516606330871582
-0.7238745093345642,1.867260456085205,-1.039002776145935,0.2270949035882949,-0.9551100730895996,0.1912081241607666,0.0,0.0,-0.5294586420059204,-0.393326461315155
-0.7341790199279785,1.87213397026062,-1.0362688302993774,0.2220251262187957,-0.9452307224273682,0.1975872069597244,0.0,0.0,-0.6186494827270508,-0.3643463850021362
-0.7444486618041992,1.8768901824951167,-1.033050298690796,0.2169552147388458,-0.935026466846466,0.2040850669145584,0.0,0.0,-0.5436604619026184,-0.4229413866996765
-0.75467848777771,1.8815293312072756,-1.0293629169464111,0.2118851244449615,-0.9244918823242188,0.2106913030147552,0.0,0.0,-0.5673510432243347,-0.49261075258255
-0.7648639678955078,1.8860514163970947,-1.025222659111023,0.2068147957324981,-0.9136220812797546,0.2173960506916046,0.0,0.0,-0.5422341823577881,-0.4828523397445678
-0.7750006318092346,1.890456199645996,-1.0206466913223269,0.2017441242933273,-0.9024125933647156,0.2241899669170379,0.0,0.0,-0.5554566383361816,-0.3215163946151733
-0.7850841283798218,1.8947443962097168,-1.015652418136597,0.1966730505228042,-0.8908593654632568,0.2310643196105957,0.0,0.0,-0.8198109865188599,-0.4906689524650574
-0.7951104044914246,1.898915410041809,-1.010257601737976,0.1916014850139618,-0.8789588212966919,0.2380109131336212,0.0,0.0,-0.7146870493888855,-0.4205689430236816
-0.8050755262374878,1.902969241142273,-1.0044806003570557,0.1865293830633163,-0.8667077422142029,0.2450220584869384,0.0,0.0,-0.8006174564361572,-0.0427414178848266
-0.8149757385253906,1.9069066047668457,-0.9983393549919128,0.1814566701650619,-0.8541032671928406,0.2520906329154968,0.0,0.0,-0.8091713190078735,0.1397342681884765
