x_pos,y_pos,x_vel,y_vel,angle,ang_vel,leg_1,leg_2,main_booster,lat_booster
-0.0014420509105548,1.4029710292816162,-0.1459645628929138,-0.3532903492450714,0.0015704983379691,0.0309651792049407,0.0,0.0,-0.3722435235977173,0.8583788871765137
-0.0027299881912767,1.3943877220153809,-0.1283248662948608,-0.3814786374568939,0.0011097829556092,-0.0092143882066011,0.0,0.0,-0.3062671422958374,0.5491178035736084
-0.0038850784767419,1.3851466178894043,-0.1135470643639564,-0.4107142686843872,-0.0008252681582234,-0.0387045703828334,0.0,0.0,0.0322681665420532,0.5841372013092041
-0.0049982070922851,1.375718593597412,-0.1079188361763954,-0.4190295040607452,-0.0041937548667192,-0.0673761814832687,0.0,0.0,-0.4358859062194824,0.6737072467803955
-0.0059692384675145,1.3656389713287354,-0.0919030085206031,-0.4480026960372925,-0.009328925050795,-0.1027127131819725,0.0,0.0,0.1941052675247192,-0.4846940636634826
-0.0067605972290039,1.3554937839508057,-0.0742692500352859,-0.4509330689907074,-0.0141391502693295,-0.0962135642766952,0.0,0.0,-0.4410914778709411,-0.0737644433975219
-0.0074765207245945,1.3446955680847168,-0.0665800496935844,-0.4799793660640716,-0.0191000942140817,-0.0992278382182121,0.0,0.0,-0.1201574802398681,-0.922735333442688
-0.0081731798127293,1.3332483768463137,-0.0658884197473526,-0.5088121891021729,-0.0228359308093786,-0.0747235342860221,0.0,0.0,-0.5762156844139099,-0.8664616942405701
-0.0088668819516897,1.321160078048706,-0.0672188103199005,-0.5373023152351379,-0.0249714218080043,-0.0427136458456516,0.0,0.0,-0.3776140213012695,-0.906195878982544
-0.0095614437013864,1.3084264993667605,-0.0689611062407493,-0.5659427642822266,-0.0254596434533596,-0.0097654173150658,0.0,0.0,-0.4930614233016968,-0.8606575131416321
-0.0102453231811523,1.2950425148010254,-0.0692208260297775,-0.594832181930542,-0.0246368795633316,0.016456913203001,0.0,0.0,-0.3254469633102417,-0.9748029708862304
-0.0109301563352346,1.281005620956421,-0.0708952993154525,-0.6238222718238831,-0.022259185090661,0.0475581139326095,0.0,0.0,-0.7375412583351135,-0.8412991166114807
-0.0116023067384958,1.2663215398788452,-0.0707831904292106,-0.6525748372077942,-0.0187240485101938,0.0707091838121414,0.0,0.0,-0.6373630166053772,-0.6189908385276794
-0.0122550968080759,1.2509799003601074,-0.0698030591011047,-0.6818046569824219,-0.0142522305250167,0.0894445031881332,0.0,0.0,-0.1807817816734314,-0.4472870826721191
-0.0128477094694972,1.2349849939346311,-0.0636246427893638,-0.7108461856842041,-0.0099296187981963,0.0864599123597145,0.0,0.0,-0.3226938247680664,0.0210305452346801
-0.013382339850068,1.218337059020996,-0.0576875396072864,-0.7398876547813416,-0.0057547949254512,0.0835039764642715,0.0,0.0,-0.63750159740448,0.3104372024536133
-0.0138616561889648,1.201035976409912,-0.0520058795809745,-0.7689291834831238,-0.0017267797375097,0.0805674344301223,0.0,0.0,-0.1888726949691772,0.2414422035217285
-0.0142884254455566,1.1830816268920898,-0.0465937070548534,-0.7979706525802612,0.0021557779982686,0.0776578933000564,0.0,0.0,0.1406478881835937,-0.2003777623176574
-0.0145994182676076,1.1653056144714355,-0.0351946577429771,-0.7900546789169312,0.0062082158401608,0.0810560435056686,0.0,0.0,0.1706181764602661,0.2280352115631103
-0.0149231906980276,1.147477388381958,-0.0360592529177665,-0.7923914194107056,0.009851018898189,0.0728625655174255,0.0,0.0,-0.0747569799423217,0.1906031370162964
-0.015203190036118,1.128995656967163,-0.0315430574119091,-0.8214339017868042,0.0133538749068975,0.0700629502534866,0.0,0.0,0.1382083892822265,0.374326229095459
-0.0154387475922703,1.1103181838989258,-0.0269924104213714,-0.8301462531089783,0.0167558994144201,0.0680467635393142,0.0,0.0,0.3140813112258911,0.0768762826919555
-0.015541267581284,1.091639518737793,-0.0140335261821746,-0.8302133679389954,0.0205020401626825,0.0749292001128196,0.0,0.0,0.0082979202270507,0.6397476196289062
-0.015514850616455,1.0725890398025513,0.0002189685183111,-0.8467236757278442,0.0228932797908782,0.0478289648890495,0.0,0.0,0.633988618850708,0.1735397577285766
-0.0156135559082031,1.0538349151611328,-0.0115028284490108,-0.8335448503494263,0.024503156542778,0.0322005897760391,0.0,0.0,0.5166847705841064,0.2581067085266113
-0.0158354751765728,1.0353699922561646,-0.0230619050562381,-0.820671796798706,0.0253665428608655,0.0172677002847194,0.0,0.0,0.2204954624176025,0.1387357711791992
-0.0160459522157907,1.017056584358215,-0.0218087024986743,-0.8139395117759705,0.0261185597628355,0.0150402635335922,0.0,0.0,0.605579137802124,0.2964184284210205
-0.0163861270993948,0.9992875456809998,-0.03406672924757,-0.7897374629974365,0.026162015274167,0.0008691368857398,0.0,0.0,0.7129437923431396,-0.0109948515892028
-0.0168686863034963,0.9820640087127686,-0.0475420653820037,-0.7654781937599182,0.0254619698971509,-0.0140009224414825,0.0,0.0,0.3952274322509765,-0.9237285852432252
-0.0174452774226665,0.9647974371910096,-0.0586772561073303,-0.7674188017845154,0.0264672935009002,0.0201063863933086,0.0,0.0,0.2404004335403442,-0.136811077594757
-0.0180192943662405,0.9478313326835632,-0.058372288942337,-0.7540719509124756,0.0274271611124277,0.0191974304616451,0.0,0.0,0.6603357791900635,-0.0453634858131408
-0.018682574853301,0.9308687448501588,-0.0668261349201202,-0.7538965940475464,0.0279186852276325,0.0098306024447083,0.0,0.0,-0.1086319684982299,-0.1331143975257873
-0.0193492881953716,0.9132528305053712,-0.0670748725533485,-0.7829345464706421,0.0283073876053094,0.0077740689739584,0.0,0.0,0.8836042881011963,-0.5589479207992554
-0.020157242193818,0.8955900073051453,-0.0819901898503303,-0.7850419282913208,0.0294908843934535,0.0236700605601072,0.0,0.0,0.462162971496582,0.713172197341919
-0.0209217071533203,0.8781107664108276,-0.0761457979679107,-0.7768533825874329,0.0291890241205692,-0.0060370219871401,0.0,0.0,0.4696258306503296,-0.082925260066986
-0.0217066761106252,0.8609875440597534,-0.078181505203247,-0.7610276937484741,0.0288711041212081,-0.0063584754243493,0.0,0.0,0.0732934474945068,0.1977177858352661
-0.02253894880414,0.8436537384986877,-0.0827289670705795,-0.7703863382339478,0.0283875316381454,-0.0096712950617074,0.0,0.0,-0.4890221357345581,-0.467223048210144
-0.0233971588313579,0.8256663680076599,-0.0852508470416069,-0.7994243502616882,0.0278213191777467,-0.0113243386149406,0.0,0.0,0.9592090845108032,-0.6757334470748901
-0.0244173053652048,0.8085271120071411,-0.1026006713509559,-0.7617557048797607,0.0283916741609573,0.0114074135199189,0.0,0.0,0.2371910810470581,0.5583573579788208
-0.0254178997129201,0.7914204597473145,-0.0994825288653373,-0.7602797746658325,0.0278228186070919,-0.0113768558949232,0.0,0.0,0.2074418067932129,-0.0353406071662902
-0.0265514366328716,0.7745105624198914,-0.1123386174440383,-0.7515340447425842,0.0268228221684694,-0.01999999769032,0.0,0.0,0.3327990770339966,0.0750842094421386
-0.0276399608701467,0.7575844526290894,-0.1082449555397033,-0.7522583603858948,0.0262173470109701,-0.0121091455221176,0.0,0.0,0.1484109163284301,0.68363356590271
-0.0286512374877929,0.7403294444084167,-0.0991595834493637,-0.7668539881706238,0.0242840927094221,-0.0386652909219265,0.0,0.0,-0.1555392146110534,0.1185265779495239
-0.0297136306762695,0.7224211692810059,-0.1042306572198867,-0.7958923578262329,0.0222930703312158,-0.039820235222578,0.0,0.0,0.7851994037628174,0.273033857345581
-0.0308822635561227,0.7043353915214539,-0.1145803183317184,-0.803784191608429,0.020045256242156,-0.0449565276503562,0.0,0.0,0.9778952598571776,0.8440932035446167
-0.0319906249642372,0.6861914992332458,-0.1069365739822387,-0.8063506484031677,0.0161960795521736,-0.0769832134246826,0.0,0.0,0.7476882934570312,-0.185183048248291
-0.0331044197082519,0.6681048274040222,-0.1077345386147499,-0.8038120865821838,0.0125998649746179,-0.0719243139028549,0.0,0.0,0.6349488496780396,0.2063192129135131
-0.0344054214656353,0.6506004929542542,-0.1258970350027084,-0.7779377102851868,0.0084475353360176,-0.0830462798476219,0.0,0.0,0.4138456583023071,0.7837111949920654
-0.0358462333679199,0.6334611177444458,-0.1380728334188461,-0.7617337107658386,0.0025169528089463,-0.1186116933822631,0.0,0.0,0.5690765380859375,0.6551003456115723
-0.0373302474617958,0.616391658782959,-0.1409920454025268,-0.7586473226547241,-0.0047972807660698,-0.1462847143411636,0.0,0.0,0.3024349212646484,-0.3755047917366028
-0.0387738235294818,0.5993439555168152,-0.1374503672122955,-0.7577131390571594,-0.0116183059290051,-0.1364206075668335,0.0,0.0,0.7309750318527222,0.4925005435943603
-0.040346335619688,0.5828023552894592,-0.1500327736139297,-0.7352573275566101,-0.0187444761395454,-0.1425234377384185,0.0,0.0,-0.4713830947875976,0.7435901165008545
-0.0419295318424701,0.5656021237373352,-0.1493099629878997,-0.7645929455757141,-0.0276405438780784,-0.1779216080904007,0.0,0.0,0.3164684772491455,0.3139851093292236
-0.0435751900076866,0.548702597618103,-0.1555503606796264,-0.7512837052345276,-0.0365434847772121,-0.1780587583780288,0.0,0.0,-0.2149009704589843,0.7020457983016968
-0.045236587524414,0.5311444401741028,-0.155340701341629,-0.7806578278541565,-0.0472038947045803,-0.2132081538438797,0.0,0.0,0.5112180709838867,-0.0728290081024169
-0.0470517165958881,0.5135864615440369,-0.1703191697597503,-0.7807417511940002,-0.0582800172269344,-0.2215226143598556,0.0,0.0,0.4810187816619873,0.3472288846969604
-0.048830222338438,0.4964392185211181,-0.1670323610305786,-0.7625535130500793,-0.0689741522073745,-0.2138827294111251,0.0,0.0,0.523564338684082,0.065170407295227
-0.0505296699702739,0.479557603597641,-0.159729391336441,-0.7507936358451843,-0.079084001481533,-0.2021970450878143,0.0,0.0,0.5171796083450317,0.6088929176330566
-0.0521391853690147,0.4631464183330536,-0.1496906578540802,-0.730017364025116,-0.0902390107512474,-0.2230999767780304,0.0,0.0,-0.3567757606506347,-0.4331868886947632
-0.053842831403017,0.4460834860801697,-0.1591216027736663,-0.7590659260749817,-0.1013916283845901,-0.22305229306221,0.0,0.0,0.5723564624786377,-0.6765022873878479
-0.055607222020626,0.4288887977600097,-0.1666728407144546,-0.7648982405662537,-0.1110811308026313,-0.1937901079654693,0.0,0.0,0.5814058780670166,-0.8583911657333374
-0.0575678832828998,0.4120762944221496,-0.1878974735736847,-0.7478525042533875,-0.1192063614726066,-0.1625045239925384,0.0,0.0,0.9088630676269532,-0.7069084048271179
-0.0594585426151752,0.3954817056655884,-0.1826995015144348,-0.7380580306053162,-0.1255385875701904,-0.126644417643547,0.0,0.0,0.9551082849502563,0.0385718345642089
-0.0613303184509277,0.3793085813522339,-0.1809618771076202,-0.7193453907966614,-0.1317265331745147,-0.1237585097551345,0.0,0.0,0.9954156875610352,0.1799840927124023
-0.0632298439741134,0.3632005155086517,-0.1838069260120391,-0.7164692282676697,-0.1378523111343383,-0.1225159913301467,0.0,0.0,0.9878954887390136,-0.2796832919120788
-0.0652810111641883,0.3475269079208374,-0.1982990503311157,-0.6972507834434509,-0.1446455866098404,-0.1358654797077179,0.0,0.0,0.8440423011779785,-0.3071375489234924
-0.0672733336687088,0.3326131701469421,-0.1925694644451141,-0.6634965538978577,-0.1513034701347351,-0.1331576257944107,0.0,0.0,0.8484194278717041,-0.551061749458313
-0.0692670792341232,0.3175128400325775,-0.1941142380237579,-0.6716687083244324,-0.1565603911876678,-0.105138398706913,0.0,0.0,0.968729853630066,0.1583287715911865
-0.0711748152971267,0.3032591342926025,-0.1856928765773773,-0.6340397596359253,-0.1616378128528595,-0.1015482321381568,0.0,0.0,0.9287772178649902,-0.2771000862121582
-0.0732071846723556,0.2891970872879028,-0.1976860165596008,-0.6255953311920166,-0.1671900451183319,-0.1110442727804184,0.0,0.0,0.877255916595459,0.2170968055725097
-0.0753201469779014,0.2756460607051849,-0.2053108662366867,-0.6029554605484009,-0.1731886863708496,-0.1199726238846778,0.0,0.0,0.8599889278411865,0.4482866525650024
-0.077384665608406,0.2624683380126953,-0.2006733417510986,-0.5863643884658813,-0.1789880990982055,-0.1159878820180893,0.0,0.0,0.6383931636810303,0.687711238861084
-0.0794899016618728,0.2499041408300399,-0.2031185179948806,-0.559318482875824,-0.1864158660173416,-0.1485555469989776,0.0,0.0,0.1479766368865966,0.45428466796875
-0.0815780609846115,0.2372644990682602,-0.2017055004835128,-0.5626752376556396,-0.1935630738735199,-0.1429440677165985,0.0,0.0,0.9209907054901124,0.1934921741485595
-0.083725169301033,0.2246526777744293,-0.2074821293354034,-0.5614885687828064,-0.2008446604013443,-0.1456319242715835,0.0,0.0,0.8182717561721802,0.368808388710022
-0.0858361274003982,0.2118915170431137,-0.2042595148086547,-0.5681084394454956,-0.207730621099472,-0.1377191841602325,0.0,0.0,0.9422382116317748,0.9114499092102052
-0.0879445075988769,0.1990447342395782,-0.2021728008985519,-0.5722077488899231,-0.2164799124002456,-0.1749860942363739,0.0,0.0,0.9781444072723388,-0.132379949092865
-0.0899679213762283,0.1869400292634964,-0.1936927139759063,-0.5392787456512451,-0.2252213358879089,-0.1748288571834564,0.0,0.0,0.959907054901123,0.4294772148132324
-0.0917921066284179,0.1755658239126205,-0.1742821931838989,-0.5067833662033081,-0.23346708714962,-0.1649153977632522,0.0,0.0,0.9074738025665284,-0.2275324463844299
-0.0936339348554611,0.1649610847234726,-0.1755207628011703,-0.4727183878421783,-0.2422535270452499,-0.1757292300462722,0.0,0.0,0.8544244766235352,-0.5263392329216003
-0.095687486231327,0.1543102115392685,-0.1973815411329269,-0.4747051298618316,-0.2503647804260254,-0.1622257530689239,0.0,0.0,0.9148664474487304,0.4665722846984863
-0.0975790023803711,0.1443206667900085,-0.1814788281917572,-0.4453079104423523,-0.258197158575058,-0.1566470563411712,0.0,0.0,0.8096358776092529,-0.4555551409721374
-0.0995275527238845,0.1346351057291031,-0.1867518126964569,-0.4319175183773041,-0.2664783000946045,-0.165623128414154,0.0,0.0,0.9270038604736328,-0.1059778332710266
-0.1014404296875,0.1254661679267883,-0.182975485920906,-0.409044861793518,-0.2749888300895691,-0.1702104806900024,0.0,0.0,0.9682376384735109,-0.2197269201278686
-0.1032518371939659,0.1168529093265533,-0.1728463172912597,-0.3843913376331329,-0.2834971249103546,-0.1701662689447403,0.0,0.0,0.8756198883056641,-0.586480438709259
-0.1049324050545692,0.108513243496418,-0.1612974107265472,-0.3719841837882995,-0.2904596924781799,-0.1392513364553451,0.0,0.0,0.9648234844207764,-0.0121775269508361
-0.1065807342529296,0.1000934690237045,-0.1582846045494079,-0.3755353987216949,-0.2972205579280853,-0.1352171450853347,0.0,0.0,0.9695703983306884,-0.865108847618103
-0.108150765299797,0.0916795581579208,-0.1524578630924224,-0.3748863637447357,-0.3019151985645294,-0.0938925892114639,0.0,0.0,0.9981448650360109,-0.7354475855827332
-0.1094989776611328,0.0835412368178367,-0.1322503238916397,-0.3622406721115112,-0.3045817613601684,-0.0533310882747173,0.0,0.0,0.9895962476730348,-0.510223388671875
-0.1106868758797645,0.0753635764122009,-0.1177940815687179,-0.3636583089828491,-0.305601954460144,-0.0204037558287382,0.0,0.0,0.9968490600585938,-0.7387734055519104
-0.1117747277021408,0.0678658336400985,-0.1093216761946678,-0.3331206738948822,-0.3050529658794403,0.0109795853495597,0.0,0.0,0.998587727546692,-0.2695168256759643
-0.1126633659005165,0.0610104650259017,-0.0896323025226593,-0.3045217096805572,-0.3042526245117187,0.0160071048885583,0.0,0.0,0.98116934299469,-0.5499412417411804
-0.113314151763916,0.0545964799821376,-0.0674618333578109,-0.2845695912837982,-0.3017919361591339,0.0492138527333736,0.0,0.0,0.931775689125061,-0.5003920197486877
-0.1138834953308105,0.0480327233672142,-0.0607275143265724,-0.2909412682056427,-0.2978628575801849,0.0785813853144645,0.0,0.0,0.9163830280303956,-0.210595428943634
-0.1144496947526931,0.0416892617940902,-0.0602362640202045,-0.2811973690986633,-0.2941341400146484,0.0745744630694389,0.0,0.0,0.9834368228912354,-0.1882603764533996
-0.114730454981327,0.0361350886523723,-0.0322295427322387,-0.2460196763277053,-0.2898527979850769,0.0856260955333709,0.0,0.0,0.9901643991470336,-0.2432633638381958
-0.1149542778730392,0.0309250205755233,-0.0264933444559574,-0.2307488918304443,-0.2856179177761078,0.0846974998712539,0.0,0.0,0.9800187349319458,-0.3193937540054321
-0.115120030939579,0.0274659730494022,-0.0377810075879097,-0.1497318297624588,-0.2638622522354126,0.4351064264774322,1.0,0.0,0.722221851348877,0.2156438827514648
-0.114918328821659,0.0250869616866111,-0.0169149953871965,-0.0995164588093757,-0.226057082414627,0.7561722993850708,1.0,0.0,0.5342681407928467,0.3683825731277466
-0.1146248802542686,0.0230883210897445,-0.0069523500278592,-0.0836797505617141,-0.1894328743219375,0.7324841618537903,1.0,0.0,0.2735713720321655,0.3564889430999756
-0.1142832785844802,0.0213221404701471,-0.0020859611686319,-0.0742722526192665,-0.1531071066856384,0.7265156507492065,0.0,0.0,0.8993546962738037,0.9705415964126588
-0.1139205917716026,0.0197540149092674,0.0017327626701444,-0.0665035247802734,-0.1186933070421218,0.6882769465446472,0.0,0.0,0.7440741062164307,0.592515230178833
-0.1136781722307205,0.0185087546706199,-0.0089963441714644,-0.0530341379344463,-0.0857172459363937,0.6595215797424316,0.0,0.0,0.5411592721939087,0.8351047039031982
-0.1135958656668663,0.0173636302351951,-0.0232521537691354,-0.0493853203952312,-0.0545529760420322,0.6232859492301941,0.0,0.0,0.2342637777328491,0.8851296901702881
-0.1134342178702354,0.0163735002279281,-0.0137377176433801,-0.0431846976280212,-0.0250059813261032,0.5909399390220642,0.0,0.0,-0.220025897026062,0.8545523881912231
-0.1133097633719444,0.0147305587306618,-0.0156753994524478,-0.0727834329009056,0.0027552745305001,0.5552254319190979,0.0,0.0,0.4014074802398681,0.4233489036560058
-0.1131757721304893,0.0134160611778497,-0.0153832342475652,-0.05872218683362,0.0311738178133964,0.5683711767196655,0.0,0.0,-0.2663029432296753,0.826366662979126
-0.1130907982587814,0.0114681338891386,-0.0187513940036296,-0.0873588696122169,0.0580983683466911,0.5384910106658936,0.0,0.0,0.2004910707473755,0.9533679485321044
-0.11295747756958,0.0098339179530739,-0.0120691852644085,-0.0738072320818901,0.0832410454750061,0.5028539299964905,0.0,0.0,-0.4289228916168213,0.8578722476959229
-0.1129390746355056,0.0083028767257928,-0.0028959151823073,-0.0683154985308647,0.0879450514912605,0.0940906703472137,0.0,1.0,-0.391343355178833,0.9624971151351928
-0.1129598617553711,0.0068392846733331,0.0139940697699785,-0.0641823634505271,0.0720213800668716,-0.3184819221496582,0.0,1.0,0.1539430618286132,0.3467284440994262
-0.1130556091666221,0.0060120560228824,0.0188188441097736,-0.0356394313275814,0.0439419448375701,-0.5616014003753662,0.0,1.0,-0.0532801151275634,-0.0417628288269043
-0.1131270378828048,0.0045055486261844,0.0198505707085132,-0.0663795545697212,0.0172844268381595,-0.533150851726532,0.0,1.0,-0.0022666454315185,0.0145360231399536
-0.1131985634565353,0.0023551320191472,0.0198536533862352,-0.0954777747392654,-0.0093717947602272,-0.5331247448921204,0.0,0.0,-0.1936889886856079,-0.7361629009246826
-0.1134517639875412,-0.0004408383392728,-0.0002152160304831,-0.1246070489287376,-0.0341606810688972,-0.4957781732082367,1.0,0.0,0.4815839529037475,0.2189196348190307
-0.1136457473039627,-0.0025748752523213,-0.0080465972423553,-0.0954281091690063,-0.0441543012857437,-0.1983150541782379,1.0,0.0,0.0275132656097412,0.3895438909530639
-0.1136762648820877,-0.0042096637189388,-0.0122678549960255,-0.0724148675799369,-0.035025767982006,0.1825994700193405,1.0,0.0,0.8397889137268066,0.8678983449935913
-0.1134398430585861,-0.004619862884283,0.0159435085952281,-0.0180865786969661,-0.0274331532418727,0.1518498957157135,1.0,1.0,-0.9737539291381836,0.0293885469436645
-0.1132001876831054,-0.0044445539824664,0.017296303063631,0.0078891348093748,-0.0208532698452472,0.1315890401601791,1.0,1.0,-0.9367772340774536,-0.0308489203453063
-0.1129296272993087,-0.0037566924002021,0.0224195532500743,0.0306249056011438,-0.0162946656346321,0.0911483913660049,1.0,1.0,-0.747652530670166,0.3294326066970825
