x_pos,y_pos,x_vel,y_vel,angle,ang_vel,leg_1,leg_2,main_booster,lat_booster
-0.0015060424339026,1.4035100936889648,-0.1527338773012161,-0.3293307423591614,0.0019019886385649,0.0375290773808956,0.0,0.0,0.3953430593236151,-0.8934400752850953
-0.003016376402229,1.3965890407562256,-0.1548959910869598,-0.3076093792915344,0.005722242873162,0.0764130502939224,0.0,0.0,-0.6227928569018222,0.9958877748414524
-0.0044149397872388,1.3895468711853027,-0.1414259374141693,-0.3129947781562805,0.0072756335139274,0.0310706086456775,0.0,0.0,0.7562814560154929,-0.8570621679445919
-0.0060092927888035,1.3831820487976074,-0.1625801175832748,-0.2829000651836395,0.0103922393172979,0.0623377561569213,0.0,0.0,0.3106184819005777,0.5944766688900915
-0.0074353218078613,1.3774831295013428,-0.1449483036994934,-0.253302663564682,0.0127089219167828,0.0463378205895423,0.0,0.0,0.0497439727139519,0.9336814018196368
-0.0086747165769338,1.3721895217895508,-0.1245479956269264,-0.2352764904499054,0.0133133996278047,0.0120906382799148,0.0,0.0,0.2308135349696289,-0.9188491453133998
-0.0099987983703613,1.3674250841140747,-0.1349912136793136,-0.2117773592472076,0.0158632975071668,0.0510026887059211,0.0,0.0,-0.2583095176839411,-0.9490764755628864
-0.0113674160093069,1.3625478744506836,-0.1410109549760818,-0.2168131321668625,0.0199635010212659,0.0820115506649017,0.0,0.0,0.7221712121089243,-0.8056909349636804
-0.0128202438354492,1.3588714599609375,-0.1511494070291519,-0.1634855270385742,0.0257672853767871,0.1160863488912582,0.0,0.0,-0.3882125499141931,0.642882753063237
-0.0142130851745605,1.3550869226455688,-0.1439977288246154,-0.1682919114828109,0.0304340776056051,0.0933443754911422,0.0,0.0,0.1070720361520243,-0.7995389187789547
-0.015605735592544,1.3517866134643557,-0.1457755267620086,-0.1468257457017898,0.0368692129850387,0.1287144720554351,0.0,0.0,0.5113190072497535,0.7425929256730037
-0.0168789867311716,1.3491023778915403,-0.1326096951961517,-0.1194363385438919,0.0420992374420166,0.1046099439263343,0.0,0.0,-0.6653401828628598,0.9536226937315606
-0.0180549621582031,1.3463146686553955,-0.1206880211830139,-0.1239845976233482,0.0451632812619209,0.0612867102026939,0.0,0.0,0.5423897936436624,-0.7125288638161882
-0.0192259792238473,1.3439042568206787,-0.1219055205583572,-0.1072802394628524,0.0499186925590038,0.0951167270541191,0.0,0.0,-0.5972448030109851,0.7014933654000024
-0.0203253738582134,1.341392159461975,-0.1131380200386047,-0.1117600053548812,0.0530858114361763,0.0633481815457344,0.0,0.0,0.2720366713639159,0.901829905790111
-0.0212657935917377,1.3391116857528689,-0.0956315845251083,-0.1014158427715301,0.0546686127781868,0.0316587947309017,0.0,0.0,-0.624355872244277,-0.7009579524819708
-0.0222476013004779,1.3367215394973757,-0.1010077744722366,-0.1063326746225357,0.0574545934796333,0.055724661797285,0.0,0.0,0.1731221262295967,-0.9758455270862876
-0.0232023242861032,1.3346112966537476,-0.100380003452301,-0.0939877927303314,0.0623256042599678,0.0974290519952774,0.0,0.0,-0.2769037055572376,0.5233836493228361
-0.0241105072200298,1.332396388053894,-0.0946428179740905,-0.0986052751541137,0.0661145150661468,0.0757847875356674,0.0,0.0,0.843256465408251,0.7534442433127932
-0.025101089850068,1.3310081958770752,-0.1012807339429855,-0.0617903918027877,0.0683127343654632,0.0439682975411415,0.0,0.0,-0.941628885563896,-0.6930627950398944
-0.0261385925114154,1.3295066356658936,-0.1071880459785461,-0.0669016912579536,0.0717217475175857,0.0681865513324737,0.0,0.0,-0.420424251044837,0.7065472544629781
-0.0271237380802631,1.3278930187225342,-0.1006436347961425,-0.0718168541789054,0.0738206654787063,0.0419824719429016,0.0,0.0,0.2091671969102622,0.902010229719164
-0.0279628746211528,1.3267802000045776,-0.0844046100974083,-0.0494803637266159,0.0743014886975288,0.0096174236387014,0.0,0.0,0.7597333372394866,0.5666110266085094
-0.0287092216312885,1.3260579109191897,-0.0743189677596092,-0.0320789702236652,0.0739899054169654,-0.0062322034500539,0.0,0.0,-0.8168772380983871,-0.8320104673227863
-0.029544735327363,1.325214982032776,-0.0854187607765197,-0.037562932819128,0.0758416801691055,0.0370388329029083,0.0,0.0,0.5176670106529422,-0.980552040960094
-0.0306670181453228,1.3251829147338867,-0.1160333305597305,-0.001624270225875,0.0796114131808281,0.075394757091999,0.0,0.0,-0.6838761108240443,-0.656329288822405
-0.0318509116768837,1.3250348567962646,-0.1236134991049766,-0.0068665868602693,0.0847899913787841,0.1035713329911232,0.0,0.0,0.245053216768287,-0.873300558449138
-0.0332807525992393,1.3256886005401611,-0.1499902904033661,0.0286415610462427,0.09173534065485,0.1389070451259613,0.0,0.0,0.1636720951833397,-0.7058707795981564
-0.0349318496882915,1.3270277976989746,-0.1735143661499023,0.058979645371437,0.1000694260001182,0.1666818559169769,0.0,0.0,0.2932728828122231,-0.5342415354952763
-0.0366933830082416,1.328812599182129,-0.1856904625892639,0.0786529928445816,0.1095310598611831,0.1892328858375549,0.0,0.0,0.0322061082122686,0.7196291292792716
-0.0384568199515342,1.3312925100326538,-0.1845281422138214,0.109595201909542,0.1176599934697151,0.1625791788101196,0.0,0.0,-0.7665605545043945,0.8125873804092407
-0.0401784889400005,1.3336642980575562,-0.1790134608745575,0.1048509180545806,0.1244711577892303,0.1362232863903045,0.0,0.0,-0.724522590637207,0.8592188358306885
-0.0418574325740337,1.335941195487976,-0.173340231180191,0.1007329747080802,0.1298863589763641,0.1083040460944175,0.0,0.0,-0.6318017244338989,0.9082925319671632
-0.043487548828125,1.3381085395812988,-0.1668998599052429,0.095983862876892,0.133766621351242,0.0776051133871078,0.0,0.0,-0.7086544632911682,0.7983298301696777
-0.0450695045292377,1.3401765823364258,-0.1605297774076461,0.0917004868388176,0.1360864788293838,0.0463970750570297,0.0,0.0,-0.7281502485275269,0.4536607265472412
-0.046668242663145,1.342130422592163,-0.1622675508260727,0.0866206660866737,0.1384797245264053,0.0478653535246849,0.0,0.0,-0.6524624824523926,0.768274188041687
-0.0482261665165424,1.3439784049987793,-0.1567908972501754,0.0820392519235611,0.1394745260477066,0.0198956411331892,0.0,0.0,-0.8450467586517334,0.7296969890594482
-0.0497415550053119,1.3457306623458862,-0.1510446816682815,0.0779213085770607,0.1389784812927246,-0.0099208801984786,0.0,0.0,-0.4897119998931885,0.137764573097229
-0.0512751564383506,1.3473687171936035,-0.1529185771942138,0.0728420913219451,0.1385395228862762,-0.0087794177234172,0.0,0.0,-0.765457808971405,0.3456916809082031
-0.0528273582458496,1.3488924503326416,-0.1548310816287994,0.0677629336714744,0.1381518691778183,-0.0077528110705316,0.0,0.0,-0.678772509098053,0.6987519264221191
-0.0543540939688682,1.3503174781799316,-0.1511781960725784,0.0634673088788986,0.1366578936576843,-0.0298795197159051,0.0,0.0,-0.6715341806411743,0.1949172019958496
-0.0559002868831157,1.3516281843185425,-0.1531589925289154,0.0583881326019763,0.1352034956216812,-0.0290880762040615,0.0,0.0,-0.742607593536377,0.1854429244995117
-0.0574663169682025,1.3528248071670532,-0.1551698893308639,0.0533090382814407,0.133782684803009,-0.0284162126481533,0.0,0.0,-0.5369247794151306,0.6138248443603516
-0.0589962005615234,1.353917360305786,-0.1501599848270416,0.0488061197102069,0.1309614777565002,-0.0564240887761116,0.0,0.0,-0.6371522545814514,0.2106317281723022
-0.060546588152647,1.354895830154419,-0.1522238999605178,0.0437266863882541,0.1281618326902389,-0.0559926517307758,0.0,0.0,-0.6126711368560791,0.187546968460083
-0.0621176734566688,1.355760097503662,-0.1543111205101013,0.0386473312973976,0.1253777742385864,-0.0556811280548572,0.0,0.0,-0.7707523703575134,0.5101966857910156
-0.0636654868721962,1.356515884399414,-0.1508605480194091,0.0339101143181324,0.1214826554059982,-0.0779027417302131,0.0,0.0,-0.6015097498893738,-0.0277088284492492
-0.0652344673871994,1.3571574687957764,-0.1529886275529861,0.0288302768021821,0.1175912618637085,-0.0778278037905693,0.0,0.0,-0.8130613565444946,0.558525562286377
-0.0667912513017654,1.3576960563659668,-0.1508781313896179,0.0243064034730196,0.1128265857696533,-0.0952934995293617,0.0,0.0,-0.533380925655365,0.1456191539764404
-0.0683696717023849,1.3581205606460571,-0.1530404537916183,0.0192260481417179,0.1080541759729385,-0.0954479873180389,0.0,0.0,-0.6908526420593262,0.2767879962921142
-0.0699700340628624,1.358431339263916,-0.1552177816629409,0.0141457319259643,0.1032685115933418,-0.0957135483622551,0.0,0.0,-0.7028185725212097,0.1702736616134643
-0.0715926140546798,1.3586277961730957,-0.1574088037014007,0.0090654473751783,0.0984641462564468,-0.0960873514413833,0.0,0.0,-0.5917807817459106,0.3204870223999023
-0.0732375159859657,1.358710527420044,-0.1596123278141021,0.0039851823821663,0.0936358422040939,-0.0965662747621536,0.0,0.0,-0.7887741923332214,-0.0940079092979431
-0.0749048218131065,1.358679175376892,-0.1618272364139557,-0.0010950728319585,0.0887784957885742,-0.0971469432115554,0.0,0.0,-0.7761754989624023,-0.2975178956985473
-0.0765946358442306,1.3585338592529297,-0.1640525013208389,-0.0061753271147608,0.0838872045278549,-0.0978258475661277,0.0,0.0,-0.7251880764961243,0.147691011428833
-0.0783072486519813,1.3582746982574463,-0.1662871539592743,-0.0112555921077728,0.0789572224020958,-0.0985992699861526,0.0,0.0,-0.8613576889038086,0.0751198530197143
-0.0800428390502929,1.3579013347625732,-0.1685303151607513,-0.0163358729332685,0.0739840567111969,-0.0994633585214614,0.0,0.0,-0.9019092917442322,-0.1218262910842895
-0.0818014144897461,1.3574140071868896,-0.1707811951637268,-0.0214161854237318,0.0689633414149284,-0.1004142761230468,0.0,0.0,-0.8458728790283203,-0.0002505183219909
-0.0835830718278884,1.3568127155303955,-0.1730390042066574,-0.0264965333044528,0.0638909190893173,-0.1014481335878372,0.0,0.0,-0.7168501615524292,-0.2214647531509399
-0.0853879004716873,1.3560974597930908,-0.1753030270338058,-0.0315769203007221,0.0587628781795501,-0.1025609746575355,0.0,0.0,-0.9057035446166992,0.1028505563735961
-0.0872160941362381,1.355268120765686,-0.1775725930929184,-0.0366573706269264,0.0535754337906837,-0.1037489548325538,0.0,0.0,-0.8233965039253235,-0.2653486728668213
-0.089067742228508,1.3543250560760498,-0.1798470765352249,-0.0417378731071949,0.0483250170946121,-0.1050082296133041,0.0,0.0,-0.7383849620819092,-0.1244463324546814
-0.0909427627921104,1.3532679080963137,-0.1821258813142776,-0.0468184500932693,0.043008267879486,-0.1063350215554237,0.0,0.0,-0.9146042466163636,-0.145303726196289
-0.0928413420915603,1.3520967960357666,-0.18440842628479,-0.0518991015851497,0.0376219935715198,-0.1077256649732589,0.0,0.0,-0.7545073628425598,-0.1200734376907348
-0.0947635620832443,1.3508119583129885,-0.1866942197084427,-0.0569798424839973,0.0321631580591201,-0.1091765612363815,0.0,0.0,-0.967563807964325,-0.1679530143737793
-0.0967094451189041,1.34941303730011,-0.1889827102422714,-0.062060672789812,0.0266289338469505,-0.110684297978878,0.0,0.0,-0.9185570478439332,-0.3462287187576294
-0.0986789688467979,1.347900390625,-0.1912734508514404,-0.0671416074037551,0.0210166554898023,-0.112245462834835,0.0,0.0,-0.9429277181625366,0.1365284919738769
-0.1006722450256347,1.3462737798690796,-0.1935659497976303,-0.0722226351499557,0.0153238140046596,-0.1138568297028541,0.0,0.0,-0.958269476890564,-0.673531711101532
-0.1027403846383094,1.3445398807525637,-0.2022542506456375,-0.0770226567983627,0.0108268531039357,-0.0899394005537033,0.0,0.0,-0.9780278205871582,0.0285148620605468
-0.1048323661088943,1.3426918983459473,-0.204548954963684,-0.0821028053760528,0.0062447381205856,-0.0916422829031944,0.0,0.0,-0.9231054782867432,-0.2270796298980713
-0.1069480925798416,1.3407299518585205,-0.2068440914154052,-0.0871830657124519,0.0015754144405946,-0.0933865159749984,0.0,0.0,-0.963132917881012,-0.647962212562561
-0.1091362982988357,1.3386552333831787,-0.2152443379163742,-0.092215709388256,-0.0019604375120252,-0.0707170218229293,0.0,0.0,-0.9288472533226012,-0.1697831749916076
-0.1113485321402549,1.3364661931991575,-0.2175389975309372,-0.097295306622982,-0.0055872234515845,-0.0725360214710235,0.0,0.0,-0.9831873774528505,-0.1392254829406738
-0.1135845184326171,1.3341631889343262,-0.2198328077793121,-0.1023749932646751,-0.0093066617846488,-0.0743886679410934,0.0,0.0,-0.9769923090934752,-0.5511996746063232
-0.1158905029296875,1.3317424058914185,-0.2279071062803268,-0.1076102703809738,-0.011962978169322,-0.053126536309719,0.0,0.0,-0.9951894283294678,-0.0775784850120544
-0.1182203292846679,1.329207420349121,-0.230197861790657,-0.1126895025372505,-0.0147149451076984,-0.0550395548343658,0.0,0.0,-0.9532155990600586,-0.3613489866256714
-0.1205740943551063,1.3265583515167236,-0.2324864417314529,-0.1177687868475914,-0.0175639260560274,-0.0569794848561286,0.0,0.0,-0.9761893153190612,-0.6603216528892517
-0.1230045333504676,1.323802471160889,-0.2414118945598602,-0.122505135834217,-0.0191794112324714,-0.0323095470666885,0.0,0.0,-0.96826171875,-0.5433817505836487
-0.1254961043596267,1.3209388256072998,-0.2483651340007782,-0.1272831559181213,-0.0199569538235664,-0.0155508918687701,0.0,0.0,-0.994661509990692,0.0572273731231689
-0.1280114203691482,1.3179609775543213,-0.2506444752216339,-0.1323619037866592,-0.0208349451422691,-0.0175599418580532,0.0,0.0,-0.9888373017311096,-0.1997706890106201
-0.1305505782365799,1.3148688077926636,-0.2529197633266449,-0.1374406963586807,-0.0218143537640571,-0.0195884443819522,0.0,0.0,-0.985647201538086,0.0848493576049804
-0.1331134736537933,1.3116625547409058,-0.2551905512809753,-0.1425195038318634,-0.022896097972989,-0.0216348133981227,0.0,0.0,-0.9861565828323364,-0.7525898814201355
-0.1357695609331131,1.3083442449569702,-0.2661841213703155,-0.1474679112434387,-0.0223324261605739,0.0112735442817211,0.0,0.0,-0.930944800376892,0.6886625289916992
-0.1383997946977615,1.30491304397583,-0.2622255980968475,-0.1525105088949203,-0.0231173727661371,-0.0156988427042961,0.0,0.0,-0.9974759221076964,-0.1668967008590698
-0.1410535871982574,1.3013675212860107,-0.2644795775413513,-0.1575892865657806,-0.0240068361163139,-0.0177894290536642,0.0,0.0,-0.9987816214561462,0.0854171514511108
-0.1437309235334396,1.2977079153060913,-0.2667267620563507,-0.1626681238412857,-0.0250014569610357,-0.0198920182883739,0.0,0.0,-0.957518458366394,-0.3588259220123291
-0.1464316397905349,1.2939341068267822,-0.2689665853977203,-0.1677469611167907,-0.0261017065495252,-0.022005196660757,0.0,0.0,-0.9977355003356934,0.7283704280853271
-0.1490894258022308,1.2900381088256836,-0.2628637552261352,-0.173208087682724,-0.0289804488420486,-0.057574588805437,0.0,0.0,-0.995985746383667,-0.4585930109024048
-0.1517705023288726,1.2860281467437744,-0.265086829662323,-0.1782875806093216,-0.0319657102227211,-0.0597052164375782,0.0,0.0,-0.9806577563285828,-0.6805545687675476
-0.1545163094997406,1.2819006443023682,-0.2725020051002502,-0.1834884583950042,-0.0340181849896907,-0.0410492494702339,0.0,0.0,-0.9836138486862184,0.2076773643493652
-0.1572852134704589,1.2776590585708618,-0.2747054398059845,-0.1885676831007003,-0.0361778140068054,-0.0431927293539047,0.0,0.0,-0.9612739682197572,-0.939713180065155
-0.1601475775241851,1.273314118385315,-0.2857260107994079,-0.1931168586015701,-0.0366707555949687,-0.009858900681138,0.0,0.0,-0.9981342554092408,-0.3184306621551513
-0.1630326211452484,1.268855094909668,-0.2879064083099365,-0.1981957256793975,-0.0372712910175323,-0.0120108788833022,0.0,0.0,-0.931421995162964,0.6328082084655762
-0.1658823043107986,1.2642719745635986,-0.2827594876289367,-0.2037524878978729,-0.0394501388072967,-0.0435766763985157,0.0,0.0,-0.9772401452064514,0.7351353168487549
-0.168701559305191,1.259569525718689,-0.2782610654830932,-0.2091002762317657,-0.0430719479918479,-0.0724363476037979,0.0,0.0,-0.9915868639945984,-0.3672500848770141
-0.1715433150529861,1.2547529935836792,-0.2804000675678253,-0.2141802757978439,-0.0468016155064106,-0.0745932012796402,0.0,0.0,-0.950621485710144,0.4537656307220459
-0.1744073927402496,1.2498223781585691,-0.2825231850147247,-0.2192604094743728,-0.0506391003727912,-0.0767497345805168,0.0,0.0,-0.8776823878288269,-0.2667505741119385
-0.1772936880588531,1.2447779178619385,-0.2846292853355407,-0.2243406325578689,-0.0545843504369258,-0.0789050757884979,0.0,0.0,-0.9673607349395752,-0.8228773474693298
-0.1802573204040527,1.2396280765533447,-0.2936813533306122,-0.2289825826883316,-0.0572355948388576,-0.053024984896183,0.0,0.0,-0.8328576683998108,0.2807737588882446
-0.1832427084445953,1.234364032745361,-0.2957496643066406,-0.2340622246265411,-0.059994351118803,-0.0551750436425209,0.0,0.0,-0.4147886633872986,0.8395318984985352
-0.1861922293901443,1.2289868593215942,-0.2905946373939514,-0.2391619831323623,-0.0643006041646003,-0.0861255824565887,0.0,0.0,-0.9286760091781616,0.5487271547317505
-0.1891216337680816,1.2234901189804075,-0.2874146699905395,-0.244547501206398,-0.0697616338729858,-0.1092204004526138,0.0,0.0,-0.9351849555969238,-0.0315379500389099
-0.1920720040798187,1.2178796529769895,-0.2894162535667419,-0.2496291548013687,-0.0753294229507446,-0.1113555058836937,0.0,0.0,-0.9145222902297974,-0.2711409330368042
-0.1950431764125824,1.2121553421020508,-0.2913926839828491,-0.2547109425067901,-0.0810036063194274,-0.1134839057922363,0.0,0.0,-0.8604590892791748,0.9430396556854248
-0.1979472190141677,1.2063125371932983,-0.282336562871933,-0.2601397633552551,-0.0889912322163581,-0.1597524136304855,0.0,0.0,-0.9652463793754578,0.6840667724609375
-0.200812429189682,1.2003427743911743,-0.2768377661705017,-0.2659324705600738,-0.0985883697867393,-0.1919430792331695,0.0,0.0,-0.9464049339294434,0.7155096530914307
-0.203627198934555,1.1942553520202637,-0.2699188590049743,-0.2713521718978882,-0.1100587546825409,-0.2294079065322876,0.0,0.0,-0.939908802509308,0.8829345703125
-0.2063941061496734,1.1880521774291992,-0.2633412778377533,-0.2767356932163238,-0.123325303196907,-0.2653310000896454,0.0,0.0,-0.9856116771697998,-0.0616037249565124
-0.2091801166534423,1.181737184524536,-0.2651679813861847,-0.2818299531936645,-0.1366957873106002,-0.2674098312854767,0.0,0.0,-0.8959318399429321,0.2129693031311035
-0.2119848281145095,1.175310492515564,-0.2669590413570404,-0.2869245409965515,-0.1501696109771728,-0.2694766521453857,0.0,0.0,0.0849090814590454,-0.0258755087852478
-0.2147322595119476,1.169568419456482,-0.2611357271671295,-0.2566331624984741,-0.1637680530548095,-0.2719691693782806,0.0,0.0,-0.8695693612098694,-0.0602155327796936
-0.217497631907463,1.1637147665023804,-0.2628495097160339,-0.261728435754776,-0.1774685084819793,-0.2740092277526855,0.0,0.0,-0.877848207950592,0.4494950771331787
-0.2202803194522857,1.1577495336532593,-0.2645215690135956,-0.266823947429657,-0.1912702172994613,-0.276034414768219,0.0,0.0,-0.7208732962608337,0.4448825120925903
-0.223079964518547,1.1516728401184082,-0.2661498188972473,-0.2719197869300842,-0.2051723897457122,-0.2780438959598541,0.0,0.0,-0.7380731105804443,0.6075037717819214
-0.2258592098951339,1.1454718112945557,-0.2631053626537323,-0.2777302861213684,-0.2201363891363144,-0.2992799580097198,0.0,0.0,-0.6057164072990417,0.0912781953811645
-0.2286542356014251,1.1391596794128418,-0.2646403312683105,-0.2828289866447449,-0.2351990789175033,-0.3012541830539703,0.0,0.0,-0.3484652042388916,0.1901395320892334
-0.2314646244049072,1.1327366828918457,-0.2661252319812774,-0.2879279553890228,-0.2503595948219299,-0.3032096326351166,0.0,0.0,-0.1323523521423339,-0.4747610092163086
-0.2342896461486816,1.1262024641036987,-0.2675579190254211,-0.2930272221565246,-0.2656168639659881,-0.3051454126834869,0.0,0.0,-0.5755280256271362,-0.4466167092323303
-0.2371287792921066,1.119557499885559,-0.2689363360404968,-0.2981266975402832,-0.2809699177742004,-0.3070603013038635,0.0,0.0,-0.7128931879997253,0.424223780632019
-0.2399813681840896,1.1128015518188477,-0.2702584564685821,-0.3032264411449432,-0.2964175939559936,-0.3089533448219299,0.0,0.0,-0.4091848134994507,-0.1872307062149047
