x_pos,y_pos,x_vel,y_vel,angle,ang_vel,leg_1,leg_2,main_booster,lat_booster
-0.0015307426219806,1.4035279750823977,-0.1557663381099701,-0.3285380005836487,0.0024133627302944,0.0476543977856636,0.0,0.0,0.9770874947257496,-0.6353410882255048
-0.0030538558494299,1.3968877792358398,-0.156791016459465,-0.2951350808143616,0.0068482421338558,0.0887066274881362,0.0,0.0,-0.4813205166226284,0.7745857239685459
-0.0045102117583155,1.390145778656006,-0.1488708704710006,-0.2996622622013092,0.0100436611101031,0.0639144405722618,0.0,0.0,0.203684973635124,-0.8210165728221723
-0.0061422348953783,1.3838484287261963,-0.1686202585697174,-0.2799240350723266,0.0154006527736783,0.1071496456861496,0.0,0.0,-0.5412363459684184,-0.7537612215950026
-0.0078291893005371,1.3774566650390625,-0.1759321242570877,-0.2841740250587463,0.0225608367472887,0.1432168036699295,0.0,0.0,-0.5863944991298082,0.6176270383934678
-0.0094649316743016,1.3709702491760254,-0.1699395775794983,-0.2883910834789276,0.0288508683443069,0.1258124113082885,0.0,0.0,-0.2250581696170117,-0.691968737581708
-0.0111658098176121,1.3643860816955566,-0.1785301715135574,-0.2928189933300018,0.0371929220855236,0.1668565571308136,0.0,0.0,0.7384650220332565,-0.7182328908018818
-0.0127865793183445,1.3587357997894287,-0.1729745417833328,-0.2514282763004303,0.0479818806052207,0.2157993614673614,0.0,0.0,-0.2341354774036395,-0.7818241477348054
-0.014479637145996,1.3529951572418213,-0.1824268996715545,-0.2556099593639374,0.0609760396182537,0.2599068582057953,0.0,0.0,-0.9309998122284652,0.7809734831952287
-0.0161211006343364,1.3471713066101074,-0.1763321012258529,-0.2593800127506256,0.0730477571487426,0.241456538438797,0.0,0.0,0.924281057099003,-0.9370151490029472
-0.0177858360111713,1.3422945737838743,-0.181361123919487,-0.2175377309322357,0.0878142267465591,0.2953567206859588,0.0,0.0,0.5120701988755543,-0.842502341113059
-0.0194967277348041,1.3380467891693115,-0.1883886158466339,-0.1898950636386871,0.1049855351448059,0.3434576392173767,0.0,0.0,0.2118418684091716,-0.7685600182710584
-0.0212244037538766,1.3344846963882446,-0.1922981441020965,-0.1598035991191864,0.1244247108697891,0.3888190984725952,0.0,0.0,-0.8029158790397537,0.9945395572365884
-0.0228753089904785,1.330838680267334,-0.1829864382743835,-0.1636329293251037,0.1422782689332962,0.3571037948131561,0.0,0.0,-0.8713244232686015,-0.6717482674967779
-0.0245778076350688,1.3271005153656006,-0.1897477209568023,-0.1681273877620697,0.1617717146873474,0.3899047076702118,0.0,0.0,-0.330613061912653,0.6960551949942965
-0.0262266155332326,1.3232793807983398,-0.1832890659570694,-0.1719402223825454,0.180239051580429,0.3693801462650299,0.0,0.0,-0.8717504539189553,0.7778899506211355
-0.0278135295957326,1.3193963766098022,-0.1757563650608062,-0.1747400164604187,0.1973997503519058,0.3432454168796539,0.0,0.0,-0.143898400214854,-0.8627538029960272
-0.0294619556516408,1.315400242805481,-0.1837398111820221,-0.180238664150238,0.2164958715438842,0.3819568157196045,0.0,0.0,0.4459399061048004,0.9693454904975144
-0.031104564666748,1.3124078512191772,-0.1818428635597229,-0.1356729716062545,0.234325036406517,0.3566157221794128,0.0,0.0,-0.589440249999283,0.8432179705406394
-0.0327027328312397,1.3093441724777222,-0.1764814704656601,-0.1389084160327911,0.2512866258621216,0.3392627835273742,0.0,0.0,-0.7442874477086654,-0.8767727483574064
-0.0343667976558208,1.3061758279800415,-0.1849234402179718,-0.1440946012735366,0.2702374458312988,0.379050463438034,0.0,0.0,-0.1811358589991736,0.6788127186008533
-0.0359896644949913,1.3029356002807615,-0.1799428015947342,-0.1473752558231353,0.2883851230144501,0.362986147403717,0.0,0.0,0.0322689673637761,-0.9726596761686854
-0.0377012267708778,1.300102710723877,-0.1911489218473434,-0.1299968063831329,0.3090522587299347,0.4133796095848083,0.0,0.0,0.0397389582264386,-0.8791466145086797
-0.0394997596740722,1.2974450588226318,-0.2019990235567093,-0.1230011209845542,0.3321016430854797,0.4610291421413421,0.0,0.0,0.4180939929206759,-0.6840252852581485
-0.0416705124080181,1.2953931093215942,-0.2406909763813018,-0.0968159809708595,0.3568927347660064,0.4958666265010834,0.0,0.0,0.0024235767983065,-0.7927703837784216
-0.0441555976867675,1.293753147125244,-0.2739976048469543,-0.0794619247317314,0.3838695287704468,0.5395352244377136,0.0,0.0,-0.3646856323428309,0.9022752939793506
-0.0465897545218467,1.2920732498168943,-0.2674202024936676,-0.0813372433185577,0.4095404744148254,0.5134193301200867,0.0,0.0,-0.4512520095153196,-0.8347340443451009
-0.0491136536002159,1.290269374847412,-0.2785653471946716,-0.0880200415849685,0.4378732144832611,0.5666555166244507,0.0,0.0,0.8247163774930288,0.7509376468497989
-0.0521053299307823,1.2894867658615112,-0.3238031268119812,-0.042713712900877,0.4648671746253967,0.539880096912384,0.0,0.0,0.7668071935060479,0.6018981529629489
-0.0553242675960063,1.2893320322036743,-0.3455090820789337,-0.0150063149631023,0.4910996556282043,0.5246501564979553,0.0,0.0,0.1404256370860885,-0.6609766368782342
-0.0588690750300884,1.2898463010787964,-0.3794810771942138,0.0136686349287629,0.5192780494689941,0.5635679960250854,0.0,0.0,0.3342313216136783,0.984132146394444
-0.0625994652509689,1.290735363960266,-0.3962944149971008,0.0304028857499361,0.5459009408950806,0.5324574112892151,0.0,0.0,0.3358824864285707,0.9493327691528232
-0.066687487065792,1.2923754453659058,-0.4303709864616394,0.063931792974472,0.5709892511367798,0.5017662644386292,0.0,0.0,0.1877377540625573,-0.9900296894159912
-0.0710382461547851,1.2941441535949707,-0.4585492610931396,0.0682858303189277,0.5987516641616821,0.5552488565444946,0.0,0.0,0.7889840291898573,0.933568864423138
-0.0757126808166503,1.2967493534088137,-0.4892677366733551,0.1056114137172699,0.6250421404838562,0.5258099436759949,0.0,0.0,-0.181879439857493,0.7427621926263528
-0.0803574547171592,1.2993258237838743,-0.4849470257759094,0.1044249236583709,0.6501713991165161,0.5025855302810669,0.0,0.0,0.5473006024833877,0.7688752543793937
-0.0852489471435546,1.302351713180542,-0.5082783699035645,0.1245683804154396,0.6740880608558655,0.4783328175544739,0.0,0.0,0.3847306674132922,0.8488056972738072
-0.0904780402779579,1.3061386346817017,-0.5406175851821899,0.158681645989418,0.6966493129730225,0.4512246251106262,0.0,0.0,-0.2079707706840321,0.9800987728766386
-0.0956734642386436,1.3099143505096436,-0.5357303619384766,0.1586110144853592,0.7176487445831299,0.4199883043766022,0.0,0.0,0.347700682197865,0.6978768079581082
-0.1011511832475662,1.3142414093017578,-0.5628877878189087,0.1833587437868118,0.737600564956665,0.3990373015403747,0.0,0.0,-0.0712567121893146,0.6892742812412577
-0.1066150665283203,1.3185280561447144,-0.5606164336204529,0.1817460656166076,0.756734311580658,0.3826751112937927,0.0,0.0,-0.994586706161499,0.9997230768203736
-0.1120259314775466,1.322819471359253,-0.5534380674362183,0.1828308850526809,0.7736206650733948,0.3377265334129333,0.0,0.0,-0.9891542196273804,0.9980306625366212
-0.1173831969499588,1.327106475830078,-0.5463191866874695,0.1835291087627411,0.7883543372154236,0.2946750819683075,0.0,0.0,-0.9988784790039062,0.9927419424057008
-0.1226916313171386,1.3313956260681152,-0.5397576093673706,0.1845889389514923,0.800902783870697,0.2509704232215881,0.0,0.0,-0.9933499097824096,0.9919637441635132
-0.1279596388339996,1.3356618881225586,-0.534440815448761,0.1843159645795822,0.8117852210998535,0.2176483124494552,0.0,0.0,-0.9989226460456848,0.986973524093628
-0.1331811845302581,1.3399183750152588,-0.5283315777778625,0.1848104149103164,0.8206678032875061,0.177651822566986,0.0,0.0,-0.9905979037284852,0.9899394512176514
-0.1383577287197113,1.3441706895828247,-0.5223230123519897,0.1856312304735183,0.8274588584899902,0.1358207166194915,0.0,0.0,-0.9998078942298888,0.9820384979248048
-0.1435125321149826,1.348405122756958,-0.5191134214401245,0.1855459958314895,0.8327729105949402,0.1062811836600303,0.0,0.0,-0.996085524559021,0.9976062774658204
-0.1486461609601974,1.3526184558868408,-0.5159908533096313,0.1853248924016952,0.8366426825523376,0.0773959159851074,0.0,0.0,-0.9995499849319458,0.9770255088806152
-0.1537444144487381,1.3568172454833984,-0.5112154483795166,0.1855835914611816,0.8386956453323364,0.0410593822598457,0.0,0.0,-0.9998874068260192,0.9933735132217408
-0.1587941199541092,1.361027717590332,-0.5046635866165161,0.1873486638069152,0.838254451751709,-0.0088234273716807,0.0,0.0,-0.9971118569374084,0.9850077629089355
-0.1638159751892089,1.365224838256836,-0.5007027387619019,0.1876412779092788,0.836063027381897,-0.0438280776143074,0.0,0.0,-0.9984094500541688,0.987341046333313
-0.1687898635864257,1.3694242238998413,-0.4942849576473236,0.1889248490333557,0.8314985632896423,-0.0912907272577285,0.0,0.0,-0.9998691082000732,0.8999283313751221
-0.1737361848354339,1.3736121654510498,-0.4902594685554504,0.1893132030963897,0.8251169919967651,-0.1276318728923797,0.0,0.0,-0.9869993329048156,0.9807767868041992
-0.1786321699619293,1.377807378768921,-0.4834420084953308,0.1908697187900543,0.8162006735801697,-0.1783268302679062,0.0,0.0,-0.9869893193244934,0.9342310428619384
-0.1835000962018966,1.3819725513458252,-0.479501873254776,0.1902428567409515,0.8057299852371216,-0.2094132602214813,0.0,0.0,-0.9996141791343688,0.9286078214645386
-0.1883309334516525,1.386139154434204,-0.4741205275058746,0.1913466900587082,0.7930172681808472,-0.2542548477649688,0.0,0.0,-0.9974963068962096,0.8821334838867188
-0.1931213438510894,1.3903045654296875,-0.4683172702789306,0.1922839730978012,0.7780359387397766,-0.2996264100074768,0.0,0.0,-0.9985808730125428,0.6489114761352539
-0.1978915184736251,1.39444100856781,-0.4650486409664154,0.1915877759456634,0.7615680694580078,-0.3293574452400207,0.0,0.0,-0.999114990234375,0.1790593862533569
-0.2026783525943756,1.3984849452972412,-0.4666340947151184,0.1872769743204116,0.7452468276023865,-0.3264253139495849,0.0,0.0,-0.9899393320083618,0.6216135025024414
-0.2074413299560547,1.4024853706359863,-0.4630325436592102,0.1858277767896652,0.7275587916374207,-0.353761225938797,0.0,0.0,-0.9917460680007936,0.1880407333374023
-0.2122212946414947,1.40639328956604,-0.4645993709564209,0.1815162450075149,0.7099801301956177,-0.3515740633010864,0.0,0.0,-0.9964770674705504,-0.1030466556549072
-0.2170181274414062,1.4102089405059814,-0.4661582410335541,0.1772057712078094,0.6924922466278076,-0.3497576415538788,0.0,0.0,-0.9992284178733826,-0.7031368613243103
-0.221872329711914,1.4138823747634888,-0.4729298055171966,0.1700688898563385,0.6765633225440979,-0.3185783922672272,0.0,0.0,-0.9707028865814208,-0.2906989455223083
-0.2267432212829589,1.4174621105194092,-0.4744738936424255,0.1657635271549224,0.660688579082489,-0.3174953460693359,0.0,0.0,-0.9877051115036012,-0.0076904296875
-0.231630653142929,1.4209483861923218,-0.4760071635246277,0.1614590734243393,0.6448500752449036,-0.3167715072631836,0.0,0.0,-0.9512510299682616,0.1860785484313964
-0.2365346848964691,1.424341082572937,-0.4775286614894867,0.1571554392576217,0.6290299892425537,-0.3164011538028717,0.0,0.0,-0.9984688758850098,0.3785133361816406
-0.2414552718400955,1.4276401996612549,-0.4790372848510742,0.1528524756431579,0.6132110953330994,-0.3163779377937317,0.0,0.0,-0.999366283416748,-0.0218562483787536
-0.2463923990726471,1.4308454990386963,-0.4805318713188171,0.1485501378774643,0.5973763465881348,-0.3166947066783905,0.0,0.0,-0.9886574149131776,-0.4455432891845703
-0.2513460516929626,1.433956742286682,-0.4820112586021423,0.1442483812570572,0.5815091729164124,-0.3173437416553497,0.0,0.0,-0.9693136811256408,0.3929905891418457
-0.2563161253929138,1.436974287033081,-0.4834740161895752,0.1399470716714859,0.5655933618545532,-0.3183167576789856,0.0,0.0,-0.9926186800003052,-0.2010779976844787
-0.2613026201725006,1.439897537231445,-0.4849187731742859,0.1356460899114608,0.5496131181716919,-0.3196048140525818,0.0,0.0,-0.9906936883926392,-0.1228522062301635
-0.2663053572177887,1.4427268505096436,-0.4863439500331878,0.1313453763723373,0.5335531830787659,-0.3211987912654876,0.0,0.0,-0.997816801071167,-0.4169021844863891
-0.2713243365287781,1.445461988449097,-0.487747848033905,0.1270448416471481,0.5173987150192261,-0.3230891227722168,0.0,0.0,-0.9783220291137696,-0.4014651775360107
-0.2763593792915344,1.4481031894683838,-0.4891286790370941,0.122744396328926,0.5011354684829712,-0.3252658247947693,0.0,0.0,-0.9902329444885254,-0.4058367013931274
-0.2814103662967682,1.4506502151489258,-0.4904844164848327,0.1184439435601234,0.4847494959831238,-0.3277187645435333,0.0,0.0,-0.8194939494132996,-0.5481044054031372
-0.2865152359008789,1.45306658744812,-0.4967195987701416,0.1121459454298019,0.469448834657669,-0.3060133755207062,0.0,0.0,-0.9840742945671082,0.1794848442077636
-0.291635513305664,1.4553885459899902,-0.4980209767818451,0.10784812271595,0.4539993703365326,-0.3089892268180847,0.0,0.0,-0.976546585559845,-0.2540341019630432
-0.2967709898948669,1.457615852355957,-0.499290406703949,0.1035500839352607,0.4383888840675354,-0.312210202217102,0.0,0.0,-0.9763631224632264,-0.0170317888259887
-0.3019214570522308,1.4597487449645996,-0.5005252957344055,0.0992517694830894,0.4226056039333343,-0.3156657814979553,0.0,0.0,-0.9664270281791688,-0.3539745807647705
-0.307086706161499,1.4617873430252075,-0.5017228126525879,0.0949530825018882,0.4066383242607116,-0.319345474243164,0.0,0.0,-0.9816139340400696,-0.3493708372116089
-0.3122664093971252,1.4637316465377808,-0.5028799772262573,0.0906539410352706,0.3904763758182525,-0.3232389390468597,0.0,0.0,-0.9143079519271852,0.4523919820785522
-0.3174601197242737,1.4655816555023191,-0.5039938688278198,0.0863542705774307,0.3741095960140228,-0.3273357450962066,0.0,0.0,-0.9770532250404358,0.3591592311859131
-0.3226675391197204,1.4673376083374023,-0.505061149597168,0.0820539817214012,0.3575282990932464,-0.3316256701946258,0.0,0.0,-0.834702730178833,0.1030277013778686
-0.3278882503509521,1.4689993858337402,-0.5060784816741943,0.0777529776096344,0.3407233953475952,-0.3360986709594726,0.0,0.0,-0.8063768744468689,-0.4340410232543945
-0.3331217765808105,1.4705674648284912,-0.507042407989502,0.0734512060880661,0.3236861526966095,-0.3407447934150696,0.0,0.0,-0.8090986013412476,0.1065453290939331
-0.3383676409721374,1.4720419645309448,-0.5079492926597595,0.0691485702991485,0.3064084351062774,-0.3455542922019958,0.0,0.0,-0.8907821178436279,-0.3602631092071533
-0.3436253070831299,1.473422646522522,-0.5087957382202148,0.064845010638237,0.2888825535774231,-0.3505175411701202,0.0,0.0,-0.1760288476943969,-0.3191125392913818
-0.3488941788673401,1.4747099876403809,-0.5095780491828918,0.0605404451489448,0.2711012959480285,-0.3556251227855682,0.0,0.0,-0.7109325528144836,0.056704044342041
-0.3541735708713531,1.4759039878845217,-0.5102927088737488,0.0562348142266273,0.2530578970909118,-0.3608678877353668,0.0,0.0,-0.3799388408660888,0.3217694759368896
-0.3594628870487213,1.477005124092102,-0.5109363198280334,0.0519280396401882,0.2347460687160492,-0.3662367165088653,0.0,0.0,-0.4407472610473633,-0.2398021817207336
-0.3647614121437073,1.478013277053833,-0.5115056037902832,0.0476200580596923,0.2161599248647689,-0.3717227876186371,0.0,0.0,-0.4892874360084533,0.1941134929656982
-0.3700684010982513,1.4789286851882937,-0.5119975805282593,0.043310809880495,0.1972940564155578,-0.3773173689842224,0.0,0.0,-0.6503871083259583,-0.297538161277771
-0.375383049249649,1.479751706123352,-0.512409508228302,0.0390002317726612,0.1781434714794159,-0.3830119371414184,0.0,0.0,-0.619969367980957,0.609925389289856
-0.3806611001491546,1.4804925918579102,-0.5072764158248901,0.0352652110159397,0.1575883775949478,-0.4111021161079407,0.0,0.0,-0.5475706458091736,0.7322269678115845
-0.3858810067176819,1.4811667203903198,-0.4994193911552429,0.0322002694010734,0.1350633352994918,-0.4505012631416321,0.0,0.0,-0.6047558188438416,0.3444063663482666
-0.3911062180995941,1.481750726699829,-0.4995760321617126,0.0278754662722349,0.1122413277626037,-0.456440269947052,0.0,0.0,0.4185709953308105,-0.0338046550750732
-0.3965183794498443,1.4832452535629272,-0.5174139738082886,0.0680384561419487,0.0886248871684074,-0.4723292887210846,0.0,0.0,-0.575941264629364,0.8634252548217773
-0.4018563330173492,1.4846657514572144,-0.5076462626457214,0.0644800439476966,0.0627345219254493,-0.5178075432777405,0.0,0.0,-0.5466057658195496,0.7823764085769653
-0.4071407318115234,1.4860100746154783,-0.50049889087677,0.0606866963207721,0.0351183377206325,-0.552324116230011,0.0,0.0,-0.8485918045043945,0.706634521484375
-0.4123785495758056,1.487276315689087,-0.4942685663700104,0.0567046515643596,0.0059814788401126,-0.5827375650405884,0.0,0.0,-0.8323177695274353,-0.3296491503715515
-0.4176167845726013,1.4884573221206665,-0.4939911365509033,0.0523474961519241,-0.0234643016010522,-0.588916003704071,0.0,0.0,-0.8780794739723206,-0.4564139246940613
-0.422854334115982,1.489553689956665,-0.4936308264732361,0.0479880347847938,-0.0532203502953052,-0.5951215028762817,0.0,0.0,-0.4107458591461181,-0.8055869936943054
-0.4281698167324066,1.4905693531036377,-0.5031805634498596,0.0439002960920333,-0.0812842100858688,-0.5612772703170776,0.0,0.0,-0.8016651272773743,0.4390974044799804
-0.4334826469421386,1.491499662399292,-0.50266033411026,0.0395461171865463,-0.1096602156758308,-0.5675204992294312,0.0,0.0,-0.7644509673118591,0.1722162961959839
-0.4387916922569275,1.4923447370529177,-0.5020641088485718,0.0351898670196533,-0.1383485943078994,-0.5737677812576294,0.0,0.0,-0.5124863386154175,0.1069221496582031
-0.4440961480140686,1.4931049346923828,-0.501395046710968,0.0308315828442573,-0.1673491448163986,-0.5800113081932068,0.0,0.0,-0.6391452550888062,-0.4177134037017822
-0.4493947923183441,1.4937806129455566,-0.5006567239761353,0.0264713242650032,-0.1966613233089447,-0.5862438082695007,0.0,0.0,-0.4418715238571167,-0.8949873447418213
-0.454738438129425,1.4943974018096924,-0.506370484828949,0.0234456229954957,-0.2249052375555038,-0.5648785829544067,0.0,0.0,-0.7043402791023254,-0.3913886547088623
-0.4600746035575866,1.494928956031799,-0.505502462387085,0.0190882012248039,-0.2534587681293487,-0.5710710883140564,0.0,0.0,-0.5928267240524292,-0.903564989566803
-0.4654707908630371,1.4954109191894531,-0.5132189989089966,0.0166369620710611,-0.2804637551307678,-0.5400999784469604,0.0,0.0,-0.825918436050415,-0.835322380065918
-0.4709136486053467,1.4958381652832031,-0.5192707180976868,0.0139759527519345,-0.3062438666820526,-0.5156022906303406,0.0,0.0,-0.7267035245895386,-0.9330791234970092
-0.4764087796211242,1.49620258808136,-0.5259816646575928,0.0110453832894563,-0.3306869864463806,-0.4888629913330078,0.0,0.0,-0.5697862505912781,-0.849555492401123
-0.4819697439670563,1.4965193271636963,-0.5344665050506592,0.0089629888534545,-0.3533408343791961,-0.4530772268772125,0.0,0.0,-0.5580430030822754,-0.8917481303215027
-0.4876008629798889,1.4967889785766602,-0.5434680581092834,0.0070099011063575,-0.3740767538547516,-0.4147181510925293,0.0,0.0,-0.4186826348304748,-0.6641615033149719
-0.4932718276977539,1.496997594833374,-0.5486561059951782,0.0043306439183652,-0.3936924636363983,-0.3923143744468689,0.0,0.0,-0.2494789361953735,-0.6899913549423218
-0.4989799559116363,1.4971446990966797,-0.5535221099853516,0.0016311020590364,-0.4122378230094909,-0.3709074854850769,0.0,0.0,-0.1509114503860473,-0.8342440128326416
-0.5047258138656616,1.4972245693206787,-0.5584093332290649,-0.0012670814758166,-0.4297271370887756,-0.3497862517833709,0.0,0.0,-0.1336989998817443,-0.9012182950973512
-0.5105127096176147,1.4972535371780396,-0.5638239979743958,-0.003338542766869,-0.4459238648414612,-0.3239346146583557,0.0,0.0,0.1503921747207641,-0.5905588865280151
-0.5160679817199707,1.4979734420776367,-0.5416779518127441,0.02749496512115,-0.4611306488513946,-0.3041355609893799,0.0,0.0,0.2892571687698364,-0.8963578939437866
-0.5215176343917847,1.4989277124404907,-0.5326713919639587,0.0382776446640491,-0.4747192859649658,-0.2717725336551666,0.0,0.0,0.2697920799255371,-0.8913643956184387
