x_pos,y_pos,x_vel,y_vel,angle,ang_vel,leg_1,leg_2,main_booster,lat_booster
-0.001479148864746,1.403207540512085,-0.1497891545295715,-0.3427817523479461,0.0016777174314484,0.0330881103873252,0.0,0.0,-0.4717043042182922,0.8675291538238525
-0.0028437613509595,1.3950971364974976,-0.1361698806285858,-0.3604625761508941,0.0013880619080737,-0.0057928459718823,0.0,0.0,0.2892084121704101,0.0625241994857788
-0.0040680887177586,1.3870424032211304,-0.1225980147719383,-0.357991099357605,0.0015402148710563,0.0030433377251029,0.0,0.0,-0.0455292463302612,0.8401118516921997
-0.0052076340653002,1.3785679340362549,-0.1127002835273742,-0.3766446113586426,0.000301785825286,-0.0247706323862075,0.0,0.0,-0.4274944067001343,0.2445652484893798
-0.0063199042342603,1.3696765899658203,-0.1099211350083351,-0.3951737582683563,-0.0009881006553769,-0.0258003082126379,0.0,0.0,-0.0917861461639404,0.7805149555206299
-0.0073343277908861,1.3603670597076416,-0.0981736332178115,-0.4137614667415619,-0.0042227767407894,-0.0646993070840835,0.0,0.0,-0.4019314050674438,-0.0477544665336608
-0.0083312038332223,1.3506407737731934,-0.0963740870356559,-0.4322933256626129,-0.0075012510642409,-0.0655756071209907,0.0,0.0,0.0989085435867309,-0.6526501178741455
-0.0092516895383596,1.34114408493042,-0.0901496037840843,-0.422076016664505,-0.0093748718500137,-0.0374757386744022,0.0,0.0,-0.7613928914070129,0.3248505592346191
-0.0101648326963186,1.331230640411377,-0.0893825143575668,-0.4406128227710724,-0.0112861348316073,-0.0382286831736564,0.0,0.0,-0.6922498345375061,0.2651277780532837
-0.0110758785158395,1.3209004402160645,-0.0891372859477996,-0.4591424763202667,-0.0132296290248632,-0.0388736464083194,0.0,0.0,-0.5671443343162537,-0.4301463365554809
-0.0119900703430175,1.3101531267166138,-0.0894164890050888,-0.4776733219623565,-0.0152014307677745,-0.039439607411623,0.0,0.0,-0.593393087387085,-0.1036691665649414
-0.0129124643281102,1.298988938331604,-0.0902186334133148,-0.4962050318717956,-0.0171970818191766,-0.0399167612195014,0.0,0.0,-0.7936352491378784,-0.8554840683937073
-0.0139010427519679,1.2874137163162231,-0.0981666818261146,-0.5144664645195007,-0.0178820863366127,-0.0137016521766781,0.0,0.0,-0.1476520895957946,0.1075340509414672
-0.014908218756318,1.275421380996704,-0.1000020951032638,-0.5329978466033936,-0.0185826607048511,-0.0140127288177609,0.0,0.0,0.4226505756378174,0.0952872037887573
-0.0158041007816791,1.2640734910964966,-0.089448481798172,-0.5043550133705139,-0.0187211036682128,-0.0027688283007591,0.0,0.0,-0.4923762083053589,-0.3485334515571594
-0.0167283061891794,1.2523084878921509,-0.0922733470797538,-0.5228950381278992,-0.0188658516854047,-0.0028953035362064,0.0,0.0,-0.020226776599884,-0.3241602182388305
-0.0176854133605957,1.240126371383667,-0.0955698043107986,-0.5414237380027771,-0.0190116446465253,-0.0029160710982978,0.0,0.0,0.2075928449630737,-0.0816017985343933
-0.0185708049684762,1.2279351949691772,-0.0888833031058311,-0.5418263673782349,-0.0186660345643758,0.0069129178300499,0.0,0.0,0.1034833192825317,0.2693216800689697
-0.0194230079650878,1.2161293029785156,-0.0858911350369453,-0.5247002243995667,-0.0180094707757234,0.0131325628608465,0.0,0.0,-0.9077577590942384,0.2835375070571899
-0.0203211791813373,1.2039062976837158,-0.0904975980520248,-0.5432366132736206,-0.0173407718539237,0.0133753344416618,0.0,0.0,0.2540302276611328,0.5081653594970703
-0.0211137775331735,1.192122220993042,-0.0791731774806976,-0.5237358808517456,-0.0174266602843999,-0.0017178371781483,0.0,0.0,-0.587549090385437,-0.7455205321311951
-0.022017765790224,1.1799181699752808,-0.0917998626828193,-0.5423776507377625,-0.0160391926765441,0.0277516692876815,0.0,0.0,-0.5916504263877869,0.0878934860229492
-0.0229787826538085,1.1672974824905396,-0.0975292176008224,-0.5609063506126404,-0.0146274259313941,0.0282376203685998,0.0,0.0,-0.7149226069450378,-0.3644292950630188
-0.024000072851777,1.1542598009109497,-0.1035882085561752,-0.5794370770454407,-0.0131863448768854,0.0288243107497692,0.0,0.0,-0.6332265138626099,0.7630529403686523
-0.0250385291874408,1.1408064365386963,-0.1041668653488159,-0.5979260206222534,-0.012871571816504,0.0062958793714642,0.0,0.0,0.5532162189483643,-0.0746297836303711
-0.0262718200683593,1.1279098987579346,-0.1230432391166687,-0.5731743574142456,-0.0131533583626151,-0.0056357616558671,0.0,0.0,-0.8528046607971191,0.2192784547805786
-0.0275739673525095,1.114596605300903,-0.129962220788002,-0.5917038321495056,-0.0133948381990194,-0.0048297112807631,0.0,0.0,-0.9287152290344238,-0.0587950348854064
-0.0289472583681345,1.1008665561676023,-0.1371289938688278,-0.6102333664894104,-0.0135929714888334,-0.0039626504294574,0.0,0.0,-0.7900006771087646,-0.5117385983467102
-0.0304432865232229,1.0867246389389038,-0.1507027447223663,-0.6285189986228943,-0.012506534345448,0.0217290464788675,0.0,0.0,-0.8315075635910034,-0.3460097312927246
-0.0320148468017578,1.0721659660339355,-0.158310204744339,-0.6470485329627991,-0.0113710863515734,0.0227087698876857,0.0,0.0,-0.987400233745575,-0.2297897934913635
-0.0336639396846294,1.057190179824829,-0.1661124974489212,-0.6655780076980591,-0.0101840728893876,0.0237401705235242,0.0,0.0,-0.9369649291038512,0.1278502941131591
-0.0353922843933105,1.0417976379394531,-0.1740939766168594,-0.6841076016426086,-0.0089430529624223,0.0248203445225954,0.0,0.0,-0.9762796759605408,0.5048645734786987
-0.0371669754385948,1.0259923934936523,-0.1779114603996276,-0.7024523019790649,-0.0085119111463427,0.0086229341104626,0.0,0.0,-0.7331320643424988,0.1334743499755859
-0.0390240661799907,1.009770154953003,-0.1862084716558456,-0.7209818363189697,-0.0080222841352224,0.0097926389425992,0.0,0.0,-0.8375585675239563,-0.8279783129692078
-0.0410287864506244,0.9931337237358092,-0.2026416808366775,-0.7393919825553894,-0.0058701122179627,0.0430430360138416,0.0,0.0,-0.6955106854438782,0.3629922866821289
-0.0431182868778705,0.9760801792144777,-0.2112036496400833,-0.7579218745231628,-0.0036555361002683,0.044291578233242,0.0,0.0,-0.9205641150474548,-0.0491784214973449
-0.0452939979732036,0.9586100578308104,-0.21988146007061,-0.7764517664909363,-0.0013767563505098,0.0455756708979606,0.0,0.0,-0.0907843112945556,0.7219280004501343
-0.0474961288273334,0.9407283663749696,-0.2210429161787033,-0.794741690158844,-0.0005584764876402,0.0163658000528812,0.0,0.0,-0.0878588557243347,-0.0987955331802368
-0.049786377698183,0.9224297404289246,-0.2299234420061111,-0.8132712841033936,0.0003272131434641,0.0177137795835733,0.0,0.0,0.5383181571960449,0.4441914558410644
-0.0521394722163677,0.9045631885528564,-0.2364009916782379,-0.7940673232078552,0.0014034323394298,0.0215243510901927,0.0,0.0,-0.5264078378677368,0.6662533283233643
-0.0545390136539936,0.8862855434417725,-0.2400082796812057,-0.8123422861099243,0.0014597529079765,0.0011263402411714,0.0,0.0,0.5302467346191406,0.8834681510925293
-0.056831169873476,0.8683167695999146,-0.2277340590953827,-0.7986145615577698,-6.809842147958989e-07,-0.0292087588459253,0.0,0.0,0.3450747728347778,0.2541184425354004
-0.0591354370117187,0.8503140807151794,-0.2293843477964401,-0.8001224994659424,-0.0010227811289951,-0.0204419903457164,0.0,0.0,0.2920753955841064,0.314191460609436
-0.0614532455801963,0.8325143456459045,-0.2311914414167404,-0.7910959720611572,-0.0016122739762067,-0.0117897884920239,0.0,0.0,-0.3703820705413818,0.3428332805633545
-0.0638634711503982,0.8142977952957153,-0.2404991388320922,-0.8096255660057068,-0.0021274399477988,-0.0103032607585191,0.0,0.0,-0.4936854243278503,0.975283145904541
-0.0662834197282791,0.7956542372703552,-0.2394362241029739,-0.8286116719245911,-0.0046549150720238,-0.0505496449768543,0.0,0.0,0.936899185180664,0.8844714164733887
-0.0686456710100174,0.7773738503456116,-0.2321084439754486,-0.812480628490448,-0.0087128579616546,-0.0811586454510688,0.0,0.0,-0.7492037415504456,0.990260124206543
-0.0710377693176269,0.7586866617202759,-0.2335520088672638,-0.8305851817131042,-0.0142957931384444,-0.1116589680314064,0.0,0.0,-0.7044671773910522,0.9709246158599854
-0.0734638199210167,0.7395903468132019,-0.2355134040117263,-0.8488079309463501,-0.0213069021701812,-0.1402221322059631,0.0,0.0,0.6645753383636475,0.7293510437011719
-0.0759391784667968,0.7208433151245117,-0.2389895468950271,-0.83334881067276,-0.0297390837222337,-0.1686435639858245,0.0,0.0,-0.006000816822052,0.8829197883605957
-0.0784226432442665,0.7016764879226685,-0.2376923114061355,-0.8521097898483276,-0.0402681231498718,-0.2105809897184372,0.0,0.0,0.7846007347106934,0.8721837997436523
-0.0809686630964279,0.683292806148529,-0.2421498298645019,-0.8174329996109009,-0.0525754429399967,-0.2461463958024978,0.0,0.0,0.732119083404541,0.7821822166442871
-0.0833981484174728,0.6651735305786133,-0.2292494028806686,-0.805842399597168,-0.0661145225167274,-0.2707816958427429,0.0,0.0,-0.0956529974937439,0.5353193283081055
-0.0858802795410156,0.6466405391693115,-0.2335284501314163,-0.8244030475616455,-0.0806458368897438,-0.2906262874603271,0.0,0.0,0.8234795331954956,-0.6998761296272278
-0.0882924050092697,0.628480076789856,-0.2284493446350097,-0.8078683614730835,-0.0932901203632354,-0.2528859376907348,0.0,0.0,0.5462559461593628,-0.2553218603134155
-0.0908482521772384,0.610575795173645,-0.2425005733966827,-0.796609103679657,-0.1062704622745513,-0.2596068978309631,0.0,0.0,0.2094596624374389,-0.1941769123077392
-0.0933696776628494,0.5931159853935242,-0.2394786179065704,-0.7769392728805542,-0.1188551113009452,-0.2516931593418121,0.0,0.0,-0.3826198577880859,0.6972846984863281
-0.0959197059273719,0.5752323269844055,-0.2407122403383255,-0.7960290312767029,-0.1330723762512207,-0.2843454778194427,0.0,0.0,0.846808671951294,-0.5350518822669983
-0.0983972549438476,0.5582985281944275,-0.2348936349153518,-0.7538102865219116,-0.1458879858255386,-0.2563123106956482,0.0,0.0,-0.3171744346618652,0.4159475564956665
-0.1009710282087326,0.5409498810768127,-0.2446273565292358,-0.7723525166511536,-0.1586278527975082,-0.254797488451004,0.0,0.0,0.8605122566223145,0.8559267520904541
-0.1034467667341232,0.5237657427787781,-0.2333275973796844,-0.7653185129165649,-0.1728892177343368,-0.2852271795272827,0.0,0.0,0.9329092502593994,-0.7501164674758911
-0.1060609817504882,0.50743168592453,-0.2484935969114303,-0.7275211811065674,-0.1858631074428558,-0.2594774067401886,0.0,0.0,-0.4461699724197387,0.542855978012085
-0.1087211593985557,0.4906671047210693,-0.2518868148326874,-0.7469238042831421,-0.2000772953033447,-0.284283846616745,0.0,0.0,-0.1473409533500671,0.1672234535217285
-0.1114779487252235,0.4734880924224853,-0.2616562843322754,-0.7654686570167542,-0.2142192274332046,-0.2828385531902313,0.0,0.0,0.2312206029891967,-0.4131872653961181
-0.1142622008919715,0.4563304483890533,-0.2645368874073028,-0.7646322250366211,-0.2282630503177642,-0.2808768451213836,0.0,0.0,0.6561281681060791,0.0342302322387695
-0.1171298995614051,0.439666211605072,-0.2724286615848541,-0.7429203391075134,-0.2428110092878341,-0.2909595370292663,0.0,0.0,0.9022479057312012,0.7644195556640625
-0.1197711005806922,0.4239997565746307,-0.248454287648201,-0.6989557147026062,-0.2587670087814331,-0.3191202580928802,0.0,0.0,-0.1893178224563598,0.0725555419921875
-0.1225088089704513,0.4079194366931915,-0.2582400739192962,-0.7175045609474182,-0.2746558487415313,-0.3177767693996429,0.0,0.0,0.8660528659820557,-0.443158209323883
-0.1250521689653396,0.392804741859436,-0.239071637392044,-0.6747080683708191,-0.2903379201889038,-0.3136411905288696,0.0,0.0,0.2917075157165527,-0.838786780834198
-0.1277304589748382,0.3778684735298157,-0.2542827725410461,-0.6665946841239929,-0.3043296337127685,-0.2798345685005188,0.0,0.0,0.7222104072570801,-0.6953001022338867
-0.1304448097944259,0.3636016249656677,-0.259154736995697,-0.6367089152336121,-0.3170677423477173,-0.2547617554664612,0.0,0.0,0.7548809051513672,-0.8638087511062622
-0.1330798119306564,0.3498778641223907,-0.2530661225318908,-0.6122626066207886,-0.3279207944869995,-0.2170607596635818,0.0,0.0,0.912675142288208,-0.5021036863327026
-0.1356819123029709,0.3372272849082947,-0.2504171133041382,-0.5645037889480591,-0.3381537795066833,-0.2046598941087722,0.0,0.0,0.7006247043609619,-0.937580943107605
-0.1381733864545822,0.3249963521957397,-0.2413782179355621,-0.5454420447349548,-0.3462958931922912,-0.1628419756889343,0.0,0.0,0.7072012424468994,-0.9581759572029114
-0.1407339125871658,0.3129702508449554,-0.2501688599586487,-0.5359198451042175,-0.3524799048900604,-0.1236801967024803,0.0,0.0,0.6712436676025391,-0.98371160030365
-0.1432801187038421,0.3009804785251617,-0.2507888674736023,-0.5338248014450073,-0.3565153777599334,-0.0807097107172012,0.0,0.0,0.9170074462890624,-0.4171315431594848
-0.1458200514316558,0.2891465723514557,-0.2500568330287933,-0.526935875415802,-0.3606698513031006,-0.0830895155668258,0.0,0.0,0.9081751108169556,-0.458187997341156
-0.1481425315141677,0.2781866490840912,-0.2283152341842651,-0.4881042242050171,-0.3648204803466797,-0.0830127522349357,0.0,0.0,0.7155978679656982,-0.8934600353240967
-0.1502364128828048,0.2679930925369262,-0.2073870152235031,-0.4535595178604126,-0.3669371306896209,-0.0423324890434742,0.0,0.0,0.9224405288696288,-0.796859860420227
-0.1522748917341232,0.2588316798210144,-0.2031635493040084,-0.4073496460914612,-0.3676598668098449,-0.0144548816606402,0.0,0.0,0.7739274501800537,-0.0874867439270019
-0.1544115990400314,0.2498258203268051,-0.2124240398406982,-0.4005801379680633,-0.3689830303192138,-0.0264631919562816,0.0,0.0,0.7448192834854126,-0.5237853527069092
-0.1563384979963302,0.2415729165077209,-0.1926129460334777,-0.3668136894702911,-0.3690582513809204,-0.0015047108754515,0.0,0.0,0.6581137180328369,-0.384640097618103
-0.1582479476928711,0.2337659746408462,-0.1904680430889129,-0.3470980525016784,-0.3695661425590515,-0.0101576764136552,0.0,0.0,-0.0638575553894043,0.1070066690444946
-0.1602534353733062,0.2255419641733169,-0.2000999450683593,-0.3656265437602997,-0.3700385391712188,-0.0094480477273464,0.0,0.0,0.7671436071395874,0.3779263496398926
-0.1620960235595703,0.2179537415504455,-0.1837942749261856,-0.3373736441135406,-0.3705370128154754,-0.009969244711101,0.0,0.0,0.3139472007751465,0.2920339107513428
-0.1638020575046539,0.2105578482151031,-0.1704605221748352,-0.3287446200847626,-0.3706839382648468,-0.0029385031666606,0.0,0.0,0.7844096422195435,-0.536493718624115
-0.1654845178127288,0.2032649666070938,-0.1692503690719604,-0.3238719403743744,-0.3696301579475403,0.0210757832974195,0.0,0.0,0.75433349609375,-0.4702073335647583
-0.1670157462358474,0.1960995942354202,-0.1545755565166473,-0.3180840611457824,-0.3680947721004486,0.0307079367339611,0.0,0.0,0.8910136222839355,-0.6245913505554199
-0.1682840287685394,0.189361035823822,-0.1299536526203155,-0.2986904680728912,-0.3647864162921905,0.0661671012639999,0.0,0.0,0.8595377206802368,-0.6976534128189087
-0.1693822890520095,0.1827613711357116,-0.1147090792655944,-0.2920863926410675,-0.3596355617046356,0.1030162349343299,0.0,0.0,0.4242211580276489,-0.4753943681716919
-0.1703512221574783,0.1766568720340728,-0.1017726883292198,-0.2700956761837005,-0.3544886112213135,0.1029385700821876,0.0,0.0,0.6049449443817139,-0.937679886817932
-0.1711934059858322,0.1711999028921127,-0.0910109132528305,-0.2408769726753235,-0.3473528325557709,0.1427153646945953,0.0,0.0,0.3934997320175171,-0.5888569951057434
-0.1718724220991134,0.1660874038934707,-0.076090782880783,-0.225267693400383,-0.3387574553489685,0.171907290816307,0.0,0.0,0.2703471183776855,-0.9693377017974854
-0.1725494414567947,0.1608975678682327,-0.0778504833579063,-0.2283093184232711,-0.3281518518924713,0.2121120989322662,0.0,0.0,0.5904088020324707,-0.9313248991966248
-0.1732840538024902,0.1560491472482681,-0.0854273363947868,-0.2128253728151321,-0.3157051503658294,0.24893319606781,0.0,0.0,0.415973424911499,-0.8274006247520447
-0.1738623678684234,0.151841938495636,-0.0715807080268859,-0.1840575337409973,-0.3014555871486664,0.2849911451339721,0.0,0.0,0.3752338886260986,-0.7950464487075806
-0.1744710952043533,0.1479366421699524,-0.0762315019965171,-0.1704662144184112,-0.2856112718582153,0.316885769367218,0.0,0.0,0.6650881767272949,-0.6810585856437683
-0.1751247346401214,0.1448579579591751,-0.0818699225783348,-0.1336878389120102,-0.2686706185340881,0.3388131260871887,0.0,0.0,0.4768517017364502,-0.2643568515777588
-0.175626665353775,0.1422372609376907,-0.0671264603734016,-0.1134579181671142,-0.2513705193996429,0.3460022211074829,0.0,0.0,0.2633012533187866,0.4083619117736816
-0.1761136054992675,0.1400523781776428,-0.0655189454555511,-0.0943208485841751,-0.2342625707387924,0.3421593010425567,0.0,0.0,0.0866682529449462,0.0124169588088989
-0.1766264885663986,0.1381917744874954,-0.0679240152239799,-0.0801348313689231,-0.2174114882946014,0.3370220363140106,0.0,0.0,0.0284273624420166,0.667357325553894
-0.1771251708269119,0.13635815680027,-0.0652002096176147,-0.0793071165680885,-0.2019292414188385,0.3096450865268707,0.0,0.0,-0.0369607806205749,0.3649696111679077
-0.1777092963457107,0.1341108232736587,-0.073789358139038,-0.0978564545512199,-0.1864569336175918,0.3094461560249328,0.0,0.0,0.2920929193496704,0.8288121223449707
-0.1783696115016937,0.1320704072713852,-0.0796469822525978,-0.0890301540493965,-0.1727902293205261,0.2733341157436371,0.0,0.0,0.3353066444396972,0.3932352066040039
-0.178928941488266,0.1304517835378646,-0.0699703618884086,-0.0703669488430023,-0.1587424278259277,0.2809557318687439,0.0,0.0,-0.0493655800819397,-0.0399143099784851
-0.1795702874660492,0.128418818116188,-0.0781868249177932,-0.0889130011200904,-0.1447121202945709,0.2806064784526825,0.0,0.0,-0.0015670657157897,0.7975914478302002
-0.1802143156528473,0.1259604841470718,-0.07647355645895,-0.108131393790245,-0.1326776295900344,0.2406897544860839,0.0,0.0,0.1066814661026001,0.2761061191558838
-0.1808838844299316,0.1238629892468452,-0.0789592713117599,-0.0921945124864578,-0.1207366809248924,0.2388190776109695,0.0,0.0,0.0178709030151367,0.6909358501434326
-0.1814126074314117,0.1221141889691352,-0.0635582208633422,-0.0768951997160911,-0.1101170852780342,0.2123918235301971,0.0,0.0,-0.0995781421661377,0.2771029472351074
-0.1820171326398849,0.1199500411748886,-0.0711275860667228,-0.0954343527555465,-0.0995254963636398,0.2118318825960159,0.0,0.0,-0.0398523211479187,0.540515661239624
-0.1826533377170562,0.1173693984746933,-0.0731917470693588,-0.1140853613615036,-0.0900275185704231,0.1899594366550445,0.0,0.0,-0.3695303201675415,0.1922266483306884
-0.1833614408969879,0.114373117685318,-0.0803625509142875,-0.1326226592063903,-0.0805630981922149,0.1892884075641632,0.0,0.0,-0.1539264917373657,0.3168768882751465
-0.1841392517089843,0.1109610646963119,-0.0873133465647697,-0.1511599123477935,-0.0711350888013839,0.1885602325201034,0.0,0.0,-0.0888521075248718,0.7885992527008057
-0.1849350035190582,0.1071292981505394,-0.0877985209226608,-0.1699329912662506,-0.0629974454641342,0.1627532094717025,0.0,0.0,0.0573270320892334,0.8924360275268555
-0.185801699757576,0.1033747047185897,-0.093055173754692,-0.1666175574064254,-0.0566804446280002,0.1263399273157119,0.0,0.0,0.0422592163085937,0.925084352493286
-0.1866538077592849,0.0997306928038597,-0.0896926075220108,-0.1617893725633621,-0.0522470101714134,0.0886684730648994,0.0,0.0,0.1265089511871338,0.8545061349868774
-0.1874585151672363,0.0962064117193222,-0.0831947848200798,-0.1565420031547546,-0.0495541431009769,0.0538572259247303,0.0,0.0,0.197301983833313,0.930788278579712
-0.1881232261657714,0.0926335677504539,-0.0673145428299903,-0.158766895532608,-0.0487303249537944,0.0164766684174537,0.0,0.0,0.0039925575256347,0.9073328971862792
-0.1886789351701736,0.0892599895596504,-0.0544977262616157,-0.1499717086553573,-0.0497841201722621,-0.0210760384798049,0.0,0.0,0.397773265838623,0.9051592350006104
-0.189155101776123,0.0864935219287872,-0.0446924902498722,-0.1230533197522163,-0.0526723004877567,-0.0577635169029235,0.0,0.0,0.3791617155075073,0.981083869934082
