x_pos,y_pos,x_vel,y_vel,angle,ang_vel,leg_1,leg_2,main_booster,lat_booster
-0.0015233040321618,1.403343915939331,-0.1541927009820938,-0.33672696352005,0.0016632582992315,0.0328018888831138,0.0,0.0,0.173722917099578,-0.994202816066099
-0.0030797005165368,1.3959966897964478,-0.1591486483812332,-0.3265502154827118,0.005139838438481,0.0695387944579124,0.0,0.0,-0.6290337510619202,-0.8798504085423151
-0.0046858787536621,1.388361573219299,-0.1653654873371124,-0.3393625020980835,0.0098416451364755,0.0940448194742202,0.0,0.0,0.4010658828537641,-0.6857376748049602
-0.0064558028243482,1.3810770511627195,-0.1827573925256729,-0.3238115906715393,0.0155445644631981,0.1140688434243202,0.0,0.0,-0.846930546254518,-0.6525669549449923
-0.0082582477480173,1.3735129833221436,-0.1868927031755447,-0.3362570703029632,0.022115308791399,0.1314269602298736,0.0,0.0,-0.8732457154628055,-0.6226510930031264
-0.0100889205932617,1.3656668663024902,-0.1905193775892257,-0.3488447368144989,0.0294818170368671,0.1473439037799835,0.0,0.0,0.2595008278237369,-0.8878016017902193
-0.0120107652619481,1.3581969738006592,-0.201238602399826,-0.3321991562843323,0.0384247675538063,0.178875520825386,0.0,0.0,0.3012333096680568,0.7410923583335013
-0.0137489316985011,1.351224064826965,-0.1813998371362686,-0.3101249933242798,0.0459233559668064,0.1499857753515243,0.0,0.0,0.1133847098685294,-0.6522149196684137
-0.0155589105561375,1.3448188304901123,-0.1896864622831344,-0.2849627733230591,0.0545208342373371,0.1719657331705093,0.0,0.0,-0.5349030283531759,-0.9069398859402582
-0.0174242965877056,1.3381335735321045,-0.1968419849872589,-0.2975234687328338,0.0647294074296951,0.2041905373334884,0.0,0.0,-0.0710988783324524,0.7255669860136528
-0.0192066188901662,1.3311755657196045,-0.1866827607154846,-0.309627890586853,0.0730978921055793,0.1673847138881683,0.0,0.0,-0.3816013884880875,-0.6869558538863684
-0.0210172645747661,1.3239312171936035,-0.1905166804790496,-0.322464644908905,0.0824708864092826,0.1874772310256958,0.0,0.0,0.2347657965931573,-0.8250977545584035
-0.0228043552488088,1.317198634147644,-0.189699113368988,-0.299869954586029,0.0933799892663955,0.2182020395994186,0.0,0.0,-0.8770367350772257,-0.8673915361293884
-0.0246294029057025,1.3101701736450195,-0.1948024332523346,-0.3131920099258423,0.1056051552295684,0.2445253133773803,0.0,0.0,-0.9370606443435274,-0.6120238273823002
-0.026468563824892,1.3028631210327148,-0.1969242990016937,-0.3257236182689667,0.1185422614216804,0.2587656080722809,0.0,0.0,0.7925460393079133,0.7070494766344249
-0.0281375888735055,1.2957818508148191,-0.1785520315170288,-0.3156836330890655,0.1301551461219787,0.232278972864151,0.0,0.0,-0.1083868356075936,0.6172128615887734
-0.0297225955873727,1.2884397506713867,-0.1683948338031768,-0.3272084593772888,0.1400260329246521,0.197435587644577,0.0,0.0,0.4412639334696364,0.7250033640301043
-0.0311331748962402,1.281337857246399,-0.149503618478775,-0.3164569437503814,0.1484632343053817,0.1687590777873993,0.0,0.0,0.9660370742756654,-0.603005612670094
-0.0325834266841411,1.2753952741622925,-0.1547717601060867,-0.2651170492172241,0.1582130342721939,0.1950133740901947,0.0,0.0,0.1988230639761374,0.8843541955137542
-0.0340682975947856,0.0,-0.1561755388975143,-0.2503802478313446,0.165918081998825,0.1541149914264679,0.0,0.0,0.0637614024717947,-0.8789375162084291
-0.0355775840580463,0.0,-0.1601397097110748,-0.2306418567895889,0.1751475781202316,0.1846066564321518,0.0,0.0,0.0966746685150934,0.9085962172614492
-0.0370281226933002,1.2596182823181152,-0.1521910578012466,-0.2229189425706863,0.1823140680789947,0.1433429419994354,0.0,0.0,0.5753601452158843,-0.6277412322417324
-0.038458727300167,1.255129337310791,-0.151491492986679,,0.1907964944839477,0.1696637868881225,0.0,0.0,0.1071894110150579,-0.9033007119919808
-0.0399125106632709,1.2506537437438965,-0.1553658097982406,-0.2002327740192413,0.2008526176214218,0.2011403739452362,0.0,0.0,-0.4883740621872823,0.6335467833429548
-0.0412976257503032,1.245910882949829,-0.1472562849521637,-0.2120013684034347,0.2096799463033676,0.1765620708465576,0.0,0.0,0.6369996698624008,0.9120859962986788
-0.0428812988102436,1.2418668270111084,-0.1648107469081878,-0.1806714832782745,0.2161898463964462,0.1301978230476379,0.0,0.0,0.5301809916437847,-0.6298154257004129
-0.044621754437685,1.2385165691375732,-0.1814856678247451,-0.1500038653612136,0.2237153202295303,0.1505094617605209,0.0,0.0,-0.8803196728092806,0.7107952773327537
-0.0462871566414833,1.2349073886871338,-0.1726038455963134,-0.1613409221172332,0.2298546135425567,0.1227860227227211,0.0,0.0,-0.5976873394723194,0.8340667304835098
-0.0478696823120117,1.2310411930084229,-0.162747710943222,-0.172529935836792,0.2344104200601577,0.091116115450859,0.0,0.0,0.6840134980676875,0.6328621485651568
-0.0495070442557334,1.227625846862793,-0.1666577160358429,-0.1522544026374817,0.2373747378587722,0.0592867322266101,0.0,0.0,-0.5645053690766075,-0.8645130429026008
-0.0511757843196392,1.2239155769348145,-0.1711829602718353,-0.1656078547239303,0.2417571246623993,0.0876474231481552,0.0,0.0,0.1330410574318543,0.6769438793631753
-0.0528875365853309,1.2203552722930908,-0.1738210022449493,-0.1586728245019912,0.2444407939910888,0.0536734089255332,0.0,0.0,-0.8318174220866761,-0.7767629454526108
-0.0546331405639648,1.2164952754974363,-0.178676038980484,-0.1722437590360641,0.2486354112625122,0.0838922709226608,0.0,0.0,0.511536865847094,0.9102211104213878
-0.0564173683524131,1.2128278017044067,-0.1804107129573822,-0.1633341908454895,0.2506555020809173,0.0404018983244895,0.0,0.0,-0.1206194575414525,-0.6907561515941453
-0.0582176223397254,1.2088607549667358,-0.1830763816833496,-0.1768458485603332,0.2537640333175659,0.062170572578907,0.0,0.0,0.914760391672031,-0.8694625039884409
-0.0602472312748432,1.205873966217041,-0.2075035870075225,-0.1335340142250061,0.2583995163440704,0.0927096456289291,0.0,0.0,-0.4673505194430236,0.9759057854013492
-0.062168788164854,1.202629327774048,-0.1945861279964447,-0.1446400582790374,0.2608810365200043,0.0496304556727409,0.0,0.0,0.5456645876263193,-0.659619633681551
-0.06425142288208,1.2001349925994873,-0.2118035554885864,-0.1114930585026741,0.2645019888877868,0.0724191069602966,0.0,0.0,-0.9480267946217236,-0.6676403384005861
-0.0663531273603439,1.1973445415496826,-0.2148481607437133,-0.1248761862516403,0.2692843377590179,0.0956467986106872,0.0,0.0,-0.1658532920219788,-0.6223888668649873
-0.0684637054800987,1.194254755973816,-0.2166230678558349,-0.1383580565452575,0.27499520778656,0.1142173185944557,0.0,0.0,-0.7166798057699759,0.9915873125729684
-0.0704772919416427,1.19091796875,-0.2050397843122482,-0.1490045487880706,0.2787713408470154,0.0755225345492363,0.0,0.0,-0.9682772755622864,0.975644826889038
-0.0723646134138107,1.18733549118042,-0.1898254752159118,-0.1594260334968567,0.2798915505409241,0.0224044360220432,0.0,0.0,-0.9865782260894777,0.9034278392791748
-0.0741336792707443,1.1834959983825684,-0.1756681650876999,-0.1704019606113433,0.2786189913749695,-0.0254505015909671,0.0,0.0,-0.9979370832443236,0.9876165390014648
-0.0757782906293869,1.179410696029663,-0.1606752574443817,-0.1808614730834961,0.2747405469417572,-0.07756869494915,0.0,0.0,-0.9811185598373412,0.9645044803619384
-0.0773154273629188,1.1750617027282717,-0.1478921175003051,-0.1922047585248947,0.2687748670578003,-0.1193137392401695,0.0,0.0,-0.9980025291442872,0.9606786966323853
-0.0787351578474044,1.170454740524292,-0.1338298916816711,-0.2032778710126876,0.260448694229126,-0.1665233075618744,0.0,0.0,-0.9963757395744324,0.7952179908752441
-0.0800503715872764,1.1655900478363037,-0.1213530674576759,-0.2144457995891571,0.2500789165496826,-0.207395315170288,0.0,0.0,-0.9842811822891236,0.1829118728637695
-0.0813284888863563,1.1604450941085815,-0.1173487678170204,-0.2269236892461776,0.2394334524869918,-0.2129096537828445,0.0,0.0,-0.8706783056259155,0.9054155349731444
-0.0825166702270507,1.1550477743148804,-0.1066509038209915,-0.2379483729600906,0.2270805388689041,-0.2470583021640777,0.0,0.0,-0.9971525073051452,0.3141517639160156
-0.0836678519845008,1.1493709087371826,-0.1026332750916481,-0.2504304945468902,0.2144514173269271,-0.2525827288627624,0.0,0.0,-0.9811922311782836,0.3172652721405029
-0.0847819298505783,1.1434147357940674,-0.0986105054616928,-0.2629135251045227,0.201545849442482,-0.2581114470958709,0.0,0.0,-0.973825454711914,0.3823468685150146
-0.0858588218688964,1.1371793746948242,-0.0945831984281539,-0.2753974497318268,0.1883636564016342,-0.2636438012123108,0.0,0.0,-0.9948896169662476,0.261455774307251
-0.086898423731327,1.1306648254394531,-0.0905519276857376,-0.2878823280334472,0.1749047040939331,-0.269178956747055,0.0,0.0,-0.9746935963630676,0.8376688957214355
-0.087836168706417,1.1238969564437866,-0.0783700570464134,-0.2990593910217285,0.159476026892662,-0.3085736632347107,0.0,0.0,-0.9204020500183104,0.5856050252914429
-0.0886795967817306,1.116862654685974,-0.067145399749279,-0.3108790218830108,0.1423093825578689,-0.3433329463005066,0.0,0.0,-0.813535213470459,0.1771227121353149
-0.0894857421517372,1.1095510721206665,-0.0631036311388015,-0.3233750760555267,0.1248659119009971,-0.3488694429397583,0.0,0.0,-0.9367597699165344,-0.5890263915061951
-0.0902940779924392,1.1019601821899414,-0.0640023797750473,-0.3360432088375091,0.1081356555223465,-0.3346056044101715,0.0,0.0,-0.9646000266075134,-0.3313182592391968
-0.0910651236772537,1.0940921306610107,-0.0599583387374877,-0.3485389351844787,0.0911285430192947,-0.3401423096656799,0.0,0.0,-0.912861466407776,-0.6929560303688049
-0.091847039759159,1.0859471559524536,-0.0619585737586021,-0.3610855340957641,0.075051911175251,-0.3215326964855194,0.0,0.0,-0.9287149906158448,-0.529567301273346
-0.092638686299324,1.077523708343506,-0.0638436079025268,-0.3736715614795685,0.0598852969706058,-0.303331971168518,0.0,0.0,-0.962708592414856,0.3071820735931396
-0.0933929458260536,1.0688226222991943,-0.0597993843257427,-0.3861643075942993,0.0444421395659446,-0.3088632225990295,0.0,0.0,-0.9668745398521424,-0.160938560962677
-0.0941095352172851,1.0598437786102295,-0.0557556077837944,-0.3986581861972809,0.0287226308137178,-0.3143901228904724,0.0,0.0,-0.975724995136261,-0.9124857783317566
-0.0948460549116134,1.0505821704864502,-0.0589074604213237,-0.4113935232162475,0.014169905334711,-0.2910544276237488,0.0,0.0,-0.5683392286300659,-0.5288562774658203
-0.0955851525068283,1.0410428047180176,-0.0599119663238525,-0.4238986074924469,0.0003518215671647,-0.2763616144657135,0.0,0.0,-0.9799189567565918,-0.2421534657478332
-0.0962866768240928,1.0312252044677734,-0.0558723583817482,-0.4363895058631897,-0.0137417679652571,-0.2818718254566192,0.0,0.0,-0.805476188659668,-0.891733705997467
-0.097035601735115,1.0211318731307983,-0.0625078678131103,-0.4487611651420593,-0.025972606614232,-0.2446168214082718,0.0,0.0,-0.8398180603981018,-0.6507165431976318
-0.0977964401245117,1.0107691287994385,-0.0646884217858314,-0.4608041644096374,-0.0372294299304485,-0.2251364439725875,0.0,0.0,-0.9614251255989076,-0.1504346132278442
-0.0985197052359581,1.0001276731491089,-0.0606562383472919,-0.4732905626296997,-0.0487604849040508,-0.2306208312511444,0.0,0.0,-0.9584566354751588,-0.8325971961021423
-0.0992679595947265,0.9892212748527528,-0.0644829720258712,-0.4850934445858001,-0.0589811988174915,-0.2044144868850708,0.0,0.0,-0.9980679750442504,0.670734167098999
-0.0999340042471885,0.9780294299125672,-0.054859459400177,-0.4979290664196014,-0.0706020146608352,-0.2324159890413284,0.0,0.0,-0.9715642929077148,-0.97377347946167
-0.1006508842110633,0.9665719866752625,-0.0619358792901039,-0.5097126364707947,-0.0802595391869545,-0.1931504160165786,0.0,0.0,-0.9653666019439696,-0.9596571326255798
-0.101401999592781,0.9548455476760864,-0.0669236555695533,-0.5216339826583862,-0.0883742496371269,-0.162293866276741,0.0,0.0,-0.98129141330719,-0.9924251437187196
-0.102209948003292,0.9428631663322448,-0.0747640281915664,-0.5329209566116333,-0.0943556129932403,-0.1196276396512985,0.0,0.0,-0.9816292524337769,-0.9653542041778564
-0.1030473709106445,0.9306102395057678,-0.0791379362344741,-0.5448724031448364,-0.0989174172282219,-0.0912361517548561,0.0,0.0,-0.9648736119270324,-0.7891016006469727
-0.1039135009050369,0.9180808067321776,-0.0834140628576278,-0.5570791959762573,-0.1020889356732368,-0.0634302794933319,0.0,0.0,-0.9228817820549012,-0.9461684226989746
-0.1048091873526573,0.905271291732788,-0.0877818465232849,-0.5694335699081421,-0.1038581728935241,-0.0353849902749061,0.0,0.0,-0.9236055612564088,-0.6194576621055603
-0.105719469487667,0.8921834230422974,-0.0902807042002677,-0.5817368626594543,-0.1045960336923599,-0.0147570874541997,0.0,0.0,-0.917612373828888,-0.7709445357322693
-999.0,0.8788318634033203,-0.0939782038331031,-0.5933659076690674,-0.1040375828742981,0.0111693898215889,0.0,0.0,-0.7460764646530151,-0.4143763780593872
-0.1075508147478103,0.8651999831199646,-0.090014562010765,-0.605843186378479,-0.1037426963448524,0.005897507071495,0.0,0.0,-0.727776050567627,-0.6617445945739746
-0.1084722504019737,0.8513039946556091,-0.0937699973583221,-0.6174881458282471,-0.1021418198943138,0.0320176370441913,0.0,0.0,-0.9333417415618896,-0.366084337234497
-0.1093570739030838,0.8371277451515198,-0.089829571545124,-0.6299656629562378,-0.1008011475205421,0.0268137250095605,0.0,0.0,-0.8730714917182922,-0.5803062915802002
-0.1102474182844162,0.8226827383041382,-0.0912169814109802,-0.6418531537055969,-0.0986373350024223,0.0432761944830417,0.0,0.0,-0.8061311841011047,-0.6080291271209717
-0.1111572235822677,0.8079657554626465,-0.0943242162466049,-0.6538697481155396,-0.0953135564923286,0.0664757937192916,0.0,0.0,-0.9621874690055848,-0.3632427453994751
-0.1120305061340332,0.7929685711860657,-0.0904279202222824,-0.6663476228713989,-0.0922435745596885,0.0613998584449291,0.0,0.0,-0.7651521563529968,-0.6658998727798462
-0.1129207611083984,0.7777020335197449,-0.0932433903217315,-0.6782608032226562,-0.0880702510476112,0.0834666267037391,0.0,0.0,-0.324375569820404,0.1672760248184204
-0.1137750595808029,0.7621553540229797,-0.0893840566277504,-0.6907390356063843,-0.0841453671455383,0.0784975811839103,0.0,0.0,-0.7317394614219666,0.4540492296218872
-0.1145934090018272,0.7463282942771912,-0.0855458229780197,-0.703217089176178,-0.0804658830165863,0.0735896378755569,0.0,0.0,-0.1797760725021362,0.5806629657745361
-0.1153233498334884,0.7302104830741882,-0.0751205310225486,-0.7162397503852844,-0.0783645436167717,0.0420268401503562,0.0,0.0,0.4413940906524658,0.4120094776153564
-0.1158508285880088,0.7145420908927917,-0.0552318803966045,-0.696243405342102,-0.0759079009294509,0.0491330400109291,0.0,0.0,0.260589599609375,-0.5766578316688538
-0.1162493675947189,0.699030876159668,-0.0434879846870899,-0.6892026662826538,-0.0723123252391815,0.0719116777181625,0.0,0.0,-0.3339758515357971,0.0190320014953613
-0.1166129112243652,0.6832394599914551,-0.0397563874721527,-0.7016801238059998,-0.0689468011260032,0.0673104897141456,0.0,0.0,0.2397972345352172,0.0134785175323486
-0.116879366338253,0.6680170893669128,-0.0299266930669546,-0.6764003038406372,-0.0656992048025131,0.064951941370964,0.0,0.0,-0.5740628838539124,0.3414285182952881
-0.117111399769783,0.6525143980979919,-0.0262646712362766,-0.6888774037361145,-0.0626717805862426,0.0605487041175365,0.0,0.0,-0.4715697169303894,-0.2742447853088379
-0.1173093765974044,0.6367313861846924,-0.0226423759013414,-0.7013542056083679,-0.0598588995635509,0.0562574788928031,0.0,0.0,0.6412591934204102,-0.0540363788604736
-0.1174954399466514,0.6214299201965332,-0.0210019554942846,-0.6799671649932861,-0.0574960075318813,0.0472582206130027,0.0,0.0,-0.3488719463348388,-0.3610960245132446
-0.1176483184099197,0.6058481335639954,-0.0174704380333423,-0.6924435496330261,-0.0553350001573562,0.0432199798524379,0.0,0.0,0.4021942615509033,-0.6119625568389893
-0.1178115829825401,0.5907149314880371,-0.0195036847144365,-0.6724740266799927,-0.052195381373167,0.0627923235297203,0.0,0.0,-0.2467371225357055,0.5819624662399292
-0.1179058104753494,0.5753036737442017,-0.0114831961691379,-0.6848741173744202,-0.050160776823759,0.0406921878457069,0.0,0.0,0.0437616109848022,-0.3544243574142456
-0.11789121478796,0.5602682828903198,-0.0006743668345734,-0.668170690536499,-0.0480507686734199,0.0421998426318168,0.0,0.0,0.3803068399429321,-0.5675823092460632
-0.1179086714982986,0.5459023714065552,-0.0047408929094672,-0.6383910775184631,-0.0450874231755733,0.0592670626938343,0.0,0.0,-0.9052388668060304,0.7550063133239746
-0.117843821644783,0.5312578678131104,0.0049591260030865,-0.6508209109306335,-0.0435798168182373,0.0301521234214305,0.0,0.0,0.673785924911499,0.7068579196929932
-0.1176986694335937,0.5170846581459045,0.0146196316927671,-0.6299256086349487,-0.043688204139471,-0.0021678986959159,0.0,0.0,0.3002247810363769,0.1924793720245361
-0.1175954788923263,0.5033460855484009,0.0110050598159432,-0.6106230020523071,-0.044361475855112,-0.0134653989225626,0.0,0.0,-0.1776235699653625,0.0675302743911743
-0.1174638718366622,0.489326924085617,0.0139728430658578,-0.6230985522270203,-0.0451637431979179,-0.0160452201962471,0.0,0.0,0.734717607498169,0.5067094564437866
-0.1171123534440994,0.4761501252651214,0.0367605648934841,-0.5856872797012329,-0.0467538982629776,-0.0318030342459678,0.0,0.0,-0.6495007276535034,-0.3843914270401001
-0.1167343109846115,0.4626926481723785,0.0395230986177921,-0.598162829875946,-0.0484489873051643,-0.0339020155370235,0.0,0.0,0.4603860378265381,0.2826234102249145
-0.1161698326468467,0.4499556720256805,0.0576465129852294,-0.5661274790763855,-0.0496432334184646,-0.0238848496228456,0.0,0.0,-0.3103147745132446,-0.3586821556091308
-0.1155809387564659,0.43693807721138,0.0601731352508068,-0.5786027908325195,-0.0509163960814476,-0.0254630632698535,0.0,0.0,0.6552976369857788,0.1959595680236816
-0.1147824302315712,0.4249114990234375,0.0805385187268257,-0.5345385670661926,-0.0515935905277729,-0.0135438190773129,0.0,0.0,-0.5401853322982788,-0.0912929773330688
-0.1139618903398513,0.4126042127609253,0.0827972143888473,-0.5470138192176819,-0.0523220561444759,-0.0145694389939308,0.0,0.0,-0.3837395906448364,-0.6299235820770264
-0.1131706237792968,0.4000265896320343,0.0786107406020164,-0.5589882731437683,-0.0518178753554821,0.0100835114717483,0.0,0.0,-0.3592715263366699,-0.5698935985565186
-0.112400434911251,0.3871763944625854,0.0755048543214798,-0.5710649490356445,-0.0503155924379825,0.0300455633550882,0.0,0.0,0.79320228099823,0.1453688144683838
-0.1114998832345008,0.3747844994068146,0.0881314277648925,-0.5506864190101624,-0.048416893929243,0.037973865866661,0.0,0.0,0.557337760925293,-0.1020004749298095
-0.1106699928641319,0.3629935979843139,0.0816055759787559,-0.5239972472190857,-0.0470450520515441,0.0274369455873966,0.0,0.0,-0.1108075380325317,-0.026121437549591
-0.1098253279924392,0.3509219884872436,0.0830577537417411,-0.5364723205566406,-0.0456522330641746,0.0278564635664224,0.0,0.0,-0.0594112277030944,0.0062232017517089
-0.108967587351799,0.3385696709156036,0.0843278169631958,-0.548947274684906,-0.0442240722477436,0.0285630412399768,0.0,0.0,0.6571484804153442,0.3815705776214599
-0.1080489158630371,0.3267367780208587,0.0902575701475143,-0.5258592367172241,-0.0426260158419609,0.0319610461592674,0.0,0.0,0.0454877614974975,0.149674654006958
-0.1070283874869346,0.3149589300155639,0.0999878495931625,-0.5234013199806213,-0.0405824221670627,0.0408717766404151,0.0,0.0,-0.0131860971450805,-0.5024330615997314
-0.1060333251953125,0.3029048144817352,0.0965096578001976,-0.5356638431549072,-0.0376240126788616,0.0591683685779571,0.0,0.0,0.6681272983551025,0.7577673196792603
-0.1049138084053993,0.291793018579483,0.1103309169411659,-0.4938152432441711,-0.036028005182743,0.031920202076435,0.0,0.0,0.0672183036804199,-0.3387762904167175
-0.1037420257925987,0.2807004749774933,0.115268625319004,-0.4929581880569458,-0.0341393388807773,0.0377732962369918,0.0,0.0,0.1171939373016357,-0.2868775129318237
