x_pos,y_pos,x_vel,y_vel,angle,ang_vel,leg_1,leg_2,main_booster,lat_booster
-0.0015028953785076,1.4034092426300049,-0.152225986123085,-0.3338163793087005,0.0017293320270255,0.0341102555394172,0.0,0.0,0.7652561412657577,-0.5392612361549286
-0.0029692649841308,1.3964431285858154,-0.149567037820816,-0.3096133172512054,0.004628584254533,0.0579912886023521,0.0,0.0,-0.8118369924789424,0.4069671455930111
-0.0044148443266749,1.389261245727539,-0.1474611461162567,-0.3192096352577209,0.0074999700300395,0.057433009147644,0.0,0.0,-0.4558887324288934,-0.9201072939504852
-0.0059262276627123,1.3818602561950684,-0.1562217622995376,-0.3289642632007599,0.0125261414796113,0.1005328446626663,0.0,0.0,0.0503284626591142,0.0194426924515704
-0.0073401452973484,1.3748679161071775,-0.1468437612056732,-0.3108305633068084,0.0179209597408771,0.1079061403870582,0.0,0.0,-0.8373653946510975,0.2575751347469019
-0.008733463473618,1.3676605224609375,-0.1447539776563644,-0.3204035460948944,0.0232952833175659,0.1074961870908737,0.0,0.0,-0.2807385839769798,-0.1241635720219788
-0.0101059917360544,1.3602381944656372,-0.1426684707403183,-0.3299697637557983,0.0286517217755317,0.1071384772658348,0.0,0.0,0.7306918221213667,-0.83556828699827
-0.0113702770322561,1.35362446308136,-0.1338455975055694,-0.2941000759601593,0.0359837301075458,0.1466536223888397,0.0,0.0,-0.2351698009409675,0.959605923131262
-0.0125403404235839,1.3468103408813477,-0.1225160807371139,-0.3029924631118774,0.0414377264678478,0.1090899929404258,0.0,0.0,0.1779801042141102,-0.4853253220113561
-0.0137118343263864,1.34055757522583,-0.1226448565721511,-0.2780598700046539,0.0468817539513111,0.1088906675577163,0.0,0.0,0.4271123411418724,0.1033077483519595
-0.0148123744875192,1.334864616394043,-0.1159048900008201,-0.2532171308994293,0.0526735223829746,0.1158457621932029,0.0,0.0,-0.9517827118557194,0.0352842190313154
-0.0158924106508493,1.3289567232131958,-0.1138507723808288,-0.2627892196178436,0.0584638714790344,0.1158175021409988,0.0,0.0,0.8820548385803348,-0.0803402613128415
-0.0168502815067768,1.3240405321121216,-0.1023483648896217,-0.2187733799219131,0.0649588480591774,0.129911407828331,0.0,0.0,-0.9882660000150414,-0.8459254395205754
-0.0178464893251657,1.318895697593689,-0.1076749563217163,-0.2290233820676803,0.0729494243860244,0.1598259508609771,0.0,0.0,-0.2119560150397572,0.4777010355225484
-0.0188222881406545,1.3135366439819336,-0.105655089020729,-0.2385905534029007,0.0809512808918953,0.1600516587495803,0.0,0.0,0.3946998572564824,-0.5277638531418315
-0.0197395328432321,1.3083393573760986,-0.1011155843734741,-0.2315177172422409,0.0902651473879814,0.1862943470478058,0.0,0.0,0.2061481393173754,0.1032992792094512
-0.0205928795039653,1.3038747310638428,-0.0952052175998687,-0.1990536600351333,0.1000719666481018,0.1961541026830673,0.0,0.0,0.1550076267446609,-0.8704669735145855
-0.021405030041933,1.2995868921279907,-0.0929050222039222,-0.1913935989141464,0.1116977259516716,0.2325364053249359,0.0,0.0,0.0219132908312387,0.5854203062282811
-0.0221401210874319,1.295850157737732,-0.0841358676552772,-0.1669065207242965,0.1222792416810989,0.2116497009992599,0.0,0.0,0.4165753506104279,-0.7755492901861496
-0.0230521205812692,1.2925965785980225,-0.103292629122734,-0.1456389129161834,0.1343291401863098,0.2410201281309127,0.0,0.0,-0.0833337055413834,-0.7098150972479248
-0.023988913744688,1.28912615776062,-0.1069081574678421,-0.1554898172616958,0.1475357264280319,0.2641556859016418,0.0,0.0,-0.7943641121819947,-0.8761661001640952
-0.0249731056392192,1.2854231595993042,-0.1133819967508316,-0.1661244332790374,0.1625103503465652,0.2995190024375915,0.0,0.0,0.3148688955541037,0.1611610537450515
-0.0259063728153705,1.2821747064590454,-0.1087929233908653,-0.1461439132690429,0.1780196726322174,0.3102142214775085,0.0,0.0,0.0188620710626032,-0.7936694344062935
-0.0268659591674804,1.278986573219299,-0.113047756254673,-0.1438329219818115,0.1952018290758133,0.3436740040779114,0.0,0.0,-0.4286576235930623,-0.7868411548567944
-0.0278830528259277,1.2755672931671145,-0.1207122802734375,-0.1545837372541427,0.2144019156694412,0.384035587310791,0.0,0.0,-0.9827568551182688,0.566889634036196
-0.0288458820432424,1.271930694580078,-0.1144731491804122,-0.1643836796283722,0.2328102886676788,0.3681672215461731,0.0,0.0,0.8755476338878312,0.0488014719343152
-0.029976462945342,1.2692885398864746,-0.1312635391950607,-0.12041737139225,0.2513220310211181,0.3702340722084045,0.0,0.0,0.5055404911374977,0.4001601852720035
-0.0313913337886333,1.2674840688705444,-0.1591553092002868,-0.0833303928375244,0.269373208284378,0.3610231280326843,0.0,0.0,0.0336628091297284,-0.3512482405131414
-0.032996080815792,1.2661370038986206,-0.1777822077274322,-0.0631602182984352,0.2871442139148712,0.3554198741912842,0.0,0.0,-0.4303671837980354,0.3424434122893436
-0.034583281725645,1.264579176902771,-0.1760468035936355,-0.0727524310350418,0.3050200045108795,0.357515424489975,0.0,0.0,-0.0449668327029491,-0.9329754759257676
-0.0362236015498638,1.262789011001587,-0.1831245124340057,-0.0836969465017318,0.324837327003479,0.3963467478752136,0.0,0.0,-0.8258339762687683,0.991575002670288
-0.0377816185355186,1.2608157396316528,-0.1732101142406463,-0.0917139872908592,0.3430168926715851,0.363591194152832,0.0,0.0,-0.7024044394493103,0.9879913330078124
-0.0392623916268348,1.2586742639541626,-0.163823515176773,-0.0990196838974952,0.3595664501190185,0.3309912085533142,0.0,0.0,-0.7929260730743408,0.99613356590271
-0.0406593307852745,1.256349802017212,-0.1537613570690155,-0.1069098711013794,0.3744318187236786,0.2973081469535827,0.0,0.0,-0.8670794367790222,0.9967405796051024
-0.0419663414359092,1.2538591623306274,-0.1428301632404327,-0.1139290407299995,0.3873286843299866,0.2579379975795746,0.0,0.0,-0.8671492338180542,0.988323211669922
-0.0431859008967876,1.2512078285217283,-0.1321898996829986,-0.1206574887037277,0.3982642590999603,0.218711569905281,0.0,0.0,-0.8348181843757629,0.9863839149475098
-0.044320773333311,1.2483818531036377,-0.1220222562551498,-0.1280187368392944,0.4074123501777649,0.1829619705677032,0.0,0.0,-0.7617197632789612,0.9863018989562988
-0.0453677177429199,1.2453981637954712,-0.1113209500908851,-0.134531170129776,0.4145424664020538,0.1426028460264206,0.0,0.0,-0.7909060716629028,0.989304780960083
-0.0463374145328998,1.2422544956207275,-0.1019397154450416,-0.1411893516778946,0.4199115335941314,0.1073815450072288,0.0,0.0,-0.9637606739997864,0.9421069622039796
-0.0472233779728412,1.2389451265335083,-0.0918302088975906,-0.1480483263731002,0.4234099388122558,0.0699680969119072,0.0,0.0,-0.9069164991378784,0.918834924697876
-0.0480446815490722,1.2354652881622314,-0.084077700972557,-0.1552473157644271,0.4255131483078003,0.042064968496561,0.0,0.0,-0.984659731388092,0.9209604263305664
-0.0487741455435752,1.2318233251571655,-0.0729409903287887,-0.1618671417236328,0.4255058169364929,-0.0001466854882892,0.0,0.0,-0.989841103553772,0.9278204441070556
-0.0494125373661518,1.228010177612305,-0.0619568936526775,-0.1689063906669616,0.4234729707241058,-0.0406571552157402,0.0,0.0,-0.9971488118171692,0.4757373332977295
-0.0500404350459575,1.2239830493927002,-0.0610984079539775,-0.1784780919551849,0.4216468334197998,-0.0365234464406967,0.0,0.0,-0.9968849420547484,0.7364037036895752
-0.0506070144474506,1.2197669744491575,-0.0538674108684062,-0.1865419447422027,0.418619841337204,-0.0605396851897239,0.0,0.0,-0.992050290107727,0.7671542167663574
-0.051103688776493,1.215369701385498,-0.0454884320497512,-0.1942080855369568,0.4141097664833069,-0.0902012661099433,0.0,0.0,-0.9985541701316832,0.5141546726226807
-0.0515512451529502,1.210782766342163,-0.0396911278367042,-0.2023862302303314,0.4086558222770691,-0.1090786010026931,0.0,0.0,-0.9980869293212892,0.2691929340362549
-0.0519921295344829,1.2059822082519531,-0.0392249934375286,-0.2119605541229248,0.4034349322319031,-0.1044180616736412,0.0,0.0,-0.999616265296936,0.2607920169830322
-0.0524271950125694,1.2009681463241575,-0.0388655327260494,-0.2215348035097122,0.3984532952308655,-0.0996325314044952,0.0,0.0,-0.9985178709030152,0.7462164163589478
-0.0528050437569618,1.19577157497406,-0.0319638177752494,-0.2293460816144943,0.3922310173511505,-0.1244453638792038,0.0,0.0,-0.9997396469116212,0.5224753618240356
-0.0531323440372943,1.1903905868530271,-0.0258782152086496,-0.237288549542427,0.384924054145813,-0.1461394131183624,0.0,0.0,-0.9990077018737792,0.1988555192947387
-0.0534572601318359,1.1847960948944092,-0.0258494913578033,-0.2468650341033935,0.3778742253780365,-0.14099682867527,0.0,0.0,-0.9995097517967224,0.7057218551635742
-0.053718663752079,1.1790211200714111,-0.018135130405426,-0.2545653879642486,0.36937415599823,-0.1700016856193542,0.0,0.0,-0.9619392156600952,0.635836124420166
-0.0539344772696495,1.1730661392211914,-0.0125475106760859,-0.2623709440231323,0.3598201274871826,-0.1910806149244308,0.0,0.0,-0.9998568296432496,0.7989107370376587
-0.0540773384273052,1.1669368743896484,-0.0035156267695128,,0.3484963774681091,-0.2264750003814697,0.0,0.0,-0.9997368454933168,0.3183193206787109
-0.0542220100760459,1.160595417022705,-0.0039336970075964,-0.2793332040309906,0.3374512493610382,-0.2209025621414184,0.0,0.0,-0.9998703598976136,0.1492586135864257
-0.0543696396052837,1.154041409492493,-0.0044618984684348,-0.2889149785041809,0.3266896307468414,-0.215232253074646,0.0,0.0,-0.9998574256896972,0.5364500284194946
-0.0544727332890033,1.1473021507263184,0.0010613028425723,-0.2970026135444641,0.3148668706417084,-0.2364557534456253,0.0,0.0,-0.9997539520263672,0.507001519203186
-0.0545393005013465,1.1403765678405762,0.0055986335501074,-0.305195540189743,0.3021691441535949,-0.2539538443088531,0.0,0.0,-0.990199089050293,0.3675224781036377
-0.0546118728816509,1.1332387924194336,0.0047578928060829,-0.3147801160812378,0.2897685766220093,-0.248011440038681,0.0,0.0,-0.9988347291946412,0.3000534772872925
-0.0546914115548133,1.1258890628814695,0.0038188113830983,-0.3243639171123504,0.2776692807674408,-0.2419866621494293,0.0,0.0,-0.9960027933120728,0.2212707996368408
-0.0547786727547645,1.1183269023895264,0.0027853741776198,-0.3339470028877258,0.2658751010894775,-0.2358833998441696,0.0,0.0,-0.9670514464378356,0.1233950853347778
-0.0548745170235633,1.1105525493621826,0.0016618069494143,-0.3435292840003967,0.2543898522853851,-0.2297056913375854,0.0,0.0,-0.9762977957725524,0.8859469890594482
-0.0549098029732704,1.1025947332382202,0.0092817712575197,-0.351519763469696,0.2413543909788131,-0.2607092559337616,0.0,0.0,-0.9955018162727356,0.7107019424438477
-0.0548992156982421,1.094440221786499,0.0150202009826898,-0.36019167304039,0.2271858751773834,-0.2833706140518188,0.0,0.0,-0.9592301249504088,0.2504628896713257
-0.0548995025455951,1.0860742330551147,0.0136554865166544,-0.3697783350944519,0.2133363336324691,-0.2769907116889953,0.0,0.0,-0.9519822597503662,-0.3218387961387634
-0.0549115166068077,1.0774961709976196,0.0122185088694095,-0.3793640434741974,0.1998087465763092,-0.2705518901348114,0.0,0.0,-0.9904586672782898,0.5973584651947021
-0.0548820495605468,1.0687153339385986,0.0174154210835695,-0.3883674740791321,0.185247004032135,-0.2912351489067077,0.0,0.0,-0.939213216304779,-0.4543390870094299
-0.0548654571175575,1.059722900390625,0.0158484056591987,-0.3979542553424835,0.1710125356912613,-0.2846889197826385,0.0,0.0,-0.7976855039596558,-0.6211885213851929
-0.0549178123474121,1.0505012273788452,0.0072236964479088,-0.4084680378437042,0.1585486680269241,-0.2492778003215789,0.0,0.0,-0.8866075277328491,-0.8517125844955444
-0.055060863494873,1.041051983833313,-0.0041208653710782,-0.4189195930957794,0.1483793407678604,-0.2033864259719848,0.0,0.0,-0.9395540952682496,-0.6774755120277405
-0.0552683845162391,1.0313793420791626,-0.0121803525835275,-0.429069846868515,0.1398288607597351,-0.171009674668312,0.0,0.0,-0.940948724746704,-0.4601895809173584
-0.0554903969168663,1.0214927196502686,-0.0139605132862925,-0.4386440515518188,0.1316139996051788,-0.1642975807189941,0.0,0.0,-0.9656360745429992,-0.6187279224395752
-0.0557700172066688,1.0113840103149414,-0.0211315862834453,-0.4486896395683288,0.1248215213418006,-0.1358495950698852,0.0,0.0,-0.8460017442703247,-0.2873196601867676
-0.0560647957026958,1.0010613203048706,-0.0229946821928024,-0.4582613110542297,0.1183677837252616,-0.1290746629238128,0.0,0.0,-0.9185264706611632,-0.0340312719345092
-0.056375216692686,0.9905243515968324,-0.0248942021280527,-0.4678324460983276,0.112254112958908,-0.1222732812166214,0.0,0.0,-0.9880666732788086,-0.0653208494186401
-0.05670166015625,0.979773223400116,-0.0268271807581186,-0.4774030447006225,0.1064816713333129,-0.1154487505555152,0.0,0.0,-0.939662218093872,0.353661298751831
-0.0570443160831928,0.9688078761100768,-0.0287908408790826,-0.4869731366634369,0.1010514572262764,-0.1086043864488601,0.0,0.0,-0.9886022210121156,-0.400065004825592
-0.0574034675955772,0.9576280117034912,-0.0307826194912195,-0.4965427815914154,0.0959642902016639,-0.1017434149980545,0.0,0.0,-0.9306473731994628,-0.153738796710968
-0.0577792152762413,0.9462336897850036,-0.0328001379966735,-0.5061119794845581,0.0912208408117294,-0.0948691070079803,0.0,0.0,-0.9328625202178956,-0.2330757975578308
-0.0581720359623432,0.934624969959259,-0.034841202199459,-0.5156807899475098,0.0868216082453727,-0.0879846960306167,0.0,0.0,-0.9763470888137816,-0.2295042276382446
-0.0585820190608501,0.9228014945983888,-0.036903791129589,-0.525249183177948,0.0827669352293014,-0.0810933858156204,0.0,0.0,-0.7718967795372009,-0.672831118106842
-0.0590713508427143,0.9107557535171508,-0.0467642657458782,-0.5352498292922974,0.0806229040026664,-0.042880579829216,0.0,0.0,-0.9848781228065492,0.9833979606628418
-0.0595078468322753,0.898507833480835,-0.0400387421250343,-0.544157087802887,0.0770417302846908,-0.0716232806444168,0.0,0.0,-0.8179750442504883,0.0466929674148559
-0.0599620826542377,0.8860453963279724,-0.0421552583575248,-0.5537246465682983,0.0738051831722259,-0.0647306740283966,0.0,0.0,-0.9485270380973816,-0.0217828750610351
-0.0604341514408588,0.8733682036399841,-0.0442867055535316,-0.5632919073104858,0.0709129869937896,-0.0578441508114337,0.0,0.0,-0.9477878212928772,0.6136901378631592
-0.0608736053109169,0.8604755401611328,-0.0400853715837001,-0.572827935218811,0.0670960843563079,-0.0763380974531173,0.0,0.0,-0.9668302536010742,-0.3812230825424194
-0.0613310821354389,0.8473681807518005,-0.042242731899023,-0.5823952555656433,0.063622385263443,-0.0694737881422042,0.0,0.0,-0.978514552116394,-0.8430274128913879
-0.0618572235107421,0.8340409994125366,-0.0507233329117298,-0.5922406315803528,0.0617592930793762,-0.0372620001435279,0.0,0.0,-0.9945994019508362,0.8976118564605713
-0.062313936650753,0.8205003142356873,-0.0419183634221553,-0.6016607880592346,0.0580387227237224,-0.0744112506508827,0.0,0.0,-0.7652896642684937,0.9732913970947266
-0.0627133399248123,0.8067585825920105,-0.0345757640898227,-0.6105430722236633,0.0527378916740417,-0.1060169339179992,0.0,0.0,-0.9950132369995116,-0.9010398983955384
-0.0631990432739257,0.7928037643432617,-0.0452714301645755,-0.6201061010360718,0.0494754686951637,-0.0652482062578201,0.0,0.0,-0.9647902846336364,-0.0315359234809875
-0.0637034401297569,0.7786340117454529,-0.0474757328629493,-0.6296727061271667,0.0465503670275211,-0.0585023276507854,0.0,0.0,-0.9859368801116944,0.0655992031097412
-0.0642265304923057,0.7642492055892944,-0.0496869757771492,-0.6392390131950378,0.0439607687294483,-0.0517918355762958,0.0,0.0,-0.9613123536109924,0.6819953918457031
-0.0647190064191818,0.7496511340141296,-0.0457234233617782,-0.6487105488777161,0.0404665023088455,-0.0698851570487022,0.0,0.0,-0.9054539799690248,0.5334968566894531
-0.065182588994503,0.7348473072052002,-0.0419262796640396,-0.6578307747840881,0.0360920801758766,-0.0874882265925407,0.0,0.0,-0.6493838429450989,-0.3583253622055053
-0.0656650513410568,0.7198286652565002,-0.044154442846775,-0.6673974990844727,0.0320466011762619,-0.080909751355648,0.0,0.0,-0.6123537421226501,-0.9058396220207214
-0.0662531852722168,0.7045993208885193,-0.0572521202266216,-0.6768283247947693,0.0305004343390464,-0.0309230536222457,0.0,0.0,-0.4861824512481689,0.2718396186828613
-0.066860482096672,0.6891549229621887,-0.0594889335334301,-0.686393678188324,0.0292776171118021,-0.0244564358144998,0.0,0.0,-0.6953490972518921,0.4421815872192383
-0.0674869567155838,0.6734954118728638,-0.0617293193936347,-0.6959589123725891,0.0283749494701623,-0.0180534217506647,0.0,0.0,-0.7279073596000671,0.4736589193344116
-0.0681325942277908,0.6576210260391235,-0.0639728456735611,-0.7055240273475647,0.0277889631688594,-0.0117196189239621,0.0,0.0,-0.1655406355857849,0.949765920639038
-0.0687254890799522,0.6415311694145203,-0.0571751408278942,-0.7150622010231018,0.0257051531225442,-0.0416759774088859,0.0,0.0,0.5530450344085693,0.6988862752914429
-0.06941719353199,0.626072347164154,-0.0657316893339157,-0.6870031952857971,0.0223021227866411,-0.0680604353547096,0.0,0.0,-0.6053364872932434,0.9428317546844482
-0.0700724571943283,0.610398530960083,-0.0609579384326934,-0.6965588927268982,0.0177971590310335,-0.0900991410017013,0.0,0.0,0.1018251180648803,0.0842378139495849
-0.0706849098205566,0.5952302813529968,-0.0573292151093483,-0.6741002798080444,0.0139187257736921,-0.0775686502456665,0.0,0.0,0.081244945526123,0.7152165174484253
-0.0712179169058799,0.5802053213119507,-0.0482611134648323,-0.6677389144897461,0.0089538134634494,-0.0992983058094978,0.0,0.0,-0.279081642627716,0.8130459785461426
-0.0716906562447547,0.564972996711731,-0.0405015051364898,-0.6769648790359497,0.0022716769017279,-0.1336426734924316,0.0,0.0,-0.756364643573761,0.8202042579650879
-0.0721205696463584,0.5495333671569824,-0.0349224135279655,-0.6862178444862366,-0.0056961099617183,-0.1593560725450515,0.0,0.0,-0.4613235592842102,-0.2357625961303711
-0.072570227086544,0.5338792204856873,-0.0371779948472976,-0.6957871913909912,-0.0133866146206855,-0.1538098454475402,0.0,0.0,-0.726141631603241,-0.748488187789917
-0.07309141010046,0.5180116295814514,-0.0459234714508056,-0.7052953243255615,-0.0195066016167402,-0.1223994642496109,0.0,0.0,0.6147081851959229,-0.0856306552886962
-0.0736239403486251,0.5031261444091797,-0.0472913943231105,-0.6616650819778442,-0.0253956317901611,-0.1177805066108703,0.0,0.0,0.385446548461914,0.5129786729812622
-0.0740640610456466,0.489017128944397,-0.0374069362878799,-0.6271927952766418,-0.0319160372018814,-0.1304081678390503,0.0,0.0,-0.8507940173149109,-0.641721248626709
-0.0745681747794151,0.4746921360492706,-0.0451845079660415,-0.6367847323417664,-0.0370832122862339,-0.1033434048295021,0.0,0.0,0.2227492332458496,0.7387673854827881
-0.0751193016767501,0.4608420133590698,-0.0485168732702732,-0.6157391667366028,-0.0436006374657154,-0.1303485333919525,0.0,0.0,-0.4262065887451172,-0.1677262187004089
-0.0756905525922775,0.4467771351337433,-0.0507687218487262,-0.6253060698509216,-0.0498876348137855,-0.1257397085428238,0.0,0.0,-0.2656146883964538,0.5086624622344971
-0.0762433037161827,0.4324942827224731,-0.0481554828584194,-0.6350476741790771,-0.0569297894835472,-0.1408429592847824,0.0,0.0,-0.1925802230834961,0.3004953861236572
-0.0768164619803428,0.4179966747760772,-0.0504037961363792,-0.6446149945259094,-0.0637611150741577,-0.1366264522075653,0.0,0.0,0.716018795967102,-0.6483191847801208
-0.0772911086678505,0.4038282632827759,-0.0424222983419895,-0.629930317401886,-0.0687555223703384,-0.0998880192637443,0.0,0.0,0.988117218017578,-0.7468247413635254
-0.0776620879769325,0.3906723260879516,-0.0340426675975322,-0.5848498940467834,-0.0717713460326194,-0.0603165552020072,0.0,0.0,0.7923095226287842,-0.153032124042511
-0.0779636353254318,0.3786074817180633,-0.0274203773587942,-0.5363496541976929,-0.0744841396808624,-0.0542559102177619,0.0,0.0,-0.1230573654174804,-0.8496379852294922
-0.0783464461565017,0.3663246035575866,-0.0372278951108455,-0.5459582209587097,-0.0755212977528572,-0.020743291825056,0.0,0.0,0.5454769134521484,0.6539359092712402
