x_pos,y_pos,x_vel,y_vel,angle,ang_vel,leg_1,leg_2,main_booster,lat_booster
-0.0015232085715979,1.403116226196289,-0.1546095460653305,-0.3468411862850189,0.0020478053484112,0.0404160134494304,0.0,0.0,0.6051838657791904,-0.944521016100874
-0.0030651092529296,1.3954949378967283,-0.1584261208772659,-0.3387355804443359,0.0062435283325612,0.0839230492711067,0.0,0.0,-0.3253233551513099,-0.8033305473816224
-0.0046567916870117,1.387358784675598,-0.1648947745561599,-0.3616417050361633,0.0118973953649401,0.1130881905555725,0.0,0.0,-0.7880082875961798,0.6073979284786479
-0.0062114717438817,1.3787134885787964,-0.1604105532169342,-0.3842850029468536,0.0167814660817384,0.0976904481649398,0.0,0.0,0.0220576635570328,-0.959842496779066
-0.0077543258666992,1.370168924331665,-0.1612859517335891,-0.3798519074916839,0.0237083360552787,0.138550192117691,0.0,0.0,-0.533186875655763,0.7060548049955444
-0.0092311855405569,1.361117959022522,-0.1530919373035431,-0.4023608565330505,0.0290564242750406,0.1069715991616249,0.0,0.0,0.94973352697462,-0.5826319006153204
-0.0108044622465968,1.352577805519104,-0.1639292538166046,-0.3797013163566589,0.0355835147202014,0.1305539309978485,0.0,0.0,-0.0679082876356123,-0.9347153104332064
-0.0124360080808401,1.3435298204421997,-0.171238824725151,-0.4023474752902984,0.0435808561742305,0.1599615216255188,0.0,0.0,-0.9751994720973064,0.8888130261933805
-0.0140025140717625,1.3339884281158447,-0.1630293875932693,-0.4242602884769439,0.049898125231266,0.1263569295406341,0.0,0.0,0.6390052432066806,-0.943773488784722
-0.015683364123106,1.325019359588623,-0.1763861924409866,-0.3989247977733612,0.0581027194857597,0.1641072034835815,0.0,0.0,0.5536794532163416,-0.5892942488219381
-0.0173591617494821,1.316383957862854,-0.1772426515817642,-0.3841986060142517,0.067679539322853,0.1915538758039474,0.0,0.0,-0.839838132380538,0.9108145956324474
-0.0189583785831928,1.3072474002838137,-0.1675074696540832,-0.4064288437366485,0.0751941725611686,0.1503064334392547,0.0,0.0,0.5940427574681773,0.9956367928784684
-0.020391559228301,1.2986427545547483,-0.1490002572536468,-0.3827303349971771,0.0808265954256057,0.112658679485321,0.0,0.0,0.7286821616036299,-0.7119165257848887
-0.0218353271484375,1.2900816202163696,-0.1515620797872543,-0.3808980584144592,0.0879529416561126,0.142540156841278,0.0,0.0,-0.940253396255424,0.8029469795310002
-0.023205280303955,1.2810311317443848,-0.142049103975296,-0.4025513827800751,0.0929762050509452,0.1004745736718177,0.0,0.0,0.3208250728719444,0.7115869062397188
-0.0244465824216604,1.2718404531478882,-0.1277590543031692,-0.4087045788764953,0.0965857878327369,0.0721979886293411,0.0,0.0,0.2315157438830484,0.932039587854925
-0.0255607608705759,1.263132095336914,-0.1130545735359191,-0.3871475756168365,0.0982112810015678,0.0325128212571144,0.0,0.0,-0.5867133286812691,-0.9381505398827632
-0.0267332084476947,1.2538986206054688,-0.120112195611,-0.4105605185031891,0.1010553836822509,0.0568870976567268,0.0,0.0,0.9970012442710166,0.983457821131971
-0.0277999881654977,1.245645523071289,-0.1075675338506698,-0.3668659031391144,0.1019356101751327,0.0176062826067209,0.0,0.0,-0.2532002723238222,-0.7774019100066389
-0.028937816619873,1.2368724346160889,-0.1161798611283302,-0.3900755941867828,0.1043125614523887,0.0475433059036731,0.0,0.0,-0.7218189464323621,-0.7710119400419999
-0.0301254279911518,1.227589130401611,-0.1220763325691223,-0.4128288626670837,0.1076144278049469,0.0660432279109954,0.0,0.0,0.5058825481079854,-0.7290214999750672
-0.031402587890625,1.218387246131897,-0.1322094947099685,-0.409304529428482,0.1120873615145683,0.0894667506217956,0.0,0.0,0.5521596348106628,-0.5287888045049254
-0.0326487533748149,1.209453582763672,-0.13018698990345,-0.3974843919277191,0.1176287978887558,0.1108385697007179,0.0,0.0,0.5091219375047764,-0.7062767442358836
-0.0339133255183696,1.2004307508468628,-0.133231058716774,-0.4015567600727081,0.1243694275617599,0.1348244845867157,0.0,0.0,0.3770173329729158,0.5689917510532757
-0.0353274345397949,1.191684007644653,-0.1463771164417266,-0.3891709744930267,0.1293279379606247,0.0991789698600769,0.0,0.0,-0.5856505667062359,-0.9785070172958245
-0.0368339531123638,1.1823937892913818,-0.1576786786317825,-0.4135172069072723,0.1363312155008316,0.1400652676820755,0.0,0.0,0.1252648456191998,0.5660417269386246
-0.0383584983646869,1.1733438968658447,-0.157955139875412,-0.4027352333068847,0.1418092101812362,0.1095598489046096,0.0,0.0,-0.2334365052238547,-0.6780636583053488
-0.0399454124271869,1.1637784242630005,-0.1654126793146133,-0.4257840812206268,0.1485205441713333,0.1342270672321319,0.0,0.0,0.9485791626338184,-0.9145346734194588
-0.0419035926461219,1.1550137996673584,-0.2036222964525222,-0.3903414011001587,0.1563141494989395,0.1558719724416732,0.0,0.0,-0.5277248906709004,-0.8263501139970337
-0.0439235679805278,1.1457221508026123,-0.2110632210969925,-0.4139477610588074,0.1653802543878555,0.1813220530748367,0.0,0.0,-0.2985849660593906,-0.9418106072802228
-0.0460103973746299,1.135914921760559,-0.2190998792648315,-0.4370661079883575,0.1758143901824951,0.2086827307939529,0.0,0.0,-0.8725297451019287,0.9914414882659912
-0.0480228438973426,1.1256120204925537,-0.2094680070877075,-0.4589104354381561,0.1840562373399734,0.1648373901844024,0.0,0.0,-0.9178494811058044,0.90822172164917
-0.0499681457877159,1.1148254871368408,-0.2006913870573043,-0.4801749885082245,0.1902441829442978,0.1237591952085495,0.0,0.0,-0.89748215675354,0.9866422414779664
-0.0518354400992393,1.1035408973693848,-0.1906399875879287,-0.5020459294319153,0.1941809803247451,0.0787359178066253,0.0,0.0,-0.6221674084663391,0.9946200847625732
-0.0536142364144325,1.0917723178863523,-0.17926687002182,-0.5232324004173279,0.1955691874027252,0.0277645140886306,0.0,0.0,-0.9603479504585266,0.9962600469589232
-0.0553040504455566,1.0795249938964844,-0.1678074300289154,-0.5441668629646301,0.1943861693143844,-0.0236605461686849,0.0,0.0,-0.9954031705856324,0.9912636280059814
-0.0569081306457519,1.0667850971221924,-0.1568346917629242,-0.5657562017440796,0.1907897144556045,-0.0719290226697921,0.0,0.0,-0.9899378418922424,0.9816267490386964
-0.0584197044372558,1.0535666942596436,-0.1449685841798782,-0.586697518825531,0.184572234749794,-0.1243492737412452,0.0,0.0,-0.9406926035881042,0.952426552772522
-0.0598499290645122,1.0398693084716797,-0.1345072537660598,-0.6077371835708618,0.176033928990364,-0.1707658916711807,0.0,0.0,-0.988850235939026,0.8847736120223999
-0.0611934661865234,1.0256839990615845,-0.1234478577971458,-0.6292007565498352,0.1651034206151962,-0.2186102867126464,0.0,0.0,-0.9761342406272888,0.96165931224823
-0.0624606125056743,1.0110145807266235,-0.1136537566781044,-0.6505755186080933,0.1520428657531738,-0.2612112164497375,0.0,0.0,-0.976047158241272,-0.994148313999176
-0.0637725815176963,0.9958214163780212,-0.1191413030028343,-0.6740630269050598,0.1400182843208313,-0.2404920160770416,0.0,0.0,-0.9243603944778442,0.5431321859359741
-0.0650166496634483,0.9801256656646729,-0.1105194836854934,-0.6963387727737427,0.1261840313673019,-0.2766852974891662,0.0,0.0,-0.9307906627655028,-0.568512499332428
-0.0662789344787597,0.9639151096343994,-0.1127073317766189,-0.7193847298622131,0.1127414479851722,-0.2688513696193695,0.0,0.0,-0.7810085415840149,-0.7068783044815063
-0.0675797462463378,0.9471791386604308,-0.1174965277314186,-0.7429155111312866,0.1002462431788444,-0.2499040365219116,0.0,0.0,-0.8232121467590332,-0.6192501783370972
-0.0689039230346679,0.9299232959747314,-0.1203988939523696,-0.7661707997322083,0.0883278399705886,-0.2383680343627929,0.0,0.0,-0.6223987340927124,0.0242676734924316
-0.0702057853341102,0.912160336971283,-0.1175791174173355,-0.7887675166130066,0.0758394747972488,-0.2497674971818924,0.0,0.0,-0.51536625623703,-0.9201351404190063
-0.071570873260498,0.8938905596733093,-0.125507965683937,-0.8114755749702454,0.0649491250514984,-0.2178069055080413,0.0,0.0,0.1695901155471801,-0.901720643043518
-0.0731287002563476,0.8759388327598572,-0.145957350730896,-0.7974602580070496,0.0552357137203216,-0.1942682266235351,0.0,0.0,-0.1771247386932373,-0.8139917850494385
-0.0747275352478027,0.8574716448783875,-0.1511538326740265,-0.8204665780067444,0.0466191880404949,-0.1723305881023407,0.0,0.0,0.3687999248504638,-0.7435277104377747
-0.0762476921081543,0.839210569858551,-0.1444044560194015,-0.8113842606544495,0.039095900952816,-0.150465577840805,0.0,0.0,0.1623402833938598,-0.7220066785812378
-0.0778636932373046,0.8212171792984009,-0.1547887027263641,-0.7995407581329346,0.0323719792068004,-0.1344788968563079,0.0,0.0,-0.0443421006202697,-0.6730130314826965
-0.0794944763183593,0.8027100563049316,-0.1567865014076233,-0.8224163055419922,0.0261554345488548,-0.1243307441473007,0.0,0.0,-0.0574447512626647,-0.3893890380859375
-0.0810956954956054,0.7836951613426208,-0.1532263606786728,-0.8450071215629578,0.0193479415029287,-0.1361500471830368,0.0,0.0,0.747589111328125,-0.0267977714538574
-0.0825186744332313,0.7649502754211426,-0.1355455070734024,-0.8330287933349609,0.0126763759180903,-0.1334312260150909,0.0,0.0,0.9110912084579468,-0.4941765069961548
-0.0840276703238487,0.746513307094574,-0.1430177390575409,-0.81937575340271,0.0048985169269144,-0.1555570811033249,0.0,0.0,0.7649500370025635,-0.2319145202636718
-0.0854079276323318,0.7288466095924377,-0.130016803741455,-0.785178005695343,-0.0030115111730992,-0.1582007110118866,0.0,0.0,0.5839691162109375,-0.1658255457878112
-0.0866207107901573,0.7116419672966003,-0.1132785230875015,-0.764690101146698,-0.0109078111127018,-0.1579260379076004,0.0,0.0,-0.1948764324188232,-0.8843569755554199
-0.0878605842590332,0.6939399838447571,-0.116947665810585,-0.7868239879608154,-0.0178630165755748,-0.1391042172908783,0.0,0.0,0.7107589244842529,-0.6443297266960144
-0.0891873389482498,0.6769599318504333,-0.1261095106601715,-0.7547563910484314,-0.0243401601910591,-0.1295429021120071,0.0,0.0,-0.2069379091262817,-0.8341324329376221
-0.0905388817191124,0.6594673991203308,-0.1295222789049148,-0.7775489687919617,-0.0299019254744052,-0.1112353205680847,0.0,0.0,0.9197683334350586,0.2897388935089111
-0.0919461250305175,0.6426946520805359,-0.1339339464902877,-0.7456079721450806,-0.0366055332124233,-0.134072259068489,0.0,0.0,0.233911395072937,0.5439579486846924
-0.0931579619646072,0.625984251499176,-0.112910196185112,-0.7429036498069763,-0.0447902120649814,-0.1636933982372284,0.0,0.0,-0.5123066902160645,-0.7845423817634583
-0.0943917259573936,0.6087719798088074,-0.1159960851073265,-0.7652252316474915,-0.0520789735019207,-0.1457751393318176,0.0,0.0,0.7500834465026855,0.2509925365447998
-0.0955566391348838,0.5916881561279297,-0.1085435971617698,-0.7595792412757874,-0.0599339194595813,-0.1570990979671478,0.0,0.0,0.3410930633544922,-0.8395410776138306
-0.0968338996171951,0.5748323202133179,-0.1207470446825027,-0.7494455575942993,-0.0668438822031021,-0.1381992697715759,0.0,0.0,0.4940937757492065,-0.2512532472610473
-0.0980005264282226,0.5586257576942444,-0.1091606467962265,-0.7206436991691589,-0.0742689669132232,-0.1485016644001007,0.0,0.0,-0.1917539834976196,-0.7201277613639832
-0.099176600575447,0.5419091582298279,-0.1107417792081832,-0.7433167099952698,-0.0810625702142715,-0.1358720958232879,0.0,0.0,0.6553988456726074,-0.1217621564865112
-0.1002157181501388,0.52596116065979,-0.0965714529156684,-0.7092158794403076,-0.0883355885744094,-0.1454604566097259,0.0,0.0,0.3188751935958862,-0.5663976669311523
-0.1013070121407508,0.5100852251052856,-0.1021492332220077,-0.7060261964797974,-0.0952562093734741,-0.1384123861789703,0.0,0.0,0.688271164894104,-0.7312306761741638
-0.1024505645036697,0.4947614967823028,-0.1080280765891075,-0.6814716458320618,-0.1015338599681854,-0.1255531758069992,0.0,0.0,0.1046223640441894,0.1692359447479248
-0.1034896820783615,0.4795487225055694,-0.0970707982778549,-0.6766039729118347,-0.1083194464445114,-0.1357117891311645,0.0,0.0,0.7317297458648682,-0.6985176801681519
-0.1045911759138107,0.4651896953582763,-0.1037879437208175,-0.6386537551879883,-0.1146375015377998,-0.1263612508773803,0.0,0.0,-0.2146499156951904,-0.7112753987312317
-0.1056993454694747,0.4503322541713714,-0.1051018983125686,-0.6607788801193237,-0.1203106492757797,-0.1134630069136619,0.0,0.0,0.4864814281463623,-0.4240449666976928
-0.1067525893449783,0.4354974925518036,-0.0988785326480865,-0.6598562598228455,-0.1267241239547729,-0.1282697170972824,0.0,0.0,0.581127405166626,-0.7779538035392761
-0.1077138930559158,0.420608639717102,-0.0907716378569603,-0.662189781665802,-0.1320608407258987,-0.1067346110939979,0.0,0.0,0.9150547981262208,-0.7990511059761047
-0.1086833029985427,0.4058104455471039,-0.0924966037273407,-0.6580981016159058,-0.1364878565073013,-0.0885404199361801,0.0,0.0,0.900566577911377,-0.5131916999816895
-0.1095351204276084,0.3918761909008026,-0.0811527520418167,-0.6196742653846741,-0.1405127793550491,-0.0804982483386993,0.0,0.0,0.6749329566955566,-0.6540215015411377
-0.1101913452148437,0.3786621987819671,-0.0625083371996879,-0.5875887274742126,-0.1436189711093902,-0.0621239356696605,0.0,0.0,0.4969286918640136,-0.4586381912231445
-0.1107989326119422,0.3660624027252197,-0.0565813854336738,-0.5603993535041809,-0.1477866917848587,-0.083354502916336,0.0,0.0,0.0248463153839111,-0.7846145629882812
-0.1114877685904502,0.3532869219779968,-0.0656516999006271,-0.5681244730949402,-0.1510124057531356,-0.0645144209265708,0.0,0.0,0.6291468143463135,-0.3891210556030273
-0.1119768172502517,0.3411515355110168,-0.0452713146805763,-0.539726972579956,-0.1546403020620346,-0.0725576430559158,0.0,0.0,0.4909608364105224,-0.98376727104187
-0.1125228852033615,0.3293209075927734,-0.0522718131542205,-0.5260501503944397,-0.1569748669862747,-0.0466910488903522,0.0,0.0,0.1035208702087402,-0.8802022337913513
-0.1130659133195877,0.3176840543746948,-0.0531519837677478,-0.517315685749054,-0.1581350713968277,-0.0232036877423524,0.0,0.0,0.1200329065322876,-0.7550101280212402
-0.1135594397783279,0.3062624931335449,-0.0491150580346584,-0.5076500773429871,-0.1583663374185562,-0.0046249013394117,0.0,0.0,-0.7384645938873291,-0.8129021525382996
-0.1140646934509277,0.2943469882011413,-0.051116157323122,-0.5295142531394958,-0.1577792912721634,0.0117409033700823,0.0,0.0,-0.1229984164237976,-0.4501911401748657
-0.1145278960466384,0.2819244861602783,-0.0463364236056804,-0.5521106719970703,-0.1577616035938263,0.0003537524607963,0.0,0.0,0.5089749097824097,-0.8170979619026184
-0.1148625388741493,0.2695266902446747,-0.0346843861043453,-0.5508843660354614,-0.1565371006727218,0.0244903545826673,0.0,0.0,0.9035460948944092,-0.952589511871338
-0.1149419769644737,0.2575701177120209,-0.0108362091705203,-0.5311018824577332,-0.1536487489938736,0.057766743004322,0.0,0.0,0.9209264516830444,-0.4165337085723877
-0.1147501915693283,0.2457490712404251,0.0160909388214349,-0.5250647068023682,-0.1505665779113769,0.0616430230438709,0.0,0.0,0.9456474781036376,-0.4705822467803955
-0.1143919005990028,0.2347345650196075,0.0333186946809291,-0.4892831146717071,-0.1480661183595657,0.0500093288719654,0.0,0.0,0.8052926063537598,-0.7678124308586121
-0.1138945594429969,0.2244537025690078,0.0461590625345706,-0.4565755724906921,-0.1444947719573974,0.0714268535375595,0.0,0.0,0.7196429967880249,-0.5763699412345886
-0.1131653785705566,0.2146785110235214,0.068363033235073,-0.4340213537216186,-0.1399480402469635,0.0909347832202911,0.0,0.0,-0.1424621343612671,-0.7398730516433716
-0.1124466881155967,0.2043987810611724,0.0666067451238632,-0.4563919603824615,-0.1347071081399917,0.1048184782266616,0.0,0.0,-0.2478575706481933,-0.8139135837554932
-0.1117599457502365,0.1936240345239639,0.0621675662696361,-0.4783048331737518,-0.128225639462471,0.1296294033527374,0.0,0.0,0.638329029083252,0.1365784406661987
-0.1108436584472656,0.1835990697145462,0.0852450579404831,-0.445015013217926,-0.121875412762165,0.1270049661397934,0.0,0.0,0.4724760055541992,-0.4397093057632446
-0.1098503097891807,0.1738263219594955,0.0935512036085128,-0.4338865876197815,-0.1161331832408905,0.1148446798324585,0.0,0.0,0.5334804058074951,-0.2568637132644653
-0.1088511496782302,0.164666548371315,0.0951750725507736,-0.4067395031452179,-0.1114291623234748,0.0940807163715362,0.0,0.0,0.2623306512832641,-0.8457733392715454
-0.10774926841259,0.1557971537113189,0.1041869521141052,-0.3937578499317169,-0.1054678559303283,0.1192259192466735,0.0,0.0,0.1376001834869384,-0.5785629749298096
-0.1066459640860557,0.1472092270851135,0.1037133932113647,-0.3812341392040252,-0.0989056900143623,0.131243497133255,0.0,0.0,-0.3582484126091003,-0.7730599045753479
-0.1055798530578613,0.1381302028894424,0.0987081602215766,-0.4030104279518127,-0.0910657942295074,0.1567977964878082,0.0,0.0,-0.1175094246864318,-0.5650767087936401
-0.1045297607779502,0.1285487711429596,0.096391811966896,-0.4253371953964233,-0.0825211778283119,0.1708921641111374,0.0,0.0,0.8877794742584229,0.0928901433944702
-0.1035265922546386,0.1195042952895164,0.0927688628435134,-0.4015811085700989,-0.0750501379370689,0.1494211256504058,0.0,0.0,0.817302942276001,-0.3434910774230957
-0.102617546916008,0.1108329594135284,0.084582969546318,-0.3850894570350647,-0.0687907263636589,0.1251881271600723,0.0,0.0,0.4883838891983032,-0.3523776531219482
-0.1015424728393554,0.1026132404804229,0.1011776104569435,-0.3650437891483307,-0.0625244975090026,0.125324547290802,0.0,0.0,0.437086820602417,-0.1370971202850341
-0.1003692597150802,0.094361625611782,0.1111644878983497,-0.3664953410625458,-0.056434016674757,0.1218093857169151,0.0,0.0,0.6974767446517944,-0.324292778968811
-0.0989797562360763,0.0867638885974884,0.1325024962425232,-0.3374494314193725,-0.050064343959093,0.1273933500051498,0.0,0.0,0.694110631942749,-0.5782573819160461
-0.0975996032357215,0.0798609554767608,0.1308687329292297,-0.3065735995769501,-0.0430051237344741,0.1411845982074737,0.0,0.0,0.05558443069458,-0.6055311560630798
-0.0961215049028396,0.0732724517583847,0.1396981477737426,-0.2926099002361297,-0.0349874757230281,0.1603531837463379,0.0,0.0,-0.1093336343765258,0.5887465476989746
-0.0945729240775108,0.0661738961935043,0.1484470218420028,-0.3153565227985382,-0.028658827766776,0.1265730410814285,0.0,0.0,0.7424559593200684,-0.5939280390739441
-0.0930386558175087,0.0598672740161418,0.1462002992630005,-0.2801737785339355,-0.0215243101119995,0.1426903307437896,0.0,0.0,0.4355220794677734,0.2404303550720214
-0.0914229378104209,0.0540777072310447,0.1544476598501205,-0.2572294771671295,-0.0144859170541167,0.1407680213451385,0.0,0.0,0.2827904224395752,-0.0830482244491577
-0.0897274017333984,0.0483131036162376,0.1624564379453659,-0.2561506032943725,-0.0074825542978942,0.1400672644376754,0.0,0.0,0.1406959295272827,-0.9425855278968812
-0.0881930366158485,0.0426851138472557,0.1447714418172836,-0.2501164674758911,0.0010767841013148,0.1711867153644561,0.0,0.0,0.7686359882354736,0.043524146080017
-0.0867888480424881,0.03737598285079,0.1326844245195388,-0.2359835058450698,0.008708331733942,0.1526311635971069,0.0,0.0,0.6639401912689209,0.6709377765655518
-0.0853546112775802,0.0324108228087425,0.1373761594295501,-0.2207201421260833,0.0146776465699076,0.1193863525986671,0.0,0.0,0.6554858684539795,0.4650697708129883
-0.0838990211486816,0.027740130200982,0.1396535187959671,-0.2076559513807296,0.0205090399831533,0.1166279166936874,0.0,0.0,0.6612184047698975,-0.0594183802604675
-0.0823185890913009,0.0231078490614891,0.1517541408538818,-0.2059763222932815,0.0267069917172193,0.1239591687917709,0.0,0.0,0.7280653715133667,-0.0583075284957885
-0.0806571021676063,0.0190443377941846,0.1596294343471527,-0.1807318478822708,0.0331533774733543,0.1289276927709579,0.0,0.0,0.3833485841751098,-0.5316480994224548
-0.0790412873029708,0.0154898026958107,0.1541304588317871,-0.1581622213125229,0.0405044481158256,0.1470214128494262,0.0,0.0,0.3882105350494385,-0.93147474527359
-0.077454850077629,0.0118094542995095,0.1494673639535904,-0.1638397127389907,0.0495745986700058,0.1814029365777969,0.0,0.0,0.4409551620483398,0.0351960659027099
