x_pos,y_pos,x_vel,y_vel,angle,ang_vel,leg_1,leg_2,main_booster,lat_booster
-0.0015725136036053,1.4031165838241575,-0.159342423081398,-0.3468261361122131,0.0018673202721402,0.0368427895009517,0.0,0.0,-0.1821566820144653,0.7298994064331055
-0.0031326294410973,1.394824743270874,-0.1563301533460617,-0.3685226142406463,0.0021712847519665,0.0060806376859545,0.0,0.0,0.0875204801559448,-0.470982551574707
-0.0046557425521314,1.3864237070083618,-0.1530871242284774,-0.3733806014060974,0.0029370083939284,0.015316049568355,0.0,0.0,-0.0599151849746704,0.7725207805633545
-0.0061808587051928,1.3775123357772827,-0.1520704329013824,-0.3960632681846618,0.0025038423482328,-0.0086641833186149,0.0,0.0,0.4721496105194092,0.9012942314147948
-0.0075575830414891,1.36896812915802,-0.1356135159730911,-0.379737913608551,0.0004751417727675,-0.0405778661370277,0.0,0.0,0.1390386819839477,0.4558835029602051
-0.008891200646758,1.3604776859283447,-0.1317743957042694,-0.3773558437824249,-0.0010936612961813,-0.0313792340457439,0.0,0.0,-0.2186570167541504,0.7839220762252808
-0.0102171897888183,1.351479172706604,-0.1294958889484405,-0.3999383151531219,-0.0041599688120186,-0.0613322928547859,0.0,0.0,0.2167277336120605,0.5591263771057129
-0.0114280702546238,1.3426880836486816,-0.1171151772141456,-0.3907241523265838,-0.0080952867865562,-0.078713372349739,0.0,0.0,0.3306367397308349,0.4188176393508911
-0.0126954074949026,1.334400296211243,-0.1226857304573059,-0.3683715164661407,-0.012099701911211,-0.0800956860184669,0.0,0.0,-0.4204732179641723,-0.0426551103591918
-0.0140150068327784,1.325604796409607,-0.1278829276561737,-0.3909539878368377,-0.0161363445222377,-0.0807400569319725,0.0,0.0,-0.2513723373413086,0.6080656051635742
-0.0153322219848632,1.316300630569458,-0.1262113004922866,-0.4135819375514984,-0.0215915888547897,-0.1091146618127822,0.0,0.0,-0.5893562436103821,0.4557807445526123
-0.0167018882930278,1.306489109992981,-0.1313994228839874,-0.4361602067947387,-0.0270963609218597,-0.1101055964827537,0.0,0.0,0.3481004238128662,0.7148714065551758
-0.0179335586726665,1.297022581100464,-0.1163071244955062,-0.4208777844905853,-0.0338810756802558,-0.135706752538681,0.0,0.0,-0.2653012275695801,-0.1666679382324218
-0.0192175861448049,1.2870484590530396,-0.1214658990502357,-0.4434642791748047,-0.0407323092222213,-0.137037307024002,0.0,0.0,-0.0266791582107543,0.3450322151184082
-0.0205535888671875,1.2765671014785769,-0.1266028583049774,-0.4660417437553406,-0.0476585589349269,-0.1385377049446106,0.0,0.0,-0.3583931922912597,0.4635214805603027
-0.0219414718449115,1.2655785083770752,-0.1317125856876373,-0.4886215031147003,-0.0546673163771629,-0.140187919139862,0.0,0.0,0.6156816482543945,0.5933032035827637
-0.0231430046260356,1.2553268671035769,-0.1121649965643882,-0.4559381902217865,-0.0625794678926467,-0.1582572162151336,0.0,0.0,-0.8515686988830566,0.3466205596923828
-0.0243958476930856,1.24456787109375,-0.1172006577253341,-0.4785304665565491,-0.0705882534384727,-0.1601900309324264,0.0,0.0,-0.3170076608657837,-0.0970699787139892
-0.0256997104734182,1.2333019971847534,-0.1221898943185806,-0.5011088848114014,-0.0787005275487899,-0.1622603237628936,0.0,0.0,0.5409225225448608,-0.3121156096458435
-0.0270873066037893,1.222327470779419,-0.1301219165325164,-0.488233208656311,-0.0872742608189582,-0.1714902371168136,0.0,0.0,-0.7039588689804077,-0.2385604381561279
-0.0285248756408691,1.210845708847046,-0.135001540184021,-0.5108234286308289,-0.0959635749459266,-0.1738018095493316,0.0,0.0,-0.3771067857742309,0.3825999498367309
-0.0300118438899517,1.198857307434082,-0.1398158520460128,-0.5334064960479736,-0.1047747880220413,-0.1762401163578033,0.0,0.0,-0.3545534610748291,0.0164029598236084
-0.0315473563969135,1.1863622665405271,-0.1445591896772384,-0.55599045753479,-0.1137132570147514,-0.1787854135036468,0.0,0.0,0.6869182586669922,0.4519753456115722
-0.0330236442387104,1.1738232374191284,-0.1388521790504455,-0.5579789280891418,-0.1224530488252639,-0.174811840057373,0.0,0.0,-0.3971889019012451,-0.865605354309082
-0.0346308723092079,1.160794973373413,-0.1539545953273773,-0.579598069190979,-0.1291943341493606,-0.1348372101783752,0.0,0.0,0.4599112272262573,-0.7599514722824097
-0.0364075675606727,1.148207187652588,-0.1720495074987411,-0.5599561929702759,-0.134787917137146,-0.1118715554475784,0.0,0.0,0.8167926073074341,-0.6306312084197998
-0.0381669998168945,1.136312484741211,-0.1714597940444946,-0.5290660262107849,-0.1392566561698913,-0.0893748104572296,0.0,0.0,-0.7083749175071716,-0.1024714708328247
-0.0399709716439247,1.123910427093506,-0.1757658571004867,-0.5516436100006104,-0.1438783854246139,-0.0924345999956131,0.0,0.0,0.5098155736923218,0.869215726852417
-0.041780948638916,1.112073302268982,-0.1742946207523346,-0.5267618894577026,-0.1505667567253112,-0.1337674856185913,0.0,0.0,0.0440143346786499,0.748953104019165
-0.0435438156127929,1.1001734733581543,-0.1679228842258453,-0.5297489166259766,-0.158925399184227,-0.1671727895736694,0.0,0.0,0.4780080318450928,-0.193708062171936
-0.0452113151550293,1.0888848304748535,-0.1582983136177063,-0.5026423931121826,-0.1673718094825744,-0.1689284145832061,0.0,0.0,0.7875082492828369,0.4749410152435303
-0.0469222068786621,1.0778121948242188,-0.1621096134185791,-0.4931660294532776,-0.1763764023780822,-0.1800922751426696,0.0,0.0,-0.3568461537361145,-0.6223825216293335
-0.048725701868534,1.0662530660629272,-0.1726154834032058,-0.5146714448928833,-0.1841308176517486,-0.1550882160663604,0.0,0.0,-0.6141403913497925,-0.5068590641021729
-0.0506098754703998,1.0541949272155762,-0.1816426068544387,-0.5367749929428101,-0.1909391283988952,-0.1361664831638336,0.0,0.0,0.341876745223999,0.6768858432769775
-0.0523653030395507,1.0423624515533447,-0.1672741919755935,-0.5269820690155029,-0.1992593258619308,-0.1664040237665176,0.0,0.0,0.7262766361236572,0.5216686725616455
-0.053936768323183,1.0311710834503174,-0.1477323472499847,-0.4986950159072876,-0.2087498158216476,-0.1898097842931747,0.0,0.0,-0.4067935347557068,-0.0808766484260559
-0.0555397979915142,1.019473433494568,-0.1507143527269363,-0.5212796926498413,-0.2184239029884338,-0.193481907248497,0.0,0.0,0.0335922241210937,-0.5827423930168152
-0.0570873245596885,1.0079774856567385,-0.1461988538503646,-0.5122217535972595,-0.2270714044570922,-0.1729501485824585,0.0,0.0,-0.1601059436798095,-0.2918349504470825
-0.0586624145507812,0.9959750175476074,-0.1487920880317688,-0.5348055362701416,-0.2359070479869842,-0.1767129898071289,0.0,0.0,0.365337610244751,-0.0973580479621887
-0.0601229667663574,0.9841907620429992,-0.1372710764408111,-0.5251744985580444,-0.2448247671127319,-0.1783548891544342,0.0,0.0,-0.9227942824363708,-0.5921525955200195
-0.0616594329476356,0.9719251394271852,-0.1460795402526855,-0.5464248061180115,-0.2525223195552826,-0.1539519429206848,0.0,0.0,-0.850342869758606,-0.7301799058914185
-0.0632616057991981,0.959168255329132,-0.1536359190940857,-0.5681183338165283,-0.2592414617538452,-0.1343826651573181,0.0,0.0,0.2990072965621948,-0.6820632219314575
-0.06479062885046,0.9462428689002992,-0.1476089656352996,-0.5754082798957825,-0.2646517157554626,-0.1082049831748008,0.0,0.0,-0.1776661872863769,-0.9380418658256532
-0.0663962364196777,0.9328329563140868,-0.1566241681575775,-0.5967146158218384,-0.2686740159988403,-0.0804453119635582,0.0,0.0,0.0403962135314941,-0.7898285984992981
-0.0680571570992469,0.9192118048667908,-0.1635146737098693,-0.6058623790740967,-0.2713127732276916,-0.0527754314243793,0.0,0.0,-0.2375262975692749,-0.5459398031234741
-0.0697689056396484,0.9050940871238708,-0.1694053709506988,-0.6277849078178406,-0.2731330990791321,-0.0364056304097175,0.0,0.0,-0.3231520056724548,-0.2484808564186096
-0.0714897140860557,0.8904692530632019,-0.1701074540615081,-0.6503638029098511,-0.2751522660255432,-0.0403825193643569,0.0,0.0,0.4952658414840698,-0.8510605096817017
-0.0731843933463096,0.8765091300010681,-0.1688564568758011,-0.6205637454986572,-0.2757853269577026,-0.0126613527536392,0.0,0.0,-0.1084654331207275,-0.9351165890693665
-0.0749675780534744,0.8620865941047668,-0.1797713637351989,-0.6407314538955688,-0.2742967009544372,0.0297728236764669,0.0,0.0,-0.94242924451828,-0.7265836000442505
-0.0768088325858116,0.8471788167953491,-0.1868758052587509,-0.6620509028434753,-0.2714853882789612,0.0562264136970043,0.0,0.0,-0.832170844078064,-0.4173190593719482
-0.078647993505001,0.8317640423774719,-0.1864639520645141,-0.6846302151679993,-0.2688740491867065,0.0522270314395427,0.0,0.0,-0.0240335464477539,-0.5771142244338989
-0.0805293098092079,0.8158659338951111,-0.1917488276958465,-0.7059319019317627,-0.2651782035827636,0.0739171653985977,0.0,0.0,-0.43836510181427,-0.2997381687164306
-0.0824027061462402,0.7994605302810669,-0.1907518357038498,-0.7285115718841553,-0.261681854724884,0.0699267536401748,0.0,0.0,0.13580322265625,-0.075570523738861
-0.0841209441423416,0.7833418250083923,-0.175066277384758,-0.7158125638961792,-0.25837442278862,0.0661489218473434,0.0,0.0,-0.087073266506195,0.3775148391723633
-0.0858252495527267,0.766715943813324,-0.1734726876020431,-0.7383918166160583,-0.2552653551101684,0.062181282788515,0.0,0.0,0.283585786819458,-0.2879238128662109
-0.0874918922781944,0.7501423358917236,-0.1691802442073822,-0.7361650466918945,-0.2526972591876983,0.0513619072735309,0.0,0.0,0.2993587255477905,-0.1135188937187194
-0.088910199701786,0.7339443564414978,-0.144488051533699,-0.7194585800170898,-0.2499837130308151,0.0542708039283752,0.0,0.0,-0.4326868057250976,-0.3349549770355224
-0.0903053283691406,0.7172391414642334,-0.1419927775859832,-0.7420373558998108,-0.2474655359983444,0.0503635331988334,0.0,0.0,-0.0797804594039917,-0.769688606262207
-0.0917246788740158,0.700053870677948,-0.1455625295639038,-0.7631805539131165,-0.2437726855278015,0.0738571435213089,0.0,0.0,0.6129786968231201,-0.2000684738159179
-0.093001939356327,0.683505117893219,-0.1308302283287048,-0.7349873781204224,-0.2406162619590759,0.063128225505352,0.0,0.0,-0.6786044836044312,-0.4470363855361938
-0.0942472442984581,0.6664491295814514,-0.1274454891681671,-0.7575662136077881,-0.2376505881547927,0.0593134872615337,0.0,0.0,0.6446423530578613,-0.6072759628295898
-0.0954440087080001,0.6499620676040649,-0.1233666911721229,-0.7321698069572449,-0.2339036464691162,0.074938878417015,0.0,0.0,-0.1733444333076477,0.0166965723037719
-0.096603013575077,0.6329677104949951,-0.1194066181778907,-0.7547486424446106,-0.2303434610366821,0.0712037235498428,0.0,0.0,0.9138377904891968,-0.5381746292114258
-0.0975722298026084,0.6165086627006531,-0.1014082431793212,-0.7308217287063599,-0.2257984578609466,0.0909003168344497,0.0,0.0,0.3898879289627075,-0.4742307662963867
-0.0984161347150802,0.6000333428382874,-0.0887315720319747,-0.7315837144851685,-0.2214051038026809,0.087867185473442,0.0,0.0,0.8085423707962036,-0.8409416675567627
-0.0992819815874099,0.5840690732002258,-0.0921574681997299,-0.7086985111236572,-0.2157760858535766,0.1125804409384727,0.0,0.0,0.311145544052124,-0.4301916360855102
-0.0999370589852333,0.5685874819755554,-0.0709848999977111,-0.6872822642326355,-0.2102450132369995,0.1106213703751564,0.0,0.0,0.0877529382705688,-0.5425066351890564
-0.1004848480224609,0.5528696775436401,-0.0612730607390403,-0.6976594924926758,-0.2037000805139541,0.1308984011411667,0.0,0.0,0.8377584218978882,-0.2647098898887634
-0.1007573157548904,0.5380308032035828,-0.0337125696241855,-0.6586294770240784,-0.1971868425607681,0.1302649080753326,0.0,0.0,0.5839052200317383,-0.6036527752876282
-0.1010274887084961,0.5233927369117737,-0.0343072786927223,-0.6496286392211914,-0.1898582726716995,0.1465715169906616,0.0,0.0,0.3493900299072265,0.2855305671691894
-0.1012084931135177,0.5090838074684143,-0.0248821917921304,-0.6351036429405212,-0.1830407679080963,0.1363497376441955,0.0,0.0,0.1197009086608886,0.6325178146362305
-0.1011795997619628,0.4948709309101105,-0.002515786094591,-0.6310253143310547,-0.1776204109191894,0.1084072142839431,0.0,0.0,-0.1092540621757507,0.0423667430877685
-0.1010879501700401,0.4801509082317352,0.003922093193978,-0.6536042094230652,-0.1723570376634597,0.1052674502134323,0.0,0.0,0.6237263679504395,-0.6107978820800781
-0.1008045226335525,0.4657548069953918,0.021831827238202,-0.6390855312347412,-0.165838211774826,0.1303765475749969,0.0,0.0,0.6356875896453857,-0.4554061889648437
-0.1004232391715049,0.4514327347278595,0.0319196060299873,-0.6358562707901001,-0.1596231758594513,0.1243007406592369,0.0,0.0,0.5943641662597656,-0.7386248707771301
-0.0999104529619216,0.4370573163032532,0.0435927100479602,-0.6381043791770935,-0.1519428044557571,0.153607040643692,0.0,0.0,0.8203401565551758,-0.4464832544326782
-0.0993047729134559,0.4227373898029327,0.0531662106513977,-0.6357051134109497,-0.1445649117231369,0.147558256983757,0.0,0.0,0.8283247947692871,-0.6536658406257629
-0.098560906946659,0.4092326462268829,0.0658435374498367,-0.5994004607200623,-0.1360389441251754,0.1705193817615509,0.0,0.0,0.701195240020752,0.0776203870773315
-0.0975475311279296,0.3964529037475586,0.0925378128886222,-0.5672102570533752,-0.1272648423910141,0.1754816472530365,0.0,0.0,-0.3970170021057129,-0.731214165687561
-0.0965258628129959,0.3831869661808014,0.0917213708162307,-0.588739275932312,-0.1168839558959007,0.2076175212860107,0.0,0.0,0.3558336496353149,0.1923509836196899
-0.0955010429024696,0.369838148355484,0.0926481038331985,-0.5925388932228088,-0.1071188673377037,0.1953017860651016,0.0,0.0,0.7389394044876099,0.0103579759597778
-0.0942666977643966,0.3572169542312622,0.1135119423270225,-0.5602599382400513,-0.0972777307033538,0.1968229562044143,0.0,0.0,-0.0673480629920959,0.1329808235168457
-0.0929528251290321,0.3440892398357391,0.1215797066688537,-0.5828430652618408,-0.0875525996088981,0.1945028454065323,0.0,0.0,0.1990292072296142,-0.0328972339630126
-0.0915546417236328,0.3311952352523803,0.1302919238805771,-0.5725355744361877,-0.0781231671571731,0.1885887235403061,0.0,0.0,0.4988048076629638,0.5428938865661621
-0.0899937599897384,0.3187422752380371,0.1477946192026138,-0.5530536770820618,-0.0699104145169258,0.1642550826072693,0.0,0.0,0.1947095394134521,0.0310027599334716
-0.0882575064897537,0.3064054250717163,0.1651341766119003,-0.5479345917701721,-0.0615090951323509,0.1680263578891754,0.0,0.0,0.1463688611984253,-0.1074952483177185
-0.0864061340689659,0.2939156889915466,0.1766619384288787,-0.5547751188278198,-0.0531305707991123,0.1675702929496765,0.0,0.0,0.5615170001983643,-0.3218684792518616
-0.0843619331717491,0.2814821004867553,0.1956241726875305,-0.5523166060447693,-0.0444411970674991,0.1737875938415527,0.0,0.0,0.3946942090988159,-0.4881210327148437
-0.082086369395256,0.2692558765411377,0.2182751893997192,-0.5431420803070068,-0.0352679118514061,0.1834658831357956,0.0,0.0,0.6624035835266113,-0.5877740979194641
-0.0796056762337684,0.2571077644824981,0.2373063266277313,-0.5396929383277893,-0.0246344003826379,0.2126699686050415,0.0,0.0,0.4966762065887451,-0.8021097183227539
-0.0770895928144455,0.2454825043678283,0.2393061369657516,-0.5165194272994995,-0.0124965738505125,0.2427568435668945,0.0,0.0,0.5843534469604492,-0.6998236775398254
-0.0744990333914756,0.2344483882188797,0.2453672140836715,-0.4903472065925598,0.0010200334945693,0.2703323066234588,0.0,0.0,0.2502877712249756,-0.6029533743858337
-0.0717636123299598,0.223668560385704,0.2585261464118957,-0.4791786968708038,0.0158484447747468,0.2965681850910187,0.0,0.0,0.390666127204895,-0.6854336857795715
-0.0689030662178993,0.2127898782491684,0.2695602178573608,-0.4837499856948852,0.0321331806480884,0.3256946206092834,0.0,0.0,0.6702654361724854,-0.2986820936203003
-0.066022016108036,0.2021759897470474,0.2719406485557556,-0.4721505045890808,0.0481040626764297,0.3194175660610199,0.0,0.0,0.742687463760376,-0.3758660554885864
-0.0630047768354415,0.1924276202917099,0.2852139174938202,-0.4338716268539428,0.0644231289625167,0.3263812959194183,0.0,0.0,0.4358832836151123,-0.0565199851989746
-0.0599485412240028,0.1829132139682769,0.289300262928009,-0.4236429631710052,0.0805869475007057,0.3232762813568115,0.0,0.0,0.244576096534729,-0.7109861969947815
-0.0570102706551551,0.1737775355577469,0.2762893736362457,-0.4070659577846527,0.0979656800627708,0.3475746810436249,0.0,0.0,0.1828407049179077,0.1705160140991211
-0.0539669021964073,0.1648929864168167,0.2866012454032898,-0.3961290121078491,0.1155771017074585,0.352228432893753,0.0,0.0,0.1310477256774902,-0.3919117450714111
-0.0509267821907997,0.1562634259462356,0.2865351438522339,-0.3849830627441406,0.1329662203788757,0.3477820158004761,0.0,0.0,0.0350846052169799,0.2167211771011352
-0.0479074493050575,0.1478169113397598,0.284782350063324,-0.3770190179347992,0.1500654071569442,0.341983824968338,0.0,0.0,0.0160956382751464,0.2899478673934936
-0.0448558814823627,0.1393170207738876,0.288158118724823,-0.3795739710330963,0.1670461297035217,0.3396144509315491,0.0,0.0,0.2878998517990112,0.1393985748291015
-0.0418787971138954,0.1309835761785507,0.2812429666519165,-0.3723126649856567,0.1835607588291168,0.330292284488678,0.0,0.0,-0.0939233303070068,0.5445547103881836
-0.0387760177254676,0.122153028845787,0.2947004437446594,-0.3944685161113739,0.1992133110761642,0.3130514621734619,0.0,0.0,0.380655288696289,-0.0768271684646606
-0.0356114394962787,0.1137271001935005,0.3005669713020324,-0.3767050802707672,0.2152338176965713,0.3204100131988525,0.0,0.0,0.2976232767105102,-0.2180557250976562
-0.0323677062988281,0.1052365154027938,0.3083671927452087,-0.3797712028026581,0.2314373403787613,0.3240705132484436,0.0,0.0,0.4937911033630371,-0.4729536771774292
-0.0290602687746286,0.0972937420010566,0.3142373561859131,-0.3556934893131256,0.2482090443372726,0.3354343175888061,0.0,0.0,0.6648707389831543,-0.3931173086166382
-0.0258729942142963,0.0899751782417297,0.302440881729126,-0.3281132578849792,0.2648369073867798,0.3325569331645965,0.0,0.0,0.5049042701721191,-0.4082067012786865
-0.0226694103330373,0.0833300203084945,0.3035851120948791,,0.2820296883583069,0.34385547041893,0.0,0.0,0.1916959285736084,-0.3786696195602417
-0.0194347389042377,0.0768059566617012,0.3065634369850158,-0.2933188080787658,0.2994415760040283,0.3482378721237182,0.0,0.0,0.3622405529022217,-0.3756346702575683
-0.0163097381591796,0.0707399472594261,0.295752614736557,-0.273143857717514,0.3167911171913147,0.3469908833503723,0.0,0.0,0.0277814865112304,-0.2028870582580566
-0.0132067678496241,0.0648857951164245,0.2935077548027038,-0.2639562785625458,0.3342807292938232,0.3497923016548157,0.0,0.0,-0.0232425928115844,-0.1926844716072082
-0.0100090028718113,0.0585273131728172,0.3031149506568908,-0.2865537703037262,0.3517360389232635,0.3491056561470032,0.0,0.0,0.3065001964569092,0.0309255123138427
-0.0069758417084813,0.0523030124604702,0.2872299551963806,-0.2806668579578399,0.3687095046043396,0.339469313621521,0.0,0.0,0.5878889560699463,0.3853271007537842
-0.0041410448029637,0.0461995936930179,0.2680501341819763,-0.2753212749958038,0.3850776255130768,0.3273618817329407,0.0,0.0,0.6742691993713379,0.3451718091964721
-0.00144624710083,0.0403731912374496,0.2542863488197326,-0.2631394565105438,0.4013094902038574,0.3246374130249023,0.0,1.0,0.9956974983215332,0.9994686841964722
0.001117420149967,0.0361044742166996,0.2567713856697082,-0.1900522261857986,0.3994926512241363,-0.0384010858833789,0.0,1.0,0.9985842704772948,0.8470239639282227
0.0036398887168616,0.032988891005516,0.271988958120346,-0.1330671161413192,0.3784256279468536,-0.4213439524173736,0.0,1.0,0.9642860889434814,-0.7196436524391174
0.0056943893432617,0.0310979709029197,0.2404520064592361,-0.0752343386411666,0.341422438621521,-0.740153968334198,0.0,1.0,0.8533676862716675,-0.95710688829422
0.0073134424164891,0.0301810838282108,0.2017080038785934,-0.0318951047956943,0.299924373626709,-0.830052375793457,0.0,1.0,0.4396299123764038,-0.9844555854797364
0.0088686943054199,0.029121933504939,0.1923824250698089,-0.0399402417242527,0.2620078325271606,-0.7583752870559692,0.0,1.0,0.7185505628585815,-0.9423359036445618
