x_pos,y_pos,x_vel,y_vel,angle,ang_vel,leg_1,leg_2,main_booster,lat_booster
-0.001478862715885,1.402909517288208,-0.1498575955629348,-0.3560304641723633,0.001773175317794,0.0349780917167663,0.0,0.0,-0.0328328013420105,0.8404839038848877
-0.0028396607376635,1.3942029476165771,-0.136031299829483,-0.3869540393352508,0.0017270738026127,-0.0009216001490131,0.0,0.0,0.3341234922409057,0.6048274040222168
-0.0039873123168945,1.3852663040161133,-0.1138057112693786,-0.3971835076808929,0.0007683608564548,-0.0191759280860424,0.0,0.0,-0.2521433234214782,0.2814902067184448
-0.0050863265059888,1.3756144046783447,-0.1089556813240051,-0.4289712011814117,-0.0001609774772077,-0.0185885857790708,0.0,0.0,-0.1670201420783996,0.5608460903167725
-0.0060819624923169,1.3652493953704834,-0.0972882136702537,-0.4606720209121704,-0.0024081438314169,-0.0449477210640907,0.0,0.0,0.2529292106628418,-0.3405508995056152
-0.0069217681884765,1.35478675365448,-0.0822330340743064,-0.4650100171566009,-0.0041285268962383,-0.0344107933342456,0.0,0.0,0.2115081548690796,-0.5906636714935303
-0.0077729225158691,1.3442445993423462,-0.0845492556691169,-0.4685425460338592,-0.0046875355765223,-0.0111813265830278,0.0,0.0,-0.5062341690063477,-0.7470828890800476
-0.0086158756166696,1.3329899311065674,-0.084889568388462,-0.5002114176750183,-0.0041062464006245,0.0116270761936903,0.0,0.0,-0.4069641828536987,-0.448646068572998
-0.009405898861587,1.321020007133484,-0.0796084329485893,-0.5319888591766357,-0.0034984303638339,0.0121575258672237,0.0,0.0,-0.1894924640655517,-0.7357481718063354
-0.010200023651123,1.3083401918411257,-0.0815383791923523,-0.5635481476783752,-0.001404630835168,0.0418798960745334,0.0,0.0,-0.1134994029998779,-0.6673277020454407
-0.0109850885346531,1.2949459552764893,-0.0817855298519134,-0.595302402973175,0.0018474417738616,0.0650472193956375,0.0,0.0,-0.3399981260299682,-0.3867896795272827
-0.0117152212187647,1.280836582183838,-0.0763244777917862,-0.6270833611488342,0.0051241610199213,0.0655403286218643,0.0,0.0,-0.5704191327095032,-0.4232857823371887
-0.0123899457976222,1.2660125494003296,-0.0708105191588401,-0.6588643193244934,0.0084254667162895,0.0660320073366165,0.0,0.0,-0.2514326572418213,-0.6873073577880859
-0.0130568500608205,1.2504667043685913,-0.0712658688426017,-0.6909640431404114,0.0129576241597533,0.0906511172652244,0.0,0.0,-0.2071414589881897,0.4063129425048828
-0.0136673925444483,1.234205961227417,-0.0656626671552658,-0.7227460145950317,0.0175123084336519,0.0911019071936607,0.0,0.0,-0.8012906312942505,0.4546585083007812
-0.0142212864011526,1.2172305583953855,-0.0600184276700019,-0.7545279860496521,0.0220897924154996,0.091557927429676,0.0,0.0,-0.038367748260498,0.5285673141479492
-0.0146669391542673,1.1995480060577393,-0.047916404902935,-0.7859420776367188,0.0253999177366495,0.0662087053060531,0.0,0.0,-0.2332727909088134,0.5852189064025879
-0.0149979591369628,1.181147575378418,-0.0350234881043434,-0.8178234696388245,0.0272963419556617,0.0379321090877056,0.0,0.0,-0.204690933227539,0.4021296501159668
-0.0152711868286132,1.1620323657989502,-0.0292683895677328,-0.8496044874191284,0.0292144399136304,0.0383654199540615,0.0,0.0,0.4715187549591064,0.0820887088775634
-0.0155729297548532,1.1429548263549805,-0.0317982882261276,-0.8479257225990295,0.0308172777295112,0.0320599228143692,0.0,0.0,0.702633261680603,0.0003098249435424
-0.0157087333500385,1.124329924583435,-0.0158505253493785,-0.827821671962738,0.0330541394650936,0.044741041958332,0.0,0.0,0.2645010948181152,0.5365519523620605
-0.0157450679689645,1.105497121810913,-0.0048540197312831,-0.8370406031608582,0.0342649891972541,0.024219499900937,0.0,0.0,0.5191526412963867,-0.0637863278388977
-0.0156203266233205,1.086706042289734,0.0106574911624193,-0.8352023959159851,0.0360508374869823,0.0357204005122184,0.0,0.0,-0.4215967655181885,-0.1452010869979858
-0.0154368402436375,1.067199945449829,0.0165315754711627,-0.8669871687889099,0.0378546901047229,0.0360800698399543,0.0,0.0,0.3068611621856689,-0.1670542955398559
-0.0153257371857762,1.047735333442688,0.0097965328022837,-0.8651206493377686,0.039156038314104,0.0260293390601873,0.0,0.0,0.1860641241073608,0.6097985506057739
-0.0152426715940237,1.0282912254333496,0.0083966376259922,-0.8641826510429382,0.0390714183449745,-0.0016923634102568,0.0,0.0,0.7542619705200195,-0.2411451339721679
-0.0151261333376169,1.0092885494232178,0.0116980988532304,-0.8445663452148438,0.0390232801437377,-0.0009626921382732,0.0,0.0,0.695683479309082,0.578547477722168
-0.015081500634551,0.990840494632721,0.0060393782332539,-0.8198667168617249,0.0374702885746955,-0.0310600604861974,0.0,0.0,0.4331307411193847,-0.1153098940849304
-0.0151153560727834,0.9726784229278564,-0.0013086467515677,-0.8071517944335938,0.0354111902415752,-0.0411817096173763,0.0,0.0,0.5910230875015259,-0.7217202186584473
-0.0151853561401367,0.9544983506202698,-0.0063433786854147,-0.8079885840415955,0.0347620770335197,-0.0129822790622711,0.0,0.0,0.7856723070144653,-0.2691618204116821
-0.0152070997282862,0.9369760155677797,-0.0016288859769701,-0.7787548899650574,0.0342239215970039,-0.0107631990686059,0.0,0.0,0.0668461322784423,0.5346578359603882
-0.0151919368654489,0.9191591143608092,0.0032177623361349,-0.7918209433555603,0.0325449854135513,-0.0335788503289222,0.0,0.0,0.2841005325317383,-0.303754448890686
-0.01520118676126,0.90155827999115,0.001055775093846,-0.7822176218032837,0.0305864457041025,-0.039170816540718,0.0,0.0,-0.2245316505432129,0.0648471117019653
-0.0151504520326852,0.8832424283027649,0.0070364535786211,-0.8139963746070862,0.0286450944840908,-0.0388270206749439,0.0,0.0,0.2488176822662353,-0.2734776735305786
-0.0150410654023289,0.8649231791496277,0.012834645807743,-0.8141584992408752,0.0267777014523744,-0.0373475886881351,0.0,0.0,0.2917275428771972,-0.0474724769592285
-0.0148731227964162,0.8467761278152466,0.0185922719538211,-0.8065038323402405,0.0249930638819932,-0.0356927514076232,0.0,0.0,0.0454562902450561,0.5669443607330322
-0.014626121148467,0.8283442854881287,0.0276627596467733,-0.8191465139389038,0.0220703054219484,-0.0584551803767681,0.0,0.0,0.7171230316162109,-0.5918338894844055
-0.0143408775329589,0.8103882074356079,0.0301624629646539,-0.7980188131332397,0.0204495284706354,-0.0324154905974864,0.0,0.0,0.0238326787948608,0.6390970945358276
-0.013983535580337,0.7925082445144653,0.0386741571128368,-0.7946292757987976,0.017544075846672,-0.0581090375781059,0.0,0.0,-0.1100770235061645,-0.5948876738548279
-0.0136112216860055,0.7739128470420837,0.0390219390392303,-0.826440691947937,0.0157826263457536,-0.0352289155125618,0.0,0.0,0.0931957960128784,0.44451904296875
-0.0132576944306492,0.7553735971450806,0.0374497510492801,-0.823947548866272,0.0137107605114579,-0.0414373204112052,0.0,0.0,0.5166716575622559,0.1127760410308837
-0.0127375600859522,0.7368424534797668,0.0535572171211242,-0.8235922455787659,0.0121792806312441,-0.0306294672191143,0.0,0.0,-0.3488922119140625,-0.6171422600746155
-0.0121987340971827,0.7175887823104858,0.0543831661343574,-0.855715811252594,0.0116935316473245,-0.0097152460366487,0.0,0.0,0.0922268629074096,0.2159096002578735
-0.0115385055541992,0.6981453895568848,0.0661821663379669,-0.8641488552093506,0.0115274181589484,-0.0033223205246031,0.0,0.0,-0.2992410659790039,-0.1663817763328552
-0.0108187673613429,0.6779870390892029,0.0721229165792465,-0.8959271907806396,0.0113771790638566,-0.0030046692118048,0.0,0.0,0.891857385635376,-0.2389857769012451
-0.0099913598969578,0.657688558101654,0.0826322585344314,-0.9021599888801576,0.0114860106259584,0.0021767192520201,0.0,0.0,0.8808706998825073,-0.6033607721328735
-0.0090838428586721,0.6374351978302002,0.0892044156789779,-0.9001606702804565,0.0130100343376398,0.0304804742336273,0.0,0.0,0.9081968069076538,-0.5970076322555542
-0.0083156581968069,0.6179140210151672,0.0744463428854942,-0.8676278591156006,0.0153573136776685,0.0469455271959304,0.0,0.0,0.9496498107910156,0.1546909809112548
-0.0076591493561863,0.5990692973136902,0.0639871507883071,-0.8375619649887085,0.016995433717966,0.0327626541256904,0.0,0.0,0.7320775985717773,0.133746862411499
-0.0069750784896314,0.5803087949752808,0.0668382495641708,-0.8338199257850647,0.0185458678752183,0.0310086701065301,0.0,0.0,0.3994690179824829,-0.4097368717193603
-0.0061198235489428,0.561562180519104,0.0833732783794403,-0.8332130312919617,0.0206730961799621,0.0425444282591342,0.0,0.0,0.8194234371185303,-0.4383379220962524
-0.0052862167358398,0.5433152318000793,0.0814869254827499,-0.8110005259513855,0.0225214883685112,0.0369678996503353,0.0,0.0,0.5798507928848267,-0.4435595870018005
-0.0042994497343897,0.524994432926178,0.0963005274534225,-0.8142954111099243,0.0248676985502243,0.0469243079423904,0.0,0.0,0.8378833532333374,-0.777853786945343
-0.0033345222473144,0.5072944164276123,0.0925277918577194,-0.7867371439933777,0.028782419860363,0.0782946050167083,0.0,0.0,0.2639437913894653,-0.2006707787513733
-0.0022087097167968,0.4894439280033111,0.1080737709999084,-0.7934513092041016,0.0332381837069988,0.089115060865879,0.0,0.0,0.772005558013916,-0.2251654863357544
-0.0011446953285485,0.4716311395168304,0.1023620590567588,-0.7917739748954773,0.0372332744300365,0.0799016952514648,0.0,0.0,0.6918542385101318,-0.2470021247863769
4.234314110362902e-05,0.4543323218822479,0.1141952499747276,-0.7689536213874817,0.0416867993772029,0.0890704318881034,0.0,0.0,0.8368144035339355,0.1071454286575317
0.0014081954723224,0.4374521970748901,0.1313497126102447,-0.7503818869590759,0.046862818300724,0.1035204753279686,0.0,0.0,0.6430907249450684,-0.1877211332321167
0.0028663636185228,0.4210895895957947,0.1402214169502258,-0.7274128794670105,0.0523949824273586,0.1106431856751442,0.0,0.0,0.3098306655883789,-0.0527360439300537
0.0042877197265625,0.4049407541751861,0.1368050426244735,-0.7179195880889893,0.0576598644256591,0.1052976101636886,0.0,0.0,0.3804532289505005,-0.1313610672950744
0.0057894708588719,0.3885444402694702,0.1446438431739807,-0.7289501428604126,0.0631342753767967,0.1094882264733314,0.0,0.0,0.7141586542129517,-0.4688035249710083
0.0071967123076319,0.3725129961967468,0.1356646418571472,-0.7127273678779602,0.0681386291980743,0.100086823105812,0.0,0.0,0.810210108757019,0.1373714208602905
0.0087550161406397,0.356628805398941,0.1501369774341583,-0.7062328457832336,0.0737797617912292,0.1128228157758712,0.0,0.0,0.803625226020813,-0.181974172592163
0.0103440284729003,0.341033935546875,0.1530617773532867,-0.6934047937393188,0.0795501917600631,0.1154089346528053,0.0,0.0,0.929129123687744,-0.3136911392211914
0.0119584081694483,0.3254255056381225,0.1555676460266113,-0.6940345168113708,0.0853727608919143,0.1164512857794761,0.0,0.0,0.9158544540405272,0.0245124101638793
0.0134244915097951,0.3101083636283874,0.1413919627666473,-0.6810690760612488,0.090540625154972,0.1033571735024452,0.0,0.0,0.920853853225708,-0.0358617305755615
0.0148779870942235,0.2955662906169891,0.1400059759616851,-0.6466445326805115,0.0958327203989029,0.1058421954512596,0.0,0.0,0.7056844234466553,0.5184179544448853
0.0164854042232036,0.2807730734348297,0.1561937034130096,-0.6577748656272888,0.1003530025482177,0.0904055908322334,0.0,0.0,0.9775993824005128,-0.3315455913543701
0.0180739406496286,0.2667951285839081,0.1541323065757751,-0.6215680241584778,0.1050305739045143,0.0935513749718666,0.0,0.0,0.9487924575805664,-0.5953792929649353
0.0194898601621389,0.2529067993164062,0.1360090970993042,-0.6176618933677673,0.1105755791068077,0.1109002977609634,0.0,0.0,0.968859314918518,0.5111751556396484
0.0207915306091308,0.2394964545965194,0.1259547024965286,-0.5963324904441833,0.1147556230425834,0.083600714802742,0.0,0.0,0.9299719333648682,-0.3318248391151428
0.0220943447202444,0.2264609187841415,0.125906616449356,-0.5797020196914673,0.1191076561808586,0.0870405137538909,0.0,0.0,0.930744767189026,0.1662049293518066
0.0231783874332904,0.2141535878181457,0.1047194227576255,-0.5472879409790039,0.1227683499455452,0.0732138231396675,0.0,0.0,0.9347819089889526,0.5803892612457275
0.0243630409240722,0.2021635323762893,0.1156911253929138,-0.5331246256828308,0.125531330704689,0.0552596673369407,0.0,0.0,0.9215798377990724,-0.1231482028961181
0.025497818365693,0.1901281476020813,0.1108850985765457,-0.5351292490959167,0.128116637468338,0.0517057552933692,0.0,0.0,0.9773088693618774,-0.3303136825561523
0.026708697900176,0.1779721528291702,0.1181035488843917,-0.5405235886573792,0.1310812979936599,0.0592932291328907,0.0,0.0,0.9144558906555176,-0.4576535224914551
0.0278756134212017,0.1656790524721145,0.1138908863067627,-0.5466102361679077,0.1338787525892257,0.0559486970305442,0.0,0.0,0.977781057357788,-0.1938774585723877
0.0289487838745117,0.1540805399417877,0.1045483723282814,-0.5157379508018494,0.1366311609745025,0.0550482161343097,0.0,0.0,0.9795827865600586,-0.8942967653274536
0.0299637801945209,0.143235757946968,0.0967422276735305,-0.4824362397193908,0.1413728594779968,0.0948340222239494,0.0,0.0,0.9814085960388184,-0.3127704858779907
0.0307477954775095,0.1331033855676651,0.0742687731981277,-0.4507245123386383,0.1454917937517166,0.0823785737156868,0.0,0.0,0.9857988357543944,-0.8488069176673889
0.0312794670462608,0.1227870285511016,0.0476900748908519,-0.4590509831905365,0.150956779718399,0.1092998161911964,0.0,0.0,0.9839084148406982,-0.754030168056488
0.0316982269287109,0.1131688430905342,0.0347822718322277,-0.4282101988792419,0.1580476909875869,0.1418182253837585,0.0,0.0,0.9171886444091796,0.489175796508789
0.0319320671260356,0.1037978529930114,0.0168405883014202,-0.4172008335590362,0.1645920425653457,0.1308874785900116,0.0,0.0,0.9468603134155272,0.8187249898910522
0.0320638641715049,0.09489606320858,0.0084271291270852,-0.3961673676967621,0.1693417280912399,0.0949941575527191,0.0,0.0,0.9501233100891112,0.9207100868225098
0.0321456901729106,0.0865189880132675,0.0053169089369475,-0.3726464211940765,0.1722110956907272,0.0573873333632946,0.0,0.0,0.9689613580703736,0.9664590358734132
0.0323289856314659,0.078500896692276,0.0172085966914892,-0.3564894795417785,0.1733388900756836,0.0225557573139667,0.0,0.0,0.9849363565444946,0.9216270446777344
0.0325753204524517,0.0703934729099273,0.0252958387136459,-0.360253244638443,0.1726785153150558,-0.013207477517426,0.0,0.0,0.9944009780883788,0.5291728973388672
0.0329251289367675,0.0623267516493797,0.0363485589623451,-0.3583616912364959,0.1713082790374755,-0.027405122295022,0.0,0.0,0.9938671588897704,0.4123222827911377
0.0333594307303428,0.0546090714633464,0.0439815409481525,-0.3429447114467621,0.1707522869110107,-0.0111198965460062,0.0,0.0,0.9970016479492188,-0.4661385416984558
0.0339039787650108,0.0469240061938762,0.0542428568005561,-0.34158456325531,0.1709679514169693,0.0043134125880897,0.0,0.0,0.9959213733673096,-0.4136964082717895
0.034311007708311,0.0398636423051357,0.0405218824744224,-0.3138125240802765,0.1711434721946716,0.0035105005372315,0.0,0.0,0.9978108406066896,0.6365717649459839
0.0346718803048133,0.033471904695034,0.037098154425621,-0.2839617729187011,0.1701389104127884,-0.0200914368033409,0.0,0.0,0.996284246444702,0.2380698919296264
0.035064697265625,0.02759500592947,0.0395970754325389,-0.2611617743968963,0.1698207110166549,-0.0063639781437814,0.0,0.0,0.9925614595413208,-0.2605771422386169
0.035529039800167,0.0216158963739871,0.0461997166275978,-0.2657645344734192,0.1700549274682998,0.0046841064468026,0.0,0.0,0.9909393787384032,-0.545099675655365
0.0357974991202354,0.0157995074987411,0.0257317665964365,-0.2586348354816437,0.1711738109588623,0.0223776660859584,0.0,1.0,0.9981770515441896,0.9054112434387208
0.0359996780753135,0.0117090316489338,0.0383441522717475,-0.1802672743797302,0.1517922580242157,-0.389329195022583,0.0,1.0,0.9819138050079346,0.230417251586914
0.0359464660286903,0.0085629438981413,0.0316233709454536,-0.1365041434764862,0.1149071380496025,-0.7378132343292236,0.0,1.0,0.9608300924301147,-0.7104696035385132
0.0355109199881553,0.0064320899546146,0.001550220651552,-0.0918679311871528,0.0700894743204116,-0.8964742422103882,0.0,1.0,0.7510254383087158,-0.7682318687438965
0.0350744239985942,0.0047114347107708,-0.0007716768304817,-0.0750309452414512,0.0276448093354702,-0.8489812016487122,0.0,1.0,0.7418395280838013,-0.4687871932983398
0.0345796570181846,0.0034531927667558,-0.0074092661961913,-0.0556695312261581,-0.0138872396200895,-0.8306425213813782,0.0,0.0,-0.3469820618629455,-0.9888538122177124
0.0340107902884483,0.0015105581842362,-0.0171038564294576,-0.0871759876608848,-0.0531885176897048,-0.7860262989997864,1.0,0.0,0.8989547491073608,-0.6034153699874878
0.0334965698421001,0.0003260588564444,-0.0288987644016742,-0.0538613088428974,-0.0741817131638526,-0.4181999564170837,1.0,0.0,0.5467329025268555,-0.270222544670105
0.0331635475158691,-0.0001751565869199,-0.0314077399671077,-0.0223780777305364,-0.0760340094566345,-0.037005715072155,1.0,0.0,-0.5752801299095154,0.4783439636230469
0.0329283699393272,-0.0008417034405283,-0.0373651981353759,-0.0290010403841733,-0.0622737221419811,0.2752850651741028,1.0,0.0,-0.7683693766593933,0.5184056758880615
0.0328066833317279,-0.0018259668722748,-0.0360482148826122,-0.0429286025464534,-0.0386366322636604,0.4727793335914612,1.0,0.0,-0.3364735841751098,0.1991647481918335
0.0327178947627544,-0.0033067965414375,-0.0386998914182186,-0.0653169304132461,-0.0091543970629572,0.5896888971328735,1.0,1.0,0.6362847089767456,0.917166233062744
0.0328100211918354,-0.0038279676809906,-0.0075550796464085,-0.0233521778136491,0.0065999897196888,0.3140767514705658,1.0,1.0,0.5558667182922363,0.9988821744918824
0.0327717773616313,-0.0034340405836701,-0.0034708615858107,0.0174990594387054,0.0062400172464549,-0.0072128013707697,1.0,1.0,-0.6109397411346436,0.1319384574890136
0.0326817519962787,-0.003154375590384,-0.0031220689415931,0.0124408993870019,0.0004495139000937,-0.1157928556203842,1.0,1.0,-0.9653003215789796,0.0519567728042602
0.0326135642826557,-0.002896168269217,-0.0018924083560705,0.0114724086597561,-0.0044009191915392,-0.0969864055514335,1.0,1.0,-0.9648093581199646,-0.0739466547966003
0.0325828567147254,-0.0025812410749495,-0.0012858593836426,0.013983610086143,-0.0061689158901572,-0.0353619828820228,1.0,1.0,-0.8158178329467773,-0.3979122638702392
0.0325802788138389,-0.0021466875914484,-0.0008120930870063,0.0193109717220067,-0.0056186285801231,0.0109990816563367,1.0,1.0,-0.7215037941932678,0.2356212139129638
0.0326169952750206,-0.0016535902395844,-0.0001488174457335,0.0219231154769659,-0.0018520315643399,0.0753265768289566,1.0,1.0,-0.3983443975448608,0.6471760272979736
0.0327104553580284,-0.0011158608831465,0.0051913596689701,0.0238989386707544,0.00225241179578,0.0820840150117874,1.0,1.0,-0.4021528959274292,0.4122377634048462
0.0327446945011615,-0.001109137549065,0.0034362324513494,0.0002987990446854,0.0022397693246603,-0.0002567949122749,1.0,1.0,-0.8237519264221191,0.0963082313537597
0.0327545180916786,-0.0011127138277515,0.0010118329664692,-0.0001624683645786,0.002225677948445,-0.0002764697419479,1.0,1.0,-0.9511402249336244,0.0231016874313354
0.032750129699707,-0.0011127853067591,-0.0004616008955053,-4.8077458814077545e-06,0.002232693368569,0.000134678397444,1.0,1.0,-0.8508709669113159,-0.2085829377174377
0.0327440276741981,-0.0011127138277515,-0.0006275222403928,4.6202984549381654e-07,0.0022421560715883,0.0001822282356442,1.0,1.0,-0.9121572971343994,0.1622461080551147
0.0327415466308593,-0.0011127138277515,-0.0002573175588622,-2.0441832759843242e-07,0.0022460750769823,7.472447759937495e-05,1.0,1.0,-0.9457810521125792,0.1364693641662597
0.0327419266104698,-0.0011127138277515,3.663199458969757e-05,3.026499584279918e-08,0.0022456082515418,-1.0622119589243084e-05,1.0,1.0,-0.781577467918396,-0.0083664059638977
0.0327428802847862,-0.0011127138277515,0.0001072497252607,1.009340095947664e-07,0.0022440731991082,-3.113334241788834e-05,1.0,1.0,-0.9186460375785828,0.1219570636749267
