x_pos,y_pos,x_vel,y_vel,angle,ang_vel,leg_1,leg_2,main_booster,lat_booster
-0.0015673637390136,1.402950644493103,-0.1581762582063675,-0.3542022705078125,0.0012904567411169,0.0254200939089059,0.0,0.0,0.9880423841344388,-0.7412471925068653
-0.0031706809531897,1.3951592445373535,-0.1627465784549713,-0.3462827801704407,0.0036808566655963,0.0478133261203765,0.0,0.0,-0.3875319218014186,-0.7714217992594993
-0.004865932278335,1.3866876363754272,-0.172636404633522,-0.3765287399291992,0.0067546018399298,0.0614808015525341,0.0,0.0,0.5117388673053376,-0.6182003670651015
-0.006776618771255,1.3782241344451904,-0.1946203410625457,-0.3761723637580871,0.0102686397731304,0.0702872425317764,0.0,0.0,0.5466716759010091,0.9983350131734656
-0.00852289237082,1.3700088262557983,-0.1758377701044082,-0.365134447813034,0.011465691961348,0.023943169042468,0.0,0.0,0.0324832185614245,-0.956334132446735
-0.010290908627212,1.3616275787353516,-0.1794112622737884,-0.372519850730896,0.0140418885275721,0.0515288487076759,0.0,0.0,0.4495435315381533,0.8321641920824898
-0.012068748474121,1.3533333539962769,-0.1781857907772064,-0.3686412870883941,0.0144456569105386,0.0080762412399053,0.0,0.0,-0.2729092375513802,-0.7522623820705094
-0.0139369964599609,1.3443660736083984,-0.1878806054592132,-0.3985533118247986,0.0154848042875528,0.020784793421626,0.0,0.0,0.6820880146103676,-0.7976516530483948
-0.015941048040986,1.3360097408294678,-0.202541783452034,-0.3714185357093811,0.017592865973711,0.0421652570366859,0.0,0.0,0.4625536299092125,-0.7351247483637147
-0.0180616378784179,1.327946662902832,-0.2151671946048736,-0.3584000766277313,0.0206768438220024,0.0616850443184375,0.0,0.0,0.4067014889396634,0.6495340595572027
-0.0201071742922067,1.3199732303619385,-0.2060606032609939,-0.3544007539749145,0.0221635662019252,0.0297372099012136,0.0,0.0,-0.5982915396487798,-0.6364335817279421
-0.0222434997558593,1.311322808265686,-0.2157959938049316,-0.3844949305057525,0.0242962092161178,0.0426567830145359,0.0,0.0,0.8342090597243728,0.7479322705479319
-0.0242292396724224,1.303174614906311,-0.1991227865219116,-0.3621483743190765,0.0248450506478548,0.0109777515754103,0.0,0.0,-0.0911250908269831,-0.6586817544835459
-0.026307487860322,1.2943445444107056,-0.2090905904769897,-0.3924773633480072,0.0260946210473775,0.0249936003237962,0.0,0.0,-0.8279228036621615,0.9922782173306324
-0.0283362381160259,1.2848541736602783,-0.2012182176113128,-0.4217570722103119,0.0244627110660076,-0.0326412469148635,0.0,0.0,0.8241208883118378,0.804005089087424
-0.0302234645932912,1.275180101394653,-0.1853007972240448,-0.429912656545639,0.0210731420665979,-0.0677976533770561,0.0,0.0,0.7537915114488971,-0.8925126775907771
-0.0320848450064659,1.2662070989608765,-0.1843422055244445,-0.3987811505794525,0.0192997511476278,-0.0354710221290588,0.0,0.0,0.5684919248210882,0.9823964059692228
-0.0337686538696289,1.2570915222167969,-0.1643520891666412,-0.4050821959972381,0.0153201166540384,-0.0796002447605133,0.0,0.0,0.0981427038811015,0.685061369484375
-0.035379983484745,1.2481122016906738,-0.1553877294063568,-0.3990363478660583,0.0096440641209483,-0.1135313883423805,0.0,0.0,-0.477237398527556,0.6332470750879612
-0.0369945541024208,1.238459587097168,-0.154197558760643,-0.4289733469486236,0.0024683908559381,-0.14352647960186,0.0,0.0,0.9842835584867564,-0.6539780179827277
-0.0385453216731548,1.2294933795928955,-0.1491767764091491,-0.3984952569007873,-0.0033689236734062,-0.1167568564414978,0.0,0.0,-0.1726766585569885,-0.7754160543488903
-0.0402027145028114,1.2198494672775269,-0.1609752476215362,-0.4286390841007232,-0.008087414316833,-0.0943780913949012,0.0,0.0,-0.4122953440633681,0.9948457950708336
-0.0418110862374305,1.2095297574996948,-0.1532433927059173,-0.4587141573429107,-0.0155888963490724,-0.1500430405139923,0.0,0.0,0.2965211004805752,0.6213889165570595
-0.043352223932743,1.19889497756958,-0.1450202465057373,-0.4727750420570373,-0.0245809312909841,-0.1798568665981292,0.0,0.0,-0.5600690849902654,-0.616142312593972
-0.0449997894465923,1.1875911951065063,-0.1568298637866974,-0.5025383830070496,-0.0324134156107902,-0.1566639393568039,0.0,0.0,0.9101807988151508,-0.6442618124127206
-0.0468991287052631,1.176828145980835,-0.1824844181537628,-0.4785366058349609,-0.0397761426866054,-0.1472546607255935,0.0,0.0,-0.4509668806476321,0.6189021949771033
-0.0487953200936317,1.1653932332992554,-0.1805781722068786,-0.5084846615791321,-0.0487062856554985,-0.1786029487848281,0.0,0.0,0.2886019535312816,0.7644286474830293
-0.0507603660225868,1.1542623043060305,-0.1854672133922577,-0.4951057434082031,-0.0596118308603763,-0.2181110382080078,0.0,0.0,0.9351361431288788,0.6236268350940062
-0.0528307929635047,1.1438333988189695,-0.1940225809812545,-0.464074969291687,-0.0724944546818733,-0.2576526999473572,0.0,0.0,0.6675975850248468,-0.6048962611621634
-0.054981805384159,1.133474826812744,-0.20296411216259,-0.4610206484794616,-0.084511674940586,-0.2403445541858673,0.0,0.0,0.3574476874226995,0.6935649277314051
-0.057047177106142,1.1234830617904663,-0.192789614200592,-0.4449111223220825,-0.0981455594301223,-0.2726775705814361,0.0,0.0,0.1495404340526227,-0.6781955361268946
-0.0592422485351562,1.1132882833480835,-0.2068052589893341,-0.4539898633956909,-0.1107519716024398,-0.2521281540393829,0.0,0.0,0.9554573838015952,-0.9732722889613364
-0.0615607276558876,1.1038758754730225,-0.2207006514072418,-0.4191900789737701,-0.1218277290463447,-0.2215151488780975,0.0,0.0,-0.6227426607940738,0.9849662736444748
-0.0638553649187088,1.0937703847885132,-0.2163576781749725,-0.4502558708190918,-0.1348748952150344,-0.2609432637691498,0.0,0.0,-0.3481537075668752,-0.6401819114777084
-0.066242977976799,1.083004593849182,-0.2267359048128128,-0.479608952999115,-0.1468659788370132,-0.2398215979337692,0.0,0.0,-0.8019739101276913,-0.8235196490254272
-0.0687364563345909,1.0715869665145874,-0.2387748658657074,-0.5085278749465942,-0.157425045967102,-0.2111810892820358,0.0,0.0,0.6737945215557419,-0.850407958044032
-0.0712973624467849,1.0601987838745115,-0.2470383644104004,-0.5071231126785278,-0.1664802283048629,-0.1811036914587021,0.0,0.0,-0.3383464367022988,-0.9663389584269296
-0.0739714652299881,1.0481631755828855,-0.2600566148757934,-0.5357624292373657,-0.1738428473472595,-0.1472522318363189,0.0,0.0,-0.7742266093280186,0.7415690677145035
-0.076633833348751,1.035448670387268,-0.2574049234390259,-0.5661514401435852,-0.1826922297477722,-0.1769880056381225,0.0,0.0,-0.4428493191098224,0.8924294791465158
-0.0792661681771278,1.0220426321029663,-0.2524775266647339,-0.5971832871437073,-0.1934949606657028,-0.2160546332597732,0.0,0.0,0.8009687886615195,0.6637314422307539
-0.0818486213684082,1.0092406272888184,-0.2458463609218597,-0.5706447958946228,-0.2059856504201889,-0.2498139590024948,0.0,0.0,0.2632663249969482,0.1420100927352905
-0.0842987075448036,0.996325671672821,-0.2330387532711029,-0.575713574886322,-0.2180735170841217,-0.2417573034763336,0.0,0.0,-0.6898689270019531,-0.1532854437828064
-0.0867902785539627,0.9827384948730468,-0.2372080534696579,-0.6056758165359497,-0.2301719635725021,-0.2419687956571579,0.0,0.0,0.3876111507415771,0.118597388267517
-0.0891405120491981,0.9690992832183838,-0.2234904319047927,-0.6080282926559448,-0.2418721169233322,-0.234002947807312,0.0,0.0,0.7218309640884399,-0.1322371959686279
-0.091498851776123,0.955250084400177,-0.224190354347229,-0.617478609085083,-0.2537327408790588,-0.2372123301029205,0.0,0.0,0.816551685333252,-0.7299433350563049
-0.0938091278076171,0.9412558078765868,-0.2210245877504348,-0.623734712600708,-0.2639449536800384,-0.2042440176010131,0.0,0.0,0.9181559085845948,0.2097163200378418
-0.0959554687142372,0.927312195301056,-0.205057218670845,-0.6214741468429565,-0.2737489938735962,-0.1960809081792831,0.0,0.0,0.7427279949188232,-0.0875942707061767
-0.0980174988508224,0.9140138626098632,-0.1962196826934814,-0.592943549156189,-0.2839989364147186,-0.2049991339445114,0.0,0.0,-0.6772475242614746,-0.8742596507072449
-0.1001975983381271,0.9000849723815918,-0.2102863490581512,-0.6205900311470032,-0.2919519245624542,-0.1590598225593567,0.0,0.0,-0.8329837918281555,-0.5799388289451599
-0.1024618148803711,0.8855010867118835,-0.2200352400541305,-0.6494685411453247,-0.2985419034957886,-0.1317992359399795,0.0,0.0,0.4536054134368896,-0.8022087812423706
-0.1045416817069053,0.8709285855293274,-0.2035390585660934,-0.6485821604728699,-0.3031401932239532,-0.0919659510254859,0.0,0.0,0.4214404821395874,0.431166410446167
-0.1065171211957931,0.856611430644989,-0.1930614411830902,-0.6372613310813904,-0.3077829480171203,-0.0928548648953437,0.0,0.0,0.1839375495910644,-0.5529988408088684
-0.108393095433712,0.8420528769493103,-0.1845430433750152,-0.6476976871490479,-0.310941070318222,-0.063162662088871,0.0,0.0,0.0344454050064086,-0.8058966398239136
-0.1102092713117599,0.8275679349899292,-0.1803741455078125,-0.6440426111221313,-0.3122268915176391,-0.0257164873182773,0.0,0.0,0.312747597694397,-0.8981318473815918
-0.1118810623884201,0.812927782535553,-0.1680148690938949,-0.6504870057106018,-0.3113519251346588,0.0174991227686405,0.0,0.0,0.2083522081375122,-0.7615344524383545
-0.113615795969963,0.7981657385826111,-0.175989031791687,-0.655552864074707,-0.3087499439716339,0.0520397499203681,0.0,0.0,0.3742961883544922,-0.8014684915542603
-0.1151583641767501,0.7836719751358032,-0.1587243825197219,-0.6432259678840637,-0.3041291832923889,0.0924153104424476,0.0,0.0,0.6049482822418213,-0.4591437578201294
-0.1164109259843826,0.7693808674812317,-0.1305919289588928,-0.6340479254722595,-0.2986017167568207,0.1105494946241378,0.0,0.0,0.321941614151001,-0.5967806577682495
-0.1174836158752441,0.755357563495636,-0.1142356246709823,-0.6218557953834534,-0.2914274036884308,0.1434861123561859,0.0,0.0,0.1320033073425293,0.0628509521484375
-0.1184842139482498,0.7414557337760925,-0.1071020513772964,-0.6164699196815491,-0.2841802537441253,0.1449427902698516,0.0,0.0,-0.2439749240875244,-0.4219310879707336
-0.1195166558027267,0.7268795371055603,-0.1106158643960952,-0.6464164853096008,-0.2766062915325165,0.1514794379472732,0.0,0.0,-0.2782965898513794,-0.4709752798080444
-0.1205801963806152,0.7116288542747498,-0.1140668988227844,-0.6763633489608765,-0.2686936259269714,0.158253863453865,0.0,0.0,0.0218771696090698,-0.0298240184783935
-0.1215153709053993,0.6961362361907959,-0.1019385308027267,-0.6870392560958862,-0.2600776851177215,0.1723188310861587,0.0,0.0,0.1147921085357666,0.6033120155334473
-0.1223103553056716,0.6805446743965149,-0.0871182605624198,-0.6916311979293823,-0.252295583486557,0.155642032623291,0.0,0.0,0.2457426786422729,0.7551671266555786
-0.1229952797293663,0.6646873354911804,-0.0750030726194381,-0.7036653161048889,-0.245667353272438,0.1325642764568328,0.0,0.0,0.2446489334106445,-0.3823858499526977
-0.1236902251839637,0.6488373875617981,-0.0759588181972503,-0.7033779621124268,-0.2390913963317871,0.1315191090106964,0.0,0.0,0.4275460243225097,-0.1686199903488159
-0.1242188438773155,0.6333838701248169,-0.0598095953464508,-0.6857078671455383,-0.2320421040058136,0.1409858763217926,0.0,0.0,0.0210655927658081,-0.1530307531356811
-0.1246825233101844,0.6175023317337036,-0.0539456792175769,-0.7046694159507751,-0.2243628203868866,0.1535857021808624,0.0,0.0,0.1526647806167602,0.0828032493591308
-0.12502022087574,0.601811408996582,-0.0418513119220733,-0.696172297000885,-0.2161937206983566,0.1633821278810501,0.0,0.0,0.5810320377349854,-0.1708132624626159
-0.1253727972507476,0.5861387848854065,-0.0433366410434246,-0.6953970193862915,-0.208031952381134,0.1632356941699981,0.0,0.0,0.4430129528045654,0.5373193025588989
-0.1256690919399261,0.5706759095191956,-0.0368682406842708,-0.6862406134605408,-0.2007399350404739,0.1458404064178466,0.0,0.0,0.5078282356262207,0.0820025205612182
-0.1258466690778732,0.5553652048110962,-0.0255447924137115,-0.6794381737709045,-0.1928970217704773,0.1568585038185119,0.0,0.0,0.8579198122024536,-0.1164090633392334
-0.1260051727294922,0.5408201217651367,-0.0234116129577159,-0.6454814672470093,-0.1852979958057403,0.1519808024168014,0.0,0.0,0.3536210060119629,0.743072509765625
-0.1259724646806717,0.5262635350227356,-0.0033338866196572,-0.6461495161056519,-0.1786623895168304,0.1327118128538131,0.0,0.0,0.3244311809539795,0.4300904273986816
-0.1259292662143707,0.5115026235580444,-0.0026079597882926,-0.6552231311798096,-0.1717166155576706,0.1389158219099044,0.0,0.0,0.4335232973098755,0.2754817008972168
-0.1257972717285156,0.4964692592620849,0.005552870221436,-0.6672846674919128,-0.1640588045120239,0.1531562209129333,0.0,0.0,0.8390147686004639,0.2055733203887939
-0.1256545037031173,0.4813295602798462,0.0063295541331171,-0.6720185875892639,-0.1561211049556732,0.1587542593479156,0.0,0.0,0.961272954940796,-0.1551775336265564
-0.1253904402256012,0.4669135212898254,0.018066169694066,-0.6398595571517944,-0.147783562541008,0.1667509078979492,0.0,0.0,0.7596555948257446,0.8447264432907104
-0.124852180480957,0.4530854225158691,0.0465283095836639,-0.6138770580291748,-0.1405126899480819,0.1454174816608429,0.0,0.0,0.5060464143753052,0.5435053110122681
-0.1242885589599609,0.439709335565567,0.049976423382759,-0.5939044952392578,-0.1341451555490493,0.1273507624864578,0.0,0.0,0.7249834537506104,0.0865049362182617
-0.1238241195678711,0.4262002408504486,0.0402296781539917,-0.5998564958572388,-0.1279492229223251,0.1239185184240341,0.0,0.0,0.35225510597229,0.0103247165679931
-0.123254582285881,0.4129733741283417,0.0501192808151245,-0.5872911214828491,-0.1211454048752784,0.1360761672258377,0.0,0.0,0.3484843969345093,0.2702863216400146
-0.1227192878723144,0.3997869193553924,0.0466060154139995,-0.5855194330215454,-0.1142673790454864,0.1375606954097747,0.0,0.0,0.6474988460540771,0.5980744361877441
-0.1221261024475097,0.3869381248950958,0.0532789938151836,-0.5706052780151367,-0.1082678139209747,0.1199913620948791,0.0,0.0,0.582173228263855,0.2277259826660156
-0.1214783638715744,0.3744158744812011,0.0583146139979362,-0.5560932159423828,-0.1018619462847709,0.1281174123287201,0.0,0.0,0.6674853563308716,0.7043498754501343
-0.1206252127885818,0.3620727658271789,0.0796067342162132,-0.5482044816017151,-0.0961965695023536,0.1133074164390564,0.0,0.0,0.5874158143997192,0.0655694007873535
-0.1197217926383018,0.349543422460556,0.0840592682361602,-0.5564674735069275,-0.0899649932980537,0.1246314868330955,0.0,0.0,0.583604097366333,-0.3144217133522033
-0.1186978369951248,0.336904764175415,0.095224417746067,-0.5612994432449341,-0.0828607827425003,0.1420841664075851,0.0,0.0,0.9116274118423462,0.717453122138977
-0.11738071590662,0.3245500922203064,0.125077337026596,-0.5487455129623413,-0.0762860849499702,0.1314937621355056,0.0,0.0,0.6007866859436035,-0.3300596475601196
-0.1159000396728515,0.3120778203010559,0.1403273642063141,-0.5539489388465881,-0.0686249583959579,0.1532220393419265,0.0,0.0,0.2665047645568847,0.1715861558914184
-0.1143833175301551,0.2997943758964538,0.1434848010540008,-0.5455787777900696,-0.0605223774909973,0.1620516180992126,0.0,0.0,0.3000850677490234,0.4106090068817138
-0.1128040328621864,0.2877291440963745,0.1491515934467315,-0.5359042882919312,-0.0518458448350429,0.1735304892063141,0.0,0.0,0.4788699150085449,0.4454572200775146
-0.1110792160034179,0.2758765816688537,0.1627132594585418,-0.5264719128608704,-0.0421928204596042,0.1930606514215469,0.0,0.0,0.5759961605072021,0.7312088012695312
-0.1091733947396278,0.263799637556076,0.1816050559282302,-0.5365248918533325,-0.0333341844379901,0.1771727502346038,0.0,0.0,0.7519116401672363,0.12185800075531
-0.1072999015450477,0.2518620789051056,0.1781779378652572,-0.5303828120231628,-0.0242737997323274,0.1812075823545456,0.0,0.0,0.8441712856292725,-0.0513489246368408
-0.1053020507097244,0.2406922876834869,0.1897088438272476,-0.4962989091873169,-0.0143178775906562,0.1991182416677475,0.0,0.0,0.5916832685470581,0.1014004945755004
-0.1033111587166786,0.2296727746725082,0.1886486709117889,-0.4896860420703888,-0.004008452873677,0.2061883509159088,0.0,0.0,0.262850284576416,-0.1804559230804443
-0.1014042869210243,0.2188934385776519,0.1802250444889068,-0.479083240032196,0.0063171791844069,0.2065128087997436,0.0,0.0,0.0863372087478637,-0.0176435708999633
-0.0994335189461708,0.2081305533647537,0.1858879476785659,-0.4784294664859772,0.0173623263835906,0.2209030836820602,0.0,0.0,0.6443395614624023,0.45852792263031
-0.0975184440612793,0.1978141367435455,0.18010875582695,-0.4586746096611023,0.0286142714321613,0.225038856267929,0.0,0.0,-0.1285876035690307,0.7868428230285645
-0.0955384224653244,0.1868336051702499,0.1875210255384445,-0.4882568717002868,0.0389670766890049,0.2070562839508056,0.0,0.0,0.8962743282318115,0.1562507152557373
-0.093596838414669,0.1760358214378357,0.1833522766828537,-0.4802129864692688,0.0496375560760498,0.2134098708629608,0.0,0.0,0.7185781002044678,0.3414413928985595
-0.0917944908142089,0.1654941588640213,0.1695588380098343,-0.4689024686813354,0.0601944774389267,0.2111384868621826,0.0,0.0,0.8374282121658325,0.6499712467193604
-0.0901416763663292,0.1551394760608673,0.1559162735939026,-0.4606119692325592,0.0694527104496955,0.1851647943258285,0.0,0.0,0.7271602153778076,0.9175156354904176
-0.0883310288190841,0.1452623009681701,0.1729197353124618,-0.4393846094608307,0.0775168910622596,0.161283791065216,0.0,0.0,0.6605038642883301,0.9776837825775146
-0.0863867774605751,0.1352755427360534,0.1877147853374481,-0.4442170262336731,0.0841639265418052,0.1329405009746551,0.0,0.0,0.8722851276397705,-0.5002464652061462
-0.0843653678894043,0.125929370522499,0.193451315164566,-0.4158999621868133,0.0927649736404419,0.1720207631587982,0.0,0.0,0.8582686185836792,0.6293981075286865
-0.0823864936828613,0.1172226294875145,0.1901180893182754,-0.3874682486057281,0.1004739329218864,0.1541791707277298,0.0,0.0,0.5238597393035889,-0.2795064449310303
-0.0803381949663162,0.1090394556522369,0.1959967315196991,-0.364309012889862,0.10922422260046,0.1750058829784393,0.0,0.0,0.0707532167434692,-0.8162059187889099
-0.078320026397705,0.1007434949278831,0.1909131109714508,-0.3695440590381622,0.1200544685125351,0.2166051566600799,0.0,0.0,0.7176551818847656,0.0835969448089599
-0.0763927474617958,0.0930386185646057,0.1814595460891723,-0.3433820009231567,0.1312762051820755,0.2244346439838409,0.0,0.0,0.6373567581176758,-0.0367173552513122
-0.0744890198111534,0.0858349874615669,0.1783997118473053,-0.3212595283985138,0.1431986093521118,0.2384483069181442,0.0,0.0,0.5278136730194092,0.4924260377883911
-0.0725529640913009,0.0786056816577911,0.1809038817882537,-0.3225744366645813,0.1558845937252044,0.2537196576595306,0.0,0.0,0.3861339092254638,0.8507648706436157
-0.0707262977957725,0.0714640021324157,0.1713971495628357,-0.3186300694942474,0.1671532988548278,0.2253738194704055,0.0,0.0,0.6701158285140991,0.795009970664978
-0.0690451636910438,0.0643982738256454,0.1583092361688614,-0.3151630163192749,0.1769809573888778,0.1965532004833221,0.0,0.0,0.5861074924468994,0.5276868343353271
-0.0674194321036338,0.0574648715555667,0.1534753441810608,-0.3092621564865112,0.1860998123884201,0.1823771446943283,0.0,0.0,0.9421389102935792,0.8904186487197876
-0.0657867416739463,0.0508111342787742,0.1555108577013015,-0.2967160940170288,0.1938994526863098,0.1559930145740509,0.0,0.0,0.9744863510131836,0.3543351888656616
-0.0640624985098838,0.0441630445420742,0.1635534167289734,-0.2966527640819549,0.2028186619281768,0.1783841550350189,0.0,0.0,0.9801819324493408,0.5917017459869385
-0.0623148903250694,0.0381015390157699,0.16636323928833,-0.2705722153186798,0.2112872451543808,0.1693716198205948,0.0,0.0,0.929059624671936,-0.4302985072135925
-0.0607145316898822,0.0327587947249412,0.1511241644620895,-0.238751471042633,0.2202787101268768,0.1798295825719833,0.0,0.0,0.8696844577789307,-0.5876891613006592
-0.0591389648616313,0.0272650569677352,0.1469214856624603,-0.2457907944917678,0.2310489416122436,0.215404987335205,0.0,0.0,0.9903666973114014,0.1559185981750488
