x_pos,y_pos,x_vel,y_vel,angle,ang_vel,leg_1,leg_2,main_booster,lat_booster
-0.0015216827159747,1.403454303741455,-0.1541403084993362,-0.3318158686161041,0.0017698195297271,0.0349118411540985,0.0,0.0,-0.0885085246521639,0.5072364555993314
-0.0029970169998705,1.395838975906372,-0.1481960117816925,-0.3384572863578796,0.0024160090833902,0.0129260318353772,0.0,0.0,-0.5623322926152989,-0.5892343515825619
-0.0045042992569506,1.388048768043518,-0.1523190885782241,-0.346244066953659,0.0039910958148539,0.0315046086907386,0.0,0.0,0.0307323113578419,-0.7817607279811869
-0.0061554908752441,1.3805521726608276,-0.1682463586330413,-0.3331892192363739,0.0070925545878708,0.0620346590876579,0.0,0.0,-0.326793055638982,0.6396667622637862
-0.0077389716170728,1.372888207435608,-0.1599829345941543,-0.3406340777873993,0.0086999703198671,0.0321513675153255,0.0,0.0,0.5348092014147399,-0.6861151469136757
-0.0092333797365427,1.3658108711242676,-0.1527989208698272,-0.314567357301712,0.0120197599753737,0.0664021670818328,0.0,0.0,-0.7851059076807458,-0.7885685647790552
-0.010783290490508,1.358562469482422,-0.1600465923547744,-0.3222047388553619,0.0170200131833553,0.1000141873955726,0.0,0.0,0.662840286668753,0.6023501599699145
-0.0121246334165334,1.3521279096603394,-0.1384797394275665,-0.2860399782657623,0.021319905295968,0.0860055238008499,0.0,0.0,-0.7143934218924548,0.9877943848293492
-0.0133784292265772,1.345536231994629,-0.12786865234375,-0.2930024266242981,0.0237824916839599,0.0492563545703887,0.0,0.0,-0.9128611343152042,-0.627331749957576
-0.0146689414978027,1.3387765884399414,-0.1328870356082916,-0.3004893064498901,0.0275796372443437,0.0759500563144683,0.0,0.0,0.3413841146512628,0.8186751485839687
-0.0158148761838674,1.3325772285461426,-0.1169953942298889,-0.2755729556083679,0.0299508664757013,0.0474288389086723,0.0,0.0,-0.521715434366061,0.6493517840066924
-0.0168880466371774,1.3262088298797607,-0.1083732098340988,-0.2830615639686584,0.0309904776513576,0.0207942780107259,0.0,0.0,-0.6715051553637967,0.597151542554144
-0.0178872104734182,1.3196760416030884,-0.0996172055602073,-0.290341854095459,0.0307034980505704,-0.0057401861995458,0.0,0.0,0.3970415578398216,-0.7299735273756554
-0.0188694950193166,1.3134167194366455,-0.0996383652091026,-0.2782160341739654,0.0320957973599433,0.0278484281152486,0.0,0.0,0.0603048140329254,-0.5678599404811884
-0.0197930335998535,1.3077890872955322,-0.0951825901865959,-0.2501789927482605,0.0349028706550598,0.0561465322971344,0.0,0.0,-0.82354682711014,-0.8341988575830708
-0.0207489971071481,1.3019787073135376,-0.0999315157532692,-0.2583430409431457,0.0391984023153781,0.085918016731739,0.0,0.0,0.9851187566084784,-0.5732140023116323
-0.0215922351926565,1.297553777694702,-0.0904757529497146,-0.1968421638011932,0.0452866628766059,0.1217763796448707,0.0,0.0,0.1796504625979325,0.7126571806156066
-0.02225236967206,1.2933650016784668,-0.071023091673851,-0.1863200068473816,0.0502460338175296,0.0991961359977722,0.0,0.0,-0.5746510933744571,-0.9371389764922228
-0.0229494087398052,1.289011001586914,-0.0764436870813369,-0.1937543600797653,0.0569154135882854,0.1333995014429092,0.0,0.0,-0.1096928712059932,0.7648895785941083
-0.0235674865543842,1.2844914197921753,-0.0673647299408912,-0.2010910362005233,0.0624207369983196,0.1101162284612655,0.0,0.0,-0.4060272546477383,-0.6791594826636878
-0.0241997726261615,1.2798032760620115,-0.0700188726186752,-0.2086613774299621,0.0691482871770858,0.1345631182193756,0.0,0.0,-0.1390935308415553,0.7163244100128061
-0.0247447006404399,1.2749474048614502,-0.0599773302674293,-0.2160790264606475,0.0745851993560791,0.1087482795119285,0.0,0.0,-0.4670614564479776,0.5406891009305181
-0.0252067558467388,1.2699267864227295,-0.0505322627723217,-0.2233584970235824,0.0788808092474937,0.0859196111559867,0.0,0.0,0.4086806926335675,0.5976681845176335
-0.0255450252443552,1.2651410102844238,-0.0372574999928474,-0.2128870636224746,0.0822961777448654,0.0683135911822319,0.0,0.0,-0.614926292344808,-0.5897224240210874
-0.025906752794981,0.0,-0.0412601716816425,-0.2207830846309662,0.0873349383473396,0.1007843762636184,0.0,0.0,-0.8626819977590103,0.812821164589818
-0.026183795183897,1.2550383806228638,-0.0317204818129539,-0.2287552952766418,0.0913194119930267,0.0796895772218704,0.0,0.0,-0.2563005193393686,-0.620985216152431
-0.0264729503542184,1.249724268913269,-0.0343544594943523,-0.2365228980779647,0.0967103019356727,0.1078178435564041,0.0,0.0,-0.5560564350502104,0.6132677727205338
-0.026686668395996,1.2442524433135986,-0.0260277204215526,-0.2435020059347152,0.1013220846652984,0.0922356396913528,0.0,0.0,0.3893025638924672,0.9821910017012132
-0.0269762985408306,1.2395833730697632,-0.031724315136671,-0.2076986581087112,0.1040716394782066,0.0549911372363567,0.0,0.0,-0.2966229019997046,0.8447753518918615
-0.0271608345210552,1.234751582145691,-0.0197755526751279,-0.2148447781801223,0.1053807586431503,0.0261820945888757,0.0,0.0,0.6844798645524814,0.8101014450017994
-0.0273102764040231,1.2310597896575928,-0.0148621853440999,-0.1640692502260208,0.1052945852279663,-0.0017235312843695,0.0,0.0,-0.9831976294517516,0.9846196174621582
-0.0273489002138376,1.227203130722046,-0.002237597014755,-0.171292170882225,0.1036877334117889,-0.0321372784674167,0.0,0.0,-0.9236356616020204,0.9762915372848512
-0.0272776596248149,1.223196268081665,0.0102549865841865,-0.177875280380249,0.1005856618285179,-0.0620417967438697,0.0,0.0,-0.7891276478767395,0.8354122638702393
-0.027101706713438,1.219020962715149,0.0220344178378582,-0.1852806508541107,0.0961859971284866,-0.0879935100674629,0.0,0.0,-0.9162583351135254,0.2027223110198974
-0.0268792156130075,1.2146759033203125,0.0264942236244678,-0.1928477436304092,0.0919759720563888,-0.0842005312442779,0.0,0.0,-0.9331904649734496,0.3986387252807617
-0.0266092307865619,1.2101610898971558,0.0310617424547672,-0.2004146128892898,0.0879559591412544,-0.080400139093399,0.0,0.0,-0.9623916745185852,0.1213114261627197
-0.0262905117124319,1.2054764032363892,0.0357336290180683,-0.2079813033342361,0.084126129746437,-0.0765966400504112,0.0,0.0,-0.931571364402771,-0.4402337074279785
-0.0259222034364938,1.2006220817565918,0.040506474673748,-0.2155478000640869,0.0804864168167114,-0.0727942436933517,0.0,0.0,-0.9710177183151244,0.1976730823516845
-0.0255033485591411,1.1955978870391846,0.0453768223524093,-0.2231141179800033,0.0770365670323371,-0.0689970403909683,0.0,0.0,-0.9578542113304138,0.7204546928405762
-0.0249733924865722,1.1904116868972778,0.0578042641282081,-0.2302553206682205,0.0722735896706581,-0.0952597185969352,0.0,0.0,-0.980725646018982,0.031825304031372
-0.0243910793215036,1.1850558519363403,0.0628591999411583,-0.2378222793340683,0.0676993504166603,-0.0914849489927291,0.0,0.0,-0.8515169024467468,-0.0518722534179687
-0.0237554553896188,1.179530382156372,0.0680010840296745,-0.2453890442848205,0.0633129850029945,-0.0877272933721542,0.0,0.0,-0.9592952728271484,0.217592716217041
-0.0230656620115041,1.1738349199295044,0.0732263922691345,-0.2529555857181549,0.0591134652495384,-0.0839906185865402,0.0,0.0,-0.9880983233451844,0.5670857429504395
-0.0222686771303415,1.167973279953003,0.0850842371582984,-0.2603150606155395,0.0537849552929401,-0.1065702214837074,0.0,0.0,-0.9053176045417786,-0.923850119113922
-0.021493624895811,1.1619246006011963,0.0807265937328338,-0.2687194645404815,0.0506053082644939,-0.063592717051506,0.0,0.0,-0.9449154138565063,0.7704465389251709
-0.0205963142216205,1.1557031869888306,0.0944309532642364,-0.276356041431427,0.0459595993161201,-0.0929142609238624,0.0,0.0,-0.9778327345848083,-0.85781329870224
-0.0197026245296001,1.149302959442139,0.092322826385498,-0.2843653857707977,0.0430292785167694,-0.0586063452064991,0.0,0.0,-0.9636244773864746,-0.6244361400604248
-0.0188101772218942,1.1427356004714966,0.0905435159802436,-0.2918439507484436,0.0417508967220783,-0.0255677066743373,0.0,0.0,-0.8896763324737549,-0.5374783873558044
-0.0179114341735839,1.1359997987747192,0.0896767303347587,-0.2993792593479156,0.0419533438980579,0.0040488084778189,0.0,0.0,-0.9192408919334412,0.4125816822052002
-0.0169537551701068,1.129093885421753,0.0953894853591919,-0.30694380402565,0.0423302389681339,0.0075376415625214,0.0,0.0,-0.9431780576705932,-0.0074479579925537
-0.0159365646541118,1.1220176219940186,0.1011586561799049,-0.3145083785057068,0.0428791083395481,0.0109772030264139,0.0,0.0,-0.9491655230522156,0.3813999891281128
-0.0148594854399561,1.114771604537964,0.1069810763001442,-0.3220729529857635,0.0435973070561885,0.014364187605679,0.0,0.0,-0.9009641408920288,-0.0213567018508911
-0.0137219429016113,1.1073552370071411,0.1128536909818649,-0.3296375572681427,0.0444820821285247,0.0176952872425317,0.0,0.0,-0.7557684779167175,-0.5199323296546936
-0.0125646591186523,1.0997709035873413,0.11362936347723,-0.3371414244174957,0.046558566391468,0.0415298677980899,0.0,0.0,-0.8250162601470947,0.8713631629943848
-0.0112600326538085,1.0920193195343018,0.1303851902484893,-0.344517171382904,0.0466333590447902,0.0014957771636545,0.0,0.0,-0.6661232709884644,-0.3779782056808471
-0.0098937032744288,1.0840975046157837,0.1363905072212219,-0.3520817160606384,0.0468653589487075,0.0046399151906371,0.0,0.0,-0.7318307161331177,-0.2694696187973022
-0.0084654809907078,1.0760058164596558,0.1424343287944793,-0.3596462905406952,0.0472511351108551,0.0077155022881925,0.0,0.0,-0.7390144467353821,-0.3272544145584106
-0.0069749830290675,1.0677440166473389,0.148513838648796,-0.3672108650207519,0.0477871261537075,0.0107195880264043,0.0,0.0,-0.5256421566009521,-0.6422312259674072
-0.0054664611816406,1.0593154430389404,0.1490262001752853,-0.3746595978736877,0.0495876781642437,0.0360112711787223,0.0,0.0,-0.653503954410553,-0.4876147508621216
-0.0038949965965002,1.050716996192932,0.1551690250635147,-0.3822244107723236,0.0515308529138565,0.0388635396957397,0.0,0.0,-0.9469377994537354,-0.6472164392471313
-0.0023071288596838,1.0419390201568604,0.1554863154888153,-0.3902406394481659,0.0547920875251293,0.0652246251702308,0.0,0.0,-0.8893923163414001,-0.4786931872367859
-0.0006559371831826,1.0329914093017578,0.1616819649934768,-0.3978060483932495,0.0581877939403057,0.0679141134023666,0.0,0.0,-0.9681486487388612,-0.861303448677063
0.0010046958923339,1.0238670110702517,0.1611219346523285,-0.4057317972183227,0.0630767866969108,0.0977798327803611,0.0,0.0,-0.8804414868354797,-0.0863877534866333
0.0027290345169603,1.0145728588104248,0.167360320687294,-0.4132984280586242,0.0680916011333465,0.1002963781356811,0.0,0.0,-0.8476687073707581,-0.3252790570259094
0.0045170783996582,1.0051088333129885,0.173616275191307,-0.4208651483058929,0.0732277557253837,0.102723017334938,0.0,0.0,-0.9230301976203918,-0.6986109018325806
0.0063025476410984,0.9954684972763062,0.1715449839830398,-0.42882239818573,0.0801576301455497,0.1385975778102874,0.0,0.0,-0.7651197910308838,-0.4211945533752441
0.008151913061738,0.985658586025238,0.1778289377689361,-0.4363910853862762,0.0871995240449905,0.14083793759346,0.0,0.0,-0.8010538220405579,0.1370141506195068
0.0100653646513819,0.975679337978363,0.1841231286525726,-0.4439599812030792,0.0943486467003822,0.1429824233055114,0.0,0.0,-0.908170759677887,-0.0453609228134155
0.0120427133515477,0.9655308723449708,0.1904251426458358,-0.4515289962291717,0.1016001030802726,0.1450294405221939,0.0,0.0,-0.9128615260124208,-0.8194429278373718
0.0140097616240382,0.9551981687545776,0.1873964518308639,-0.4598924815654754,0.1108395159244537,0.1847878992557525,0.0,0.0,-0.8181129097938538,0.1593966484069824
0.0160408020019531,0.9446964859962464,0.1937071532011032,-0.4674644470214844,0.1201712638139724,0.1866351217031479,0.0,0.0,-0.9495249390602112,-0.3754696846008301
0.018135642632842,0.9340258836746216,0.2000183165073394,-0.4750365316867828,0.1295903176069259,0.1883811056613922,0.0,0.0,-0.9649763107299804,-0.3667217493057251
0.0202942844480276,0.9231866002082824,0.2063273936510086,-0.4826087355613708,0.1390915662050247,0.1900248676538467,0.0,0.0,-0.5498859882354736,-0.1545053124427795
0.0225166324526071,0.91217839717865,0.2126318961381912,-0.4901810586452484,0.1486698687076568,0.1915657073259353,0.0,0.0,-0.8709419965744019,-0.6081986427307129
0.0247528068721294,0.9009854793548584,0.2126679867506027,-0.4985922574996948,0.1596070677042007,0.2187439948320388,0.0,0.0,-0.7066214680671692,0.1561958789825439
0.0270523075014352,0.8896242380142212,0.2189557552337646,-0.5061669945716858,0.1706109344959259,0.2200773209333419,0.0,0.0,-0.657908022403717,-0.5575076937675476
0.0293699260801076,0.8780772686004639,0.2195508033037185,-0.5146450400352478,0.1828553229570388,0.2448881417512893,0.0,0.0,-0.5477405190467834,-0.1623120903968811
0.031750489026308,0.8663622736930847,0.2258111238479614,-0.5222221612930298,0.1951560527086258,0.246014267206192,0.0,0.0,-0.5626385807991028,-0.4251261353492737
0.0341936126351356,0.8544792532920837,0.2320530861616134,-0.5297994017601013,0.20750792324543,0.247037723660469,0.0,0.0,-0.3000683784484863,0.041539192199707
0.03669910505414,0.8424280881881714,0.2382736951112747,-0.5373767018318176,0.2199058979749679,0.2479592859745025,0.0,0.0,-0.1685875654220581,-0.1305037140846252
0.0392666831612587,0.8302087783813477,0.2444697320461273,-0.5449539422988892,0.2323448956012725,0.2487800568342209,0.0,0.0,-0.446333110332489,0.3162178993225097
0.0418958663940429,0.8178214430809021,0.250637948513031,-0.5525312423706055,0.2448199689388275,0.2495010793209076,0.0,0.0,-0.4228304624557495,-0.2688344120979309
0.0445863716304302,0.8052660822868347,0.2567749619483948,-0.560108482837677,0.2573261559009552,0.2501238882541656,0.0,0.0,-0.2955633401870727,0.3662816286087036
0.0473377220332622,0.7925426959991455,0.2628770470619201,-0.5676856637001038,0.2698586583137512,0.2506501674652099,0.0,0.0,-0.1636722087860107,0.6033098697662354
0.0501937866210937,0.7796725630760193,0.2745481133460998,-0.5740867257118225,0.2812118530273437,0.2270639240741729,0.0,0.0,0.309562087059021,0.6244961023330688
0.0531025901436805,0.7673508524894714,0.2809219658374786,-0.5495866537094116,0.291450947523117,0.2047819644212722,0.0,0.0,0.2022545337677002,-0.6426957249641418
0.0559703819453716,0.7551984786987305,0.2755575180053711,-0.5423831939697266,0.3030431568622589,0.2318441867828369,0.0,0.0,-0.3368593454360962,0.5567038059234619
0.058946419507265,0.7428964972496033,0.2876524329185486,-0.5488613247871399,0.3133399784564972,0.2059364020824432,0.0,0.0,0.6861264705657959,0.1610056161880493
0.0619439110159873,0.7313268184661865,0.2891702651977539,-0.5165311694145203,0.3243352174758911,0.2199049890041351,0.0,0.0,0.6246095895767212,-0.3512459397315979
0.0650053024291992,0.7202056050300598,0.2950015962123871,-0.4968219101428985,0.3359643220901489,0.2325819432735443,0.0,0.0,0.690673828125,-0.0147680044174194
0.0678647980093956,0.7100016474723816,0.2748759388923645,-0.456130176782608,0.3475624024868011,0.2319614589214325,0.0,0.0,0.8555874824523926,-0.0080025196075439
0.0705228820443153,0.7008483409881592,0.2546423971652984,-0.4095503687858581,0.3593133389949798,0.2350184470415115,0.0,0.0,0.8387619256973267,0.9224817752838136
0.0731862038373947,0.6926912665367126,0.2567737698554992,-0.3649554848670959,0.3694035708904266,0.2018045485019683,0.0,0.0,0.7762181758880615,0.8787270784378052
0.0759559646248817,0.6849498152732849,0.2689762115478515,-0.3461496233940124,0.3778814673423767,0.1695579141378402,0.0,0.0,0.8629018068313599,0.6440906524658203
0.0785559639334678,0.6778305768966675,0.2534345984458923,-0.3181667625904083,0.38485848903656,0.1395407766103744,0.0,0.0,0.9002166986465454,0.6867536306381226
0.0809813514351844,0.6720181107521057,0.237111285328865,-0.2598070502281189,0.3906388878822326,0.1156079620122909,0.0,0.0,0.7901438474655151,0.428633451461792
0.0832002609968185,0.6668767333030701,0.2166179418563842,-0.2299689352512359,0.396278828382492,0.1127989664673805,0.0,0.0,0.8481138944625854,0.9426746368408204
0.0850498229265213,0.6627579927444458,0.1817726641893386,-0.1839540898799896,0.3996917307376861,0.0682580396533012,0.0,0.0,0.6034928560256958,0.8788579702377319
0.0868347138166427,0.6595039963722229,0.1769139617681503,-0.1450585424900055,0.401380717754364,0.0337805896997451,0.0,0.0,0.7571151256561279,0.8816161155700684
0.0883600264787674,0.6571911573410034,0.1527846902608871,-0.1027250587940216,0.401105672121048,-0.0055010928772389,0.0,0.0,0.7111542224884033,0.8604459762573242
0.0896025672554969,0.6557685136795044,0.1263391077518463,-0.0626404136419296,0.3988582491874695,-0.0449475981295108,0.0,0.0,0.4083646535873413,0.9584096670150756
0.0907732024788856,0.6547891497612,0.12106404453516,-0.0424143560230731,0.3945829570293426,-0.0855065137147903,0.0,0.0,0.2475752830505371,0.9442265033721924
0.0917866677045822,0.6542531847953796,0.1072377189993858,-0.0222026295959949,0.388290524482727,-0.1258486062288284,0.0,0.0,-0.2906470894813537,0.8837445974349976
0.0928908362984657,0.6535751223564148,0.117643728852272,-0.0281872991472482,0.3805960416793823,-0.1538894474506378,0.0,0.0,-0.5977794528007507,0.8887070417404175
0.0941100120544433,0.6527783274650574,0.1312423199415207,-0.0329653322696685,0.3707039356231689,-0.1978422105312347,0.0,0.0,-0.6825125217437744,0.9528906345367432
0.0954464897513389,0.6518494486808777,0.145070731639862,-0.0383607186377048,0.3586240708827972,-0.2415971308946609,0.0,0.0,-0.8776119947433472,0.8404346704483032
0.0968940705060958,0.6508017778396606,0.1583334654569625,-0.0432378090918064,0.3443573415279388,-0.2853343188762665,0.0,0.0,-0.9615660309791564,0.4301114082336426
0.0983757004141807,0.6495862603187561,0.1618405133485794,-0.0508166961371898,0.3300532400608063,-0.2860827147960663,0.0,0.0,-0.8184924721717834,0.3080366849899292
0.0998891815543174,0.6482030749320984,0.1651313602924347,-0.0583957955241203,0.3157121837139129,-0.2868219017982483,0.0,0.0,-0.9495813250541688,0.2899351119995117
0.1014324203133583,0.6466521620750427,0.1681952178478241,-0.0659751296043396,0.3013348877429962,-0.2875452637672424,0.0,0.0,-0.9868160486221312,0.5148370265960693
0.1030401214957237,0.6449565291404724,0.175746351480484,-0.0723356902599334,0.2858821451663971,-0.3090547025203705,0.0,0.0,-0.6898980140686035,0.6308066844940186
0.1047238335013389,0.6431223750114441,0.1848401874303817,-0.0783840492367744,0.2689805924892425,-0.3380312621593475,0.0,0.0,-0.9217666983604432,0.2341885566711425
0.106429673731327,0.6411216259002686,0.1871621012687683,-0.085970290005207,0.2520474195480346,-0.3386639058589935,0.0,0.0,-0.6937732100486755,0.0232800245285034
0.1081550568342208,0.6389544010162354,0.1892153024673462,-0.0935568138957023,0.2350847423076629,-0.3392536044120788,0.0,0.0,-0.8356198072433472,-0.4397104978561401
0.1098973304033279,0.6366204023361206,0.1909903883934021,-0.1011436209082603,0.218095064163208,-0.3397934436798095,0.0,0.0,-0.4226737022399902,-0.5589763522148132
0.1116090789437294,0.6341045498847961,0.1868688762187957,-0.1095741912722587,0.2022469937801361,-0.3169612884521484,0.0,0.0,-0.9895215630531312,-0.7735510468482971
0.1132749542593956,0.6314024329185486,0.1808783113956451,-0.118205040693283,0.1878664493560791,-0.2876107394695282,0.0,0.0,-0.9818268418312072,-0.469208300113678
0.1149491295218467,0.6285328269004822,0.181767389178276,-0.125785693526268,0.1734682470560073,-0.2879639267921448,0.0,0.0,0.5417439937591553,-0.6237992644309998
0.1165671348571777,0.6264537572860718,0.1747300922870636,-0.0909438356757164,0.1605229675769806,-0.2589054703712463,0.0,0.0,-0.9992205500602722,-0.6615462899208069
0.1181372627615928,0.624200701713562,0.1687144488096237,-0.098913699388504,0.1488334983587265,-0.2337898015975952,0.0,0.0,-0.999259889125824,-0.953165590763092
0.1196411103010177,0.6217536330223083,0.1603965014219284,-0.1077919453382492,0.1388490200042724,-0.1996891945600509,0.0,0.0,-0.8203401565551758,-0.231212317943573
0.1211411505937576,0.619137704372406,0.1600255519151687,-0.1153641417622566,0.1288637369871139,-0.199705570936203,0.0,0.0,-0.9932733178138732,-0.9343211650848388
