x_pos,y_pos,x_vel,y_vel,angle,ang_vel,leg_1,leg_2,main_booster,lat_booster
-0.001544666243717,1.4030146598815918,-0.1567207872867584,-0.3513534367084503,0.0020149445626884,0.0397656336426734,0.0,0.0,-0.7775863517796393,0.5830257973833968
-0.0030611038673669,1.3945198059082031,-0.1525953412055969,-0.3775468170642853,0.0029570192564278,0.018843887373805,0.0,0.0,-0.9087895397327206,-0.5428667856362215
-0.004632091615349,1.3854107856750488,-0.1591345965862274,-0.4048566818237304,0.0049656806513667,0.0401773266494274,0.0,0.0,-0.3019241340955876,0.6438962599315297
-0.0061839101836085,1.37568998336792,-0.1564210504293441,-0.4320399165153503,0.0061829797923564,0.0243485197424888,0.0,0.0,-0.172398118395775,-0.6747483202990108
-0.0077991485595703,1.3653610944747925,-0.164051666855812,-0.4590708315372467,0.0086838025599718,0.0500212796032428,0.0,0.0,0.2988735128676769,0.9738229458823902
-0.0092378612607717,1.3550642728805542,-0.144764706492424,-0.457644522190094,0.0095683680847287,0.0176930632442235,0.0,0.0,0.0877465885016284,-0.8037304539439932
-0.0107824327424168,1.3447266817092896,-0.157187134027481,-0.4594683349132538,0.0122686941176652,0.0540116615593433,0.0,0.0,-0.5549505701860993,0.8568439366056642
-0.0122647285461425,1.3337833881378174,-0.1490598618984222,-0.4863768517971039,0.0130873918533325,0.0163753274828195,0.0,0.0,-0.4295552304375778,-0.6891067796893331
-0.0138242719694972,1.3222368955612185,-0.1584382057189941,-0.5132056474685669,0.0155364032834768,0.0489851124584674,0.0,0.0,-0.7801919029104105,-0.8692479727556981
-0.0154745103791356,1.310084581375122,-0.1694850623607635,-0.5401576161384583,0.0199463609606027,0.0882072746753692,0.0,0.0,0.0329155880421969,0.6504467363887871
-0.0170418731868267,1.2978838682174685,-0.1602017432451248,-0.5423032641410828,0.0233766306191682,0.0686118751764297,0.0,0.0,-0.288027339762448,-0.5932912795482022
-0.0186726562678813,1.2850708961486816,-0.1678328961133957,-0.5695472359657288,0.0280854105949401,0.0941838547587394,0.0,0.0,-0.7817064255548742,0.9186495182967244
-0.020237635821104,1.2716567516326904,-0.1592622846364975,-0.596234917640686,0.0308178197592496,0.0546530596911907,0.0,0.0,0.2929010346296179,0.6226095042238998
-0.0217245109379291,1.2580488920211792,-0.1505636423826217,-0.6048308610916138,0.0326715111732482,0.0370772406458854,0.0,0.0,-0.5291830346249224,0.5024881776491785
-0.0231847763061523,1.243838906288147,-0.146907776594162,-0.6315736770629883,0.0335358902812004,0.0172893516719341,0.0,0.0,0.9326892101360056,-0.6057319477232772
-0.0245897285640239,1.229538083076477,-0.1432200074195861,-0.635658323764801,0.036230482161045,0.0538964085280895,0.0,0.0,0.6286371292829,0.6808165927218903
-0.0258460044860839,1.2159104347229004,-0.127558946609497,-0.6057206392288208,0.0381427370011806,0.0382486246526241,0.0,0.0,0.5326316062136804,-0.7564660883571479
-0.0270512588322162,1.2021926641464231,-0.1244832873344421,-0.6097881197929382,0.0420662611722946,0.0784777104854583,0.0,0.0,0.131954943973944,0.850209363322742
-0.0281577110290527,1.188706636428833,-0.1131953746080398,-0.5994503498077393,0.0445812046527862,0.0503033809363842,0.0,0.0,-0.1259509105634544,0.5378201049603477
-0.0292497631162405,1.174613118171692,-0.1110657304525375,-0.6264336705207825,0.0464155487716198,0.0366902276873588,0.0,0.0,0.5957120505520341,-0.7549305217140949
-0.0303220748901367,1.1610090732574463,-0.1111001223325729,-0.6047473549842834,0.0502509474754333,0.0767150074243545,0.0,0.0,0.1361694307011145,0.68044743986028
-0.031369112432003,1.1472522020339966,-0.107469841837883,-0.611516535282135,0.0529886335134506,0.0547586008906364,0.0,0.0,-0.9046722062007816,-0.8709347422831386
-0.0324925407767295,1.1328802108764648,-0.1167251840233802,-0.6389138102531433,0.057331308722496,0.0868612006306648,0.0,0.0,0.8632677915340654,0.5760493730536473
-0.0335289016366004,1.1184309720993042,-0.1073490381240844,-0.6423405408859253,0.0610061921179294,0.0735041871666908,0.0,0.0,-0.6472710857002337,-0.8582268552627261
-0.0346716865897178,1.1033669710159302,-0.1203633770346641,-0.6697732210159302,0.0670371800661087,0.1206304281949997,0.0,0.0,0.0750570048337175,-0.7005702687135383
-0.0360301956534385,1.0883455276489258,-0.1434959173202514,-0.6679811477661133,0.0746059939265251,0.1513762027025222,0.0,0.0,0.3341589092110071,0.5402445758170933
-0.0374090187251567,1.073601245880127,-0.1446936726570129,-0.6556559205055237,0.0813514441251754,0.134908989071846,0.0,0.0,-0.4560935419284986,-0.959994974123065
-0.0389029495418071,1.0582470893859863,-0.1587969958782196,-0.6829496026039124,0.0906672477722168,0.1863159835338592,0.0,0.0,0.868170719084083,-0.719314709535161
-0.040714930742979,1.043569564819336,-0.1919083297252655,-0.6530179381370544,0.1012884899973869,0.2124247550964355,0.0,0.0,0.7184806092868683,-0.8986473602615113
-0.0426953323185443,1.0290234088897705,-0.2107568085193634,-0.6474058032035828,0.1139099970459938,0.2524302303791046,0.0,0.0,0.6794032232554572,0.8560610436549843
-0.0447085388004779,1.0151772499084473,-0.2125830650329589,-0.6162923574447632,0.1250999420881271,0.2237990349531173,0.0,0.0,-0.9989343881607056,0.9233466386795044
-0.0466808304190635,1.0007294416427612,-0.2070992439985275,-0.6429799795150757,0.1349324434995651,0.196649745106697,0.0,0.0,-0.9966712594032288,0.8914391994476318
-0.0486160293221473,0.9856941103935242,-0.2020863741636276,-0.6690381169319153,0.1434693932533264,0.1707392185926437,0.0,0.0,-0.9890102744102478,0.6419177055358887
-0.0505281463265419,0.9700541496276855,-0.1988706439733505,-0.6958616375923157,0.1511071473360061,0.1527551114559173,0.0,0.0,-0.8865693807601929,0.9702043533325196
-0.0523850433528423,0.9538254141807556,-0.1915872693061828,-0.7218887209892273,0.1569956243038177,0.1177694424986839,0.0,0.0,-0.883464515209198,0.9896948337554932
-0.0541855804622173,0.9370139241218568,-0.1841402798891067,-0.747614860534668,0.1610842049121856,0.0817712321877479,0.0,0.0,-0.934657096862793,0.9889817237854004
-0.0559340491890907,0.9196063280105592,-0.177289605140686,-0.7739384174346924,0.1635265350341797,0.0488464161753654,0.0,0.0,0.4091562032699585,0.991579294204712
-0.0576971992850303,0.9025861024856568,-0.1770283132791519,-0.7565301060676575,0.1642476469278335,0.0144221130758523,0.0,0.0,-0.570209801197052,0.9979228973388672
-0.0594110488891601,0.8849858045578003,-0.170479416847229,-0.7821387648582458,0.1633382737636566,-0.0181875582784414,0.0,0.0,0.8479604721069336,0.9942338466644288
-0.0611454956233501,0.8678115010261536,-0.170840784907341,-0.7630155086517334,0.1607334613800048,-0.0520958192646503,0.0,0.0,0.3863275051116943,0.9997270107269288
-0.063031867146492,0.8509979844093323,-0.1842132210731506,-0.7467947602272034,0.156305730342865,-0.0885542556643486,0.0,0.0,-0.8838879466056824,0.9972456693649292
-0.0648464187979698,0.8335955142974854,-0.1748593747615814,-0.7727612257003784,0.1497170478105545,-0.1317737847566604,0.0,0.0,-0.9376614689826964,0.988162875175476
-0.0665923133492469,0.8155941367149353,-0.1659345924854278,-0.7992160320281982,0.1410808265209198,-0.1727245450019836,0.0,0.0,-0.9564436674118042,0.9772012233734132
-0.0682710632681846,0.7970017790794373,-0.1571702659130096,-0.8253545165061951,0.1304116398096084,-0.2133830785751342,0.0,0.0,-0.9832210540771484,0.9073605537414552
-0.0699047073721885,0.7778038382530212,-0.1511865258216858,-0.8522135019302368,0.1182983517646789,-0.2422659695148468,0.0,0.0,-0.1509792804718017,0.8049664497375488
-0.0714917182922363,0.7580028772354126,-0.1450122743844986,-0.8790146112442017,0.1046995967626571,-0.2719753384590149,0.0,0.0,0.9099037647247314,0.6820070743560791
-0.0730252265930175,0.7383823990821838,-0.1387070119380951,-0.8710578083992004,0.0901699885725975,-0.290592223405838,0.0,0.0,0.6184452772140503,0.1723095178604126
-0.0747638717293739,0.7193605899810791,-0.1589291393756866,-0.8445777893066406,0.0753696709871292,-0.2960066795349121,0.0,0.0,-0.1618773341178894,0.3587918281555176
-0.0765245407819747,0.69973224401474,-0.161339059472084,-0.8716987371444702,0.0608070269227027,-0.2912527024745941,0.0,0.0,0.6346585750579834,0.3983739614486694
-0.078358270227909,0.6802485585212708,-0.1687886863946914,-0.8654113411903381,0.0463840924203395,-0.28845876455307,0.0,0.0,0.6881417036056519,0.0369201898574829
-0.0800943374633789,0.6610423922538757,-0.1599280387163162,-0.8532412052154541,0.0328745320439338,-0.2701911330223083,0.0,0.0,0.5481228828430176,-0.0295193195343017
-0.0819285362958908,0.6422612071037292,-0.1697146892547607,-0.8344746828079224,0.0193494614213705,-0.2705016434192657,0.0,0.0,-0.2819960117340088,0.6902279853820801
-0.0837193503975868,0.6228708624839783,-0.1639813184738159,-0.861657977104187,0.0044354181736707,-0.2982811033725738,0.0,0.0,0.6201083660125732,-0.684877872467041
-0.0855856910347938,0.6040530800819397,-0.173147514462471,-0.8363683223724365,-0.0088785607367753,-0.2662794291973114,0.0,0.0,0.2623361349105835,-0.3408782482147217
-0.0873559936881065,0.5851846933364868,-0.1643046885728836,-0.8387137651443481,-0.0214365851134061,-0.2511604428291321,0.0,0.0,0.9315634965896606,-0.2327370643615722
-0.0892470329999923,0.566538393497467,-0.1760914921760559,-0.8289579153060913,-0.0342839397490024,-0.2569475173950195,0.0,0.0,0.793860673904419,0.2082839012145996
-0.0910270661115646,0.5485763549804688,-0.1657046377658844,-0.7986380457878113,-0.0464338362216949,-0.2429976016283035,0.0,0.0,0.789854884147644,0.1052827835083007
-0.0926444083452224,0.5310906171798706,-0.1503626257181167,-0.7775334715843201,-0.0576691254973411,-0.2247059643268585,0.0,0.0,0.1037935018539428,-0.1717405319213867
-0.0942005142569542,0.5138159394264221,-0.1447058320045471,-0.7682167291641235,-0.0684530287981033,-0.2156779468059539,0.0,0.0,0.0124796628952026,0.1241422891616821
-0.0957902893424034,0.4966582059860229,-0.1480911076068878,-0.763094961643219,-0.0792350471019744,-0.2156405001878738,0.0,0.0,0.7813416719436646,-0.8265488743782043
-0.0973735824227333,0.4794822931289673,-0.1494256258010864,-0.7638691663742065,-0.0880426540970802,-0.1761518567800521,0.0,0.0,0.7393057346343994,0.1366395950317382
-0.0990165695548057,0.4628146886825561,-0.1551419496536255,-0.741347074508667,-0.0971270576119422,-0.1816888153553009,0.0,0.0,0.4391754865646362,-0.0879126787185669
-0.1005283370614051,0.4461950063705444,-0.1427235454320907,-0.7392240166664124,-0.105505883693695,-0.167576402425766,0.0,0.0,0.7458713054656982,-0.7013797163963318
-0.102019116282463,0.4299377202987671,-0.1423126459121704,-0.7230387330055237,-0.1122210472822189,-0.1343033760786056,0.0,0.0,0.9561094045639038,0.6801881790161133
-0.1034125313162803,0.4137628078460693,-0.1314457952976226,-0.7194997072219849,-0.1200703084468841,-0.1569852977991104,0.0,0.0,0.633184552192688,-0.5090866684913635
-0.1049241051077842,0.3978795409202575,-0.1441237330436706,-0.7065042853355408,-0.1270652562379837,-0.1398987919092178,0.0,0.0,0.532646656036377,-0.6778032183647156
-0.1063838973641395,0.3825818598270416,-0.1405564546585083,-0.680370569229126,-0.1324690580368042,-0.1080761402845382,0.0,0.0,0.8861351013183594,0.37334144115448
-0.1077244728803634,0.3671522140502929,-0.129252091050148,-0.6861960887908936,-0.1372545808553695,-0.0957105010747909,0.0,0.0,0.9012507200241088,-0.3540099859237671
-0.1089170426130294,0.3525660932064056,-0.1147802248597145,-0.6486903429031372,-0.1417173743247985,-0.0892558842897415,0.0,0.0,0.714134931564331,-0.655796468257904
-0.1102132797241211,0.3381299376487732,-0.1263922452926635,-0.6419187784194946,-0.1449448764324188,-0.0645499601960182,0.0,0.0,0.6754622459411621,-0.4990792274475097
-0.1115187630057334,0.3241232335567474,-0.1270517110824585,-0.6228656768798828,-0.148437350988388,-0.0698496252298355,0.0,0.0,0.8758307695388794,-0.3907305002212524
-0.1127010360360145,0.3105470240116119,-0.115040585398674,-0.603704571723938,-0.1516098231077194,-0.0634497180581092,0.0,0.0,0.4448375701904297,-0.7577027678489685
-0.1139691323041915,0.2975064218044281,-0.1251093298196792,-0.5797585844993591,-0.1533082872629165,-0.0339692644774913,0.0,0.0,0.9205256700515748,0.59458327293396
-0.1150126457214355,0.2848192751407623,-0.1018563956022262,-0.5641344785690308,-0.1558043211698532,-0.0499206371605396,0.0,0.0,0.2473053932189941,-0.0049865841865539
-0.1160492897033691,0.2719655632972717,-0.1011873632669448,-0.571537971496582,-0.1582848578691482,-0.049610398709774,0.0,0.0,0.1325879096984863,-0.074718177318573
-0.1170179396867752,0.2588210105895996,-0.0947209373116493,-0.5844346284866333,-0.1604259461164474,-0.0428218580782413,0.0,0.0,0.8223776817321777,-0.5504246950149536
-0.1180192977190017,0.2456347048282623,-0.0991034358739852,-0.586169421672821,-0.1614578962326049,-0.0206393152475357,0.0,0.0,0.9307938814163208,0.7894856929779053
-0.1188312545418739,0.2332054227590561,-0.0786664709448814,-0.5526904463768005,-0.1639865636825561,-0.0505734086036682,0.0,0.0,0.9793249368667604,-0.3037774562835693
-0.119399644434452,0.2215890288352966,-0.0548496134579181,-0.5165048837661743,-0.1659795492887497,-0.0398596785962581,0.0,0.0,0.9255623817443848,-0.3705877065658569
-0.1199494376778602,0.2108044028282165,-0.0524598062038421,-0.4795986115932464,-0.1684968471527099,-0.0503459051251411,0.0,0.0,0.723275899887085,-0.516979992389679
-0.1206326484680175,0.1999619752168655,-0.066505953669548,-0.4820915162563324,-0.1703146249055862,-0.0363555885851383,0.0,0.0,0.8217219114303589,0.468055248260498
-0.1211320906877517,0.1897869706153869,-0.0483926981687545,-0.4524030983448028,-0.1718701869249344,-0.0311111696064472,0.0,0.0,0.3421082496643066,0.2631381750106811
-0.121639534831047,0.179714098572731,-0.0488538406789302,-0.4479012191295624,-0.1737625896930694,-0.0378481037914752,0.0,0.0,0.4769070148468017,-0.5011312961578369
-0.122138500213623,0.1699525713920593,-0.0489122755825519,-0.4339593052864074,-0.1747535020112991,-0.0198183320462703,0.0,0.0,0.7265009880065918,-0.4651817083358764
-0.122527502477169,0.1606639772653579,-0.0378705561161041,-0.4129481911659241,-0.1757841408252716,-0.0206131804734468,0.0,0.0,0.6524133682250977,-0.2677695751190185
-0.1227324455976486,0.1516021788120269,-0.0198790952563285,-0.4028233289718628,-0.1764064133167266,-0.0124455634504556,0.0,0.0,0.5519239902496338,-0.1124438047409057
-0.1228616684675216,0.1423994898796081,-0.0123946601524949,-0.4090697467327118,-0.1769338399171829,-0.0105484379455447,0.0,0.0,0.8363773822784424,-0.5960853099822998
-0.1228518486022949,0.1332269012928009,5.2823899750364944e-05,-0.4075575172901153,-0.1759973019361496,0.0187306515872478,0.0,0.0,0.8044312000274658,-0.2381993532180786
-0.1225748062133789,0.124323546886444,0.026052763685584,-0.3955105543136596,-0.1743516325950622,0.0329131856560707,0.0,0.0,0.9531183242797852,-0.7864282131195068
-0.1221016868948936,0.115463025867939,0.0437523499131202,-0.3933879435062408,-0.1707829087972641,0.0713749080896377,0.0,0.0,0.9325315952301024,-0.5415947437286377
-0.1215259581804275,0.1073086112737655,0.0530044361948967,-0.361899733543396,-0.1662064045667648,0.0915299654006958,0.0,0.0,0.6170339584350586,-0.5446652173995972
-0.1208342537283897,0.0996499359607696,0.063484214246273,-0.3397616744041443,-0.1605239808559417,0.1136485487222671,0.0,0.0,0.6187553405761719,-0.5460858941078186
-0.119947150349617,0.0923309400677681,0.081669732928276,-0.3245453536510467,-0.1534919589757919,0.1406405121088028,0.0,0.0,0.7444502115249634,0.0044316053390502
-0.1188970580697059,0.0848896354436874,0.0975658148527145,-0.3299782574176788,-0.1460617482662201,0.1486042439937591,0.0,0.0,0.7548794746398926,-0.3988988995552063
-0.1178174018859863,0.0776542499661445,0.1008827090263366,-0.3208928108215332,-0.1389949321746826,0.1413363814353943,0.0,0.0,0.8477091789245605,-0.5839419364929199
-0.1165417656302452,0.0712391212582588,0.1191316395998001,-0.2843581438064575,-0.1305993795394897,0.1679113060235977,0.0,0.0,0.2741608619689941,-0.3050761818885803
-0.1152188330888748,0.0648714900016784,0.1240665912628173,-0.2823052406311035,-0.1224122792482376,0.1637419164180755,0.0,0.0,0.5397739410400391,-0.2509080171585083
-0.1139115318655967,0.0590201951563358,0.1231667548418045,-0.259456604719162,-0.1148961707949638,0.1503220051527023,0.0,0.0,0.7167483568191528,-0.1189783215522766
-0.1124216094613075,0.0536250919103622,0.141157180070877,-0.2391990572214126,-0.107104942202568,0.1558244824409485,0.0,0.0,0.4478105306625366,-0.8586798906326294
-0.1109704002737999,0.048627458512783,0.1357552707195282,-0.221470758318901,-0.0978149026632309,0.1858007907867431,0.0,0.0,0.017990231513977,-0.8153093457221985
-0.1095862388610839,0.0437343940138816,0.1275867670774459,-0.2167941480875015,-0.0870690569281578,0.2149168252944946,0.0,0.0,0.1438124179840088,-0.607835054397583
-0.1082269698381424,0.038755428045988,0.124044083058834,-0.2206396460533142,-0.0753086134791374,0.2352090179920196,0.0,0.0,0.6815049648284912,0.3079695701599121
-0.1069273948669433,0.0340973958373069,0.1188079938292503,-0.2064953595399856,-0.0642702579498291,0.2207671403884887,0.0,0.0,0.5916270017623901,0.2929446697235107
-0.1057265251874923,0.0296005830168724,0.1097748875617981,-0.1994476318359375,-0.0540814511477947,0.2037762403488159,0.0,0.0,0.8878982067108154,0.5446267127990723
-0.104295827448368,0.0257146693766117,0.1336787790060043,-0.1723962426185608,-0.0447913445532321,0.1858021169900894,0.0,0.0,0.3743048906326294,0.0388617515563964
-0.1027857810258865,0.021676693111658,0.141556367278099,-0.1792093366384506,-0.0354550890624523,0.186725229024887,0.0,0.0,0.5644302368164062,-0.7302120327949524
-0.1011413559317588,0.0181140042841434,0.1534172892570495,-0.1581146717071533,-0.0245749372988939,0.2176030874252319,0.0,0.0,0.5570869445800781,-0.8153930902481079
-0.0995518714189529,0.0150502063333988,0.1465277075767517,-0.1360097229480743,-0.0123099293559789,0.2453002035617828,0.0,0.0,0.5107682943344116,0.0334827899932861
-0.0978061705827713,0.012548241764307,0.1617338210344314,-0.1111373752355575,0.0003551995905581,0.2533023953437805,0.0,0.0,-0.2181093096733093,-0.7757685780525208
-0.0960977524518966,0.0094389887526631,0.1568599790334701,-0.1382505893707275,0.0141603648662567,0.2761033177375793,0.0,0.0,0.6908555030822754,0.0062143802642822
-0.0943917259573936,0.0069755408912897,0.15687295794487,-0.1096723973751068,0.0277207046747207,0.2712067067623138,0.0,0.0,-0.2371208667755127,-0.5622604489326477
-0.0927085876464843,0.0039081312716007,0.1537826061248779,-0.1366614252328872,0.0420723855495452,0.2870334982872009,0.0,0.0,0.4524216651916504,0.3553836345672607
-0.0911760330200195,0.0014094209764152,0.158345490694046,-0.1109172999858856,0.037040140479803,-0.100643016397953,0.0,1.0,-0.2626055479049682,0.0574386119842529
-0.0898747444152832,-0.0011442922987043,0.1547521650791168,-0.1130765452980995,0.0126979211345314,-0.4868783354759216,0.0,1.0,0.4145175218582153,-0.5235236287117004
-0.0888661369681358,-0.0032655263785272,0.1371026486158371,-0.0943822562694549,-0.0231343805789947,-0.7167290449142456,1.0,1.0,0.1418533325195312,-0.9658255577087402
-0.0878611579537391,-0.0048293615691363,0.1187814325094223,-0.0703022852540016,-0.039415393024683,-0.3233641982078552,0.0,1.0,0.0117698907852172,-0.130698025226593
-0.0870598778128624,-0.0054275654256343,0.0846826955676078,-0.0267261862754821,-0.0438916534185409,-0.0894839912652969,1.0,1.0,0.0581302642822265,-0.920782208442688
-0.0862737670540809,-0.0052679204382002,0.0773876756429672,0.0071300873532891,-0.0426830947399139,0.0241706036031246,0.0,1.0,-0.8870947957038879,0.2168880701065063
-0.0855522155761718,-0.0047281170263886,0.0680498331785202,0.024101773276925,-0.0386399626731872,0.0808589905500412,0.0,1.0,-0.9571929574012756,0.2031807899475097
-0.0848935097455978,-0.0039326096884906,0.059882890433073,0.0355031751096248,-0.03272520378232,0.1182838305830955,0.0,1.0,-0.9595754742622375,0.599608302116394
-0.0842302292585372,-0.0030689381528645,0.0597958266735076,0.0385178104043006,-0.0262886062264442,0.1287187039852142,0.0,1.0,-0.970994234085083,0.8035632371902466
