x_pos,y_pos,x_vel,y_vel,angle,ang_vel,leg_1,leg_2,main_booster,lat_booster
-0.0015689849387854,1.4029628038406372,-0.1585295051336288,-0.3536538779735565,0.0014565453166142,0.0287087075412273,0.0,0.0,-0.6924745161305699,0.7148475517114333
-0.0031230926979333,1.3943638801574707,-0.1549325287342071,-0.3821770548820495,0.0009900962468236,-0.0093291709199547,0.0,0.0,0.0697392371807308,-0.6655944384507211
-0.0046775816008448,1.3854904174804688,-0.1560825258493423,-0.3943778574466705,0.0016087352996692,0.0123741263523697,0.0,0.0,0.065123611127339,0.9753432687363914
-0.0062942504882812,1.376435160636902,-0.1599749028682708,-0.4024548530578613,-5.194908590056002e-05,-0.0332169383764267,0.0,0.0,0.8266863877824022,0.823087367797155
-0.0077357292175292,1.3678022623062134,-0.1408002972602844,-0.3836800754070282,-0.0033706643152981,-0.0663807243108749,0.0,0.0,0.1585009014246801,-0.2029901805735311
-0.0091260913759469,1.3590787649154663,-0.1357748061418533,-0.3877228498458862,-0.0065998486243188,-0.0645893365144729,0.0,0.0,-0.7281097374431809,0.7228127792214649
-0.01050825137645,1.3496934175491333,-0.1331769526004791,-0.4171576797962188,-0.0115818493068218,-0.0996490940451622,0.0,0.0,0.4102527452450564,-0.3184063650067753
-0.0118030551820993,1.3404730558395386,-0.1246694177389144,-0.4098401963710785,-0.016334269195795,-0.095057301223278,0.0,0.0,0.5590818505563038,-0.3420358965741154
-0.0131429675966501,1.3317760229110718,-0.1287446320056915,-0.3866015970706939,-0.0215247645974159,-0.103819265961647,0.0,0.0,-0.7661358110651602,-0.5775325006241288
-0.0145751954987645,1.322422742843628,-0.1387392431497573,-0.4157718420028686,-0.0259557850658893,-0.0886284857988357,0.0,0.0,-0.1303837365087985,0.2660715014722373
-0.0160542484372854,1.312408447265625,-0.1430333703756332,-0.4451728165149688,-0.0307779423892498,-0.0964517146348953,0.0,0.0,0.3190057809028341,-0.6144817533077287
-0.0175536163151264,1.3023632764816284,-0.1460219323635101,-0.4465329945087433,-0.0346512235701084,-0.0774729698896408,0.0,0.0,-0.1409621324098247,0.13707743078447
-0.0191000942140817,1.2916569709777832,-0.1503267735242843,-0.475943773984909,-0.0389224216341972,-0.0854315608739852,0.0,0.0,0.8218835444225878,0.7091341003814137
-0.0205401424318552,1.2808620929718018,-0.138064831495285,-0.47994264960289,-0.0448028743267059,-0.1176198497414588,0.0,0.0,0.9808387447431832,0.4808251111207826
-0.0218140594661235,1.2708759307861328,-0.1218472942709922,-0.4440081417560577,-0.050288762897253,-0.1097279787063598,0.0,0.0,0.4475277306780394,-0.1705421042745895
-0.0230260845273733,1.260611653327942,-0.1157099828124046,,-0.0557289682328701,-0.1088136211037635,0.0,0.0,-0.2451959110898414,-0.5532030912842391
-0.0243186950683593,1.2496955394744873,-0.1242163926362991,-0.4853536188602447,-0.0607279688119888,-0.099989041686058,0.0,0.0,0.1570098664974069,-0.6574527306265203
-0.0255828853696584,1.2385003566741943,-0.1224382072687149,-0.4977306425571441,-0.064672902226448,-0.0789059251546859,0.0,0.0,-0.3841790683156536,0.1657287891654542
-0.0268943794071674,1.2266441583633425,-0.1267564445734024,-0.5271409749984741,-0.0690303519368171,-0.0871568918228149,0.0,0.0,-0.286152311965224,0.5892501194015141
-0.0282130241394042,1.2141225337982178,-0.1260275542736053,-0.5567930340766907,-0.0748159065842628,-0.115721620619297,0.0,0.0,-0.8672387521695286,-0.4894539404487699
-0.029578972607851,1.2009402513504028,-0.1303404569625854,-0.5862028002738953,-0.0810159593820571,-0.1240120381116867,0.0,0.0,0.1057160909265915,0.3250009832128839
-0.0309603698551654,1.1875392198562622,-0.1315103322267532,-0.5959770083427429,-0.0875959247350692,-0.1316113471984863,0.0,0.0,-0.9799987074793136,0.1332246203621717
-0.0323891639709472,1.1734774112701416,-0.1358208805322647,-0.6253916025161743,-0.0945932865142822,-0.1399599313735962,0.0,0.0,0.0951252821084205,0.2448280700327652
-0.0337994582951068,1.1590577363967896,-0.1337798535823822,-0.6413467526435852,-0.1017940193414688,-0.144027441740036,0.0,0.0,-0.3109535844127173,0.7160015342944664
-0.0352137573063373,1.1439731121063232,-0.1326694041490554,-0.6710428595542908,-0.1105042472481727,-0.1742201447486877,0.0,0.0,0.3828319296709137,-0.1208120976760658
-0.0367331504821777,1.1291062831878662,-0.1421831995248794,-0.6615025401115417,-0.1201989203691482,-0.193893551826477,0.0,0.0,0.0801537436806731,0.7081311955332664
-0.038184069097042,1.114281177520752,-0.1335123777389526,-0.6598712801933289,-0.1317244619131088,-0.230510801076889,0.0,0.0,-0.1302633838785238,0.3820191384091502
-0.039682388305664,1.098796844482422,-0.1378336399793625,-0.6892886757850647,-0.1436725109815597,-0.2389611005783081,0.0,0.0,-0.9252350168094304,-0.6154445241348808
-0.0412858948111534,1.0826716423034668,-0.1494637280702591,-0.7177737951278687,-0.1545439809560775,-0.2174292802810669,0.0,0.0,0.6896959818226245,0.9277620476020064
-0.0428113937377929,1.066611647605896,-0.1393736004829406,-0.715198814868927,-0.1677319854497909,-0.2637601494789123,0.0,0.0,0.6315671885351837,-0.0122643261168841
-0.0442262664437294,1.0511252880096436,-0.1279890239238739,-0.6898598074913025,-0.1812581568956375,-0.2705236375331878,0.0,0.0,0.0901862382888794,-0.983350932598114
-0.0457735061645507,1.0354392528533936,-0.1428124904632568,-0.6986581087112427,-0.193222239613533,-0.2392817735671997,0.0,0.0,-0.1210005283355712,-0.9963263273239136
-0.0474543571472168,1.0191292762756348,-0.1580391824245453,-0.726229727268219,-0.2033288329839706,-0.2021321356296539,0.0,0.0,0.9043357372283936,-0.922047793865204
-0.0492502227425575,1.0028092861175537,-0.1708296984434127,-0.7265614867210388,-0.2121552526950836,-0.1765287816524505,0.0,0.0,0.5246725082397461,-0.8578788638114929
-0.0510205253958702,0.9866964221000672,-0.1696106046438217,-0.7172129154205322,-0.2196545600891113,-0.1499863564968109,0.0,0.0,0.927098035812378,-0.9067993760108948
-0.0526915565133094,0.9712377786636353,-0.1611211746931076,-0.6879558563232422,-0.2257020771503448,-0.1209505200386047,0.0,0.0,-0.1299138665199279,-0.9577702283859252
-0.0544869415462017,0.9551407694816588,-0.1751441806554794,-0.7160998582839966,-0.2301609963178634,-0.0891783684492111,0.0,0.0,0.9135756492614746,-0.9672040939331056
-0.0561534874141216,0.939687967300415,-0.1638514101505279,-0.6872327923774719,-0.2330037355422973,-0.0568546652793884,0.0,0.0,0.6973366737365723,-0.8728795051574707
-0.0577759742736816,0.9248871803283693,-0.1607040166854858,-0.6580585837364197,-0.2345693409442901,-0.0313120260834693,0.0,0.0,0.2136603593826294,-0.7841161489486694
-0.0593781471252441,0.9100918173789978,-0.1598484963178634,-0.6576279401779175,-0.2349482178688049,-0.0075775953009724,0.0,0.0,-0.9121089577674866,-0.7667363882064819
-0.0610950477421283,0.8946675062179565,-0.1727019101381302,-0.6853667497634888,-0.2339167147874832,0.0206300690770149,0.0,0.0,-0.5773791670799255,-0.8248476982116699
-0.0629087463021278,0.8785989880561829,-0.1832875311374664,-0.713850736618042,-0.2319777756929397,0.0387790873646736,0.0,0.0,-0.4666951894760132,-0.1637564301490783
-0.0647685974836349,0.861870288848877,-0.1874941438436508,-0.7432606220245361,-0.2304501384496688,0.0305527001619339,0.0,0.0,-0.3263307809829712,-0.6686755418777466
-0.0667175278067588,0.8444951772689819,-0.197106122970581,-0.7718849778175354,-0.2282066643238067,0.0448694601655006,0.0,0.0,0.4132910966873169,-0.6953083872795105
-0.0687474235892295,0.8268515467643738,-0.2061135321855545,-0.7836811542510986,-0.2250406891107559,0.0633193850517273,0.0,0.0,0.2260345220565796,-0.3509884476661682
-0.0707343071699142,0.8088987469673157,-0.2015678882598877,-0.7974602580070496,-0.2221199572086334,0.0584144964814186,0.0,0.0,0.6858398914337158,-0.2542197704315185
-0.0726052299141883,0.7909325361251831,-0.189869076013565,-0.7980880737304688,-0.2193108797073364,0.0561814904212951,0.0,0.0,0.6828534603118896,-0.609968364238739
-0.074502944946289,0.7736117243766785,-0.1930763274431228,-0.7693259119987488,-0.2159650027751922,0.0669176429510116,0.0,0.0,0.1231311559677124,-0.0351655483245849
-0.0764185935258865,0.7564446330070496,-0.1940794140100479,-0.7626184821128845,-0.2134282886981964,0.0507343187928199,0.0,0.0,0.1839429140090942,-0.0858568549156189
-0.0783164054155349,0.739156186580658,-0.1918329149484634,-0.7680754065513611,-0.2113493680953979,0.041578359901905,0.0,0.0,0.0096693038940429,-0.580963134765625
-0.0801335349678993,0.721702516078949,-0.1846743524074554,-0.7752970457077026,-0.2083577513694763,0.0598322972655296,0.0,0.0,0.3015978336334228,0.1180572509765625
-0.081918716430664,0.7044543623924255,-0.1808982789516449,-0.7662542462348938,-0.205953910946846,0.04807685688138,0.0,0.0,0.4368358850479126,-0.2527751922607422
-0.0835750550031662,0.6870841383934021,-0.1680858731269836,-0.7716674208641052,-0.2034827917814254,0.0494224019348621,0.0,0.0,0.6595683097839355,0.438063383102417
-0.0851091369986534,0.6702296733856201,-0.1555189788341522,-0.748801052570343,-0.2013634890317917,0.0423862896859645,0.0,0.0,0.1413555145263672,-0.7536486387252808
-0.0865617766976356,0.6531895995140076,-0.1486104726791381,-0.7568883895874023,-0.197990670800209,0.0674564391374588,0.0,0.0,0.6594867706298828,0.2891029119491577
-0.0880573242902755,0.6362134218215942,-0.1521085202693939,-0.7541608810424805,-0.1954154372215271,0.0515047423541545,0.0,0.0,0.8878171443939209,-0.3937709331512451
-0.089311882853508,0.619885265827179,-0.1281674653291702,-0.7253379225730896,-0.1926896423101425,0.054515890777111,0.0,0.0,-0.4846814274787903,-0.0076010823249816
-0.0906071662902832,0.6028965711593628,-0.1319023668766021,-0.7547456622123718,-0.1903025060892105,0.0477427169680595,0.0,0.0,0.884601354598999,-0.4067993760108948
-0.0916811004281044,0.5866064429283142,-0.1098319292068481,-0.7236960530281067,-0.1878514885902404,0.0490201115608215,0.0,0.0,0.7784940004348755,-0.7902459502220154
-0.0927849784493446,0.5709516406059265,-0.1139193400740623,-0.6953283548355103,-0.1843102723360061,0.07082449644804,0.0,0.0,-0.1212141513824462,-0.136521577835083
-0.0939273834228515,0.5546361207962036,-0.1174585074186325,-0.7247359156608582,-0.1810812056064605,0.0645812526345253,0.0,0.0,0.838057279586792,0.1259380578994751
-0.0950765609741211,0.5388414859771729,-0.1173235401511192,-0.7016931176185608,-0.1786703616380691,0.0482170097529888,0.0,0.0,0.8720098733901978,0.1957230567932129
-0.0960206016898155,0.5232137441635132,-0.0971585363149643,-0.6942353844642639,-0.1759036779403686,0.0553337521851062,0.0,0.0,0.4963691234588623,-0.702591598033905
-0.0969345122575759,0.5077545642852783,-0.0953150242567062,-0.6866122484207153,-0.1719645708799362,0.0787822604179382,0.0,0.0,0.6744740009307861,-0.540110170841217
-0.0978474617004394,0.4922400116920471,-0.0960682481527328,-0.6889913082122803,-0.1671912968158722,0.0954657271504402,0.0,0.0,0.9172699451446532,-0.2568355798721313
-0.0988213568925857,0.4771150052547455,-0.1012378558516502,-0.6717925667762756,-0.163338229060173,0.0770612806081771,0.0,0.0,0.6058992147445679,-0.349496841430664
-0.0996713638305664,0.462555319070816,-0.0887152925133705,-0.6466958522796631,-0.1596309691667556,0.0741451308131218,0.0,0.0,0.9230810403823853,-0.437283456325531
-0.1004037857055664,0.4478160440921783,-0.0771593004465103,-0.6546617746353149,-0.1557100564241409,0.0784180611371994,0.0,0.0,0.8751921653747559,0.1039843559265136
-0.1009848564863205,0.4338445961475372,-0.061957012861967,-0.6205558776855469,-0.1518608331680297,0.0769843310117721,0.0,0.0,0.8355544805526733,0.3207184076309204
-0.1016173362731933,0.4200156331062317,-0.0664268359541893,-0.6142993569374084,-0.1486934721469879,0.0633475631475448,0.0,0.0,0.927390456199646,-0.1706283688545227
-0.1022648811340332,0.4067212343215942,-0.0672472417354583,-0.5906148552894592,-0.1462036371231079,0.0497963167726993,0.0,0.0,0.4944754838943481,-0.4615477323532104
-0.1028271690011024,0.3935950994491577,-0.0586898140609264,-0.5831463932991028,-0.1437503695487976,0.0490657873451709,0.0,0.0,0.7537081241607666,-0.561409056186676
-0.1034714728593826,0.3811856806278229,-0.0674854069948196,-0.5512361526489258,-0.1407116800546646,0.0607741959393024,0.0,0.0,-0.0056077241897583,0.6799490451812744
-0.1040767654776573,0.3681024312973022,-0.0619125477969646,-0.5813485383987427,-0.1393276154994964,0.0276808887720108,0.0,0.0,0.7383843660354614,-0.7488874197006226
-0.1047409996390342,0.3549838662147522,-0.0691217556595802,-0.5828012228012085,-0.1366409510374069,0.0537333190441131,0.0,0.0,0.4031745195388794,0.2261815071105957
-0.1053269356489181,0.3416024446487427,-0.0614620149135589,-0.5944707989692688,-0.1337787508964538,0.0572439953684806,0.0,0.0,0.928825855255127,0.289889931678772
-0.1059107780456543,0.3281561136245727,-0.0610181093215942,-0.5973790884017944,-0.1311590373516082,0.0523943118751049,0.0,0.0,0.932961106300354,0.4567275047302246
-0.1063949614763259,0.3154305219650268,-0.0509576611220836,-0.5653643012046814,-0.1286361664533615,0.0504574701189994,0.0,0.0,0.8043639659881592,-0.1337835192680359
-0.1066879257559776,0.3033519983291626,-0.0322081372141838,-0.5365745425224304,-0.1257398426532745,0.0579267814755439,0.0,0.0,0.4114848375320434,0.5841500759124756
-0.1069580093026161,0.2916679382324219,-0.0285154990851879,-0.519164502620697,-0.1242434084415435,0.0299287531524896,0.0,0.0,0.8470087051391602,-0.8852560520172119
-0.1074160560965538,0.2799072563648224,-0.0487948805093765,-0.5224519371986389,-0.1212616190314292,0.0596356503665447,0.0,0.0,0.5448998212814331,0.8036843538284302
-0.1076818481087684,0.2685736119747162,-0.0280690435320138,-0.50359708070755,-0.1197814717888832,0.0296030547469854,0.0,0.0,-0.0922883749008178,-0.315788984298706
-0.1079479232430458,0.2565783262252807,-0.0281482245773077,-0.5329984426498413,-0.1182472109794616,0.0306852869689464,0.0,0.0,0.928614616394043,-0.2629739046096802
-0.1081819534301757,0.2451113611459732,-0.0247286446392536,-0.5095385909080505,-0.1169333830475807,0.0262763854116201,0.0,0.0,0.7874023914337158,-0.4559298753738403
-0.1083360686898231,0.2341120094060897,-0.016768904402852,-0.488753467798233,-0.1155825480818748,0.0270167980343103,0.0,0.0,0.7982032299041748,0.353043794631958
-0.1083158478140831,0.2233780920505523,9.197751933243126e-05,-0.4769155085086822,-0.1136746779084205,0.0381577014923095,0.0,0.0,0.0326939821243286,-0.2819474935531616
-0.1082475632429122,0.2122987806797027,0.0047029601410031,-0.4922509491443634,-0.1115593686699867,0.042306262999773,0.0,0.0,0.9429125785827636,0.2716915607452392
-0.1080066710710525,0.201245442032814,0.0212950929999351,-0.4910522401332855,-0.1087800040841102,0.0555871315300464,0.0,0.0,0.9488925933837892,0.2819364070892334
-0.1075062751770019,0.1905066519975662,0.0462398752570152,-0.4770079255104065,-0.1050183773040771,0.0752327442169189,0.0,0.0,0.8905482292175293,-0.6197525858879089
-0.1068221107125282,0.1797557175159454,0.0627341419458389,-0.4774302244186401,-0.0993717461824417,0.1129328235983848,0.0,0.0,0.8433067798614502,0.4911153316497803
-0.1060431450605392,0.1695953756570816,0.0720158517360687,-0.4511891305446625,-0.0935363322496414,0.1167083010077476,0.0,0.0,0.7715718746185303,0.1338530778884887
-0.1051352471113205,0.159983828663826,0.0845053046941757,-0.4268000721931457,-0.0873110294342041,0.1245062202215194,0.0,0.0,0.5524419546127319,-0.3928537368774414
-0.104034423828125,0.1506323665380478,0.1029959097504615,-0.415223091840744,-0.0802902355790138,0.14041568338871,0.0,0.0,0.4560610055923462,-0.604346752166748
-0.1028384193778038,0.1410378515720367,0.110807791352272,-0.4259767830371856,-0.0715867951512336,0.1740689724683761,0.0,0.0,0.6259031295776367,-0.2904573678970337
-0.1016329750418663,0.1315378993749618,0.1117028966546058,-0.4218235909938812,-0.0628351122140884,0.1750334501266479,0.0,0.0,0.7875688076019287,0.6344946622848511
-0.1001932173967361,0.1227680742740631,0.1358523070812225,-0.3894488215446472,-0.0547957271337509,0.1607876420021057,0.0,0.0,0.1300740242004394,-0.4324873685836792
-0.0987196937203407,0.1139217913150787,0.1389736831188202,-0.3928851187229156,-0.0465123876929283,0.1656666100025177,0.0,0.0,0.7162086963653564,-0.7408563494682312
-0.0973774939775466,0.1056737527251243,0.1242988482117652,-0.3663028478622436,-0.0367155261337757,0.1959371566772461,0.0,0.0,0.463976502418518,-0.0691312551498413
-0.0959045439958572,0.0976879224181175,0.1366700530052185,-0.3546944856643677,-0.0262169577181339,0.20997154712677,0.0,0.0,0.7883894443511963,0.8328633308410645
-0.0943756103515625,0.0902656391263008,0.1436875164508819,-0.3297473788261413,-0.0171378105878829,0.1815831065177917,0.0,0.0,0.1169866323471069,-0.2289133667945861
-0.0928606018424034,0.0829434990882873,0.1421949118375778,-0.3253495991230011,-0.0079482346773147,0.1837913393974304,0.0,0.0,0.3746446371078491,0.7169063091278076
-0.0912740677595138,0.075579434633255,0.1504416465759277,-0.3272686004638672,0.0001588982995599,0.1621425896883011,0.0,0.0,0.6157741546630859,-0.070062518119812
-0.0897662192583084,0.0684369653463363,0.1427144706249237,-0.3174658715724945,0.0081287017092108,0.1593962013721466,0.0,0.0,0.7474924325942993,0.7221310138702393
-0.0883425697684288,0.061461579054594,0.1357139647006988,-0.3100675940513611,0.0146851558238267,0.1311293989419937,0.0,0.0,0.7666257619857788,0.9787876605987548
-0.0866887122392654,0.0549879409372806,0.1601203680038452,-0.2877764403820038,0.0198854319751262,0.1040057986974716,0.0,0.0,0.759980320930481,-0.5783281922340393
-0.0849802047014236,0.0484386309981346,0.1638048887252807,-0.2911925613880157,0.026838794350624,0.1390670835971832,0.0,0.0,0.9191684722900392,-0.7578639984130859
-0.0831338912248611,0.0425684563815593,0.1752159595489502,-0.2610916495323181,0.0361404418945312,0.1860331147909164,0.0,0.0,0.8790895938873291,-0.5469480156898499
-0.0813509970903396,0.0373620353639125,0.1674204021692276,-0.2316920012235641,0.0468828193843364,0.2148474156856537,0.0,0.0,0.6834361553192139,0.4859352111816406
-0.0794234275817871,0.0328108631074428,0.1807551980018615,-0.2026896774768829,0.05873678997159,0.237079456448555,0.0,0.0,0.6262702941894531,0.0299134254455566
-0.0774138420820236,0.0284614656120538,0.1881752163171768,-0.1938549131155014,0.0713834017515182,0.2529325187206268,0.0,0.0,0.599912166595459,-0.2247194051742553
-0.075426384806633,0.0246354918926954,0.1855443269014358,-0.1707273870706558,0.0844486728310585,0.261305570602417,0.0,0.0,0.243262767791748,-0.6114693880081177
-0.0734454169869422,0.0210424046963453,0.1831261664628982,-0.1606004685163498,0.0992752015590667,0.2965306639671325,0.0,0.0,-0.0246992707252502,0.2891594171524048
-0.0714225769042968,0.016791496425867,0.186880886554718,-0.1900243461132049,0.1145628541707992,0.3057535290718078,0.0,0.0,0.7222316265106201,0.1418256759643554
-0.0695576667785644,0.0128213977441191,0.171233981847763,-0.1776882261037826,0.1297264248132705,0.3032715320587158,0.0,1.0,0.8693567514419556,0.9706698656082152
-0.0679362267255783,0.0098143192008137,0.1674545556306839,-0.1334114521741867,0.123783454298973,-0.119739830493927,0.0,1.0,0.6083858013153076,0.0708870887756347
-0.0665875449776649,0.0075949882157146,0.1603396385908126,-0.0967206135392189,0.0984599888324737,-0.5065017938613892,0.0,1.0,0.0674420595169067,-0.7127847671508789
-0.0654439926147461,0.0056312177330255,0.1513315141201019,-0.0852675214409828,0.0617829486727714,-0.7336134910583496,0.0,1.0,0.5114319324493408,-0.8975529670715332
-0.0643111243844032,0.0036495304666459,0.1530316472053527,-0.0869238078594207,0.0224472023546695,-0.7868050932884216,0.0,1.0,0.35069739818573,-0.9009364247322084
-0.0631444901227951,0.0018283105455338,0.1530329287052154,-0.0807900577783584,-0.0134639767929911,-0.7182243466377258,0.0,1.0,0.5045084953308105,-0.8888649344444275
-0.0620124824345111,0.0004729366337414,0.1477479338645935,-0.0609006285667419,-0.0475749410688877,-0.6822203993797302,1.0,0.0,-0.2109587788581848,-0.8114802241325378
-0.060886763036251,-0.00096715928521,0.132096379995346,-0.0651407688856124,-0.0652829855680465,-0.3520982563495636,1.0,0.0,0.0069485902786254,-0.6404293775558472
