x_pos,y_pos,x_vel,y_vel,angle,ang_vel,leg_1,leg_2,main_booster,lat_booster
-0.0015807151794433,1.4032951593399048,-0.1600647270679474,-0.3388880789279938,0.001786004868336,0.0352322645485401,0.0,0.0,-0.2971799373626709,0.839759349822998
-0.0031478882301598,1.3953601121902466,-0.1566319614648819,-0.3526690602302551,0.0017083554994314,-0.0015523078618571,0.0,0.0,-0.2353101372718811,0.4875686168670654
-0.0047732354141771,1.3870952129364014,-0.1624547243118286,-0.3673299252986908,0.0016243419377133,-0.001680462853983,0.0,0.0,0.2811510562896728,0.5727355480194092
-0.0065142633393406,1.379080057144165,-0.1726471483707428,-0.356229156255722,0.0001897870533866,-0.0286938045173883,0.0,0.0,-0.5189158916473389,0.6883306503295898
-0.0082484241575002,1.3707375526428225,-0.1703191101551056,-0.3707748651504516,-0.0028852275572717,-0.0615060441195964,0.0,0.0,0.0842800140380859,0.4894329309463501
-0.0099510196596384,1.3626002073287964,-0.1675948798656463,-0.3616650700569153,-0.0055085713975131,-0.0524716190993785,0.0,0.0,-0.3689437508583069,-0.0837459564208984
-0.0117131229490041,1.3541336059570312,-0.1735865771770477,-0.3763074874877929,-0.0081029804423451,-0.0518933124840259,0.0,0.0,0.6828587055206299,0.760908842086792
-0.0133027080446481,1.3463257551193235,-0.1552140265703201,-0.3470422029495239,-0.0118132177740335,-0.0742114707827568,0.0,0.0,-0.2806515097618103,0.6086807250976562
-0.0149053577333688,1.3381942510604858,-0.1553715020418167,-0.3614414036273956,-0.0166570879518985,-0.0968858674168586,0.0,0.0,-0.2068849802017212,0.0214979648590087
-0.016568373888731,1.329733967781067,-0.1614526063203811,-0.3760769963264465,-0.0214444864541292,-0.0957568883895874,0.0,0.0,0.2575709819793701,-0.0015563368797302
-0.018216323107481,1.3216209411621094,-0.1603434979915619,-0.360645979642868,-0.0258565600961446,-0.0882494524121284,0.0,0.0,-0.5628901720046997,0.3893640041351318
-0.0199249275028705,1.313178777694702,-0.1664778888225555,-0.3752907812595367,-0.0301962718367576,-0.0868017449975013,0.0,0.0,-0.5227863788604736,0.599879264831543
-0.0216367729008197,1.304408073425293,-0.165416419506073,-0.3899362981319427,-0.035901416093111,-0.1141133680939674,0.0,0.0,-0.4045308232307434,0.3468935489654541
-0.023409366607666,1.2953083515167236,-0.1715891808271408,-0.4045767486095428,-0.0415173768997192,-0.1123292222619056,0.0,0.0,0.5246846675872803,0.8589348793029785
-0.0249975211918354,1.287015676498413,-0.1517274230718612,-0.3687795996665954,-0.0485260970890522,-0.1401874870061874,0.0,0.0,-0.298094093799591,0.0103938579559326
-0.0266465190798044,1.2783939838409424,-0.1579328924417495,-0.3834307789802551,-0.055430881679058,-0.1381079703569412,0.0,0.0,-0.8311827778816223,0.3025420904159546
-0.0283567421138286,1.2694435119628906,-0.1641535609960556,-0.3980686962604522,-0.0622253529727458,-0.1359017193317413,0.0,0.0,-0.3248277902603149,0.4242576360702514
-0.0301280971616506,1.2601641416549685,-0.1703887283802032,-0.4127095937728882,-0.0689026266336441,-0.1335578709840774,0.0,0.0,-0.7667024731636047,0.9458746910095216
-0.0318736061453819,1.2505559921264648,-0.1657385528087616,-0.4274549782276153,-0.0776374787092208,-0.174712985754013,0.0,0.0,-0.2573413252830505,0.8200188875198364
-0.0336242690682411,1.2406126260757446,-0.1649746596813202,-0.4424810707569122,-0.0876542925834655,-0.2003543823957443,0.0,0.0,-0.7589641809463501,0.7380390167236328
-0.0353654846549034,1.2303372621536257,-0.1623710542917251,-0.4574063122272491,-0.0993133038282394,-0.2332012355327606,0.0,0.0,-0.3461354970932007,-0.2013503313064575
-0.0371676459908485,1.2197341918945312,-0.1686366498470306,-0.4720562100410461,-0.1108299866318702,-0.2303543835878372,0.0,0.0,-0.1407051682472229,0.7182719707489014
-0.0389624610543251,1.2087912559509275,-0.1663099080324173,-0.4873886704444885,-0.1239410415291786,-0.2622444033622741,0.0,0.0,-0.085357666015625,0.1714663505554199
-0.0408183112740516,1.197520732879639,-0.1725874692201614,-0.5020421147346497,-0.1368990242481231,-0.2591829895973205,0.0,0.0,-0.2679879665374756,0.531069278717041
-0.0427032485604286,1.1859177350997925,-0.1748681664466858,-0.5169973373413086,-0.1505105644464492,-0.2722549140453338,0.0,0.0,0.4791078567504883,0.2456356287002563
-0.0446860305964946,1.174930453300476,-0.1842148154973983,-0.4898042678833008,-0.1645652502775192,-0.2810936570167541,0.0,0.0,-0.0543105006217956,0.1308643817901611
-0.046730138361454,1.1636160612106323,-0.1905462443828582,-0.5044543743133545,-0.1784566640853881,-0.2778279781341553,0.0,0.0,-0.4665529131889343,-0.5672597289085388
-0.048888586461544,1.1519944667816162,-0.203559011220932,-0.518034815788269,-0.1907933950424194,-0.2467348873615265,0.0,0.0,-0.2102384567260742,-0.2267311811447143
-0.0511083602905273,1.1400452852249146,-0.2098954617977142,-0.5326805710792542,-0.2029602378606796,-0.2433365136384964,0.0,0.0,-0.2367670536041259,-0.481905460357666
-0.0533896461129188,1.1277680397033691,-0.2162335366010666,-0.547325849533081,-0.2149541229009628,-0.2398778945207595,0.0,0.0,0.7037749290466309,0.4516822099685669
-0.0555270202457904,1.116436243057251,-0.2021495997905731,-0.5053654909133911,-0.2266830950975418,-0.2345793694257736,0.0,0.0,0.1292119026184082,-0.3569496273994446
-0.0577102676033973,1.105232000350952,-0.2066941559314727,-0.4997925162315368,-0.238479733467102,-0.2359326630830764,0.0,0.0,-0.8139596581459045,-0.3086591958999634
-0.0599547401070594,1.0936998128890991,-0.2130322903394699,-0.5144363045692444,-0.2500956654548645,-0.2323184311389923,0.0,0.0,-0.0239942669868469,-0.452515959739685
-0.0622604377567768,1.0818393230438232,-0.2193687856197357,-0.5290794372558594,-0.2615286707878113,-0.22865991294384,0.0,0.0,0.0947540998458862,-0.757325291633606
-0.0645653754472732,1.070272445678711,-0.2210069000720977,-0.5158041715621948,-0.2712342739105224,-0.1941119879484176,0.0,0.0,-0.4339891672134399,-0.7395079731941223
-0.066984936594963,1.058404803276062,-0.2341021001338958,-0.5289337038993835,-0.2792947292327881,-0.1612086445093155,0.0,0.0,0.6019148826599121,-0.737427294254303
-0.0694275870919227,1.046876311302185,-0.2380042523145675,-0.5135909914970398,-0.2857268750667572,-0.1286437660455703,0.0,0.0,0.165300965309143,-0.0264521241188049
-0.0717543587088584,1.035779595375061,-0.2267334461212158,-0.4943649172782898,-0.2918447256088257,-0.1223568543791771,0.0,0.0,-0.083051860332489,-0.7871557474136353
-0.0742037743330001,1.0243898630142212,-0.2408584356307983,-0.5070289373397827,-0.2960581481456756,-0.0842685550451278,0.0,0.0,0.9206169843673706,0.0671768188476562
-0.0764767676591873,1.0136698484420776,-0.223549798130989,-0.4772104024887085,-0.2999265789985657,-0.0773686990141868,0.0,0.0,0.7267621755599976,0.1741049289703369
-0.0786768943071365,1.003835678100586,-0.2159633189439773,-0.4379172623157501,-0.3041169345378876,-0.0838079079985618,0.0,0.0,-0.1945152282714843,-0.0878625512123107
-0.0809380561113357,0.9936715960502625,-0.2222521305084228,-0.4525497555732727,-0.3081119060516357,-0.0798993930220604,0.0,0.0,0.398939847946167,-0.7606453895568848
-0.0831506699323654,0.983534574508667,-0.2192136794328689,-0.4509727358818054,-0.3102393448352813,-0.0425483472645282,0.0,0.0,0.5858409404754639,0.025179386138916
-0.0851784721016883,0.9737486243247986,-0.201338917016983,-0.4352405667304992,-0.3117285668849945,-0.0297843609005212,0.0,0.0,0.5324323177337646,-0.6581069827079773
-0.0872732177376747,0.9640580415725708,-0.2094378173351287,-0.4307075142860412,-0.311770498752594,-0.0008385034161619,0.0,0.0,0.2882834672927856,0.0735125541687011
-0.0893144607543945,0.9543926119804382,-0.2044362276792526,-0.429503470659256,-0.3114477694034576,0.0064548798836767,0.0,0.0,0.1500762701034546,-0.8889001607894897
-0.0913411155343055,0.9448460936546326,-0.2049302756786346,-0.4238045811653137,-0.3091061413288116,0.0468325987458229,0.0,0.0,0.8989671468734741,0.5939533710479736
-0.0932219475507736,0.9363866448402404,-0.1890129148960113,-0.3757807910442352,-0.308139443397522,0.0193339250981807,0.0,0.0,0.6968557834625244,-0.3414822816848755
-0.0950469970703125,0.9288160800933838,-0.1830288916826248,-0.3363628387451172,-0.3076024353504181,0.0107404198497533,0.0,0.0,0.8449136018753052,0.3263039588928222
-0.0967824906110763,0.9217380881309508,-0.1741497218608856,-0.3144511282444,-0.3069736659526825,0.0125755611807107,0.0,0.0,0.5479602813720703,0.2310025691986084
-0.0982876792550087,0.915033996105194,-0.1519206017255783,-0.2976610064506531,-0.3055218458175659,0.0290364734828472,0.0,0.0,0.7431013584136963,-0.190155804157257
-0.0996762290596962,0.909139096736908,-0.1401892304420471,-0.2617138922214508,-0.3041494488716125,0.0274476706981658,0.0,0.0,0.7602417469024658,0.2127630710601806
-0.1008709892630577,0.9035398364067078,-0.1215129941701889,-0.2484336644411087,-0.3020365536212921,0.0422579869627952,0.0,0.0,0.8616855144500732,0.2716139554977417
-0.1018536537885665,0.8988960981369019,-0.1005192846059799,-0.2059219479560852,-0.2997052371501922,0.0466269068419933,0.0,0.0,0.9050562381744384,0.3355112075805664
-0.1025646179914474,0.8946518898010254,-0.0743171721696853,-0.1879670321941375,-0.2963773906230926,0.0665572136640548,0.0,0.0,0.1569182872772216,-0.5483323931694031
-0.1033495888113975,0.8906001448631287,-0.0828749984502792,-0.1791941374540329,-0.2918680012226105,0.0901881009340286,0.0,0.0,0.3141312599182129,-0.2311025261878967
-0.1039382964372634,0.8870970606803894,-0.0637820065021514,-0.1547194868326187,-0.2868112027645111,0.1011361703276634,0.0,0.0,0.9510878324508668,-0.4966464042663574
-0.1042026504874229,0.8843410611152649,-0.0322854742407798,-0.1213531643152237,-0.2807992696762085,0.1202387586236,0.0,0.0,-0.6518164277076721,-0.8163742423057556
-0.1045763939619064,0.8812870383262634,-0.0448522977530956,-0.1343156844377517,-0.2731275260448456,0.1534349620342254,0.0,0.0,-0.9015125632286072,0.9013568162918092
-0.1049453765153884,0.877886176109314,-0.0430299565196037,-0.1500216573476791,-0.2668437957763672,0.1256746053695678,0.0,0.0,-0.9852469563484192,-0.2238725423812866
-0.1053702384233474,0.8741558194160461,-0.0488300658762455,-0.1646564304828643,-0.2603600919246673,0.1296746730804443,0.0,0.0,-0.7838262319564819,0.0227584838867187
-0.1058505997061729,0.8700959086418152,-0.0545762181282043,-0.1792915165424347,-0.2536769509315491,0.1336627602577209,0.0,0.0,-0.9681364893913268,0.3658334016799927
-0.1063856109976768,0.8657066226005554,-0.0602639019489288,-0.1939269602298736,-0.246795117855072,0.1376368999481201,0.0,0.0,-0.975524604320526,0.3609609603881836
-0.1069748848676681,0.8609880805015564,-0.0658882781863212,-0.20856274664402,-0.2397153675556183,0.1415952146053314,0.0,0.0,-0.8423949480056763,-0.0072364211082458
-0.1076176613569259,0.8559402823448181,-0.0714441612362861,-0.2231988906860351,-0.2324385941028595,0.1455356180667877,0.0,0.0,-0.996800661087036,0.2759962081909179
-0.1083131805062294,0.8505632281303406,-0.0769260078668594,-0.23783540725708,-0.2249657958745956,0.149456039071083,0.0,0.0,-0.9868114590644836,0.8321988582611084
-0.1089928597211837,0.8448436260223389,-0.0738390386104583,-0.2533248364925384,-0.2190269082784652,0.1187773570418357,0.0,0.0,-0.9983239769935608,0.7659621238708496
-0.1096581444144249,0.8387631177902222,-0.0708469897508621,-0.2696095108985901,-0.214653804898262,0.0874620079994201,0.0,0.0,-0.9958582520484924,0.1295390129089355
-0.1103735938668251,0.8323528170585632,-0.0760685428977012,-0.284243643283844,-0.2100883573293686,0.0913090109825134,0.0,0.0,-0.9976661205291748,0.1361353397369384
-0.1111382469534874,0.825613260269165,-0.0811901092529296,-0.2988779842853546,-0.2053320407867431,0.095126524567604,0.0,0.0,-0.9997994899749756,0.8252365589141846
-0.1118967086076736,0.8185304999351501,-0.0793566927313804,-0.3143068850040436,-0.2017901092767715,0.0708390399813652,0.0,0.0,-0.932279884815216,0.6141917705535889
-0.1126520186662674,0.811103880405426,-0.0779579654335975,-0.3297472298145294,-0.1993572115898132,0.0486580841243267,0.0,0.0,-0.9999558329582214,-0.5974093675613403
-0.1135085076093673,0.8033711314201355,-0.0897052064538002,-0.3431383669376373,-0.1952769160270691,0.0816059708595275,0.0,0.0,-0.9936150908470154,-0.5696157813072205
-0.1144483536481857,0.7953203320503235,-0.0992211699485778,-0.3571303188800812,-0.1900085657835006,0.1053671091794967,0.0,0.0,-0.9999436140060424,-0.5483198761940002
-0.1154768019914627,0.7869489789009094,-0.1094249114394187,-0.3712286353111267,-0.1833992749452591,0.1321858167648315,0.0,0.0,-0.9854167699813844,0.7550835609436035
-0.116482637822628,0.7782224416732788,-0.1056687608361244,-0.3872292637825012,-0.1783016771078109,0.1019521206617355,0.0,0.0,-0.9994595050811768,0.8157429695129395
-0.1174695938825607,0.7691419720649719,-0.102403700351715,-0.403128445148468,-0.1745821684598922,0.0743904635310173,0.0,0.0,-0.999929130077362,-0.2325742840766906
-0.1184950843453407,0.759732186794281,-0.1064294800162315,-0.4177630245685577,-0.1706882864236831,0.0778773650527,0.0,0.0,-0.9966915845870972,-0.2746849656105041
-0.119557186961174,0.7499930262565613,-0.1102775558829307,-0.4323977828025818,-0.1666227877140045,0.0813100785017013,0.0,0.0,-0.9979920983314514,-0.6877033710479736
-0.1207170486450195,0.7399470806121826,-0.1218525618314743,-0.4458339512348175,-0.1607503294944763,0.1174495071172714,0.0,0.0,-0.9997616410255432,-0.6468214392662048
-0.1219718903303146,0.7295805811882019,-0.1330912858247757,-0.4599307775497436,-0.1531427651643753,0.1521512866020202,0.0,0.0,-0.9970237612724304,0.638139009475708
-0.1232037544250488,0.7188783884048462,-0.1296102404594421,-0.4750068783760071,-0.1467318534851074,0.1282181143760681,0.0,0.0,-0.9998466372489928,0.644727349281311
-0.124422550201416,0.707837700843811,-0.1273871064186096,-0.4901657104492187,-0.1412340700626373,0.1099552884697914,0.0,0.0,-0.9532510638237,0.616612434387207
-0.1256237924098968,0.6964609622955322,-0.1246736496686935,-0.5052105784416199,-0.1366995871067047,0.0906898602843284,0.0,0.0,-0.9846143126487732,0.3796123266220093
-0.1268494576215744,0.6847547888755798,-0.1272642016410827,-0.5198465585708618,-0.1320128440856933,0.0937347635626792,0.0,0.0,-0.9682897329330444,0.1184263229370117
-0.1280969679355621,0.6727194786071777,-0.1296165734529495,-0.5344826579093933,-0.1271776109933853,0.0967046618461608,0.0,0.0,-0.9975436925888062,-0.4756455421447754
-0.1293642073869705,0.6603548526763916,-0.1317241340875625,-0.5491189956665039,-0.122197724878788,0.0995977595448494,0.0,0.0,-0.9888315796852112,-0.0991629362106323
-0.130648523569107,0.6476610898971558,-0.1335810869932174,-0.5637556910514832,-0.1170772537589073,0.1024095267057418,0.0,0.0,-0.5266039967536926,0.9655144214630128
-0.1318531036376953,0.6346210837364197,-0.1233353987336158,-0.5793330669403076,-0.1142181828618049,0.0571816377341747,0.0,0.0,-0.8799059391021729,0.2055203914642334
-0.133069708943367,0.6212517023086548,-0.1246770620346069,-0.5939685106277466,-0.1112269163131713,0.0598252601921558,0.0,0.0,-0.297000527381897,0.3410036563873291
-0.1342959403991699,0.6075529456138611,-0.1257563233375549,-0.6086040735244751,-0.1081078425049781,0.062381274998188,0.0,0.0,-0.6433132886886597,0.836843729019165
-0.13545922935009,0.5935198068618774,-0.117839515209198,-0.6235876083374023,-0.1066180616617202,0.0297958366572856,0.0,0.0,-0.6415245532989502,0.2182924747467041
-0.1366269141435623,0.5791571736335754,-0.1183893680572509,-0.6382227540016174,-0.1050095036625862,0.0321708843111991,0.0,0.0,0.2527503967285156,0.3061714172363281
-0.1376943588256836,0.5648223757743835,-0.1088303104043006,-0.6369565725326538,-0.1029331237077713,0.0415275692939758,0.0,0.0,0.158318281173706,0.5384446382522583
-0.138722226023674,0.5506889820098877,-0.1038310676813125,-0.6280778646469116,-0.1018984168767929,0.0206941794604063,0.0,0.0,-0.0807162523269653,0.469588041305542
-0.1397465765476226,0.536226212978363,-0.1035919412970542,-0.6427130103111267,-0.1007591262459755,0.0227857809513807,0.0,0.0,0.7636916637420654,0.4885390996932983
-0.1407287567853927,0.5223444700241089,-0.0993423387408256,-0.6168904900550842,-0.0996352508664131,0.022477438673377,0.0,0.0,-0.1341120600700378,0.298585295677185
-0.1417023688554763,0.5081332921981812,-0.098592609167099,-0.6315258145332336,-0.0984165146946907,0.0243746023625135,0.0,0.0,0.7793656587600708,0.9008526802062988
-0.1424164772033691,0.4946933388710022,-0.0710966438055038,-0.5973528623580933,-0.0987282395362854,-0.0062344800680875,0.0,0.0,0.2150230407714843,0.7128891944885254
-0.1430506706237793,0.4817509353160858,-0.0616985633969306,-0.5753316879272461,-0.1004302129149437,-0.0340395160019397,0.0,0.0,0.2252572774887085,-0.8813191652297974
-0.1437530517578125,0.4693353772163391,-0.0703340619802475,-0.551796555519104,-0.1003351509571075,0.0019011264666914,0.0,0.0,-0.6144502758979797,0.5476984977722168
-0.1443963944911956,0.4565823674201965,-0.0634551495313644,-0.5668607950210571,-0.1012125611305236,-0.0175482891499996,0.0,0.0,0.0543731451034545,0.3949677944183349
-0.145055204629898,0.4440839886665344,-0.0647127330303192,-0.5555620789527893,-0.102364182472229,-0.0230326429009437,0.0,0.0,0.2107000350952148,0.7560852766036987
-0.1457178145647049,0.4318373203277588,-0.0635182037949562,-0.5444872379302979,-0.1050922945141792,-0.0545621514320373,0.0,0.0,-0.2761490941047668,0.5851613283157349
-0.1463021337985992,0.4192562401294708,-0.0543593354523181,-0.5594481825828552,-0.1091310232877731,-0.080774687230587,0.0,0.0,-0.1630376577377319,-0.4679938554763794
-0.1468604058027267,0.4063460230827331,-0.0518247969448566,-0.5740850567817688,-0.1131142303347587,-0.0796640217304229,0.0,0.0,0.0646591186523437,-0.7534386515617371
-0.1472871750593185,0.3938369154930115,-0.0402996800839901,-0.556140124797821,-0.1154708266258239,-0.0471318624913692,0.0,0.0,-0.1582386493682861,-0.4798869490623474
-0.1476844847202301,0.3809984922409057,-0.0374005921185016,-0.5707761645317078,-0.1177814453840255,-0.0462124943733215,0.0,0.0,0.1595114469528198,-0.5540850758552551
-0.1479133665561676,0.3687187135219574,-0.0219235531985759,-0.5458434820175171,-0.1187411174178123,-0.0191935077309608,0.0,0.0,0.4415373802185058,0.1982655525207519
-0.1479835510253906,0.3568510413169861,-0.0064019514247775,-0.5275025963783264,-0.1193562746047973,-0.0123031791299581,0.0,0.0,0.6737138032913208,-0.4213511347770691
-0.1479283273220062,0.3458871841430664,0.0061392048373818,-0.4873329401016235,-0.1199731975793838,-0.0123382257297635,0.0,0.0,-0.07965749502182,-0.4608361721038818
-0.1478376388549804,0.3345939218997955,0.0096635585650801,-0.5019686222076416,-0.1205625459551811,-0.0117870774120092,0.0,0.0,0.463631272315979,-0.6837337613105774
-0.1476371735334396,0.3235684037208557,0.0190984830260276,-0.4899474680423736,-0.1196178793907165,0.0188935585319995,0.0,0.0,0.7413649559020996,-0.2323485016822815
-0.1474488228559494,0.3132071495056152,0.0184648744761943,-0.4604695737361908,-0.1192507669329643,0.0073421872220933,0.0,0.0,0.235100507736206,0.3963422775268554
-0.1472706794738769,0.3031068742275238,0.0178702846169471,-0.4489072561264038,-0.1193129867315292,-0.0012441340368241,0.0,0.0,0.140433669090271,0.0783966779708862
-0.1470207273960113,0.2932594418525696,0.0251168757677078,-0.4376733899116516,-0.119433507323265,-0.0024104279000312,0.0,0.0,-0.3120589256286621,-0.5038505792617798
-0.1467674225568771,0.2830886542797088,0.0244821887463331,-0.4519700706005096,-0.1185856908559799,0.0169561095535755,0.0,0.0,0.535757303237915,0.1885503530502319
-0.1463116705417633,0.2730647623538971,0.0441526547074317,-0.4453908503055572,-0.1171738654375076,0.0282367579638957,0.0,0.0,0.6311385631561279,-0.2329297661781311
-0.1456382721662521,0.2637005746364593,0.0654737874865531,-0.4160449802875519,-0.1153182461857795,0.037112221121788,0.0,0.0,-0.1787020564079284,-0.4942047595977783
-0.1449209153652191,0.2540069818496704,0.069877877831459,-0.4306812882423401,-0.113467626273632,0.0370123796164989,0.0,0.0,0.2580887079238891,-0.3229703903198242
