x_pos,y_pos,x_vel,y_vel,angle,ang_vel,leg_1,leg_2,main_booster,lat_booster
-0.0015033722156658,1.4029861688613892,-0.1515679955482483,-0.3526273965835571,0.0011010713642463,0.0216704457998275,0.0,0.0,-0.1012547527540241,0.6289573052830586
-0.0029288292862474,1.3944337368011477,-0.1415975540876388,-0.3801078200340271,0.0001685894967522,-0.0186510924249887,0.0,0.0,-0.8310713596231936,0.8611718829546362
-0.0042430879548192,1.3852360248565674,-0.1277273893356323,-0.4087848663330078,-0.003494270145893,-0.0732639953494072,0.0,0.0,0.6322171077435181,-0.6997632310334458
-0.0057069780305027,1.3761392831802368,-0.1431375443935394,-0.4043149650096893,-0.0067119426093995,-0.0643592104315757,0.0,0.0,0.1029047566963419,0.9606564903709468
-0.0069542885757982,1.3670583963394165,-0.1189083307981491,-0.4036321938037872,-0.0124701196327805,-0.1151739954948425,0.0,0.0,0.7440616565806466,-0.7202542789591624
-0.0080539705231785,1.3581963777542114,-0.1053127646446228,-0.3939104974269867,-0.0170752052217721,-0.0921105146408081,0.0,0.0,-0.4278681170665412,-0.6409475980422191
-0.0091633796691894,1.3486976623535156,-0.1069737523794174,-0.4222191572189331,-0.0210036020725965,-0.0785750672221183,0.0,0.0,-0.1593435567389869,-0.8586920358731538
-0.0102780340239405,1.3385648727416992,-0.1081447452306747,-0.4503944516181946,-0.0242865066975355,-0.0656641572713851,0.0,0.0,-0.3344326370436119,0.9953453509700684
-0.011267090216279,1.327802300453186,-0.0930039286613464,-0.4784486889839172,-0.0301304124295711,-0.1168884634971618,0.0,0.0,-0.7940114029312144,0.647445424334638
-0.0121539114043116,1.316403865814209,-0.0808424949645996,-0.5067784786224365,-0.0378776118159294,-0.1549582183361053,0.0,0.0,-0.8873161112772197,-0.6088380589241794
-0.0130277629941701,1.304370641708374,-0.0799731537699699,-0.535012423992157,-0.0452074110507965,-0.1466096341609954,0.0,0.0,-0.9746998008255524,0.8773739397526212
-0.0137679101899266,1.2916933298110962,-0.0640390962362289,-0.5637679696083069,-0.0550926588475704,-0.197723314166069,0.0,0.0,-0.5683630984122416,0.6790276353060279
-0.0143842697143554,1.2783777713775637,-0.0493874922394752,-0.5923009514808655,-0.0672170519828796,-0.2425102889537811,0.0,0.0,-0.7718214844059139,0.7753023461300635
-0.0148718832060694,1.264412522315979,-0.0341956987977027,-0.6213973164558411,-0.0816523283720016,-0.2887322008609772,0.0,0.0,-0.3371310620502123,-0.695023688671697
-0.0153377531096339,1.249824285507202,-0.0325193330645561,-0.6491902470588684,-0.0956115648150444,-0.2792102694511413,0.0,0.0,-0.1335670450344996,0.7631901762198432
-0.0156683921813964,1.2345823049545288,-0.0166239589452743,-0.6785531640052795,-0.1119428798556327,-0.3266562521457672,0.0,0.0,-0.5199945525406746,-0.9936632161536044
-0.0159912109375,1.2187275886535645,-0.0168495401740074,-0.705881655216217,-0.1273054629564285,-0.3072797358036041,0.0,0.0,-0.5797514808865978,-0.6373991768752869
-0.0162839889526367,1.2022404670715332,-0.0142994103953242,-0.7341160178184509,-0.1422525495290756,-0.2989688217639923,0.0,0.0,-0.1413254481498835,-0.707523087478612
-0.016552448272705,1.1851351261138916,-0.0125415418297052,-0.7616701722145081,-0.156550258398056,-0.2859799861907959,0.0,0.0,-0.9178731942826672,-0.6368398956762089
-0.0168057437986135,1.167407751083374,-0.0119718536734581,-0.7893431782722473,-0.1699299961328506,-0.2676185071468353,0.0,0.0,-0.9767099332447632,0.6736511701739412
-0.0169219970703125,1.1490341424942017,0.0038205063901841,-0.8184421062469482,-0.185450792312622,-0.3104439675807953,0.0,0.0,0.2306089773748749,-0.7388879709402716
-0.0169516559690237,1.130521535873413,0.0114737870171666,-0.8246573209762573,-0.1999737322330474,-0.2904849648475647,0.0,0.0,-0.0110038388117346,0.6620988278432405
-0.0168436057865619,1.1113545894622805,0.027256429195404,-0.8541656136512756,-0.2165908515453338,-0.3323726058006286,0.0,0.0,-0.3341412726601132,0.9402885583479168
-0.0165793411433696,1.091517686843872,0.0453465729951858,-0.8845241665840149,-0.2357842475175857,-0.3839024901390075,0.0,0.0,-0.839734640338818,0.8494162346918224
-0.0161868091672658,1.071033239364624,0.0598033145070076,-0.9138497710227966,-0.2567222714424133,-0.4187975525856018,0.0,0.0,0.8164340935105836,0.6794098046729092
-0.015637207776308,1.0510694980621338,0.0775638669729232,-0.8914137482643127,-0.2798588871955871,-0.4627324938774109,0.0,0.0,-0.840151303501663,-0.8701554355931653
-0.0150720598176121,1.0305083990097046,0.0776474624872207,-0.9180275201797484,-0.3016338050365448,-0.4354985356330871,0.0,0.0,-0.2613377711752087,0.76762799769726
-0.014379215426743,1.0093032121658323,0.0918108373880386,-0.947294294834137,-0.324998140335083,-0.4672869741916656,0.0,0.0,-0.97368214339378,-0.9803382631279276
-0.0136917112395167,0.987520158290863,0.0891093760728836,-0.9728582501411438,-0.3462676703929901,-0.4253906607627868,0.0,0.0,0.3962285592320931,-0.7155262691315045
-0.0128538133576512,0.9657228589057922,0.1029355302453041,-0.9735040068626404,-0.3664298951625824,-0.4032447338104248,0.0,0.0,0.0759172873014373,-0.7224850767589055
-0.0117732044309377,0.9440959692001344,0.1259367913007736,-0.9658811688423156,-0.3853853642940521,-0.3791095614433288,0.0,0.0,0.1626550444764753,-0.9922890705917806
-0.010626601986587,0.9223398566246032,0.1307394206523895,-0.9713813662528992,-0.4025619626045227,-0.343531847000122,0.0,0.0,-0.1470623643090085,-0.6348384649126617
-0.0094460491091012,0.89998859167099,0.1328422427177429,-0.997669279575348,-0.4184815585613251,-0.3183921575546264,0.0,0.0,0.3257714249698564,0.8541844192863915
-0.0080570224672555,0.8773879408836365,0.1554645001888275,-1.0094929933547974,-0.4364498257637024,-0.3593650460243225,0.0,0.0,0.6936209916835563,-0.9352742106476116
-0.006359577178955,0.855063796043396,0.1845575273036956,-0.9968731999397278,-0.4526307284832001,-0.3236183524131775,0.0,0.0,-0.9352379455748694,0.9050554695327134
-0.0045079230330884,0.8320638537406921,0.2017371207475662,-1.027705430984497,-0.4709087312221527,-0.3655601441860199,0.0,0.0,0.3129154496937758,-0.7949899051225368
-0.0024830817710608,0.8089684247970581,0.2175758183002472,-1.0316802263259888,-0.4876788854598999,-0.3354033827781677,0.0,0.0,-0.7147617128035266,0.940367957639094
-0.0002992629888467,0.7851901650428772,0.2352764308452606,-1.0629013776779177,-0.5066420435905457,-0.3792631030082702,0.0,0.0,0.0765228482467712,0.8815828293450056
0.0022766112815588,0.7614793181419373,0.2759700715541839,-1.0607813596725464,-0.527519941329956,-0.4175577759742737,0.0,0.0,0.218299887405478,-0.7100547414924303
0.005139541812241,0.7377403974533081,0.3031850457191467,-1.061742663383484,-0.5469051003456116,-0.3877035975456238,0.0,0.0,-0.4386961073730611,0.7959348256890401
0.0081379888579249,0.7133338451385498,0.3177167773246765,-1.0921485424041748,-0.5676869750022888,-0.4156379103660583,0.0,0.0,-0.3078895807266235,-0.9992942214012146
0.0111730573698878,0.6883410811424255,0.3197164237499237,-1.1178053617477417,-0.5867552161216736,-0.3813647627830505,0.0,0.0,-0.2994018197059631,-0.9988855719566344
0.0142396930605173,0.6627581119537354,0.3211283683776855,-1.1435370445251465,-0.603996217250824,-0.3448200523853302,0.0,0.0,-0.3907907009124756,-0.9989354014396667
0.0173419956117868,0.6365928053855896,0.3229899108409881,-1.1688613891601562,-0.6193680763244629,-0.3074371218681335,0.0,0.0,-0.1849120855331421,-0.9977768063545228
0.0204622261226177,0.6098527908325195,0.3226846158504486,-1.1935747861862185,-0.6323544383049011,-0.2597270905971527,0.0,0.0,-0.078750729560852,-0.995483696460724
0.0236105918884277,0.5825302004814148,0.3236949145793915,-1.2187139987945557,-0.6432360410690308,-0.2176315039396286,0.0,0.0,0.0671205520629882,-0.991544246673584
0.0269957538694143,0.5549376010894775,0.3454974889755249,-1.2298409938812256,-0.6518543362617493,-0.1723660975694656,0.0,0.0,-0.1287311315536499,-0.9958208203315736
0.030402660369873,0.5267975330352783,0.3453787565231323,-1.253076434135437,-0.6577014923095703,-0.1169425398111343,0.0,0.0,0.3329858779907226,-0.9960936903953552
0.0341324806213378,0.498963713645935,0.3757622241973877,-1.2384955883026123,-0.6611750721931458,-0.0694715678691864,0.0,0.0,0.4596065282821655,-0.9883778691291808
0.0381495468318462,0.4711096286773681,0.4025969505310058,-1.2384181022644043,-0.6622834801673889,-0.0221683494746685,0.0,0.0,0.3371881246566772,-0.9739170670509338
0.042586900293827,0.4431075155735016,0.4427087306976318,-1.2440009117126465,-0.6609922051429749,0.0258259121328592,0.0,0.0,0.5105199813842773,-0.9824309945106506
0.0474233627319335,0.4153927266597748,0.4806996285915375,-1.2302485704421997,-0.6573188304901123,0.0734677761793136,0.0,0.0,0.5736048221588135,-0.9482383728027344
0.0526413917541503,0.3874958753585815,0.5168817639350891,-1.237345576286316,-0.651198148727417,0.1224140673875808,0.0,0.0,0.2248082160949707,-0.9653419256210328
0.0582547187805175,0.3597365915775299,0.5544348955154419,-1.230265974998474,-0.6426587700843811,0.1707874834537506,0.0,0.0,0.2127054929733276,-0.9930312037467957
0.0642127990722656,0.3317180275917053,0.586882472038269,-1.2408580780029297,-0.6316787600517273,0.2196002751588821,0.0,0.0,0.5019118785858154,-0.9924662709236144
0.0703710541129112,0.3037309348583221,0.604824423789978,-1.2385733127593994,-0.6182807087898254,0.2679609060287475,0.0,0.0,0.5025579929351807,-0.977097511291504
0.0770619362592697,0.2759795188903808,0.6558585166931152,-1.2272205352783203,-0.602341890335083,0.3187768161296844,0.0,0.0,0.4971613883972168,-0.9984167218208312
0.0842460617423057,0.2482935339212417,0.7028470039367676,-1.2234832048416138,-0.5837990641593933,0.3708567321300506,0.0,0.0,0.2662301063537597,-0.989464521408081
0.0918654426932334,0.2207771390676498,0.7440312504768372,-1.2152236700057983,-0.562741219997406,0.4211565554141998,0.0,0.0,0.1029846668243408,-0.9972670674324036
0.099743366241455,0.1934087425470352,0.7674172520637512,-1.2080066204071045,-0.5391191244125366,0.4724414348602295,0.0,0.0,-0.0601977705955505,-0.9897878170013428
0.107650376856327,0.1654532551765442,0.7680027484893799,-1.2336498498916626,-0.5131902098655701,0.5185783505439758,0.0,0.0,0.1920511722564697,-0.9991540312767028
0.1157584190368652,0.1376513391733169,0.7854903340339661,-1.2264117002487185,-0.4847181439399719,0.5694419145584106,0.0,0.0,0.0949559211730957,-0.9847282767295836
0.1241369247436523,0.1096572279930114,0.8099421262741089,-1.2347161769866943,-0.4538115859031677,0.6181308627128601,0.0,0.0,0.1273708343505859,-0.9991388320922852
0.1327395439147949,0.0816385820508003,0.8296242952346802,-1.2356849908828735,-0.4204001724720001,0.6682280898094177,0.0,0.0,0.4438453912734985,-0.9773723483085632
0.1415140181779861,0.0535090081393718,0.8440300226211548,-1.2406717538833618,-0.3845340311527252,0.7173236608505249,0.0,0.0,0.8323163986206055,-0.999256193637848
0.1504129469394683,0.0257982835173606,0.8538271188735962,-1.2223352193832395,-0.3463800847530365,0.7630794048309326,1.0,0.0,-0.7798975110054016,-0.4661416411399841
0.1591569930315017,-0.001094224397093,0.8209720849990845,-1.1834852695465088,-0.292194128036499,1.0820049047470093,1.0,0.0,0.3631205558776855,-0.8518317341804504
0.1683278083801269,-0.0279868748039007,0.8479650616645813,-1.183010816574097,-0.221556544303894,1.412808179855347,1.0,0.0,0.9958897829055786,-0.6077231168746948
0.1788266152143478,-0.0427593737840652,0.7169135212898254,6.617030157940462e-05,0.0001694642414804,0.0002066698361886,1.0,1.0,0.9958897829055786,-0.6077231168746948
