x_pos,y_pos,x_vel,y_vel,angle,ang_vel,leg_1,leg_2,main_booster,lat_booster
-0.001504898071289,1.403325080871582,-0.1517353951930999,-0.3375581800937652,0.0011237801518291,0.0221198685467243,0.0,0.0,-0.3744164930568014,-0.014257338339685
-0.002991008805111,1.395453691482544,-0.1490866243839264,-0.3498374819755554,0.0015882349107414,0.0092906663194298,0.0,0.0,-0.6959027659059969,-0.4410255660254348
-0.0044585228897631,1.387282371520996,-0.1465938687324524,-0.3631680905818939,0.0014281189069151,-0.0032026204280555,0.0,0.0,-0.1000671067074774,0.750123244794632
-0.0058604241348803,1.3788093328475952,-0.1381833255290985,-0.3765822350978851,-0.0005417663487605,-0.039401538670063,0.0,0.0,-0.3162176206960723,0.7548403784720462
-0.0071717263199388,1.3700393438339231,-0.1266948729753494,-0.3897881507873535,-0.0049363407306373,-0.0878999158740043,0.0,0.0,0.5786061675969478,0.929046671514948
-0.0082416534423828,1.361745834350586,-0.1002758294343948,-0.3686396181583404,-0.0115662086755037,-0.1326098591089248,0.0,0.0,0.656355620006279,-0.947503033998493
-0.0093867303803563,1.3540233373641968,-0.1090611070394516,-0.343271404504776,-0.0169571209698915,-0.1078282818198204,0.0,0.0,-0.051974381967432,0.3913616101315451
-0.0105142593383789,1.3460019826889038,-0.1066962108016014,-0.356585830450058,-0.0229406971484422,-0.1196824088692665,0.0,0.0,0.4572125790399106,0.247476390111789
-0.0116179464384913,1.3387892246246338,-0.1036847233772277,-0.3206847012042999,-0.0295580215752124,-0.1323588788509369,0.0,0.0,-0.1188448322081745,-0.0638548799181079
-0.0127046583220362,1.33127760887146,-0.1013922691345214,-0.3340058028697967,-0.036749679595232,-0.143846645951271,0.0,0.0,-0.1638675260857718,-0.8361115231633183
-0.0138308526948094,1.3234714269638062,-0.1062180250883102,-0.3471147418022156,-0.0430854223668575,-0.126726359128952,0.0,0.0,0.1195695709996536,0.0562361745302695
-0.0148774143308401,1.3159000873565674,-0.0979126170277595,-0.3367156088352203,-0.0497490875422954,-0.1332856565713882,0.0,0.0,0.6291948783585362,-0.9635855645932676
-0.0158043857663869,1.3090630769729614,-0.087551012635231,-0.3040449917316437,-0.0548485331237316,-0.1019980758428573,0.0,0.0,0.007332769521622,-0.3144731954337157
-0.0166618339717388,1.302248239517212,-0.0802613645792007,-0.3030954599380493,-0.0602807998657226,-0.1086552962660789,0.0,0.0,0.6620678855678139,-0.8226539804676453
-0.0173616409301757,1.2963764667510986,-0.0659176409244537,-0.2611319422721863,-0.0643080249428749,-0.0805516988039016,0.0,0.0,-0.623942079674566,0.7016222738915561
-0.0179818160831928,1.290191650390625,-0.0557810179889202,-0.2751697897911072,-0.0704875737428665,-0.1236019507050514,0.0,0.0,0.0221688064150002,0.1652917963536337
-0.018465232104063,1.2844910621643066,-0.0420263223350048,-0.2536638081073761,-0.0767519995570182,-0.1253001987934112,0.0,0.0,-0.1220354082514398,-0.1825520896428334
-0.0189348217099905,1.2784922122955322,-0.0401710011065006,-0.2669843733310699,-0.0834865942597389,-0.1347040235996246,0.0,0.0,0.048122428623373,-0.9588493698796065
-0.0193500518798828,1.2729651927947998,-0.0361784286797046,-0.2459466457366943,-0.0887812823057174,-0.1059033870697021,0.0,0.0,0.010881108207742,0.2227164573328099
-0.0197709091007709,1.2676637172698977,-0.0360855385661125,-0.2359926551580429,-0.0947393998503685,-0.1191729083657264,0.0,0.0,0.7753590389145668,0.4042002743362831
-0.019966697320342,1.2632508277893066,-0.0138068925589323,-0.1965097039937973,-0.1004681661725044,-0.1145857572555542,0.0,0.0,-0.7978430322715082,0.5544706393159379
-0.0201066024601459,1.2585291862487793,-0.0067078815773129,-0.2103456109762191,-0.1077136695384979,-0.1449227780103683,0.0,0.0,0.8577722416477644,0.4712471354883267
-0.0200246814638376,1.254399061203003,0.0151650477200746,-0.1840751022100448,-0.11464474350214,-0.1386339664459228,0.0,0.0,0.3526050501896967,-0.5652562334739574
-0.0198861118406057,1.2503421306610107,0.0198931880295276,-0.1807877421379089,-0.120657280087471,-0.1202615275979042,0.0,0.0,0.4681663445323456,0.5411783415305695
-0.0197619441896677,1.246856689453125,0.0201866049319505,-0.1555493623018264,-0.1283943206071853,-0.1547549664974212,0.0,0.0,-0.9441963327138768,0.9866401034159554
-0.019571591168642,1.2430459260940552,0.0285798199474811,-0.170218214392662,-0.1379091739654541,-0.1902971714735031,0.0,0.0,-0.126003078828415,0.9407367089315034
-0.019298743456602,1.2389283180236816,0.0389829017221927,-0.184137687087059,-0.1495723277330398,-0.2332631647586822,0.0,0.0,-0.399453515212991,0.5873229304190165
-0.0189820285886526,1.234511375427246,0.0444844253361225,-0.197643369436264,-0.1623815447092056,-0.2561841607093811,0.0,0.0,0.200706811346335,0.8791544597414759
-0.0186071395874023,1.230648398399353,0.052303172647953,-0.1733740717172622,-0.1772028356790542,-0.2964260280132293,0.0,0.0,0.1743691872589166,0.6038923719218429
-0.0181349758058786,1.2269909381866455,0.0633734166622161,-0.1645697057247162,-0.1934301555156707,-0.3245466947555542,0.0,0.0,0.0293108396957335,-0.9045291631290576
-0.0176118854433298,1.2238404750823977,0.0667581483721733,-0.1419728100299835,-0.2079714983701706,-0.2908268272876739,0.0,0.0,-0.5737923383712769,-0.999456524848938
-0.0171728134155273,1.220415115356445,0.0561516396701335,-0.1540085971355438,-0.2203495502471923,-0.2475612461566925,0.0,0.0,-0.7600527405738831,-0.9884664416313172
-0.016816234216094,1.2167305946350098,0.0457059368491172,-0.1652988046407699,-0.230525940656662,-0.2035277783870697,0.0,0.0,-0.8692153096199036,-0.997896671295166
-0.0165441520512104,1.2127685546875,0.0350819304585456,-0.1773366332054138,-0.2385203391313552,-0.1598877012729644,0.0,0.0,-0.4657795429229736,-0.9965626001358032
-0.0163455009460449,1.2085371017456057,0.0258085615932941,-0.1890410482883453,-0.2445583045482635,-0.1207596287131309,0.0,0.0,-0.3996707201004028,-0.9963610768318176
-0.0162199027836322,1.2040414810180664,0.0165353659540414,-0.2004778534173965,-0.2486073076725006,-0.0809796899557113,0.0,0.0,-0.794765293598175,-0.9652233719825744
-0.0161736495792865,1.199270725250244,0.0065416418947279,-0.2123554497957229,-0.2505610287189483,-0.0390738397836685,0.0,0.0,-0.8372282981872559,-0.982727587223053
-0.0161990169435739,1.1942347288131714,-0.0025435318239033,-0.2238222062587738,-0.2505506873130798,0.0002068541507469,0.0,0.0,-0.8133642077445984,-0.7896881103515625
-0.0162906646728515,1.188931941986084,-0.0109811974689364,-0.2353662848472595,-0.248703584074974,0.0369423106312751,0.0,0.0,-0.7761784195899963,-0.985030233860016
-0.016458511352539,1.1833581924438477,-0.0206204168498516,-0.247084841132164,-0.2447984218597412,0.0781035050749778,0.0,0.0,-0.5313308835029602,-0.934254825115204
-0.0167147628962993,1.177523851394653,-0.0318494290113449,-0.2582832276821136,-0.2384748309850692,0.1264715194702148,0.0,0.0,-0.9574477076530457,-0.8030850291252136
-0.0170269012451171,1.1714062690734863,-0.0389294698834419,-0.2706677615642547,-0.2306445091962814,0.1566064208745956,0.0,0.0,-0.6304688453674316,-0.6776905655860901
-0.0173914916813373,1.1649973392486572,-0.0455589331686496,-0.2834378778934479,-0.221426323056221,0.1843638271093368,0.0,0.0,-0.619229257106781,-0.0628887414932251
-0.01776466332376,1.1582895517349243,-0.0467076785862445,-0.296745628118515,-0.2119329422712326,0.1898672729730606,0.0,0.0,-0.9098341464996338,-0.5018945932388306
-0.018189525231719,1.1512905359268188,-0.0532667860388755,-0.3095660507678985,-0.2010651379823684,0.2173562943935394,0.0,0.0,-0.6538677215576172,-0.2402166128158569
-0.018624972552061,1.1439927816390991,-0.0546629540622234,-0.3228761851787567,-0.1898716986179351,0.2238688766956329,0.0,0.0,-0.9024609327316284,-0.4004406929016113
-0.0190717689692974,1.1363961696624756,-0.0561771690845489,-0.3361868858337402,-0.1783292740583419,0.2308483868837356,0.0,0.0,-0.6528301239013672,0.0243740081787109
-0.019530963152647,1.128501296043396,-0.057805448770523,-0.3494982123374939,-0.1664158105850219,0.238269418478012,0.0,0.0,-0.816809356212616,-0.0421196222305297
-0.020003318786621,1.1203081607818604,-0.0595435574650764,-0.362810343503952,-0.1541104763746261,0.2461065948009491,0.0,0.0,-0.9451043605804444,-0.4746088981628418
-0.0204897876828908,1.1118168830871582,-0.0613870546221733,-0.3761234879493713,-0.141393706202507,0.2543350458145141,0.0,0.0,-0.9713602662086488,0.5486165285110474
-0.0209380146116018,1.1030158996582031,-0.0566538944840431,-0.3900779783725738,-0.1296052038669586,0.2357700616121292,0.0,0.0,-0.9604625701904296,0.9216196537017822
-0.0213360786437988,1.093909740447998,-0.0504329577088356,-0.4038328230381012,-0.1190317347645759,0.2114696204662323,0.0,0.0,-0.9914492964744568,0.9642784595489502
-0.0216616634279489,1.0844833850860596,-0.0413716062903404,-0.4182761013507843,-0.1102716028690338,0.1752025485038757,0.0,0.0,-0.884848952293396,0.9337702989578248
-0.0219300277531147,1.074753999710083,-0.0342598930001258,-0.4318872392177582,-0.1029028072953224,0.1473760157823562,0.0,0.0,-0.916480302810669,0.8300247192382812
-0.022135067731142,1.0647094249725342,-0.0263519622385501,-0.4460358023643493,-0.0971079394221305,0.1158972233533859,0.0,0.0,-0.8480240106582642,0.6128338575363159
-0.0223184581845998,1.0543564558029177,-0.0236489661037921,-0.4597921073436737,-0.0918370187282562,0.10541832447052,0.0,0.0,-0.9451467990875244,0.7474249601364136
-0.0224525444209575,1.043701410293579,-0.0175105109810829,-0.4733166992664337,-0.0877691879868507,0.0813566446304321,0.0,0.0,-0.6618033647537231,0.4830565452575683
-0.0226063728332519,1.032746434211731,-0.0200270172208547,-0.4866201281547546,-0.0831733867526054,0.0919159576296806,0.0,0.0,-0.8444286584854126,0.7078341245651245
-0.0227174758911132,1.0214911699295044,-0.0146936671808362,-0.5000386834144592,-0.0796223133802414,0.0710212737321853,0.0,0.0,-0.9367285966873168,0.7273223400115967
-0.022799015045166,1.0099365711212158,-0.0110116470605134,-0.5133952498435974,-0.0767872557044029,0.0567012205719947,0.0,0.0,-0.7092833518981934,0.1964234113693237
-0.0229018218815326,0.9980820417404176,-0.0137083027511835,-0.5266982316970825,-0.0733956769108772,0.0678316503763198,0.0,0.0,-0.9385244250297546,0.7311580181121826
-0.0229781158268451,0.98592609167099,-0.0104034710675477,-0.5401292443275452,-0.070652075111866,0.0548718757927417,0.0,0.0,-0.9884431958198548,0.7429795265197754
-0.0230060573667287,0.9734609127044678,-0.004341026302427,-0.5539340376853943,-0.0691197291016578,0.0306470841169357,0.0,0.0,-0.9273285269737244,-0.1086993217468261
-0.0230565071105957,0.9606959223747252,-0.0071839652955532,-0.5672367811203003,-0.0670083910226821,0.0422267764806747,0.0,0.0,-0.9582141041755676,0.1177104711532592
-0.0231299400329589,0.947631061077118,-0.0100690219551324,-0.5805397033691406,-0.0643117204308509,0.0539333038032054,0.0,0.0,-0.9400703310966492,0.6387066841125488
-0.0231865886598825,0.9342629313468932,-0.0079633388668298,-0.5940428972244263,-0.0620339661836624,0.0455552712082862,0.0,0.0,-0.9931775331497192,-0.0574975609779357
-0.0232666973024606,0.920595109462738,-0.0109237004071474,-0.6073461174964905,-0.0591596812009811,0.0574858374893665,0.0,0.0,-0.9616398215293884,0.3922932147979736
-0.0233706478029489,0.9066272974014282,-0.0139176417142152,-0.6206496953964233,-0.0556839220225811,0.0695150196552276,0.0,0.0,-0.8700442910194397,0.7899801731109619
-0.0234332084655761,0.8923636674880981,-0.0087248776108026,-0.6338522434234619,-0.0532431825995445,0.04881476983428,0.0,0.0,-0.986447811126709,-0.3528662323951721
-0.0235201828181743,0.8778001666069031,-0.0117785781621932,-0.6471558809280396,-0.0501923151314258,0.0610174834728241,0.0,0.0,-0.979567050933838,0.3148895502090454
-0.0236316677182912,0.862937331199646,-0.0148588400334119,-0.6604600548744202,-0.0465275049209594,0.0732962116599083,0.0,0.0,-0.9253078699111938,0.504010796546936
-0.0237259864807128,0.8477725982666016,-0.0127059016376733,-0.673885703086853,-0.0432992205023765,0.0645660012960434,0.0,0.0,-0.9307460188865662,0.4969491958618164
-0.0238453857600688,0.8323083519935608,-0.0158333014696836,-0.6871902346611023,-0.0394503362476825,0.076977752149105,0.0,0.0,-0.8373180031776428,0.4778251647949219
-0.0239898674190044,0.8165448307991028,-0.0189815871417522,-0.7004953622817993,-0.0349779762327671,0.0894473120570182,0.0,0.0,-0.6844011545181274,0.5224888324737549
-0.024120807647705,0.8004754781723022,-0.0172638017684221,-0.7140966057777405,-0.0308611821383237,0.0823358818888664,0.0,0.0,-0.5770938396453857,0.8061456680297852
-0.0242064483463764,0.7840949892997742,-0.0115619096904993,-0.7279643416404724,-0.027901416644454,0.0591955855488777,0.0,0.0,-0.5531570315361023,0.5481569766998291
-0.0242767333984375,0.7674077749252319,-0.0096180234104394,-0.7416083216667175,-0.0253446195274591,0.0511359497904777,0.0,0.0,-0.6733816862106323,0.4838898181915283
-0.0243727676570415,0.7504209876060486,-0.0128344874829053,-0.7549134492874146,-0.0221552494913339,0.0637873709201812,0.0,0.0,-0.2980502247810364,0.8788076639175415
-0.0244157798588275,0.7331410050392151,-0.0061678681522607,-0.7679751515388489,-0.0203110333532094,0.0368844158947467,0.0,0.0,-0.1784142851829528,0.2340748310089111
-0.0244848243892192,0.7155614495277405,-0.0094107389450073,-0.7812802791595459,-0.0178309679031372,0.0496010929346084,0.0,0.0,-0.7479837536811829,0.2369098663330078
-0.024579906836152,0.6976823210716248,-0.0126652102917432,-0.7945858240127563,-0.0147137343883514,0.062344767153263,0.0,0.0,-0.0716239213943481,0.745800256729126
-0.0246380809694528,0.6795092821121216,-0.0080227674916386,-0.8076733946800232,-0.0125403385609388,0.04346789047122,0.0,0.0,0.5798366069793701,0.6352443695068359
-0.0247707366943359,0.6618630290031433,-0.0145941255614161,-0.7842626571655273,-0.0112264696508646,0.0262773539870977,0.0,0.0,-0.361877977848053,0.4506732225418091
-0.0249297134578228,0.643917441368103,-0.017877759411931,-0.797568142414093,-0.0092723695561289,0.0390818081796169,0.0,0.0,0.111740231513977,0.5046590566635132
-0.0250796321779489,0.6263803839683533,-0.0165856499224901,-0.7794166803359985,-0.0076981293968856,0.031484879553318,0.0,0.0,0.142945647239685,0.6490429639816284
-0.0251337997615337,0.6091462969779968,-0.0064459489658474,-0.765952467918396,-0.0066809621639549,0.0203433409333229,0.0,0.0,-0.0547437071800231,0.6709847450256348
-0.0251593589782714,0.5916056036949158,-0.0028297021053731,-0.7795828580856323,-0.0064089237712323,0.0054406798444688,0.0,0.0,0.033634066581726,0.0548999309539794
-0.0251518245786428,0.5741428136825562,-0.0004472619039006,-0.7761185169219971,-0.0052262959070503,0.0236526485532522,0.0,0.0,-0.1091973781585693,-0.07764333486557
-0.0251709930598735,0.5563806891441345,-0.0037641983944922,-0.7894241809844971,-0.0034014063421636,0.0364976897835731,0.0,0.0,0.3459324836730957,0.2817873954772949
-0.0251021385192871,0.5388005375862122,0.0038488444406539,-0.7813351154327393,-0.0004089566355105,0.0598491318523883,0.0,0.0,0.1858159303665161,2.5987625122070312e-05
-0.0250638965517282,0.5217300653457642,0.0001589847670402,-0.7586937546730042,0.0032068132422864,0.0723155289888382,0.0,0.0,0.2294915914535522,0.4528336524963379
-0.02503127977252,0.5052072405815125,-0.001155013917014,-0.7343630194664001,0.0075709354132413,0.0872823968529701,0.0,0.0,0.1571278572082519,0.5561208724975586
-0.0248886104673147,0.4890898168087005,0.0101367319002747,-0.7163563966751099,0.0116452109068632,0.0814856216311454,0.0,0.0,-0.1904767751693725,0.7926955223083496
-0.024699592962861,0.4726661741733551,0.0159966349601745,-0.7299635410308838,0.0145202605053782,0.0575008504092693,0.0,0.0,-0.3216520547866821,0.0255159139633178
-0.0245373733341693,0.4559434354305267,0.0126590328291058,-0.7432709336280823,0.0180354211479425,0.0703030079603195,0.0,0.0,0.643937349319458,0.3057426214218139
-0.024333382025361,0.440211534500122,0.0158000793308019,-0.6992581486701965,0.0225794799625873,0.0908810496330261,0.0,0.0,0.3115438222885132,0.4346750974655151
-0.0241848938167095,0.4248576164245605,0.0096771214157342,-0.6824806928634644,0.0276761893182992,0.1019343957304954,0.0,0.0,0.6955786943435669,0.7158482074737549
-0.0241688732057809,0.4104321300983429,-0.00246336706914,-0.6412125825881958,0.0316890701651573,0.0802576467394828,0.0,0.0,-0.1708174347877502,0.9668002128601074
-0.0240923874080181,0.3957166671752929,0.0051669501699507,-0.6540728211402893,0.0341361835598945,0.0489421710371971,0.0,0.0,-0.2978279590606689,0.6710565090179443
-0.0239948276430368,0.3807095289230346,0.0078818490728735,-0.6670270562171936,0.0360008664429187,0.0372936613857746,0.0,0.0,0.9104995727539062,0.548818826675415
-0.0240134242922067,0.3667021989822387,-0.0029971557669341,-0.6225773692131042,0.0371135435998439,0.022253381088376,0.0,0.0,0.7815248966217041,0.9488735198974608
-0.0240339282900095,0.3531999588012695,-0.0018484357278794,-0.6000919342041016,0.0369239747524261,-0.0037913974374532,0.0,0.0,0.2558536529541015,0.9903794527053832
-0.0241236686706542,0.3400835990905761,-0.0073989680968225,-0.5829126238822937,0.0353646390140056,-0.0311866886913776,0.0,0.0,0.3635060787200928,0.8054801225662231
-0.024332046508789,0.3273103237152099,-0.0180925987660884,-0.567639946937561,0.0326560959219932,-0.0541708543896675,0.0,0.0,-0.3816152811050415,0.9437628984451294
-0.0244796760380268,0.3142479658126831,-0.0104256300255656,-0.5804603099822998,0.0283639356493949,-0.0858427882194519,0.0,0.0,0.8152084350585938,0.6020042896270752
-0.024545956403017,0.3014944791793823,-0.0018904069438576,-0.5667412877082825,0.02368682064116,-0.0935422554612159,0.0,0.0,0.9582419395446776,0.2722615003585815
-0.0244888309389352,0.2898041009902954,0.009024491533637,-0.5195233225822449,0.0204243622720241,-0.0652493089437484,0.0,0.0,0.477163553237915,0.6229479312896729
-0.0244458205997943,0.2788611948490143,0.0082778725773096,-0.4863001704216003,0.01649134978652,-0.0786599963903427,0.0,0.0,0.4051035642623901,-0.5139319896697998
-0.0243515968322753,0.2687173783779144,0.0114263696596026,-0.45081627368927,0.0145123284310102,-0.0395804122090339,0.0,0.0,0.2766213417053222,0.2050807476043701
-0.0242319107055664,0.258947342634201,0.0130803911015391,-0.4342138469219208,0.0134156998246908,-0.0219325311481952,0.0,0.0,-0.3046662807464599,0.4116771221160888
-0.0241392143070697,0.2488779574632644,0.0097700199112296,-0.4475205242633819,0.0129250297322869,-0.0098135620355606,0.0,0.0,-0.0514800548553466,0.6061673164367676
-0.0240206718444824,0.2385157644748687,0.0130863785743713,-0.4605327844619751,0.0117091303691267,-0.0243180133402347,0.0,0.0,0.6164714097976685,0.6839864253997803
-0.0237940791994333,0.2285262197256088,0.0244818031787872,-0.4439685642719269,0.0099135544151067,-0.0359116792678833,0.0,0.0,0.2108575105667114,0.1700152158737182
-0.02368850633502,0.2189157605171203,0.0122005408629775,-0.4271224439144134,0.0082964459434151,-0.0323422364890575,0.0,0.0,0.5314648151397705,0.1807762384414672
-0.0237325672060251,0.2097202092409134,-0.0028156742919236,-0.4086818397045135,0.006717171985656,-0.0315852910280227,0.0,0.0,0.4543406963348388,-0.399515151977539
-0.0238259322941303,0.2009695619344711,-0.008225766941905,-0.3889147043228149,0.005633236374706,-0.0216787345707416,0.0,0.0,0.1528651714324951,0.7213355302810669
-0.0238702781498432,0.1924772560596466,-0.002496293047443,-0.3774298429489136,0.0037142529617995,-0.0383797697722911,0.0,0.0,0.4050886631011963,-0.0584403872489929
-0.0238314624875783,0.1841449588537216,0.0047277365811169,-0.3703217506408691,0.0028804983012378,-0.0166750662028789,0.0,0.0,-0.0511435866355896,-0.8702087998390198
-0.023876953870058,0.1755169779062271,-0.005752065218985,-0.3834695219993591,0.0040621343068778,0.0236327312886714,0.0,0.0,0.5425333976745605,0.4602724313735962
-0.0239287372678518,0.1677194684743881,-0.0070488303899765,-0.3465617597103119,0.0059104696847498,0.0369666628539562,0.0,0.0,-0.2967341542243957,0.7594788074493408
-0.0239405632019042,0.1596147567033767,-0.0019152909517288,-0.3602108955383301,0.0066402540542185,0.0145958242937922,0.0,0.0,0.1957573890686035,0.5463805198669434
