x_pos,y_pos,x_vel,y_vel,angle,ang_vel,leg_1,leg_2,main_booster,lat_booster
-0.0014832497108727,1.4034196138381958,-0.1505424976348877,-0.3333622813224792,0.001991853583604,0.0393079966306686,0.0,0.0,-0.3848239183425903,0.9272671937942504
-0.0028450966347008,1.395732879638672,-0.1363780498504638,-0.3416339159011841,0.0021868094336241,0.0039003528654575,0.0,0.0,0.0668283700942993,0.1921209096908569
-0.0040770531632006,1.3882321119308472,-0.1240680217742919,-0.3333652913570404,0.0030382047407329,0.0170294772833585,0.0,0.0,-0.1502112746238708,0.4283257722854614
-0.0052635194733738,1.380526423454285,-0.1197572946548461,-0.342483639717102,0.0041291574016213,0.0218213163316249,0.0,0.0,-0.4875968694686889,0.8411688804626465
-0.0063228607177734,1.3726186752319336,-0.1052329987287521,-0.3514489531517029,0.0034389675129204,-0.0138050345703959,0.0,0.0,-0.3077969551086426,0.7953794002532959
-0.0072570801712572,1.364505410194397,-0.0910062193870544,-0.3605893850326538,0.0010548658901825,-0.0476867035031318,0.0,0.0,-0.2698278427124023,-0.0989324450492858
-0.0081417085602879,1.356187105178833,-0.086285188794136,-0.3697012662887573,-0.0010932750301435,-0.0429668612778186,0.0,0.0,-0.7595311999320984,0.1446521282196045
-0.0089756967499852,1.3476638793945312,-0.0814486891031265,-0.3788131773471832,-0.003008107189089,-0.0383004918694496,0.0,0.0,-0.7817167639732361,0.2090898752212524
-0.0097577096894383,1.3389357328414917,-0.0765048563480377,-0.3879250288009643,-0.0046911095269024,-0.0336632505059242,0.0,0.0,-0.8551604151725769,-0.2668702602386474
-0.0104870796203613,1.3300025463104248,-0.0714615583419799,-0.3970367610454559,-0.006144240964204,-0.0290652997791767,0.0,0.0,-0.8231927156448364,-0.5484561920166016
-0.0111997602507472,1.320865035057068,-0.0709735453128814,-0.4061121940612793,-0.0064380122348666,-0.0058756051585078,0.0,0.0,-0.8457300662994385,-0.2757457494735718
-0.0118579864501953,1.3115224838256836,-0.0657581910490989,-0.4152239859104156,-0.0065064816735684,-0.0013696530368179,0.0,0.0,-0.6837112903594971,0.1154358386993408
-0.0124610904604196,1.3019750118255615,-0.0604664199054241,-0.4243355989456177,-0.0063512176275253,0.0031056436710059,0.0,0.0,-0.7274041771888733,-0.0795377492904663
-0.013008308596909,1.292222499847412,-0.0551056563854217,-0.4334473013877868,-0.0059746615588665,0.0075320960022509,0.0,0.0,-0.8142044544219971,0.3861663341522217
-0.0134990690276026,1.2822647094726562,-0.0496833138167858,-0.4425590336322784,-0.0053790844976902,0.0119124976918101,0.0,0.0,-0.8973374962806702,-0.4980658888816833
-0.0139328958466649,1.272102117538452,-0.0442062839865684,-0.4516708254814148,-0.0045669279061257,0.016244838014245,0.0,0.0,-0.8974784016609192,0.0009902715682983
-0.0143093112856149,1.2617342472076416,-0.0386814102530479,-0.4607827067375183,-0.0035406951792538,0.0205264706164598,0.0,0.0,-0.9750844836235046,-0.2719863653182983
-0.0146279335021972,1.2511616945266724,-0.0331153608858585,-0.4698946177959442,-0.0023030862212181,0.0247548054903745,0.0,0.0,-0.927452802658081,-0.4756765365600586
-0.0148883815854787,1.2403841018676758,-0.0275146625936031,-0.479006677865982,-0.0008568680495955,0.0289270188659429,0.0,0.0,-0.9800202250480652,-0.0798096656799316
-0.0150905605405569,1.229401469230652,-0.0218856744468212,-0.4881187975406647,0.0007949798600748,0.0330398604273796,0.0,0.0,-0.8911561965942383,-0.28670334815979
-0.015234088525176,1.218213677406311,-0.0162347070872783,-0.4972310364246368,0.0026493060868233,0.0370901338756084,0.0,0.0,-0.8851432204246521,-0.4110002517700195
-0.0153188705444335,1.206821084022522,-0.0105678802356123,-0.506343424320221,0.0047028004191815,0.0410737693309783,0.0,0.0,-0.9294257760047911,0.1535732746124267
-0.0153450965881347,1.1952235698699951,-0.0048912395723164,-0.515455961227417,0.0069519341923296,0.044986642897129,0.0,0.0,-0.9246132969856262,-0.6159255504608154
-0.0153554920107126,1.1834139823913574,-0.0046104555949568,-0.5248979926109314,0.0104753710329532,0.0704752281308174,0.0,0.0,-0.939467191696167,-0.2268237471580505
-0.0153073314577341,1.1713992357254028,0.0010648702736943,-0.5340111255645752,0.014186006039381,0.0742191821336746,0.0,0.0,-0.933917999267578,0.6309084892272949
-0.0151624679565429,1.159162521362305,0.0114988405257463,-0.543884813785553,0.0171293709427118,0.0588673837482929,0.0,0.0,-0.6364412307739258,-0.4083825945854187
-0.0149592403322458,1.1467210054397583,0.0171648487448692,-0.5529956221580505,0.0202525127679109,0.0624626651406288,0.0,0.0,-0.96780526638031,0.0432699918746948
-0.0146976467221975,1.134074568748474,0.0228128023445606,-0.5621066689491272,0.0235509816557168,0.0659692510962486,0.0,0.0,-0.820224404335022,0.4087333679199219
-0.0143781658262014,1.1212234497070312,0.0284372381865978,-0.5712177753448486,0.0270200073719024,0.0693802386522293,0.0,0.0,-0.8571304678916931,0.2461925745010376
-0.0140009876340627,1.1081677675247192,0.034032791852951,-0.5803290605545044,0.0306543912738561,0.0726877897977829,0.0,0.0,-0.9490554928779602,0.4184615612030029
-0.0135665889829397,1.0949071645736694,0.0395941622555255,-0.5894405245780945,0.0344485715031623,0.0758837014436721,0.0,0.0,-0.8622906804084778,0.2462126016616821
-0.0130754467099905,1.081441879272461,0.045116126537323,-0.5985521078109741,0.038396555930376,0.0789596587419509,0.0,0.0,-0.8897568583488464,0.366276741027832
-0.0125281335785985,1.0677721500396729,0.0505935549736022,-0.6076638698577881,0.0424918979406356,0.0819068253040313,0.0,0.0,-0.6483076214790344,0.5960352420806885
-0.0118826869875192,1.0538945198059082,0.0613238327205181,-0.6168662905693054,0.045668214559555,0.0635264068841934,0.0,0.0,-0.9073640704154968,0.4874248504638672
-0.0111822132021188,1.039812445640564,0.0666970163583755,-0.6259775161743164,0.0489775724709034,0.0661873817443847,0.0,0.0,-0.8209923505783081,0.0364817380905151
-0.0104273799806833,1.025525689125061,0.0720106810331344,-0.6350889205932617,0.0524120964109897,0.0686904788017273,0.0,0.0,-0.6132826209068298,0.3698742389678955
-0.009618854150176,1.0110340118408203,0.0772600173950195,-0.6442003846168518,0.0559633858501911,0.0710256248712539,0.0,0.0,-0.4823299646377563,-0.36009681224823
-0.0087574962526559,0.9963376522064208,0.0824402496218681,-0.6533118486404419,0.0596225261688232,0.0731826871633529,0.0,0.0,-0.8438770174980164,0.5291426181793213
-0.0078051565214991,0.9814460277557372,0.0924259573221206,-0.661967396736145,0.0623944140970706,0.0554377809166908,0.0,0.0,-0.7891870737075806,0.5510761737823486
-0.0067562102340161,0.9663545489311218,0.103169061243534,-0.6708090901374817,0.0641062259674072,0.0342363826930522,0.0,0.0,-0.7850506901741028,-0.0551134347915649
-0.0056569101288914,0.9510580897331238,0.1081143617630004,-0.6799196004867554,0.0658962354063987,0.0358001440763473,0.0,0.0,-0.6548960208892822,0.101987600326538
-0.0045083998702466,0.9355568289756776,0.1129724830389022,-0.6890302896499634,0.0677536204457283,0.0371476784348487,0.0,0.0,-0.9585949778556824,0.4996407032012939
-0.0033116340637207,0.9198506474494934,0.1177391782402992,-0.6981408596038818,0.0696671605110168,0.0382707417011261,0.0,0.0,-0.6634336113929749,0.3892066478729248
-0.0020677566062659,0.9039396643638612,0.12241031229496,-0.7072513103485107,0.0716252699494361,0.0391620248556137,0.0,0.0,-0.7925553917884827,0.5402231216430664
-0.0007377624278888,0.887821614742279,0.1320017278194427,-0.7164070010185242,0.0726145803928375,0.0197860486805439,0.0,0.0,-0.935025155544281,-0.8336202502250671
0.0005768776172772,0.8714836239814758,0.1288847029209137,-0.7262638807296753,0.075159914791584,0.0509068965911865,0.0,0.0,-0.5771939754486084,0.5823378562927246
0.0019858360756188,0.8549432158470154,0.1396118998527526,-0.7351967692375183,0.0764370337128639,0.0255423299968242,0.0,0.0,-0.8675280809402466,-0.4050132036209106
0.0034373283851891,0.8381977677345276,0.1438619643449783,-0.744306743144989,0.0777098014950752,0.0254552848637104,0.0,0.0,-0.8992099761962891,-0.352293848991394
0.0049300193786621,0.8212475180625916,0.1479978114366531,-0.7534167766571045,0.0789656639099121,0.0251174271106719,0.0,0.0,-0.9004989266395569,-0.9800958633422852
0.0063827512785792,0.8040799498558044,0.1419884413480758,-0.763181746006012,0.0822135955095291,0.0649589970707893,0.0,0.0,-0.7206305861473083,0.613102912902832
0.0079338075593113,0.786714494228363,0.1534002721309662,-0.7718868255615234,0.0839074403047561,0.0338764041662216,0.0,0.0,-0.9244720935821532,-0.7613013386726379
0.0094560626894235,0.7691409587860107,0.148893654346466,-0.7812344431877136,0.0872071832418441,0.0659950599074363,0.0,0.0,-0.9667952656745912,0.6427173614501953
0.0110741611570119,0.7513667345046997,0.1600752025842666,-0.7900654077529907,0.0889287143945694,0.0344304554164409,0.0,0.0,-0.8848407864570618,-0.8186008930206299
0.0126621248200535,0.7333866357803345,0.1554977148771286,-0.7993194460868835,0.0921922698616981,0.0652713701128959,0.0,0.0,-0.7267295718193054,0.437004804611206
0.0142829893156886,0.7152013778686523,0.1588873416185379,-0.8084296584129333,0.0953663736581802,0.0634823217988014,0.0,0.0,-0.7159733772277832,-0.5062682628631592
0.0158894546329975,0.6968024373054504,0.1563602834939956,-0.8180091381072998,0.0996099859476089,0.0848723873496055,0.0,0.0,-0.4783443212509155,-0.4563761949539184
0.0175259597599506,0.6781986355781555,0.1594832390546798,-0.8271196484565735,0.1037424728274345,0.0826497226953506,0.0,0.0,0.2115145921707153,-0.7545114159584045
0.0191945079714059,0.6601395606994629,0.1611794829368591,-0.8030330538749695,0.1093803793191909,0.1127581745386123,0.0,0.0,0.2427634000778198,0.0541619062423706
0.0208786018192768,0.642808198928833,0.1625967323780059,-0.7707128524780273,0.1151472404599189,0.1153373345732688,0.0,0.0,-0.2921984195709228,0.4617496728897095
0.0225882530212402,0.625272274017334,0.1653098911046981,-0.7798242568969727,0.1207739412784576,0.1125341802835464,0.0,0.0,-0.1164594888687133,0.4525597095489502
0.024322222918272,0.6075313687324524,0.167884811758995,-0.7889353632926941,0.1262518316507339,0.1095579117536544,0.0,0.0,0.6038219928741455,0.323921799659729
0.0258966442197561,0.5905805826187134,0.1525452882051468,-0.7537916302680969,0.1311224102973938,0.0974119454622268,0.0,0.0,0.1365822553634643,0.8404659032821655
0.0276096351444721,0.5739841461181641,0.1682122498750686,-0.7378968596458435,0.1341992318630218,0.0615365616977214,0.0,0.0,-0.1506795287132263,-0.2535166144371032
0.0293425563722848,0.5571824312210083,0.1703718155622482,-0.7470056414604187,0.1371043622493744,0.0581027157604694,0.0,0.0,0.108875036239624,-0.4912731647491455
0.0310622211545705,0.5405765175819397,0.1692133545875549,-0.7383008599281311,0.1398554593324661,0.0550217144191265,0.0,0.0,0.0362968444824218,-0.4124412536621094
0.0326704010367393,0.524299681186676,0.158603623509407,-0.7236238718032837,0.1420628577470779,0.0441479422152042,0.0,0.0,0.4623382091522217,-0.6056683659553528
0.0341593734920024,0.5089436769485474,0.1456164866685867,-0.6828068494796753,0.1453319191932678,0.0653812140226364,0.0,0.0,0.1734802722930908,0.8111112117767334
0.0357631668448448,0.4937095642089844,0.1588738113641739,-0.6772191524505615,0.1468373239040374,0.0301084909588098,0.0,0.0,0.0674855709075927,-0.4735870361328125
0.0373164191842079,0.479092389345169,0.1539368629455566,-0.6497876048088074,0.1482232809066772,0.0277189351618289,0.0,0.0,-0.0178009271621704,-0.3758479356765747
0.038881205022335,0.4642699360847473,0.1552919298410415,-0.6588951945304871,0.1494045704603195,0.0236258953809738,0.0,0.0,-0.1219415068626403,-0.7631217241287231
0.0403870567679405,0.449229747056961,0.1478518545627594,-0.6687292456626892,0.1521345227956771,0.0545991770923137,0.0,0.0,0.5788462162017822,0.566025972366333
0.04188709333539,0.4348845183849334,0.1485433429479599,-0.6377183198928833,0.1535971611738205,0.0292528662830591,0.0,0.0,-0.2393805384635925,-0.5279653668403625
0.0433441177010536,0.4203280508518219,0.143175721168518,-0.6472154259681702,0.1561230570077896,0.0505177751183509,0.0,0.0,0.1279187202453613,0.676743745803833
0.0448551177978515,0.4061761498451233,0.1500832885503769,-0.6290823817253113,0.1571424156427383,0.0203872304409742,0.0,0.0,-0.3772166967391968,-0.3284096717834472
0.0463714599609375,0.3918188214302063,0.1508323401212692,-0.638189435005188,0.1579400599002838,0.0159527398645877,0.0,0.0,0.597143292427063,-0.5751824378967285
0.0478682518005371,0.3777215480804443,0.1477762311697006,-0.6267488598823547,0.1598421335220337,0.0380413606762886,0.0,0.0,0.4406726360321045,0.1572353839874267
0.0492937080562114,0.3638505935668945,0.1410047858953476,-0.6166537404060364,0.1613901108503341,0.0309592094272375,0.0,0.0,0.6431149244308472,0.5764703750610352
0.0506299957633018,0.3509561121463775,0.133494034409523,-0.5731046199798584,0.1615296304225921,0.0027901714202016,0.0,0.0,0.5748101472854614,-0.3882491588592529
0.0519176498055458,0.3390257358551025,0.1284988224506378,-0.5302668809890747,0.1617913097143173,0.0052334666252136,0.0,0.0,0.4578969478607178,-0.2207365036010742
0.0529913902282714,0.327933669090271,0.1078052371740341,-0.4929322004318237,0.1613624393939972,-0.0085775423794984,0.0,0.0,-0.0041942000389099,0.1354883909225464
0.0540642738342285,0.3166362047195434,0.1079543232917785,-0.5020390152931213,0.1606995612382888,-0.0132575053721666,0.0,0.0,0.5924322605133057,0.0995272397994995
0.0550519935786724,0.3062707185745239,0.0994894057512283,-0.4606092274188995,0.1599810421466827,-0.0143704460933804,0.0,0.0,0.6649200916290283,-0.2635735869407654
0.0558440200984478,0.2965342402458191,0.0806317552924156,-0.4325790405273437,0.158553346991539,-0.0285536739975214,0.0,0.0,0.7144261598587036,0.169427752494812
0.0564656257629394,0.2876207232475281,0.0640895515680313,-0.3959530591964721,0.1566245108842849,-0.0385766997933387,0.0,0.0,0.7722915410995483,-0.0207892060279846
0.0569536201655864,0.2796102166175842,0.0510311909019947,-0.3557908833026886,0.1543972343206405,-0.0445455312728881,0.0,0.0,0.4231104850769043,0.5876436233520508
0.0574868209660053,0.2721668481826782,0.0567872337996959,-0.3304616808891296,0.1509310901165008,-0.0693226307630539,0.0,0.0,0.2703704833984375,0.1673927307128906
0.0579934120178222,0.2649125754833221,0.0542794056236743,-0.3220477700233459,0.147308275103569,-0.0724562332034111,0.0,0.0,0.4502544403076172,-0.3129351139068603
0.0585228912532329,0.2579953968524933,0.0564523823559284,-0.3070884943008423,0.1438203305006027,-0.069758839905262,0.0,0.0,0.1042470932006836,-0.1264098286628723
0.0590890869498252,0.2514606714248657,0.0598980598151683,-0.2901186048984527,0.1405446678400039,-0.0655133724212646,0.0,0.0,0.4961068630218506,-0.7237266302108765
0.0596807487308979,0.2452628463506698,0.0609940700232982,-0.2752881348133087,0.1387241333723068,-0.036410667002201,0.0,0.0,0.2495818138122558,-0.6484227180480957
0.0601311698555946,0.2396968752145767,0.0458241328597068,-0.2473073601722717,0.1379454731941223,-0.015573208220303,0.0,0.0,-0.72989821434021,0.3827053308486938
0.0605746284127235,0.2339254021644592,0.0453702807426452,-0.256414532661438,0.1369222104549408,-0.0204653348773717,0.0,0.0,-0.4372191429138183,-0.5720142126083374
0.0609750747680664,0.2279432862997055,0.0404157862067222,-0.2658372521400451,0.136559322476387,-0.0072576976381242,0.0,0.0,-0.0198284983634948,0.0244237184524536
0.0613682754337787,0.2217558175325393,0.039932694286108,-0.274944394826889,0.1359506696462631,-0.012172938324511,0.0,0.0,0.4298193454742431,-0.3802917599678039
0.0616494193673133,0.2160086035728454,0.0291787944734096,-0.25533327460289,0.1348853111267089,-0.0213069394230842,0.0,0.0,0.1743450164794922,-0.4711197018623352
0.0619003288447856,0.2109797149896621,0.0261300597339868,-0.2234129607677459,0.1338513791561126,-0.02067856118083,0.0,0.0,-0.1409407258033752,0.045572280883789
0.0621439926326274,0.2057453989982605,0.0256529934704303,-0.2325202375650406,0.132570132613182,-0.0256246179342269,0.0,0.0,-0.3285990953445434,-0.8172665238380432
0.0623026862740516,0.2002976536750793,0.0154193537309765,-0.2421616017818451,0.1330075412988662,0.0087481793016195,0.0,0.0,0.379432201385498,0.5019098520278931
0.0624938979744911,0.1955366879701614,0.0197529755532741,-0.2115393728017807,0.1323839724063873,-0.012471655383706,0.0,0.0,-0.2289224863052368,-0.8023449182510376
0.0626095756888389,0.1905625164508819,0.0106922183185815,-0.2211541682481765,0.133254200220108,0.0174044482409954,0.0,0.0,0.2039122581481933,0.6705303192138672
0.062631607055664,0.1861959546804428,0.0030262949876487,-0.193995326757431,0.1324384659528732,-0.0163148138672113,0.0,0.0,-0.1541425585746765,0.4878476858139038
0.0626478195190429,0.1816239655017852,0.0026950160972774,-0.2031025737524032,0.1313731223344802,-0.0213065519928932,0.0,0.0,-0.1938487291336059,-0.2686237692832947
0.0626587867736816,0.1768466979265213,0.0024134519044309,-0.212209865450859,0.1300577819347381,-0.0263069532811641,0.0,0.0,-0.0236921906471252,-0.5004945993423462
0.0626160651445388,0.1718532145023346,-0.003961413167417,-0.2219040542840957,0.1297419518232345,-0.0063164979219436,0.0,0.0,0.5657974481582642,0.3111603260040283
0.0625805854797363,0.1676868498325348,-0.0034440788440406,-0.1851632893085479,0.1296396255493164,-0.0020466507412493,0.0,0.0,-0.0828622579574585,0.6692700386047363
0.0626000389456749,0.1633206456899643,0.0037764296866953,-0.1938970386981964,0.127815768122673,-0.0364771485328674,0.0,0.0,-0.1629824042320251,-0.5630971193313599
0.0625828728079795,0.1587468683719635,-0.0004851687117479,-0.2031724005937576,0.1265918463468551,-0.0244788452982902,0.0,0.0,0.6497774124145508,-0.7709775567054749
0.062380027025938,0.1551108658313751,-0.0202941857278347,-0.1616012901067733,0.12660513818264,0.000265967217274,0.0,0.0,-0.3428071737289428,0.59586501121521
0.0622334480285644,0.1512873917818069,-0.012931945733726,-0.1697873920202255,0.1248908713459968,-0.0342850573360919,0.0,0.0,0.187777042388916,-0.5644434094429016
0.0620508193969726,0.1478817760944366,-0.0175353996455669,-0.1513011753559112,0.1241615563631057,-0.0145864365622401,0.0,0.0,-0.3806204795837402,-0.0281989574432373
0.0618691444396972,0.1442707329988479,-0.0171765424311161,-0.160408541560173,0.1231789141893386,-0.0196526255458593,0.0,0.0,-0.3539518117904663,0.059769868850708
0.0616896636784076,0.140454351902008,-0.0167082771658897,-0.1695159524679184,0.1219425871968269,-0.0247263722121715,0.0,0.0,0.0796397924423217,-0.0954189300537109
0.0615292564034462,0.1368882954120636,-0.014786472544074,-0.1583907455205917,0.1206957846879959,-0.0249362178146839,0.0,0.0,-0.0396115779876709,0.0518937110900878
0.0613733306527137,0.1331169009208679,-0.0140810310840606,-0.1674982607364654,0.1191945821046829,-0.0300242248922586,0.0,0.0,-0.2167674899101257,-0.3387528657913208
0.0612232200801372,0.1291401535272598,-0.0132481288164854,-0.1766058653593063,0.1174386292695999,-0.0351188406348228,0.0,0.0,-0.2576548457145691,-0.8949514031410217
0.0610074028372764,0.1249445974826812,-0.021419420838356,-0.18645541369915,0.1172777861356735,-0.0032169190235435,0.0,0.0,-0.0442228317260742,-0.2958555817604065
0.0608000755310058,0.1205436289310455,-0.0203148331493139,-0.1955628544092178,0.1168616190552711,-0.0083232652395963,0.0,0.0,0.4754258394241333,-0.5616481900215149
0.0606469139456748,0.1164250448346138,-0.0160674601793289,-0.1831091195344925,0.117609292268753,0.0149535415694117,0.0,0.0,-0.0589914917945861,0.6696474552154541
0.0605660453438758,0.1121148467063903,-0.0070203067734837,-0.1914805322885513,0.1165471002459526,-0.0212437156587839,0.0,0.0,0.1305001974105835,-0.9675001502037048
0.0603773109614849,0.1084210500121116,-0.0194789581000804,-0.1642176210880279,0.1171547323465347,0.012152386829257,0.0,0.0,-0.5503321290016174,0.1170117855072021
0.0602031722664833,0.1045219004154205,-0.0177699215710163,-0.1733250916004181,0.1175062730908393,0.007030788809061,0.0,0.0,-0.142016053199768,-0.295940637588501
