x_pos,y_pos,x_vel,y_vel,angle,ang_vel,leg_1,leg_2,main_booster,lat_booster
-0.0015556334983557,1.4033384323120115,-0.1574564427137375,-0.3369618058204651,0.0016962847439572,0.0334560200572013,0.0,0.0,0.7308132327971879,0.6765199261711521
-0.0030315399635583,1.396215796470642,-0.1479619890451431,-0.3165611922740936,0.002062591491267,0.0073271407745778,0.0,0.0,-0.3862236667540892,-0.9175213112804956
-0.0045943260192871,1.3887996673583984,-0.1579856723546981,-0.329608142375946,0.0037468404043465,0.0336879454553127,0.0,0.0,0.6637600464171451,-0.736789975280149
-0.0063784597441554,1.381848931312561,-0.181201085448265,-0.3089338839054107,0.0065051154233515,0.0551708117127418,0.0,0.0,0.0937813682780113,0.7367062010308142
-0.0080389026552438,1.3752634525299072,-0.1673709452152252,-0.2926948368549347,0.0078094471246004,0.0260888896882534,0.0,0.0,0.0481583076214318,0.8162689082960884
-0.0095646856352686,1.368909478187561,-0.1522184312343597,-0.2823962569236755,0.007455488666892,-0.0070793824270367,0.0,0.0,-0.3629349511263127,0.9903320665500552
-0.0110430717468261,1.3622703552246094,-0.1454755514860153,-0.2950621843338012,0.0051236529834568,-0.0466409064829349,0.0,0.0,0.1638269992521732,0.8255823565281737
-0.0123640056699514,1.3560328483581543,-0.1280982196331024,-0.2772130370140075,0.001164944958873,-0.0791814923286438,0.0,0.0,0.7078509295056568,0.6929129255454535
-0.0136708263307809,1.3508148193359375,-0.1251691579818725,-0.2319223135709762,-0.004286048002541,-0.1090297698974609,0.0,0.0,-0.936103477324702,0.8171330831500876
-0.0149382594972848,1.3453158140182495,-0.1195038929581642,-0.2444401234388351,-0.0114395963028073,-0.1430840641260147,0.0,0.0,-0.992790885620728,0.6636666980647666
-0.0161699298769235,1.3395310640335083,-0.1143137663602829,-0.2571867704391479,-0.0201804842799901,-0.1748338043689727,0.0,0.0,-0.6982330197260456,0.7852198247701887
-0.0173552520573139,1.3334579467773438,-0.1078565940260887,-0.2700925469398498,-0.0307430792599916,-0.211271733045578,0.0,0.0,-0.9567557275165988,-0.8130362475828803
-0.0186126716434955,1.3271067142486572,-0.1162665262818336,-0.2824990451335907,-0.0401219502091407,-0.1875942945480346,0.0,0.0,-0.0906743024546852,0.923908283403356
-0.0198102947324514,1.3204573392868042,-0.1081379875540733,-0.2958723604679107,-0.0516253933310508,-0.230089783668518,0.0,0.0,-0.4474451830236152,-0.9325627128286268
-0.0210837367922067,1.3135377168655396,-0.1170940026640892,-0.3079233467578888,-0.0617856010794639,-0.2032225430011749,0.0,0.0,-0.1538076119416904,-0.8954794539052986
-0.0224346164613962,1.3063281774520874,-0.1262151896953582,-0.3208126723766327,-0.0705702900886535,-0.1757097244262695,0.0,0.0,0.0315240945530961,0.7930069627019045
-0.0236029624938964,1.2996251583099363,-0.1063513606786727,-0.2984425127506256,-0.0809594988822937,-0.2078031599521637,0.0,0.0,0.7581437805882394,0.9012298512439284
-0.0245177261531353,1.2931969165802002,-0.0794191062450409,-0.2863888144493103,-0.0929274708032608,-0.2393809556961059,0.0,0.0,-0.99097138527121,0.9846675858764776
-0.0253581050783395,1.2864819765090942,-0.0696275979280471,-0.2994051873683929,-0.1072378158569336,-0.2862332165241241,0.0,0.0,0.3947475042112378,-0.9151181580313468
-0.0263113975524902,1.2802196741104126,-0.0826359391212463,-0.2792857885360718,-0.1198670417070388,-0.2526068687438965,0.0,0.0,0.8449932188278848,0.8342266351993227
-0.0269571300595998,1.2748903036117554,-0.0504696145653724,-0.2380558848381042,-0.1339118927717209,-0.2809224426746368,0.0,0.0,0.1029986968852714,0.7102317567017719
-0.0275121685117483,1.2696996927261353,-0.0399600230157375,-0.2321600466966629,-0.1494311243295669,-0.3104127943515777,0.0,0.0,-0.0004187384070648,-0.976591881475759
-0.0281391143798828,1.2642382383346558,-0.0486464127898216,-0.244199514389038,-0.1634808778762817,-0.2810204625129699,0.0,0.0,0.3679237296884654,-0.9489065266089074
-0.0287444107234478,1.2588673830032349,-0.0483943074941635,-0.2400869280099868,-0.1756499260663986,-0.2434029877185821,0.0,0.0,-0.1230123591467935,-0.6335826047583437
-0.0294205658137798,1.2532302141189575,-0.0570068769156932,-0.2518360316753387,-0.186307206749916,-0.2131647765636444,0.0,0.0,0.6010991639268009,0.6798089236150658
-0.0300806052982807,1.248324990272522,-0.0536762997508049,-0.2196076959371566,-0.1987065523862838,-0.2479867190122604,0.0,0.0,0.8431302916414807,0.8573308923686037
-0.0305174831300973,1.2443116903305054,-0.029635589569807,-0.1803133636713028,-0.2128714621067047,-0.2832981050014496,0.0,0.0,-0.2355078096088396,0.9695249451900932
-0.0309018138796091,1.2400065660476685,-0.0228651333600282,-0.1936649233102798,-0.2286096811294555,-0.3147645890712738,0.0,0.0,0.9209902684759343,-0.8663649201149692
-0.031316090375185,1.236820936203003,-0.0272825397551059,-0.1438386291265487,-0.2429706454277038,-0.2872197031974792,0.0,0.0,0.0437933364112255,0.6780686377153722
-0.0316251739859581,1.2337846755981443,-0.0153974369168281,-0.1375830918550491,-0.2587654292583465,-0.3158958256244659,0.0,0.0,0.7481741990237551,-0.8948227290511425
-0.0317547805607318,1.23179292678833,0.0007116744527593,-0.0909985229372978,-0.2727523446083069,-0.279738575220108,0.0,0.0,0.8233567557530193,-0.8987021488274405
-0.0319188125431537,1.230278253555298,-0.0043456135317683,-0.0696181207895279,-0.2851291596889496,-0.2475360333919525,0.0,0.0,-0.531360190637121,0.9197052855196316
-0.0320241935551166,1.228461742401123,0.0030570481903851,-0.0834509804844856,-0.2991509735584259,-0.2804362177848816,0.0,0.0,0.9577087656480364,-0.7524811906909781
-0.0321423523128032,0.0,0.0004894931335002,-0.0662026107311248,-0.3118762671947479,-0.2545064389705658,0.0,0.0,0.0802023822029331,0.8414240018167916
-0.0320608131587505,1.2258660793304443,0.0220701675862073,-0.0547953136265277,-0.3263494074344635,-0.2894634008407593,0.0,0.0,-0.9218323037935836,0.7338028427296106
-0.0319226272404193,1.224395751953125,0.0291936192661523,-0.0688962936401367,-0.3423959612846374,-0.3209309577941894,0.0,0.0,-0.8135650328634212,-0.8200630085508287
-0.0318485274910926,1.222672462463379,0.0210457276552915,-0.079899750649929,-0.356727659702301,-0.2866340279579162,0.0,0.0,-0.1102734285325504,0.9361081154253644
-0.0316988006234169,1.2206320762634275,0.0305020324885845,-0.0946287587285041,-0.3731245696544647,-0.3279377520084381,0.0,0.0,0.0817391887408662,-0.9999055387002088
-0.0314455032348632,1.2191493511199951,0.0388160422444343,-0.0694822371006012,-0.3874625563621521,-0.2867600321769714,0.0,0.0,-0.1527987755715691,-0.6991443184240522
-0.0312385559082031,1.2174137830734253,0.0328437350690364,-0.0805039033293724,-0.4004504680633545,-0.2597583830356598,0.0,0.0,0.8165205334106702,0.8834257186198772
-0.0307491309940814,1.2166192531585691,0.0629516839981079,-0.039334736764431,-0.4154990911483764,-0.3009725213050842,0.0,0.0,-0.6444531679153442,-0.9991455078125
-0.0303141586482524,1.2155771255493164,0.0559041313827037,-0.0500297620892524,-0.4289246797561645,-0.268511563539505,0.0,0.0,-0.5953851938247681,-0.9965749382972716
-0.0299385078251361,1.2142817974090576,0.048328761011362,-0.0608961768448352,-0.4406468272209167,-0.2344427108764648,0.0,0.0,-0.8867925405502319,-0.9972549676895142
-0.0296189300715923,1.2127418518066406,0.0411098301410675,-0.0713448449969291,-0.4506534337997436,-0.2001324445009231,0.0,0.0,-0.5229780673980713,-0.9979893565177916
-0.0293740276247262,1.210961103439331,0.0316000655293464,-0.0814612433314323,-0.4584674537181854,-0.1562802642583847,0.0,0.0,-0.8613869547843933,-0.9748639464378356
-0.0291913039982318,1.2089329957962036,0.0236809942871332,-0.0919311195611953,-0.4644257128238678,-0.1191649883985519,0.0,0.0,-0.4224294424057007,-0.9954766035079956
-0.0290684700012207,1.2066614627838137,0.0159973595291376,-0.1022045537829399,-0.4685298502445221,-0.0820834189653396,0.0,0.0,-0.7840883731842041,-0.997986614704132
-0.0290204044431448,1.2041761875152588,0.0062687150202691,-0.1109455004334449,-0.470145970582962,-0.0323228053748607,0.0,0.0,-0.9092994332313538,-0.9894384741783142
-0.0290490146726369,1.20147705078125,-0.0036948877386748,-0.1196834221482276,-0.4692257046699524,0.0184053406119346,0.0,0.0,-0.8112760782241821,-0.9367355704307556
-0.0291412360966205,1.1985410451889038,-0.011882958933711,-0.1295942068099975,-0.4662828147411346,0.0588575415313243,0.0,0.0,-0.6035142540931702,-0.9852123260498048
-0.0292808525264263,0.0,-0.0180541723966598,-0.1400786936283111,-0.4617723226547241,0.0902099758386612,0.0,0.0,-0.8187277913093567,-0.9579445123672484
-0.0294869430363178,1.1919512748718262,-0.0266995839774608,-0.1494359374046325,-0.455058604478836,0.1342743933200836,0.0,0.0,-0.7768233418464661,-0.9241061806678772
-0.0297424308955669,1.1882928609848022,-0.0330961607396602,-0.1601514220237732,-0.4467724561691284,0.1657227128744125,0.0,0.0,-0.9108848571777344,-0.9357160925865172
-0.0300555229187011,1.184404373168945,-0.0406903438270092,-0.1698545068502426,-0.4365316033363342,0.2048167884349823,0.0,0.0,-0.9135374426841736,-0.9208876490592957
-0.0304134376347064,1.180262804031372,-0.0465375408530235,-0.180770069360733,-0.4248506426811218,0.2336190044879913,0.0,0.0,-0.9768405556678772,-0.8223194479942322
-0.0308348648250103,1.1758801937103271,-0.0547878257930278,-0.1910358816385269,-0.4111919701099396,0.2731736898422241,0.0,0.0,-0.9821410179138184,-0.5580081343650818
-0.0312832817435264,1.1712406873703003,-0.058482926338911,-0.2023031413555145,-0.3965465426445007,0.2929089367389679,0.0,0.0,-0.939900040626526,-0.5414034724235535
-0.0317561142146587,1.1663390398025513,-0.0618167929351329,-0.2138708531856537,-0.3810305893421173,0.3103192448616028,0.0,0.0,-0.9915270805358888,-0.7728708386421204
-0.0322710052132606,1.1611918210983276,-0.0674582868814468,-0.2246021926403045,-0.3641032576560974,0.338546872138977,0.0,0.0,-0.9909621477127076,-0.8636966347694397
-0.0328505523502826,1.1558102369308472,-0.0759411305189132,-0.2347252368927002,-0.3451603949069977,0.3788571953773498,0.0,0.0,-0.9882318377494812,-0.4872394800186157
-0.0334254279732704,1.1501470804214478,-0.0756065770983696,-0.2474628239870071,-0.3262099921703338,0.3790079951286316,0.0,0.0,-0.9971572160720824,-0.6217207908630371
-0.0340494140982627,1.144233465194702,-0.0820704996585846,-0.2585251331329345,-0.3057664632797241,0.4088706374168396,0.0,0.0,-0.9918507933616638,-0.2730019092559814
-0.0346695892512798,1.1380391120910645,-0.0818249434232711,-0.2712678015232086,-0.28531414270401,0.4090457558631897,0.0,0.0,-0.9913437366485596,-0.3912428617477417
-0.0352865234017372,1.1315641403198242,-0.0816297605633735,-0.2840107083320617,-0.2648526132106781,0.4092312753200531,0.0,0.0,-0.9854145646095276,-0.2523558735847473
-0.035900879651308,1.1248085498809814,-0.0814897567033767,-0.2967538237571716,-0.2443813383579254,0.4094251692295074,0.0,0.0,-0.998500108718872,0.5593132972717285
-0.0364791862666606,1.1177595853805542,-0.0771216824650764,-0.3101955056190491,-0.2247970998287201,0.3916844725608825,0.0,0.0,-0.9952195286750792,0.5129561424255371
-0.0370144844055175,1.1104215383529663,-0.0718725249171257,-0.3234610557556152,-0.2062682211399078,0.3705779016017914,0.0,0.0,-0.9927524328231812,0.2156628370285034
-0.0375495925545692,1.10280179977417,-0.0719243139028549,-0.3361985981464386,-0.1877288222312927,0.370788037776947,0.0,0.0,-0.9976971745491028,0.8228304386138916
-0.0380172729492187,1.0948903560638428,-0.0635429769754409,-0.3495828509330749,-0.1708981245756149,0.3366142809391022,0.0,0.0,-0.996467113494873,0.6583007574081421
-0.0384435653686523,1.0866824388504028,-0.0583424158394336,-0.3630669414997101,-0.1551716029644012,0.3145303726196289,0.0,0.0,-0.9990396499633788,0.5355813503265381
-0.0388364791870117,1.0781855583190918,-0.0541512444615364,-0.3761631548404693,-0.1403418332338333,0.2965954840183258,0.0,0.0,-0.9875382781028748,0.9306563138961792
-0.0391560569405555,1.0693904161453247,-0.0448885858058929,-0.3897197842597961,-0.1274563819169998,0.2577088475227356,0.0,0.0,-0.9903599619865416,0.9036926031112672
-0.0394232757389545,1.0603108406066897,-0.0382695756852626,-0.4025950729846954,-0.1159752830862999,0.2296220362186432,0.0,0.0,-0.9891467690467834,0.9490084648132324
-0.0396122932434082,1.0509321689605713,-0.0283257719129323,-0.416131317615509,-0.106609858572483,0.1873085498809814,0.0,0.0,-0.964761197566986,0.935439944267273
-0.039738655090332,1.0412498712539673,-0.0203167870640754,-0.4297931492328644,-0.0989998504519462,0.152200311422348,0.0,0.0,-0.9810597896575928,0.8551874160766602
-0.0397983565926551,1.0312621593475342,-0.011733740568161,-0.4435303509235382,-0.0932826250791549,0.1143448501825332,0.0,0.0,-0.9784588813781738,0.9348212480545044
-0.0397974029183387,1.0209695100784302,-0.0039037871174514,-0.4572015106678009,-0.089326836168766,0.0791156589984893,0.0,0.0,-0.8537308573722839,0.5920553207397461
-0.0397599227726459,1.010390281677246,0.000921061146073,-0.4700202643871307,-0.0865266323089599,0.0560044534504413,0.0,0.0,-0.8921317458152771,0.2030951976776123
-0.039733313024044,0.999525249004364,-0.0001748785434756,-0.4827305376529693,-0.0837213024497032,0.0561067461967468,0.0,0.0,-0.8357039093971252,0.4401593208312988
-0.0397189147770404,0.9883742928504944,-0.0013884289655834,-0.495440810918808,-0.0809120386838913,0.0561851449310779,0.0,0.0,-0.8124920129776001,0.402119517326355
-0.039717674255371,0.9769376516342164,-0.0027224337682127,-0.508151113986969,-0.078100174665451,0.0562373995780944,0.0,0.0,-0.897578239440918,0.6053516864776611
-0.0396798141300678,0.9652143120765686,0.0022430371027439,-0.520955502986908,-0.0765721425414085,0.0305607505142688,0.0,0.0,-0.9935378432273864,0.1882162094116211
-0.0396577827632427,0.9532051682472228,0.0006605746457353,-0.5336653590202332,-0.0750444233417511,0.0305541642010211,0.0,0.0,-0.9811180233955384,0.3766001462936401
-0.0396529212594032,0.9409100413322448,-0.0010494553716853,-0.5463751554489136,-0.073518693447113,0.0305148996412754,0.0,0.0,-0.93283873796463,-0.0587731003761291
-0.0396663658320903,0.9283289909362792,-0.0028889153618365,-0.5590850114822388,-0.071996659040451,0.0304408632218837,0.0,0.0,-0.9576727151870728,-0.0849265456199646
-0.0396997444331646,0.9154618382453918,-0.0048594013787806,-0.5717948079109192,-0.0704801604151725,0.030329966917634,0.0,0.0,-0.9278397560119628,-0.3090454339981079
-0.0397541038691997,0.9023088812828064,-0.0069622308947145,-0.5845046639442444,-0.068971149623394,0.0301801655441522,0.0,0.0,-0.8940432071685791,-0.1405785083770752
-0.0398309715092182,0.8888699412345886,-0.0091984458267688,-0.5972145199775696,-0.0674716606736183,0.0299894772469997,0.0,0.0,-0.9798130989074708,0.0456690788269043
-0.039931584149599,0.8751451373100281,-0.0115688033401966,-0.6099244356155396,-0.0659838616847992,0.0297560095787048,0.0,0.0,-0.8909703493118286,0.2528190612792969
-0.0400574691593647,0.8611344695091248,-0.0140737770125269,-0.6226342916488647,-0.0645099580287933,0.0294779129326343,0.0,0.0,-0.9453073740005492,-0.180627703666687
-0.0402098670601844,0.8468377590179443,-0.0167135503143072,-0.6353442072868347,-0.0630522817373275,0.0291533470153808,0.0,0.0,-0.9387403130531312,0.15591561794281
-0.0403902046382427,0.8322551250457764,-0.0194880254566669,-0.6480541229248047,-0.0616132691502571,0.0287806540727615,0.0,0.0,-0.8954720497131348,-0.1357362270355224
-0.0405998229980468,0.8173866868019104,-0.0223968308418989,-0.6607639789581299,-0.0601953528821468,0.0283581856638193,0.0,0.0,-0.907048523426056,-0.5120947360992432
-0.0408740043640136,0.8022300004959106,-0.0296864621341228,-0.6735430955886841,-0.0579537265002727,0.0448326840996742,0.0,0.0,-0.7975548505783081,-0.0223827958106994
-0.0411802306771278,0.7867874503135681,-0.0328617207705974,-0.6862533092498779,-0.0557384043931961,0.0443062596023082,0.0,0.0,-0.7053178548812866,0.2431895732879638
-0.0415198318660259,0.771058976650238,-0.0361685529351234,-0.698963463306427,-0.053552109748125,0.0437258221209049,0.0,0.0,-0.3448925614356994,0.3150326013565063
-0.0418940559029579,0.7550445795059204,-0.0396055281162261,-0.7116736769676208,-0.0513975881040096,0.0430901907384395,0.0,0.0,-0.4443323612213135,0.1790368556976318
-0.0423044189810752,0.73874431848526,-0.0431709811091423,-0.7243839502334595,-0.0492776744067668,0.0423982813954353,0.0,0.0,-0.5951910018920898,0.3106410503387451
-0.0427519790828228,0.7221581339836121,-0.0468630269169807,-0.737093985080719,-0.0471952222287654,0.0416491478681564,0.0,0.0,-0.176070749759674,-0.2053842544555664
-0.043238066136837,0.7052860856056213,-0.0506795533001422,-0.7498041391372681,-0.0451531186699867,0.0408419743180274,0.0,0.0,-0.4557241201400757,-0.0271559953689575
-0.043764017522335,0.6881282329559326,-0.0546182617545127,-0.7625142335891724,-0.0431543253362178,0.0399760119616985,0.0,0.0,-0.2776634693145752,0.4054911136627197
-0.0443310737609863,0.6706844568252563,-0.0586766712367534,-0.7752243876457214,-0.0412017777562141,0.039050742983818,0.0,0.0,0.3247696161270141,0.6092413663864136
-0.0449749939143657,0.6536815166473389,-0.0648975595831871,-0.7556746602058411,-0.0407083816826343,0.0098679233342409,0.0,0.0,0.0838654041290283,0.0797384977340698
-0.0457470901310443,0.6369136571884155,-0.0771893560886383,-0.7452414631843567,-0.0407238453626632,-0.0003091409162152,0.0,0.0,0.0118771791458129,-0.6107775568962097
-0.0465206131339073,0.6205215454101562,-0.0786025747656822,-0.728505551815033,-0.0394926704466342,0.0246234368532896,0.0,0.0,-0.2052763104438781,0.6153483390808105
-0.0472864136099815,0.603834867477417,-0.0763982757925987,-0.7416315078735352,-0.0396694354712963,-0.0035354532301425,0.0,0.0,0.3271011114120483,-0.4171032905578613
-0.0479581840336322,0.587773859500885,-0.0674833804368972,-0.713811993598938,-0.0393686071038246,0.0060166837647557,0.0,0.0,0.1993938684463501,0.3456298112869262
-0.0486721992492675,0.5722724199295044,-0.0715623348951339,-0.6889515519142151,-0.0392088666558265,0.0031947933603078,0.0,0.0,-0.2798326015472412,0.6219346523284912
-0.0493740066885948,0.556488573551178,-0.0687250643968582,-0.7015403509140015,-0.0406458303332328,-0.0287394262850284,0.0,0.0,-0.5705300569534302,0.6662952899932861
-0.0500661842525005,0.5404154062271118,-0.0661865770816803,-0.7144497036933899,-0.0436465293169021,-0.0600138679146766,0.0,0.0,0.3946279287338257,-0.1199808120727539
-0.0507851615548133,0.525089681148529,-0.0687586441636085,-0.681239664554596,-0.0467484965920448,-0.0620395243167877,0.0,0.0,0.7016309499740601,0.5633900165557861
-0.0514062866568565,0.5106906890869141,-0.05793983861804,-0.6400889158248901,-0.0508706420660018,-0.0824427306652069,0.0,0.0,-0.3268551826477051,-0.7663627862930298
-0.0521325096487998,0.4960061907768249,-0.0697110965847969,-0.6527464985847473,-0.0537514127790927,-0.057615477591753,0.0,0.0,-0.2591703534126282,-0.5981754660606384
-0.0529689788818359,0.4810414612293243,-0.0821000933647155,-0.6651557683944702,-0.0552814714610576,-0.0306012481451034,0.0,0.0,0.4024946689605713,0.320509672164917
-0.0539443008601665,0.4664543271064758,-0.0953894928097724,-0.6483960747718811,-0.0573999471962451,-0.0423692092299461,0.0,0.0,0.1663966178894043,0.7772500514984131
-0.0549077987670898,0.4521732330322265,-0.092533029615879,-0.6348668336868286,-0.0611675828695297,-0.0753529965877533,0.0,0.0,0.5819981098175049,0.7652626037597656
-0.0558078773319721,0.438361793756485,-0.0846177712082862,-0.6140706539154053,-0.0664992853999137,-0.1066340655088424,0.0,0.0,-0.5783431529998779,0.0026417970657348
-0.0567644126713275,0.424264907836914,-0.0901665836572647,-0.6267831325531006,-0.0719232633709907,-0.1084798574447631,0.0,0.0,0.9948842525482178,0.1712657213211059
-0.057601261883974,0.4111049771308899,-0.0786557719111442,-0.5851335525512695,-0.0768977701663971,-0.0994903519749641,0.0,0.0,0.7207080125808716,-0.369933009147644
-0.0584052093327045,0.398913025856018,-0.0753932148218154,-0.5421311855316162,-0.0818488746881485,-0.0990223139524459,0.0,0.0,-0.9839317798614502,0.4134023189544678
