x_pos,y_pos,x_vel,y_vel,angle,ang_vel,leg_1,leg_2,main_booster,lat_booster
-0.0015377044910565,1.403445601463318,-0.1556865125894546,-0.3321984112262726,0.0017106177983805,0.0337397716939449,0.0,0.0,0.7559709175566165,-0.996009920567396
-0.0031088828109204,1.3965461254119873,-0.1608439981937408,-0.3066537976264953,0.0053992648608982,0.0737805217504501,0.0,0.0,0.73777287489129,0.7912388120390739
-0.0044838907197117,1.3901007175445557,-0.1399592459201812,-0.2864762246608734,0.0078325793147087,0.0486708059906959,0.0,0.0,-0.2278225754313887,0.9506433535555652
-0.0058186529204249,1.3834739923477173,-0.1344184130430221,-0.294528990983963,0.0087662525475025,0.0186749938875436,0.0,0.0,-0.1470981284247434,0.9732249105103437
-0.0070820809341967,1.3766727447509766,-0.1249617338180542,-0.3022709488868713,0.0073989708907902,-0.0273481216281652,0.0,0.0,0.0528069112850482,0.7423037491395862
-0.008212280459702,1.3702125549316406,-0.1102984994649887,-0.2871091067790985,0.0047094714827835,-0.0537952370941638,0.0,0.0,0.6226746706663584,-0.8762298972477995
-0.0094639779999852,1.3644235134124756,-0.1242499127984047,-0.2572848200798034,0.0038012913428246,-0.01816519908607,0.0,0.0,-0.5924413548147092,-0.6469219719703159
-0.010780906304717,1.3584574460983276,-0.1318663209676742,-0.2651660740375519,0.0039688008837401,0.0033507361076772,0.0,0.0,0.4409700433485302,0.8780658138544082
-0.0120722772553563,1.3534170389175415,-0.1276692599058151,-0.224009171128273,0.0025188946165144,-0.0290010906755924,0.0,0.0,-0.529525141720935,0.9926774779040122
-0.0133159635588526,1.3482043743133545,-0.1210739836096763,-0.2316746115684509,-0.0007326010963879,-0.0650360435247421,0.0,0.0,0.8128627503711969,0.8197050527120039
-0.0144226076081395,1.343791961669922,-0.1061441078782081,-0.1961152553558349,-0.0052065192721784,-0.0894863754510879,0.0,0.0,-0.7567706397110183,0.7620482731151941
-0.0154958721250295,1.3391989469528198,-0.1012954264879226,-0.2041715532541275,-0.0111602125689387,-0.119084820151329,0.0,0.0,0.3998034158190913,-0.8245913453601027
-0.0165380481630563,1.3353195190429688,-0.1002562791109085,-0.1724540889263153,-0.0150802358984947,-0.0784077495336532,0.0,0.0,-0.4478577165015791,0.862532559606037
-0.0175412185490131,1.331251621246338,-0.0946817249059677,-0.180863007903099,-0.0206581391394138,-0.1115682274103164,0.0,0.0,-0.4877487457728675,0.728080535414666
-0.0185116771608591,1.3270108699798584,-0.0898720622062683,-0.1885974258184433,-0.0277458280324935,-0.1417669355869293,0.0,0.0,0.6365743935572388,-0.9892176694907912
-0.0194689743220806,1.3230195045471191,-0.0909957960247993,-0.177484929561615,-0.032427579164505,-0.0936435014009475,0.0,0.0,0.5131034235800154,-0.8971195958296312
-0.0203701965510845,1.3200308084487915,-0.0876803249120712,-0.1328821629285812,-0.0348353907465934,-0.0481605008244514,0.0,0.0,0.5655167415694227,-0.6837945684794242
-0.0212079044431448,1.3173846006393433,-0.0833480060100555,-0.1176193729043006,-0.0352497212588787,-0.0082876496016979,0.0,0.0,-0.691821502330751,-0.7374909417104735
-0.0221380237489938,1.3145687580108645,-0.0941801965236663,-0.125113159418106,-0.034093614667654,0.023124199360609,0.0,0.0,0.6723194167105375,-0.7458183135641459
-0.0232420917600393,1.3124405145645142,-0.1132429465651512,-0.0945365354418754,-0.0312823913991451,0.0562296323478221,0.0,0.0,-0.4372966060990346,-0.7830543723539263
-0.0244409553706645,1.3101410865783691,-0.1243501752614975,-0.1021094098687172,-0.0268725529313087,0.0882046744227409,0.0,0.0,0.799326705971301,-0.986135379001575
-0.0257381442934274,1.308382868766785,-0.1365672349929809,-0.0780386179685592,-0.0200970713049173,0.1355217546224594,0.0,0.0,0.4255173028735166,0.6972930522305155
-0.0268953330814838,1.3071441650390625,-0.121804155409336,-0.0549807213246822,-0.0140873612836003,0.1202050596475601,0.0,0.0,-0.3118867538204068,-0.726740633116634
-0.0281530376523733,1.3057202100753784,-0.1335563063621521,-0.0632334724068641,-0.0063889548182487,0.1539820730686187,0.0,0.0,0.1960816128281912,0.6875164680657722
-0.0295195579528808,1.3048195838928225,-0.1433255076408386,-0.0400177799165248,0.000210571612115,0.1320023238658905,0.0,0.0,0.4053425962095058,-0.8870439358959707
-0.0311485286802053,1.3046222925186155,-0.1716736257076263,-0.0087930057197809,0.0088630495592951,0.1730495244264602,0.0,0.0,0.9496272038206076,-0.7179461913110963
-0.0328891761600971,1.305537223815918,-0.1847453415393829,0.0405624434351921,0.019400218501687,0.2107434719800949,0.0,0.0,-0.6001140646256744,0.6005420206871017
-0.0346456542611122,1.3062822818756104,-0.1858333945274353,0.0329436473548412,0.0294566601514816,0.2011290788650512,0.0,0.0,-0.7545180656988668,-0.64476011403654
-0.0365180000662803,1.3068528175354004,-0.1994630694389343,0.0250713657587766,0.0415365882217884,0.2415984570980072,0.0,0.0,-0.5401596197438663,0.970074784375678
-0.0383706092834472,1.3072476387023926,-0.1960774362087249,0.0172063466161489,0.0522263869643211,0.2137961834669113,0.0,0.0,-0.4615702933087826,-0.8109951977858719
-0.0403406135737896,1.3074698448181152,-0.2098890990018844,0.0093828104436397,0.0649577751755714,0.2546281218528747,0.0,0.0,0.5073116570944558,0.8615216819432161
-0.0424038879573345,1.3081082105636597,-0.217836782336235,0.0278255753219127,0.076355256140232,0.2279494106769561,0.0,0.0,-0.5799764673915697,-0.7472854874819331
-0.0445908531546592,1.3085695505142212,-0.2324098050594329,0.0197472088038921,0.0899364799261093,0.2716244459152221,0.0,0.0,0.5389596007046302,-0.7702699195261062
-0.0469908714294433,1.3093334436416626,-0.2556314170360565,0.0329338945448398,0.1054422035813331,0.3101141154766083,0.0,0.0,-0.9339510721713584,-0.7228098778064803
-0.0495039001107215,1.30991530418396,-0.2688295245170593,0.0245396718382835,0.1228549182415008,0.3482540249824524,0.0,0.0,-0.168416535794484,-0.6590983644036743
-0.0521257407963275,1.3103196620941162,-0.281464546918869,0.0162622500211,0.1420515775680542,0.3839331269264221,0.0,0.0,-0.7445059188630601,0.8220601867764866
-0.0547444336116313,1.3105595111846924,-0.2800398170948028,0.0088310549035668,0.1601932495832443,0.3628337383270263,0.0,0.0,0.1547921323029992,0.9749740948964304
-0.0574008002877235,1.311447024345398,-0.2823285460472107,0.03756083548069,0.1768974959850311,0.3340851962566376,0.0,0.0,-0.26538707969722,0.8840732700432206
-0.0600537285208702,1.3121873140335083,-0.2807995676994324,0.0309764370322227,0.1924620419740677,0.3112910389900207,0.0,0.0,0.7049599077326076,-0.924832278355347
-0.0629265755414962,1.313667058944702,-0.3051518499851227,0.0633398219943046,0.2104571312665939,0.3599019646644592,0.0,0.0,-0.686841172736111,0.6745290486963464
-0.0658180266618728,1.3149927854537964,-0.3063517808914184,0.0563725568354129,0.2278615832328796,0.3480889499187469,0.0,0.0,-0.9450749158859252,0.9946839809417723
-0.068677619099617,1.3161745071411133,-0.301267147064209,0.0500869043171405,0.2433849871158599,0.3104685544967651,0.0,0.0,-0.8754526972770691,0.928180456161499
-0.0715141296386718,1.317202925682068,-0.2972915768623352,0.0433876439929008,0.2572761178016662,0.2778223156929016,0.0,0.0,-0.95678049325943,0.9779895544052124
-0.0743248015642166,1.3180888891220093,-0.2929244935512543,0.0372479371726512,0.2694025635719299,0.242528960108757,0.0,0.0,-0.9224841594696044,0.9866664409637452
-0.0771247893571853,0.0,-0.2905478775501251,0.0303981006145477,0.2802158892154693,0.2162658870220184,0.0,0.0,-0.9537248015403748,0.9577491283416748
-0.0799064636230468,1.319394588470459,-0.2871941030025482,0.0239007379859685,0.2894889116287231,0.1854607611894607,0.0,0.0,-0.968105673789978,0.9695878028869628
-0.0826684013009071,1.3198270797729492,-0.2836174368858337,0.0177274141460657,0.2971411943435669,0.1530457437038421,0.0,0.0,-0.6381613612174988,0.9896326065063475
-0.0854338631033897,1.3201215267181396,-0.2828899621963501,0.011776122264564,0.3036901354789734,0.1309790164232254,0.0,0.0,-0.900904893875122,0.9940590858459472
-0.0882051438093185,1.3202754259109497,-0.2824488282203674,0.0057204412296414,0.3091976940631866,0.1101519465446472,0.0,0.0,-0.9930607080459596,0.9914107322692872
-0.0909664183855056,1.3202848434448242,-0.2800892889499664,-0.0004352153919171,0.3133057653903961,0.0821614041924476,0.0,0.0,-0.9941643476486206,0.9325060844421388
-0.0937035530805587,1.3201595544815063,-0.2759386301040649,-0.006050294265151,0.3156071901321411,0.0460286810994148,0.0,0.0,-0.9590561389923096,0.8577225208282471
-0.0964466109871864,1.3198914527893066,-0.2755126357078552,-0.0121743017807602,0.3168678283691406,0.025212800130248,0.0,0.0,-0.995367169380188,0.997207522392273
-0.0991630554199218,1.3194851875305176,-0.2710701525211334,-0.0179377496242523,0.3162786364555359,-0.01178381126374,0.0,0.0,-0.9909249544143676,0.9793765544891356
-0.1018705368041992,1.3189470767974854,-0.2687664926052093,-0.0234877169132232,0.314219057559967,-0.041191428899765,0.0,0.0,-0.9870423674583436,0.8657486438751221
-0.1045594215393066,1.3182687759399414,-0.2653123438358307,-0.02937538549304,0.3105082213878631,-0.0742168202996254,0.0,0.0,-0.9910721778869628,0.9523098468780518
-0.1072504073381424,1.3174389600753784,-0.2644724249839782,-0.0358947478234767,0.3057159185409546,-0.0958461239933967,0.0,0.0,-0.9991602301597596,0.9736387729644777
-0.1099219322204589,1.3164817094802856,-0.2608181834220886,-0.041232630610466,0.2991682291030884,-0.130953699350357,0.0,0.0,-0.99935781955719,0.8152401447296143
-0.1125819236040115,1.3153865337371826,-0.2582069635391235,-0.0470987781882286,0.2911238968372345,-0.1608865708112716,0.0,0.0,-0.9955285787582396,0.9396481513977052
-0.1152276024222374,1.3141605854034424,-0.2551802098751068,-0.0526428371667861,0.2814679443836212,-0.1931197941303253,0.0,0.0,-0.99724543094635,0.6192731857299805
-0.1178967505693435,1.3127820491790771,-0.2569607198238373,-0.0593830831348896,0.2712520360946655,-0.2043182402849197,0.0,0.0,-0.995223343372345,0.7895534038543701
-0.1205631271004676,1.311248779296875,-0.2554852664470672,-0.0661233216524124,0.2598482072353363,-0.2280765771865844,0.0,0.0,-0.9990091919898988,0.7497031688690186
-0.1232460960745811,1.309562921524048,-0.2563976943492889,-0.0728610828518867,0.2477165013551712,-0.2426341325044632,0.0,0.0,-0.9995279312133788,0.5754826068878174
-0.125939279794693,1.3077208995819092,-0.2565394341945648,-0.0797668993473053,0.2347231060266494,-0.2598679661750793,0.0,0.0,-0.9976442456245422,0.5448369979858398
-0.1286526620388031,1.305720329284668,-0.2579239010810852,-0.0868303477764129,0.2211230993270874,-0.2720001935958862,0.0,0.0,-0.999731421470642,0.013988971710205
-0.1314296722412109,1.303544998168945,-0.2647618651390075,-0.0948015302419662,0.2080568373203277,-0.2613255977630615,0.0,0.0,-0.9992662072181702,-0.1743425726890564
-0.1342699974775314,1.301194429397583,-0.2715955078601837,-0.1027709767222404,0.1955216825008392,-0.2507029771804809,0.0,0.0,-0.99102783203125,-0.1229159832000732
-0.1371737420558929,1.2986681461334229,-0.2784233093261719,-0.1107387542724609,0.1835148334503173,-0.2401372492313385,0.0,0.0,-0.9993650913238524,0.8404991626739502
-0.1400651931762695,1.2959774732589722,-0.275795966386795,-0.1179896742105484,0.1701237261295318,-0.2678218781948089,0.0,0.0,-0.997795581817627,-0.0218027830123901
-0.1430198699235916,1.2931113243103027,-0.2826062738895416,-0.1259581446647644,0.157254546880722,-0.2573834359645843,0.0,0.0,-0.980802357196808,0.7199065685272217
-0.1459898948669433,1.290078043937683,-0.2834153771400451,-0.1334329694509506,0.1436897367238998,-0.2712963223457336,0.0,0.0,-0.9985854029655457,0.346660852432251
-0.1490228623151779,1.2868694067001345,-0.2902022004127502,-0.1414006501436233,0.1306394338607788,-0.2610061764717102,0.0,0.0,-0.9991419911384584,0.8554861545562744
-0.1520483046770095,1.2835006713867188,-0.2881349325180053,-0.1485202014446258,0.1163025870919227,-0.2867370843887329,0.0,0.0,-0.953885018825531,-0.2869588136672973
-0.1551365852355957,1.279956579208374,-0.294890820980072,-0.1564884781837463,0.1024718061089515,-0.2766159474849701,0.0,0.0,-0.9951177835464478,0.6334747076034546
-0.1582312583923339,1.2762457132339478,-0.2946073412895202,-0.1639736145734787,0.0877250283956527,-0.2949355244636535,0.0,0.0,-0.9989526867866516,0.5701446533203125
-0.1613456755876541,1.2723606824874878,-0.2959746420383453,-0.1718266159296035,0.072403647005558,-0.3064274191856384,0.0,0.0,-0.9952937960624696,0.686129093170166
-0.1644618064165115,1.268300175666809,-0.2950716316699981,-0.1797514706850052,0.0560548640787601,-0.3269758820533752,0.0,0.0,-0.9628010392189026,0.930749773979187
-0.1675696372985839,1.264061450958252,-0.2929629981517792,-0.1878072768449783,0.0384385548532009,-0.3523262143135071,0.0,0.0,-0.978602647781372,-0.4491814374923706
-0.1707391738891601,1.259648323059082,-0.2996048927307129,-0.1957810521125793,0.0213023405522108,-0.3427245914936065,0.0,0.0,-0.915313184261322,0.9206101894378662
-0.1738878190517425,1.2550727128982544,-0.2958753705024719,-0.2031971961259842,0.0025649922899901,-0.3747469782829284,0.0,0.0,-0.9772945642471312,-0.3564209938049316
-0.1770974099636078,1.2503228187561035,-0.3024542927742004,-0.2111729979515075,-0.0157047361135482,-0.3653947710990906,0.0,0.0,-0.9433336853981018,0.0646743774414062
-0.1803677529096603,1.2453982830047607,-0.3089971244335174,-0.2191466391086578,-0.0335136316716671,-0.3561780750751495,0.0,0.0,-0.9667366743087769,-0.9026360511779784
-0.1837649345397949,1.2403099536895752,-0.3238399922847748,-0.2265735566616058,-0.0491926819086074,-0.3135812282562256,0.0,0.0,-0.993045687675476,0.2898766994476318
-0.1872219145298004,1.2350456714630127,-0.3302995860576629,-0.234538584947586,-0.064425490796566,-0.3046562075614929,0.0,0.0,-0.9431727528572084,-0.4666941165924072
-0.1907386779785156,1.2296054363250732,-0.336711585521698,-0.2425019145011901,-0.079219751060009,-0.2958852350711822,0.0,0.0,-0.7887023091316223,-0.3414499759674072
-0.1943143904209137,1.223988652229309,-0.3430716097354889,-0.2504636347293854,-0.0935834571719169,-0.2872746288776397,0.0,0.0,-0.9413605332374572,0.4331218004226684
-0.1979486495256424,1.2181950807571411,-0.3493749499320984,-0.2584238350391388,-0.1075249835848808,-0.2788305282592773,0.0,0.0,-0.9155102372169496,0.2353496551513672
-0.2016410380601883,1.2122248411178589,-0.3556165695190429,-0.2663825750350952,-0.12105293571949,-0.2705591022968292,0.0,0.0,-0.7002258896827698,0.1770517826080322
-0.2053907811641693,1.2060775756835938,-0.3617909848690033,-0.2743400037288666,-0.1341762542724609,-0.2624663710594177,0.0,0.0,-0.531900942325592,0.0478373765945434
-0.2091974318027496,1.1997528076171875,-0.3678923547267914,-0.2822961509227752,-0.146904170513153,-0.2545582950115204,0.0,0.0,-0.6585010290145874,0.7497785091400146
-0.2129884660243988,1.1932291984558103,-0.3648988306522369,-0.2913989424705505,-0.1610957831144333,-0.2838325500488281,0.0,0.0,-0.0479766726493835,-0.482272744178772
-0.2168348729610443,1.1865286827087402,-0.370835542678833,-0.2993568778038025,-0.1749112904071808,-0.2763102650642395,0.0,0.0,0.2800061702728271,0.1252117156982422
-0.2206098139286041,1.180512547492981,-0.364199697971344,-0.2689970731735229,-0.1882499456405639,-0.2667731344699859,0.0,0.0,-0.4141868352890014,0.3214874267578125
-0.2244382351636886,1.1743191480636597,-0.3699415028095245,-0.2769524753093719,-0.2012329846620559,-0.2596607506275177,0.0,0.0,-0.3083361387252807,0.7777962684631348
-0.228250116109848,1.167919039726257,-0.36684450507164,-0.2864650785923004,-0.2157016992568969,-0.2893743515014648,0.0,0.0,-0.4348344802856445,-0.2262740135192871
-0.2321133613586425,1.161341905593872,-0.372359037399292,-0.2944225370883941,-0.2298362851142883,-0.2826915085315704,0.0,0.0,-0.3718380331993103,-0.5096437335014343
-0.2360595762729644,1.1546050310134888,-0.3818895518779754,-0.301454484462738,-0.24276003241539,-0.2584750056266784,0.0,0.0,-0.2257986068725586,0.9430804252624512
-0.2399853765964508,1.1476645469665527,-0.3784001469612121,-0.3108654916286468,-0.2572028636932373,-0.2888565361499786,0.0,0.0,0.1678251028060913,0.4285005331039428
-0.2439007312059402,1.141396403312683,-0.3773016333580017,-0.2811465859413147,-0.2717524468898773,-0.2909919321537018,0.0,0.0,-0.0136994123458862,0.0817999839782714
-0.2478620558977127,1.134951114654541,-0.3822403848171234,-0.2891035377979278,-0.2860137224197387,-0.2852256894111633,0.0,0.0,-0.6587610840797424,-0.6324294209480286
-0.2519189715385437,1.1283555030822754,-0.3934844434261322,-0.2955775558948517,-0.2985959351062774,-0.2516444623470306,0.0,0.0,0.4863491058349609,0.6077593564987183
-0.2558512687683105,1.1225669384002686,-0.3799607753753662,-0.2600522339344024,-0.3123202621936798,-0.2744862735271454,0.0,0.0,0.4210224151611328,-0.0283306241035461
-0.2597130835056305,1.1172221899032593,-0.3731218576431274,-0.2404168248176574,-0.3258915245532989,-0.2714258730411529,0.0,0.0,0.3536040782928467,0.5048164129257202
-0.2635160088539123,1.112431287765503,-0.3663047850131988,-0.2161492556333542,-0.3404960930347442,-0.2920916676521301,0.0,0.0,0.0102579593658447,-0.93650484085083
-0.2674225270748138,1.1080057621002195,-0.3788324296474457,-0.1995272636413574,-0.3529051840305328,-0.24818155169487,0.0,0.0,0.7871963977813721,-0.4523423910140991
-0.2709874510765075,1.1044371128082275,-0.3454194068908691,-0.1613662391901016,-0.3645697236061096,-0.2332906424999237,0.0,0.0,-0.1455639600753784,-0.5562617182731628
-0.2746223509311676,1.1007068157196045,-0.3536244034767151,-0.1683390140533447,-0.3750112354755401,-0.2088299244642257,0.0,0.0,0.824671745300293,-0.2160935997962951
-0.2778291702270508,1.097886085510254,-0.3117337822914123,-0.1277481019496917,-0.384522408246994,-0.1902233660221099,0.0,0.0,0.5755565166473389,-0.5050584673881531
-0.2808426916599273,1.0959548950195312,-0.2935252785682678,-0.0879659652709961,-0.3928711116313934,-0.1669741421937942,0.0,0.0,-0.0542671680450439,-0.323757529258728
-0.2838804721832275,1.0938448905944824,-0.2961313724517822,-0.095912367105484,-0.4010555148124695,-0.1636882424354553,0.0,0.0,0.7636706829071045,-0.7343308925628662
-0.2866694033145904,1.0923922061920166,-0.2729934453964233,-0.06624186784029,-0.4073846936225891,-0.1265841871500015,0.0,0.0,0.4921190738677978,-0.0488932728767395
-0.2891904711723327,1.0917800664901731,-0.2463237941265106,-0.0288867782801389,-0.4136046171188354,-0.1243988648056984,0.0,0.0,0.5023400783538818,-0.8086171746253967
-0.2914385199546814,1.09197998046875,-0.2208018004894256,0.0077037904411554,-0.4179250597953796,-0.0864092037081718,0.0,0.0,0.3517851829528808,-0.4839837551116943
-0.2934860289096832,1.0924746990203855,-0.2011421024799347,0.0209158267825841,-0.4218256175518036,-0.0780110955238342,0.0,0.0,0.4125308990478515,-0.6927153468132019
-0.2954804003238678,1.0936193466186523,-0.1970794051885604,0.0501546896994113,-0.4243744313716888,-0.0509761869907379,0.0,0.0,0.135232925415039,-0.4270066022872925
-0.2974146902561188,1.0951223373413086,-0.1907844990491867,0.0660074055194854,-0.4272399246692657,-0.0573097877204418,0.0,0.0,0.3368141651153564,-0.4291378259658813
-0.2991774976253509,1.0970799922943115,-0.1736455112695694,0.0861972793936729,-0.4301063120365143,-0.0573276504874229,0.0,0.0,0.1563953161239624,-0.5840920805931091
-0.3008065223693847,1.0993825197219849,-0.1614715456962585,0.1018966734409332,-0.4316591620445251,-0.0310575515031814,0.0,0.0,-0.1563552618026733,-0.2550051212310791
-0.3024303019046783,1.1015058755874634,-0.1610007584095001,0.0939522460103035,-0.4331546425819397,-0.0299097392708063,0.0,0.0,0.1132855415344238,-0.1845106482505798
-0.3037922382354736,1.1040360927581787,-0.1351470649242401,0.1121357530355453,-0.4342997372150421,-0.0229018200188875,0.0,0.0,-0.4053193926811218,-0.1922290921211242
-0.3051420152187347,1.1063876152038574,-0.1339597702026367,0.1041906774044036,-0.4354085624217987,-0.0221767239272594,0.0,0.0,-0.1905612349510193,-0.1614804863929748
