x_pos,y_pos,x_vel,y_vel,angle,ang_vel,leg_1,leg_2,main_booster,lat_booster
-0.0015350341564044,1.4029700756072998,-0.1557873785495758,-0.3533297479152679,0.0020436816848814,0.0403346568346023,0.0,0.0,-0.2027652123297996,0.6948202644292663
-0.0030222893692553,1.3943859338760376,-0.149496391415596,-0.3815218210220337,0.0028085503727197,0.0152995139360427,0.0,0.0,0.8998374618003473,0.8574176176447525
-0.0042860032990574,1.3858386278152466,-0.1260655224323272,-0.3798834085464477,0.0025055317673832,-0.0060608875937759,0.0,0.0,-0.7339103718627586,-0.6724240285605867
-0.0056239129044115,1.3766343593597412,-0.1353634297847747,-0.409082680940628,0.0040612742304801,0.0311178173869848,0.0,0.0,0.6791955119527857,-0.8918599604175876
-0.006899356842041,1.367773413658142,-0.1314239054918289,-0.3938347101211548,0.007898292504251,0.0767472758889198,0.0,0.0,0.339695339071085,0.71244656285483
-0.008008861914277,1.3589198589324951,-0.1138843521475792,-0.3935085833072662,0.0108034573495388,0.0581085793673992,0.0,0.0,0.2815508240229907,0.8025776795580867
-0.0090903285890817,1.350084662437439,-0.1097211092710495,-0.3926858901977539,0.0123648373410105,0.0312305875122547,0.0,0.0,-0.4485098461498733,0.99967771432676
-0.0100836753845214,1.3406000137329102,-0.0986979156732559,-0.4215374588966369,0.0117264790460467,-0.0127681018784642,0.0,0.0,-0.7813210124775045,-0.7635392918153574
-0.011148452758789,1.3304684162139893,-0.1076617836952209,-0.4503057897090912,0.0129012893885374,0.0234982781112194,0.0,0.0,0.4894941809377995,-0.6744018080771801
-0.0122853275388479,1.3206679821014404,-0.1164989024400711,-0.4356012642383575,0.0156796537339687,0.0555724091827869,0.0,0.0,-0.1628980372168964,-0.6351054095435595
-0.0134747503325343,1.3102127313613892,-0.1231115311384201,-0.4647256731986999,0.0198074076324701,0.0825626030564308,0.0,0.0,-0.7337266473000568,0.7504546098557414
-0.0146073345094919,1.2991039752960205,-0.1160340309143066,-0.4937622249126434,0.0225442983210086,0.0547428242862224,0.0,0.0,-0.4605048058971399,0.667292740539918
-0.0156852714717388,1.287346601486206,-0.1092005968093872,-0.5225698351860046,0.0239447485655546,0.0280113872140645,0.0,0.0,-0.6019286918019962,0.9860526419159656
-0.0166851039975881,1.2749290466308594,-0.0994738265872001,-0.5518847107887268,0.0234391186386346,-0.0101134795695543,0.0,0.0,-0.1009976887627672,-0.8664135632253269
-0.0177459716796875,1.261864423751831,-0.107181966304779,-0.5806691646575928,0.0245228558778762,0.0216765031218528,0.0,0.0,0.3075310020913464,-0.9653388836048358
-0.0187963489443063,1.2484880685806274,-0.1084024161100387,-0.5945664644241333,0.027854761108756,0.0666439160704612,0.0,0.0,-0.6931096652667186,-0.8299849166928868
-0.0199055671691894,1.2344651222229004,-0.1158453375101089,-0.6233392953872681,0.0327284783124923,0.0974833816289901,0.0,0.0,-0.6821086161101937,0.8424684307979186
-0.0209403038024902,1.2197850942611694,-0.1065820902585983,-0.652513861656189,0.0358077101409435,0.0615900568664073,0.0,0.0,-0.4681596576591491,-0.740819115611273
-0.0220317840576171,1.2044554948806765,-0.1137831434607505,-0.6814316511154175,0.0403943471610546,0.091740682721138,0.0,0.0,-0.5662585457073848,0.7904637011620731
-0.0230766292661428,1.1884748935699463,-0.1080090999603271,-0.7103482484817505,0.0438926294445991,0.0699717551469802,0.0,0.0,0.3547334476805901,0.9228161184580062
-0.0239627845585346,1.172783613204956,-0.0906722992658615,-0.6974517107009888,0.045929305255413,0.0407368913292884,0.0,0.0,-0.5121073806847996,0.7507608824215222
-0.0247949603945016,1.1564381122589111,-0.084018126130104,-0.726496696472168,0.0467185340821743,0.0157861523330211,0.0,0.0,0.3306194954419303,-0.8120444998416441
-0.0255997665226459,1.140098214149475,-0.0833306387066841,-0.7263078689575195,0.0495344586670398,0.0563235469162464,0.0,0.0,-0.5737115331068683,0.7268130668776196
-0.0263463966548442,1.1231008768081665,-0.0761492699384689,-0.7554877400398254,0.0510100126266479,0.0295138396322727,0.0,0.0,0.0461981512423255,0.7097121362408689
-0.027166461572051,1.1060583591461182,-0.0822673514485359,-0.7574535608291626,0.0512631312012672,0.0050627598538994,0.0,0.0,0.9192282518192548,-0.6681560475380104
-0.0282678604125976,1.0895510911941528,-0.1115560308098793,-0.7337090373039246,0.052656564861536,0.0278688576072454,0.0,0.0,-0.4129467733769112,0.7638902334794795
-0.02931385114789,1.0723992586135864,-0.1047328487038612,-0.7623084187507629,0.0527918934822082,0.0027064806781709,0.0,0.0,-0.6746111081450497,-0.7253348709829686
-0.03043451346457,1.0545953512191772,-0.1142632365226745,-0.791361391544342,0.0549546368420124,0.043255116790533,0.0,0.0,0.2510734856227139,-0.627563011580589
-0.0317510589957237,1.0370080471038818,-0.1351960748434066,-0.7817880511283875,0.0584506504237651,0.0699201002717018,0.0,0.0,-0.874050421568989,0.759898539225686
-0.0330138206481933,1.0187692642211914,-0.1286021322011947,-0.8107115030288696,0.0607590787112712,0.0461687892675399,0.0,0.0,0.9179842009906828,0.9168711586020772
-0.0342439636588096,1.0013670921325684,-0.1238273382186889,-0.7734645009040833,0.0615549534559249,0.0159177053719759,0.0,0.0,-0.0350205409209041,0.8313008625704426
-0.0354203209280967,0.983311116695404,-0.117256186902523,-0.8024638891220093,0.0611815974116325,-0.0074670487083494,0.0,0.0,0.6497973360859428,0.6582058633903588
-0.0366864204406738,0.9658026695251464,-0.1249793395400047,-0.7780929207801819,0.0595649927854537,-0.0323321558535099,0.0,0.0,0.5795186732655766,0.7176377297193841
-0.0379858016967773,0.948149025440216,-0.1270032376050949,-0.7844916582107544,0.0566602684557437,-0.058094598352909,0.0,0.0,0.1566121778273843,0.9817727217765186
-0.039221666753292,0.9305089712142944,-0.1189446896314621,-0.7838348746299744,0.0520700067281723,-0.0918052643537521,0.0,0.0,-0.1449884719742704,-0.8402351784383961
-0.0405244827270507,0.9122161269187928,-0.1275437176227569,-0.8129167556762695,0.049368429929018,-0.0540317110717296,0.0,0.0,0.4363121877536982,0.7494268984667103
-0.0418148040771484,0.8938612341880798,-0.1250131130218505,-0.8156474232673645,0.0454033873975276,-0.0793009474873542,0.0,0.0,0.0530983890592309,0.7749487640060866
-0.0430395118892192,0.8755916357040405,-0.1171846762299537,-0.8118313550949097,0.0401771441102027,-0.104525052011013,0.0,0.0,-0.7272797390838628,-0.7859329434759306
-0.0443321242928504,0.8566729426383972,-0.1259215027093887,-0.8407469987869263,0.0368814133107662,-0.065914899110794,0.0,0.0,0.399007175083544,0.6048454706704199
-0.0455708503723144,0.8378767371177673,-0.1196344345808029,-0.8352888822555542,0.0327018350362777,-0.0835916697978973,0.0,0.0,0.2307241422537651,-0.684374892479317
-0.0469725616276264,0.8192948698997498,-0.1374637186527252,-0.8258048295974731,0.0300205089151859,-0.0536261722445488,0.0,0.0,0.5948413610458374,0.3417179584503174
-0.0482709892094135,0.8008219599723816,-0.1279495358467102,-0.8209818601608276,0.0281536746770143,-0.0373367294669151,0.0,0.0,0.9506440162658693,0.3726906776428222
-0.0494653694331646,0.7822548747062683,-0.1183556914329528,-0.8251797556877136,0.0270797125995159,-0.0214789863675832,0.0,0.0,0.9449855089187622,0.3449050188064575
-0.0505598075687885,0.7639716863632202,-0.109169915318489,-0.8125838041305542,0.0268075354397296,-0.0054433508776128,0.0,0.0,0.906473994255066,0.9429466724395752
-0.051640223711729,0.7455335259437561,-0.1060431823134422,-0.8194354176521301,0.024830475449562,-0.0395411625504493,0.0,0.0,0.856338381767273,0.7011623382568359
-0.0526180267333984,0.7270013689994812,-0.0947706177830696,-0.8236035704612732,0.021850423887372,-0.0596009120345115,0.0,0.0,0.8796776533126831,0.6178369522094727
-0.0534831061959266,0.7085784077644348,-0.0827006101608276,-0.8187500834465027,0.0180955287069082,-0.0750981420278549,0.0,0.0,0.8034853935241699,-0.3550185561180115
-0.054486371576786,0.6908630728721619,-0.0962083414196968,-0.7873027920722961,0.0140285110101103,-0.0813402310013771,0.0,0.0,0.9264810085296632,0.2103028297424316
-0.0556561462581157,0.6738690733909607,-0.1123883724212646,-0.7552580237388611,0.0094995638355612,-0.0905788391828537,0.0,0.0,-0.2841346859931946,0.5875411033630371
-0.0567797645926475,0.6562199592590332,-0.1068874225020408,-0.7843772172927856,0.0040953028947114,-0.1080852150917053,0.0,0.0,0.743476390838623,0.3601819276809692
-0.0577529892325401,0.6388217806816101,-0.0928134098649025,-0.7732436060905457,-0.0003588340478017,-0.0890825688838958,0.0,0.0,0.5831842422485352,-0.3655514717102051
-0.058779526501894,0.6218286156654358,-0.0981354266405105,-0.7552582025527954,-0.0048204734921455,-0.0892324596643447,0.0,0.0,0.8440877199172974,0.8295078277587891
-0.0596023574471473,0.6049199104309082,-0.076606847345829,-0.7515302300453186,-0.0104213021695613,-0.112016774713993,0.0,0.0,-0.2344965934753418,0.0141379833221435
-0.0604232773184776,0.587357223033905,-0.0766634121537208,-0.7806101441383362,-0.015779260545969,-0.1071592792868614,0.0,0.0,0.9573547840118408,0.0662602186203002
-0.0610565170645713,0.5700027346611023,-0.058967363089323,-0.7713620066642761,-0.0200805738568305,-0.0860261470079422,0.0,0.0,0.8512177467346191,-0.535534679889679
-0.0618331916630268,0.5527883172035217,-0.0742984190583229,-0.7651363015174866,-0.0234063230454921,-0.0665148794651031,0.0,0.0,0.9451084136962892,0.8023910522460938
-0.0624014846980571,0.5363277792930603,-0.0523450672626495,-0.7316571474075317,-0.027830746024847,-0.088488832116127,0.0,0.0,0.5995690822601318,0.0357599258422851
-0.0628156661987304,0.5201866030693054,-0.037797100841999,-0.7174567580223083,-0.0314070023596286,-0.0715249106287956,0.0,0.0,0.7500554323196411,-0.5471388101577759
-0.063158705830574,0.5047025084495544,-0.0322506353259086,-0.6882294416427612,-0.0334370993077755,-0.0406019166111946,0.0,0.0,0.8002936840057373,0.3221992254257202
-0.0635536164045333,0.4898518323898315,-0.037272322922945,-0.6600787043571472,-0.0356291122734546,-0.043840080499649,0.0,0.0,0.7467814683914185,0.9337371587753296
-0.0637980476021766,0.4749186635017395,-0.0206587724387645,-0.6637923121452332,-0.0393696650862693,-0.0748111009597778,0.0,0.0,-0.1957380771636963,-0.7463616132736206
-0.0641087517142295,0.4593391120433807,-0.0292520020157098,-0.6924715042114258,-0.0411652438342571,-0.0359115004539489,0.0,0.0,0.9456111192703248,-0.6993462443351746
-0.0642905235290527,0.4440100193023681,-0.0183705408126115,-0.6812877058982849,-0.0409753285348415,0.0037984675727784,0.0,0.0,0.6891062259674072,0.5110073089599609
-0.0643779784440994,0.4289624691009521,-0.0081901643425226,-0.6687950491905212,-0.0415290966629982,-0.0110752712935209,0.0,0.0,0.8382747173309326,0.2128292322158813
-0.0644357651472091,0.4139284491539001,-0.0054579060524702,-0.668186366558075,-0.0418477281928062,-0.0063726650550961,0.0,0.0,0.9346973896026612,0.8090670108795166
-0.0645562186837196,0.3992837369441986,-0.0099339392036199,-0.6509358286857605,-0.0439276061952114,-0.0415978282690048,0.0,0.0,0.8684957027435303,-0.0848600268363952
-0.0646073371171951,0.3854335248470306,-0.0033135875128209,-0.6156178712844849,-0.0457145646214485,-0.0357389487326145,0.0,0.0,0.8901461362838745,0.1688365936279297
-0.0645472556352615,0.3714239597320556,0.0072137592360377,-0.6226861476898193,-0.0468942560255527,-0.0235939286649227,0.0,0.0,0.938197135925293,0.1884001493453979
-0.0644062012434005,0.3582583665847778,0.0149861518293619,-0.5851649045944214,-0.0477629750967025,-0.0173744447529315,0.0,0.0,0.8543047904968262,-0.6845790147781372
-0.0644057244062423,0.3452435135841369,-0.0003380647976882,-0.5784256458282471,-0.0473905764520168,0.0074482811614871,0.0,0.0,0.6637001037597656,0.711188554763794
-0.0644156485795974,0.3326020836830139,0.0001295189285883,-0.5618752837181091,-0.0484990440309047,-0.0221692882478237,0.0,0.0,0.8101438283920288,0.7897357940673828
-0.0642912834882736,0.3203222751617431,0.0149315129965543,-0.5458519458770752,-0.0509676225483417,-0.0493715740740299,0.0,0.0,0.2888936996459961,-0.7032787799835205
-0.0642992034554481,0.3083958923816681,0.0003272706817369,-0.5301006436347961,-0.0520762205123901,-0.0221717692911624,0.0,0.0,0.5490248203277588,0.6241285800933838
-0.064153291285038,0.296616643667221,0.0166863594204187,-0.5236004590988159,-0.0541463568806648,-0.041402842849493,0.0,0.0,0.6157033443450928,-0.6270429491996765
-0.0640707015991211,0.284757912158966,0.0090669523924589,-0.5270844101905823,-0.0549508668482303,-0.0160900466144084,0.0,0.0,0.8084139823913574,0.2202388048171997
-0.0638932213187217,0.2727716565132141,0.0181290246546268,-0.5327363014221191,-0.0553220473229885,-0.0074233622290194,0.0,0.0,0.5706532001495361,-0.0546749234199523
-0.0637269020080566,0.2606169581413269,0.0170693583786487,-0.5402283072471619,-0.0557560585439205,-0.0086801648139953,0.0,0.0,0.9158930778503418,-0.5261920690536499
-0.063560202717781,0.2491945326328277,0.0160076823085546,-0.5076372623443604,-0.055109541863203,0.0129306213930249,0.0,0.0,0.7274389266967773,0.0277501344680786
-0.0632625594735145,0.2383884489536285,0.0286670289933681,-0.480230301618576,-0.054026760160923,0.0216557029634714,0.0,0.0,0.6212202310562134,-0.46596360206604
-0.0630313903093338,0.2281383424997329,0.022502364590764,-0.4555387496948242,-0.0534181967377662,0.0121715320274233,0.0,0.0,-0.0757598280906677,-0.3166486620903015
-0.0628003105521202,0.2172339707612991,0.0224720668047666,-0.4846163094043731,-0.0527885369956493,0.0125930663198232,0.0,0.0,0.5316300392150879,-0.4144999980926513
-0.0624935142695903,0.2067701369524002,0.0298572927713394,-0.4650314748287201,-0.0519791580736637,0.0161877982318401,0.0,0.0,0.6596584320068359,-0.1592898964881897
-0.0622590072453022,0.1965260356664657,0.0231161713600158,-0.4552832543849945,-0.051648199558258,0.0066190273500978,0.0,0.0,0.4965908527374267,-0.6678740382194519
-0.0621007904410362,0.1865585148334503,0.0142723079770803,-0.4429455399513244,-0.050118338316679,0.0305973179638385,0.0,0.0,0.3061175346374511,-0.0628620386123657
-0.0619256012141704,0.1767658144235611,0.016054542735219,-0.4351852238178253,-0.0486682131886482,0.0290024392306804,0.0,0.0,-0.1275975704193115,0.0162043571472167
-0.061751939356327,0.1663188487291336,0.0159489400684833,-0.4642631113529205,-0.0472679659724235,0.02800471521914,0.0,0.0,0.6996620893478394,-0.1047049760818481
-0.0615392699837684,0.1557435840368271,0.0198125354945659,-0.4699638187885284,-0.0458184704184532,0.0289896335452795,0.0,0.0,0.9487639665603638,0.0715798139572143
-0.061197567731142,0.1452183872461319,0.0322667174041271,-0.4677311182022095,-0.0439396873116493,0.0375755503773689,0.0,0.0,0.8892199993133545,-0.0041947960853576
-0.0606616958975791,0.1350065320730209,0.0509972348809242,-0.4537881314754486,-0.041372362524271,0.0513462908565998,0.0,0.0,0.91315758228302,-0.6519995331764221
-0.0599881187081337,0.1248125657439231,0.0630962625145912,-0.4529551565647125,-0.0371643416583538,0.0841604620218277,0.0,0.0,0.8768259286880493,-0.6725426316261292
-0.0593459121882915,0.1152521669864654,0.0587327070534229,-0.4247784614562988,-0.0317490361630916,0.1083061546087265,0.0,0.0,0.9284803867340088,-0.4683163166046142
-0.0586430542171001,0.106363832950592,0.0647661313414573,-0.3949327766895294,-0.0262919533997774,0.1091417446732521,0.0,0.0,0.8973332643508911,-0.234656274318695
-0.0577807426452636,0.0979647263884544,0.0801678150892257,-0.373198390007019,-0.0203092731535434,0.1196534782648086,0.0,0.0,0.5529963970184326,-0.8338210582733154
-0.0568766593933105,0.0893622711300849,0.0826589912176132,-0.3822456300258636,-0.0126542542129755,0.1531004011631012,0.0,0.0,0.9344290494918824,-0.2232092022895813
-0.0560309402644634,0.0810018628835678,0.0772653669118881,-0.3715320527553558,-0.0054394733160734,0.1442958116531372,0.0,0.0,0.8146710395812988,0.5503761768341064
-0.0550420768558979,0.073414571583271,0.0925712436437606,-0.3371996879577636,0.0007925402023829,0.1246405020356178,0.0,0.0,0.593942403793335,0.4648804664611816
-0.0540811531245708,0.06599722802639,0.0900535136461258,-0.3296757042407989,0.0067476471886038,0.1191022619605064,0.0,0.0,0.906134843826294,-0.3914492726325989
-0.0532753951847553,0.0593012198805809,0.07539813965559,-0.2976318001747131,0.011858033016324,0.1022077575325965,0.0,0.0,0.4421855211257934,0.7297027111053467
-0.0523406043648719,0.0528711415827274,0.0898303240537643,-0.2858166992664337,0.0154710635542869,0.0722606182098388,0.0,0.0,0.5259310007095337,-0.8717603087425232
-0.0515469536185264,0.0468297339975833,0.0742152482271194,-0.2685687243938446,0.0205482542514801,0.1015437096357345,0.0,0.0,0.4535551071166992,0.675621509552002
-0.0507999435067176,0.0411262847483158,0.0712811052799224,-0.2535381019115448,0.02392871491611,0.0676093399524688,0.0,0.0,0.4556093215942383,0.7780132293701172
-0.050032902508974,0.0354252681136131,0.0751031264662742,-0.2534056901931762,0.0255183987319469,0.0317933596670627,0.0,0.0,0.7027781009674072,0.3320369720458984
-0.0494086258113384,0.0299947597086429,0.061593048274517,-0.2413688749074936,0.0263404715806245,0.0164412222802639,0.0,0.0,0.5978121757507324,0.3133283853530884
-0.0489502921700477,0.0246637444943189,0.0458967834711074,-0.2369325011968612,0.0262731779366731,-0.0013456848682835,0.0,0.0,0.6475317478179932,0.9362380504608154
-0.0483257286250591,0.0197661016136407,0.0644786953926086,-0.2176380008459091,0.0242837872356176,-0.0397878587245941,0.0,0.0,0.520132303237915,0.0085145235061645
-0.0476605407893657,0.014725336804986,0.0684893950819969,-0.2240020185708999,0.0223310068249702,-0.0390554144978523,0.0,0.0,0.5972868204116821,0.3627830743789673
-0.0468796715140342,0.0101411202922463,0.0796403214335441,-0.2037197798490524,0.0207987818866968,-0.0306447446346282,0.0,0.0,0.8439974784851074,0.0105173587799072
-0.0461505874991416,0.0062008118256926,0.0748176053166389,-0.1751004606485366,0.018916891887784,-0.0376378148794174,0.0,0.0,0.458633542060852,0.2909238338470459
-0.045318316668272,0.0027411913033574,0.0847847014665603,-0.1537406891584396,0.0173832047730684,-0.030673798173666,0.0,0.0,0.0777961015701294,0.2829881906509399
-0.0444515235722065,-0.0008042955305427,0.088235966861248,-0.1575589925050735,0.0158425010740757,-0.0308140069246292,0.0,1.0,0.8814328908920288,0.6475083827972412
-0.043591022491455,-0.0033278251066803,0.0958990827202797,-0.112228974699974,0.0055763632990419,-0.2060118466615677,0.0,1.0,0.230646014213562,0.0235965251922607
-0.0427541732788085,-0.0045871045440435,0.0883433073759079,-0.0559813492000103,0.0010316738625988,-0.0908229872584343,1.0,1.0,0.6042473316192627,-0.9813413619995116
-0.0419890396296978,-0.0047322297468781,0.07736137509346,-0.006548929028213,0.0005709873512387,-0.0087476875633001,1.0,1.0,-0.2998361587524414,-0.9633460640907288
-0.0414196029305458,-0.0043855095282197,0.055410586297512,0.0154028860852122,0.0020820039790123,0.0302155409008264,1.0,1.0,-0.637586772441864,-0.9126561880111694
-0.0410544387996196,-0.0035842442885041,0.0343070998787879,0.0356039330363273,0.0042527928017079,0.0434108860790729,1.0,1.0,-0.5023959279060364,-0.4169602394104004
-0.0406977646052837,-0.002454319037497,0.0341665670275688,0.0502136535942554,0.0057369661517441,0.0296806059777736,1.0,1.0,-0.7325717210769653,-0.5636267066001892
-0.0404039397835731,-0.0011027002474293,0.0285234451293945,0.0600700490176677,0.0065803243778645,0.0168652590364217,1.0,1.0,-0.6017395257949829,0.3405210971832275
-0.0402230247855186,1.5172958228504284e-05,0.0266171637922525,0.0496951825916767,-0.0018352550687268,-0.1683078706264495,1.0,1.0,-0.4841326475143432,-0.8430368900299072
-0.0400565154850482,0.0005104875308461,0.0205749329179525,0.0220038183033466,-0.0057044099085032,-0.0773774236440658,1.0,1.0,-0.4720011353492737,-0.5562832355499268
-0.0399154648184776,0.0004717564443126,0.0138013558462262,-0.0017196788685396,-0.0054013179615139,0.006066471338272,1.0,0.0,-0.4012342691421509,0.3358571529388428
-0.0397529602050781,-7.477044709958136e-05,0.0119101135060191,-0.0242816861718893,-0.0011197022395208,0.0856361538171768,1.0,0.0,-0.3935233354568481,0.0627517700195312
