x_pos,y_pos,x_vel,y_vel,angle,ang_vel,leg_1,leg_2,main_booster,lat_booster
-0.0015461922157555,1.4033154249191284,-0.1558766365051269,-0.3379849195480346,0.0011311692651361,0.0222659725695848,0.0,0.0,-0.8368526529544524,0.8237258432579089
-0.0030459403060376,1.395421028137207,-0.1486516743898391,-0.3508630394935608,-0.0001770445524016,-0.0261660423129796,0.0,0.0,-0.5483101733720099,0.7945823228162727
-0.0044941902160644,1.3872114419937134,-0.1409339010715484,-0.3648786544799804,-0.0040292241610586,-0.0770509541034698,0.0,0.0,0.7974563438132176,-0.6343158256195848
-0.0061554908752441,1.379507303237915,-0.1625110208988189,-0.3424175381660461,-0.0076100728474557,-0.071623757481575,0.0,0.0,0.9020092233190852,0.7175562368386004
-0.0076210973784327,1.3726201057434082,-0.1413130909204483,-0.3061278164386749,-0.0127964448183774,-0.1037370711565017,0.0,0.0,0.8821228360900275,-0.8902689957439145
-0.0090044979006052,1.3663489818572998,-0.1346523761749267,-0.2787522077560425,-0.0164483319967985,-0.073044441640377,0.0,0.0,-0.5138167952341073,0.5360135975129251
-0.0103765483945608,1.359768271446228,-0.1319118589162826,-0.2925466299057007,-0.0216783471405506,-0.1046099439263343,0.0,0.0,0.3147066223843429,0.832972112449901
-0.0115667339414358,1.3536471128463743,-0.1116887778043747,-0.2721698582172394,-0.0289325900375843,-0.1450980305671692,0.0,0.0,0.3331725891795141,0.8874892330771342
-0.0127095226198434,1.3482375144958496,-0.104648508131504,-0.2406359016895294,-0.0384660735726356,-0.1906871497631073,0.0,0.0,-0.3930010863540594,-0.7967161323418313
-0.0139471050351858,1.3425288200378418,-0.115226462483406,-0.2539607584476471,-0.0469039008021354,-0.1687718331813812,0.0,0.0,-0.0931579959763266,0.8351567409489822
-0.015142535790801,1.336507797241211,-0.1086397394537925,-0.2679668664932251,-0.0576960071921348,-0.2158622741699218,0.0,0.0,-0.4950328260451904,-0.8056424968557323
-0.016427706927061,1.330183029174805,-0.118621826171875,-0.2815157175064087,-0.0675093606114387,-0.1962847411632537,0.0,0.0,0.7342328131526172,-0.5690705594971617
-0.0175967216491699,1.3246419429779053,-0.1081412062048912,-0.2466805726289749,-0.0761946514248848,-0.1737214773893356,0.0,0.0,0.6730696947613,0.8742677762850011
-0.0186281204223632,1.3193063735961914,-0.0923921689391136,-0.2377139627933502,-0.0868606194853782,-0.2133390605449676,0.0,0.0,-0.841108133498722,0.7540653986326795
-0.0196224208921194,1.31366229057312,-0.0864839032292366,-0.2516477704048157,-0.0997120216488838,-0.2570512294769287,0.0,0.0,0.0612585037864135,-0.7574722263415903
-0.020613957196474,1.3079845905303955,-0.0874923467636108,-0.2531617283821106,-0.1113068684935569,-0.2319178134202957,0.0,0.0,-0.8506755766957865,-0.5277773273706176
-0.0216748230159282,1.3020113706588743,-0.0949903950095176,-0.2663430869579315,-0.1223587766289711,-0.2210581749677658,0.0,0.0,-0.6756207200687645,0.5745571234254571
-0.0227190963923931,1.2957162857055664,-0.0916909873485565,-0.2808785736560821,-0.1350598037242889,-0.2540435194969177,0.0,0.0,0.2842746626698826,-0.9495957663757
-0.0237051956355571,1.2900480031967163,-0.0876483023166656,-0.2529516518115997,-0.1460056006908416,-0.2189359962940216,0.0,0.0,-0.4001627391170261,0.764334134752931
-0.0246795658022165,1.284060835838318,-0.0850159227848053,-0.2673608064651489,-0.1584275960922241,-0.2484624683856964,0.0,0.0,-0.3483060923358552,-0.5042688658967451
-0.0257248878479003,1.277777910232544,-0.0928195044398307,-0.2805327773094177,-0.170163094997406,-0.2347314357757568,0.0,0.0,0.0068947525759444,-0.6771328295415158
-0.0268105510622262,1.2715940475463867,-0.0981650277972221,-0.276066243648529,-0.1806087642908096,-0.208931878209114,0.0,0.0,-0.3304241931271339,0.9736630949724936
-0.0278458595275878,1.2650762796401978,-0.0907746851444244,-0.2912817299365997,-0.1934553384780883,-0.2569541037082672,0.0,0.0,0.8062396750068912,0.8359229056743347
-0.0287116058170795,1.2587018013000488,-0.0723274052143096,,-0.2078094184398651,-0.2871075868606567,0.0,0.0,0.116970900401087,-0.8407911668279524
-0.029703427106142,1.252716302871704,-0.0866797119379043,-0.2678274810314178,-0.2204592823982238,-0.2530197203159332,0.0,0.0,0.2525288574127513,-0.8946820315731395
-0.0308171268552541,1.24725341796875,-0.1006923466920852,-0.2444351464509964,-0.2312799394130706,-0.2164134979248047,0.0,0.0,-0.521449900697696,-0.6015956985337061
-0.0320196151733398,1.2415021657943726,-0.1109193786978721,-0.2571048438549042,-0.2407519519329071,-0.1894402801990509,0.0,0.0,0.7531853962504265,0.8507697127130028
-0.033139131963253,1.2367578744888306,-0.1008813753724098,-0.2127103060483932,-0.2520211338996887,-0.225383922457695,0.0,0.0,0.2496145578761412,0.8316400014199276
-0.0342010483145713,1.2325810194015503,-0.0936442241072654,-0.1878404915332794,-0.2648360133171081,-0.2562973797321319,0.0,0.0,-0.6980809552114227,-0.5302160032166834
-0.0353492721915245,1.2281112670898438,-0.1036473363637924,-0.2007153183221817,-0.2762812077999115,-0.2289040088653564,0.0,0.0,0.8774110506751955,0.9953589200868374
-0.0361788757145404,1.2246907949447632,-0.0702035278081893,-0.1544886529445648,-0.2894001305103302,-0.2623785138130188,0.0,0.0,0.5105950832366943,-0.9664689302444458
-0.0370903983712196,1.2215996980667114,-0.0805820003151893,-0.139513298869133,-0.3003022372722626,-0.2180419266223907,0.0,0.0,0.5611094236373901,-0.947047770023346
-0.037976361811161,1.2193655967712402,-0.0801876857876777,-0.1010554209351539,-0.3089959323406219,-0.1738741099834442,0.0,0.0,-0.2802745103836059,-0.730353593826294
-0.0389692299067974,1.2168443202972412,-0.0928720384836196,-0.1134381666779518,-0.3156490623950958,-0.1330626606941223,0.0,0.0,0.2932337522506714,-0.8420084714889526
-0.0399036407470703,1.214738368988037,-0.0891199335455894,-0.0945416539907455,-0.3201372325420379,-0.0897636041045188,0.0,0.0,-0.0666888356208801,-0.3804858922958374
-0.0408831611275672,1.2123218774795532,-0.0940942019224166,-0.1082637161016464,-0.3241622745990753,-0.0805007815361023,0.0,0.0,0.8778451681137085,-0.5193846821784973
-0.0418125167489051,1.2103623151779177,-0.0904666632413864,-0.0876461938023567,-0.3267304301261902,-0.0513631626963615,0.0,0.0,0.3098264932632446,-0.4070786237716675
-0.0425647720694541,1.2089344263076782,-0.0733946338295936,-0.0638774260878562,-0.3286418616771698,-0.0382286682724952,0.0,0.0,-0.7130067944526672,-0.9747965931892396
-0.0434371009469032,1.2072449922561646,-0.0879685133695602,-0.0749196484684944,-0.3278779089450836,0.0152788758277893,0.0,0.0,-0.585141122341156,-0.5787025094032288
-0.0443954467773437,1.2052658796310425,-0.0981911942362785,-0.0874295681715011,-0.3254221379756927,0.0491153299808502,0.0,0.0,-0.8488947749137878,-0.5646231174468994
-0.045447252690792,1.2030049562454224,-0.109404407441616,-0.0995387956500053,-0.3210183382034302,0.0880762264132499,0.0,0.0,-0.3123394846916199,-0.508661687374115
-0.046574018895626,1.2004470825195312,-0.1182976961135864,-0.1124603524804115,-0.3151856362819671,0.116654060781002,0.0,0.0,-0.3824729919433594,-0.6089363098144531
-0.0477849021553993,1.1975903511047363,-0.1283112615346908,-0.12541563808918,-0.3076959550380707,0.1497935950756073,0.0,0.0,-0.7088112235069275,0.4006897211074829
-0.0490398406982421,1.1944228410720823,-0.133351668715477,-0.1391365677118301,-0.2995668351650238,0.1625825762748718,0.0,0.0,-0.3723793029785156,0.4765348434448242
-0.0503385551273822,1.1909445524215698,-0.138374924659729,-0.1528583168983459,-0.2907829880714416,0.1756771206855774,0.0,0.0,-0.6158390641212463,0.3307243585586548
-0.0516804680228233,1.1871559619903564,-0.1433750241994857,-0.1665810942649841,-0.281330406665802,0.1890518963336944,0.0,0.0,-0.4686033725738525,0.5456260442733765
-0.0530203804373741,1.1830344200134275,-0.142665609717369,-0.1815375834703445,-0.2724184393882751,0.1782393455505371,0.0,0.0,-0.4565340280532837,0.7786357402801514
-0.0543529503047466,1.1785902976989746,-0.1413912177085876,-0.1960314810276031,-0.264088898897171,0.1665909439325332,0.0,0.0,-0.5379612445831299,0.3432283401489258
-0.0557273849844932,1.1738353967666626,-0.1462831050157547,-0.2097543329000473,-0.2550553679466247,0.1806705296039581,0.0,0.0,-0.7186763882637024,0.387991189956665
-0.0571430213749408,1.1687705516815186,-0.1511265784502029,-0.2234785258769989,-0.2453081309795379,0.1949443370103836,0.0,0.0,-0.4243690967559814,0.8527183532714844
-0.0585184097290039,1.1633646488189695,-0.1457443684339523,-0.2389121800661087,-0.2369710057973861,0.1667428761720657,0.0,0.0,-0.4065536260604858,-0.0651233196258544
-0.059933852404356,1.157648682594299,-0.1504698544740677,-0.2526361346244812,-0.2279033362865448,0.1813533753156662,0.0,0.0,-0.6216003894805908,0.3448412418365478
-0.0613882057368755,1.1516225337982178,-0.1551266014575958,-0.2663615345954895,-0.218097910284996,0.1961082965135574,0.0,0.0,-0.6552080512046814,0.8415775299072266
-0.0628146156668663,1.1452723741531372,-0.1513915657997131,-0.2809637188911438,-0.2092456072568893,0.1770461797714233,0.0,0.0,-0.4774839282035827,0.7635517120361328
-0.0642051696777343,1.1385856866836548,-0.1466740667819976,-0.2961249053478241,-0.2015609741210937,0.1536924839019775,0.0,0.0,-0.4119917154312134,0.8668673038482666
-0.0655762702226638,1.1315677165985107,-0.1440338790416717,-0.3109847009181976,-0.1945893913507461,0.1394316554069519,0.0,0.0,-0.5798832178115845,0.7224277257919312
-0.066917136311531,1.124226689338684,-0.1401171833276748,-0.3254885673522949,-0.1885304898023605,0.1211780309677124,0.0,0.0,-0.7970505356788635,0.7715885639190674
-0.0682184249162674,1.1165571212768557,-0.1350267976522445,-0.3402522802352905,-0.1836087554693222,0.098434530198574,0.0,0.0,-0.58408522605896,0.7049603462219238
-0.0694904327392578,1.1085671186447144,-0.1312882602214813,-0.354615718126297,-0.1795040667057037,0.0820934548974037,0.0,0.0,-0.8532370924949646,0.8783073425292969
-0.070733830332756,1.1002576351165771,-0.1276656091213226,-0.3689099252223968,-0.1761619299650192,0.0668428316712379,0.0,0.0,-0.7679399847984314,0.5689147710800171
-0.0719603523612022,1.091619849205017,-0.1255231499671936,-0.3835645914077759,-0.1732863485813141,0.0575117953121662,0.0,0.0,-0.2513241171836853,0.8680078983306885
-0.0731592178344726,1.0826610326766968,-0.1220918521285057,-0.3979152739048004,-0.1710815876722335,0.0440954379737377,0.0,0.0,-0.7457706928253174,0.7415754795074463
-0.0743165016174316,1.0733715295791626,-0.1169186979532241,-0.4127267301082611,-0.169890210032463,0.0238275658339262,0.0,0.0,-0.6770551204681396,0.6006960868835449
-0.0754512771964073,1.0637598037719729,-0.1141956597566604,-0.4271081387996673,-0.1691686958074569,0.014429872855544,0.0,0.0,-0.964521825313568,0.0191771984100341
-0.0766104683279991,1.0538371801376345,-0.1174296736717224,-0.4408298134803772,-0.1676655411720276,0.0300635360181331,0.0,0.0,-0.6083735227584839,0.012306809425354
-0.0777926445007324,1.043604016304016,-0.1204920783638954,-0.4545517265796661,-0.1653795540332794,0.0457198768854141,0.0,0.0,-0.9169078469276428,0.1026046276092529
-0.0789957046508789,1.0330603122711182,-0.1233742982149124,-0.4682739973068237,-0.1623098701238632,0.0613935366272926,0.0,0.0,-0.9628306031227112,0.7467232942581177
-0.0801527053117752,1.0221807956695557,-0.1178470104932785,-0.4832959175109863,-0.1601600497961044,0.042996808886528,0.0,0.0,-0.965965449810028,0.1237996816635131
-0.0813267678022384,1.0109909772872925,-0.1203428953886032,-0.4970184862613678,-0.1572255492210388,0.0586900226771831,0.0,0.0,-0.995207905769348,0.6388490200042725
-0.0824741348624229,0.9994776248931884,-0.1173745840787887,-0.5114227533340454,-0.1545866429805755,0.0527779571712017,0.0,0.0,-0.9782589673995972,0.2123386859893798
-0.0836343765258789,0.9876540303230286,-0.1194501295685768,-0.5251458883285522,-0.1511630266904831,0.0684724301099777,0.0,0.0,-0.9824391603469848,0.794440507888794
-0.0847397819161415,0.9755065441131592,-0.1130897998809814,-0.539636492729187,-0.1486246436834335,0.0507675781846046,0.0,0.0,-0.9892460703849792,0.4838643074035644
-0.0858535766601562,0.96304851770401,-0.1147118434309959,-0.553359866142273,-0.1453023105859756,0.0664467737078666,0.0,0.0,-0.9978155493736268,0.1036404371261596
-0.0869732871651649,0.9502801895141602,-0.1160953417420387,-0.5670839548110962,-0.1411966979503631,0.0821126848459243,0.0,0.0,-0.9887211322784424,0.490703821182251
-0.0880966186523437,0.937201738357544,-0.1172327250242233,-0.580808699131012,-0.1363085955381393,0.097761794924736,0.0,0.0,-0.995693564414978,0.739276647567749
-0.0891572013497352,0.9237921237945556,-0.1100922003388404,-0.5956190228462219,-0.1322869807481765,0.0804322510957717,0.0,0.0,-0.8930330872535706,0.2990002632141113
-0.0902160629630088,0.910072386264801,-0.1107158809900283,-0.6093443632125854,-0.1274850815534591,0.0960379093885421,0.0,0.0,-0.98485267162323,-0.1664145588874817
-0.0912707298994064,0.8960426449775696,-0.1110730171203613,-0.6230705976486206,-0.1219042167067527,0.1116170883178711,0.0,0.0,-0.7089568972587585,0.7612497806549072
-0.0922499671578407,0.8816981911659241,-0.1025953665375709,-0.6371568441390991,-0.117264300584793,0.0927982181310653,0.0,0.0,-0.9368430972099304,0.6232051849365234
-0.0931791290640831,0.8670431971549988,-0.0973524078726768,-0.650999903678894,-0.1128579080104827,0.0881278440356254,0.0,0.0,-0.8353025913238525,-0.0222886800765991
-0.0940957069396972,0.8520781397819519,-0.0968765839934349,-0.6647267937660217,-0.1076773703098297,0.1036109551787376,0.0,0.0,-0.7502151131629944,0.5488095283508301
-0.0949504822492599,0.8368008732795715,-0.0902979150414466,-0.6786549091339111,-0.1028906926512718,0.0957336574792862,0.0,0.0,-0.9070016145706176,0.0761691331863403
-0.0957868546247482,0.8212139010429382,-0.0892456471920013,-0.6923828125,-0.0973337069153785,0.1111397594213485,0.0,0.0,-0.8531414866447449,0.4539229869842529
-0.0966020599007606,0.8053171634674072,-0.0879009515047073,-0.7061117887496948,-0.0910085290670394,0.1265037804841995,0.0,0.0,-0.7712802290916443,0.7450096607208252
-0.097335435450077,0.7891072034835815,-0.0790177434682846,-0.7201129794120789,-0.0853713899850845,0.1127426251769065,0.0,0.0,-0.8233879208564758,0.7390693426132202
-0.0979749709367752,0.7725790739059448,-0.0687111914157867,-0.734314501285553,-0.080656312406063,0.0943015813827514,0.0,0.0,-0.1877989768981933,0.654961347579956
-0.0985311493277549,0.7557286620140076,-0.0597774907946586,-0.7486928701400757,-0.0765378773212432,0.0823686569929122,0.0,0.0,0.4652862548828125,0.7749650478363037
-0.0988746657967567,0.7390793561935425,-0.0378751084208488,-0.7397887110710144,-0.0730629190802574,0.0694992318749427,0.0,0.0,0.2482780218124389,0.5312907695770264
-0.0989879593253135,0.7227480411529541,-0.0147913200780749,-0.72567218542099,-0.06963412463665,0.0685760229825973,0.0,0.0,0.1135302782058715,0.6511967182159424
-0.0988871604204177,0.7064834237098694,0.0070243873633444,-0.7227296233177185,-0.0666152909398078,0.0603769645094871,0.0,0.0,0.534259557723999,-0.4405435919761657
-0.0987035781145095,0.6909542083740234,0.014569329097867,-0.690028965473175,-0.0628700777888298,0.0749039649963378,0.0,0.0,-0.6511473655700684,-0.3152846097946167
-0.0984756499528884,0.6751154661178589,0.0182533115148544,-0.703758955001831,-0.0583771169185638,0.0898590162396431,0.0,0.0,-0.5277742147445679,0.5333943367004395
-0.0981494933366775,0.6589648127555847,0.0286065395921468,-0.717649519443512,-0.0544202104210853,0.0791382268071174,0.0,0.0,-0.2725343704223633,0.259285569190979
-0.0977735519409179,0.6425051093101501,0.0328461825847625,-0.7313801050186157,-0.0497215986251831,0.0939720496535301,0.0,0.0,-0.21470308303833,0.4571614265441894
-0.0973449721932411,0.6257361769676208,0.0373553335666656,-0.7451115250587463,-0.0442844815552234,0.1087422594428062,0.0,0.0,0.3798446655273437,0.7570130825042725
-0.0966900810599327,0.6097378730773926,0.0606429688632488,-0.7109019756317139,-0.0395015552639961,0.0956586077809333,0.0,0.0,-0.3200622797012329,0.353008508682251
-0.0959775894880294,0.5934305191040039,0.0656718313694,-0.7246341705322266,-0.033986784517765,0.1102953404188156,0.0,0.0,-0.0355697274208068,0.8484957218170166
-0.0951514244079589,0.5768192410469055,0.0776480883359909,-0.7381743788719177,-0.0290818326175212,0.0980988666415214,0.0,0.0,0.0195047855377197,0.6193841695785522
-0.0941403359174728,0.5605430006980896,0.0965810641646385,-0.7233076691627502,-0.0246134288609027,0.0893679186701774,0.0,0.0,-0.2271331548690796,0.4083316326141357
-0.0930644050240516,0.5439578890800476,0.1023342609405517,-0.7370405793190002,-0.0194241143763065,0.1037865728139877,0.0,0.0,0.2503044605255127,0.6428846120834351
-0.0919291526079177,0.527918815612793,0.1089607626199722,-0.7127922177314758,-0.0149099417030811,0.0902833417057991,0.0,0.0,-0.1240559816360473,0.0293372869491577
-0.0907246619462966,0.5115709900856018,0.115156278014183,-0.7265257239341736,-0.0096828360110521,0.1045422106981277,0.0,0.0,0.6231476068496704,0.7079005241394043
-0.0895125418901443,0.4958024024963379,0.1168780326843261,-0.7008064389228821,-0.005412217695266,0.0854123830795288,0.0,0.0,0.1587644815444946,-0.1073699593544006
-0.0883308425545692,0.4802768528461456,0.1136223301291465,-0.690014660358429,-0.0009255146142095,0.0897340849041938,0.0,0.0,0.2094961404800415,-0.235477864742279
-0.0869960784912109,0.4652316570281982,0.1278589516878128,-0.668681263923645,0.0046194964088499,0.1109003275632858,0.0,0.0,0.0260049104690551,0.676801323890686
-0.0854884162545204,0.4502163827419281,0.1457694470882415,-0.6673697829246521,0.0095525346696376,0.0986607447266578,0.0,0.0,0.0419719219207763,0.2857939004898071
-0.0838153809309005,0.4356156587600708,0.1611821502447128,-0.6489735841751099,0.0155982952564954,0.1209150999784469,0.0,0.0,-0.6970455050468445,0.3873323202133178
-0.0820622444152832,0.420706570148468,0.1684994101524353,-0.6627101898193359,0.0223281234502792,0.1345962882041931,0.0,0.0,-0.8023703098297119,0.1795339584350586
-0.0802275687456131,0.405489444732666,0.1759740859270095,-0.6764479279518127,0.0297362226992845,0.1481621712446212,0.0,0.0,0.3219168186187744,0.6103425025939941
-0.0782080665230751,0.3906648159027099,0.1948619782924652,-0.6590298414230347,0.0367310792207717,0.139897271990776,0.0,0.0,-0.5278102159500122,-0.0374023914337158
-0.0761042609810829,0.3755322396755218,0.2026275396347046,-0.6727686524391174,0.0443916469812393,0.1532114446163177,0.0,0.0,0.2425699234008789,-0.2857539653778076
-0.0738954544067382,0.3609825670719147,0.2122449874877929,-0.6469300389289856,0.0529221519827842,0.1706097573041916,0.0,0.0,-0.7655293941497803,0.3648549318313598
-0.0715998634696006,0.3461254239082336,0.2202710807323455,-0.6606716513633728,0.0621041133999824,0.183639258146286,0.0,0.0,0.3769410848617553,-0.0546867847442626
-0.0693501457571983,0.3317229747772217,0.2155224531888961,-0.6405283808708191,0.0714582279324531,0.1870822459459304,0.0,0.0,-0.0635448694229126,0.0204869508743286
-0.0670114532113075,0.3170133829116821,0.2237808257341385,-0.6542721390724182,0.0814476534724235,0.199788361787796,0.0,0.0,0.4311075210571289,0.2248433828353881
-0.0646410956978797,0.3027245700359344,0.2264020442962646,-0.6356678009033203,0.0919771939516067,0.2105906456708908,0.0,0.0,0.6983754634857178,0.504335880279541
-0.0621623024344444,0.2889566123485565,0.2375730723142624,-0.6125758290290833,0.1021989285945892,0.2044346630573272,0.0,0.0,0.7694642543792725,0.331463098526001
-0.0594921112060546,0.2754781246185303,0.2554657161235809,-0.5998739004135132,0.1136743798851966,0.2295088320970535,0.0,0.0,0.7321343421936035,0.7253878116607666
-0.056643296033144,0.2627935409545898,0.2739518880844116,-0.5646269917488098,0.1245353296399116,0.2172190397977829,0.0,0.0,0.5548057556152344,0.8500690460205078
-0.0537034980952739,0.250957727432251,0.2841434776782989,,0.1343179494142532,0.1956528276205063,0.0,0.0,-0.0475280880928039,0.4674966335296631
-0.0506701469421386,0.2388153225183487,0.2929505705833435,-0.5406322479248047,0.1446723937988281,0.2070889472961425,0.0,0.0,0.263406753540039,0.2239603996276855
