x_pos,y_pos,x_vel,y_vel,angle,ang_vel,leg_1,leg_2,main_booster,lat_booster
-0.0014792442088946,1.403446912765503,-0.1498522758483886,-0.3321432471275329,0.0017273530829697,0.0340709537267684,0.0,0.0,-0.1208913922309875,0.9167258739471436
-0.0028355598915368,1.3958150148391724,-0.1353371143341064,-0.3391952812671661,0.0014273739652708,-0.0059994193725287,0.0,0.0,-0.5981753468513489,0.8438253402709961
-0.0040660859085619,1.3879990577697754,-0.1206730231642723,-0.3473744392395019,-0.000924996973481,-0.047051690518856,0.0,0.0,-0.3041287660598755,0.1657259464263916
-0.0052516935393214,1.3800055980682373,-0.1161597594618797,-0.3552712202072143,-0.0032914273906499,-0.0473331585526466,0.0,0.0,0.1367191076278686,0.2094675302505493
-0.0063019753433763,1.372507095336914,-0.1030504256486892,-0.3332716822624206,-0.0052479649893939,-0.0391347147524356,0.0,0.0,-0.5111720561981201,-0.1933419108390808
-0.007307338528335,1.3648309707641602,-0.0985337048768997,-0.3411703705787658,-0.0072193625383079,-0.0394315160810947,0.0,0.0,-0.5243858695030212,-0.080572485923767
-0.0082675935700535,1.3569773435592651,-0.0940156280994415,-0.3490613996982574,-0.0092050805687904,-0.039717823266983,0.0,0.0,-0.6382328271865845,0.0827171802520752
-0.0091827390715479,1.3489460945129397,-0.0894975140690803,-0.3569537699222564,-0.0112052215263247,-0.0400065779685974,0.0,0.0,-0.6056537628173828,-0.2000614404678344
-0.0100529668852686,1.3407375812530518,-0.0849802941083908,-0.3648468852043152,-0.013219772838056,-0.0402948930859565,0.0,0.0,-0.7313290238380432,-0.0518040657043457
-0.0108781810849905,1.3323513269424438,-0.0804649889469146,-0.3727401793003082,-0.0152487736195325,-0.0405837893486022,0.0,0.0,-0.8049194812774658,0.0542532205581665
-0.011658382602036,1.3237876892089844,-0.0759526491165161,-0.3806334435939789,-0.0172922033816576,-0.0408723913133144,0.0,0.0,-0.7636570334434509,-0.7350612282752991
-0.0124447820708155,1.3150461912155151,-0.0778613239526748,-0.3885204195976257,-0.0180640071630477,-0.0154372630640864,0.0,0.0,-0.9009856581687928,0.23775315284729
-0.0131863597780466,1.3061271905899048,-0.0733620673418045,-0.396413505077362,-0.0188510250300169,-0.0157418996095657,0.0,0.0,-0.6020809412002563,-0.0947825908660888
-0.0138832088559865,1.2970304489135742,-0.0688687860965728,-0.4043066799640655,-0.0196524951606988,-0.0160308741033077,0.0,0.0,-0.8419631123542786,0.3541556596755981
-0.014535236172378,1.287756323814392,-0.0643827840685844,-0.4121998250484466,-0.0204687491059303,-0.0163267012685537,0.0,0.0,-0.96026611328125,-0.6902084946632385
-0.0151874544098973,1.2782976627349854,-0.0655059739947319,-0.4203771650791168,-0.0201799739152193,0.005775848403573,0.0,0.0,-0.6821508407592773,0.0984081029891967
-0.0157951358705759,1.2686614990234375,-0.0610420405864715,-0.4282703101634979,-0.0199067760258913,0.005464528221637,0.0,0.0,-0.8600830435752869,-0.4453468322753906
-0.0163583755493164,1.258847713470459,-0.056589089334011,-0.436163455247879,-0.0196485165506601,0.0051658321171998,0.0,0.0,-0.828449547290802,-0.1969617009162902
-0.0168773643672466,1.2488564252853394,-0.0521486699581146,-0.4440567195415497,-0.0194055251777172,0.0048602656461298,0.0,0.0,-0.8070854544639587,-0.4803515076637268
-0.0173522941768169,1.23868727684021,-0.0477224960923194,-0.4519500136375427,-0.0191778820008039,0.0045533333905041,0.0,0.0,-0.8025792837142944,-0.0810755491256713
-0.0177833549678325,1.2283408641815186,-0.0433120094239711,-0.4598433077335357,-0.0189656615257263,0.0042447331361472,0.0,0.0,-0.9344131350517272,-0.6936637759208679
-0.0182243343442678,1.217814326286316,-0.0456681065261364,-0.4678258299827575,-0.0174177605658769,0.0309607349336147,0.0,0.0,-0.9578516483306884,-0.5839430093765259
-0.0186580661684274,1.2071104049682615,-0.0458431504666805,-0.4757024943828583,-0.0149758635088801,0.0488424114882946,0.0,0.0,-0.9404718279838562,0.2125269174575805
-0.0190484039485454,1.1962288618087769,-0.0414967760443687,-0.4835963845252991,-0.0125501481816172,0.0485188290476799,0.0,0.0,-0.9375,-0.0818321704864502
-0.0193957332521677,1.1851699352264404,-0.0371734872460365,-0.4914902150630951,-0.0101403966546058,0.048199363052845,0.0,0.0,-0.9739120602607728,-0.3863416910171509
-0.0197004321962595,1.1739120483398438,-0.0328895635902881,-0.5003376603126526,-0.0077466601505875,0.0478747449815273,0.0,0.0,-0.9260931015014648,0.4799369573593139
-0.0199624057859182,1.1624765396118164,-0.02861263230443,-0.5082293748855591,-0.0053686015307903,0.0475611761212348,0.0,0.0,-0.9363672733306884,0.3701459169387817
-0.0201821327209472,1.1508636474609375,-0.0243661049753427,-0.5161210298538208,-0.0030059828422963,0.0472524836659431,0.0,0.0,-0.9742594957351683,-0.2606170177459717
-0.0203598979860544,1.139073371887207,-0.0201527290046215,-0.5240126848220825,-0.0006585422670468,0.0469486787915229,0.0,0.0,-0.9498955011367798,-0.0306066870689392
-0.0204959865659475,1.1271055936813354,-0.0159754548221826,-0.5319043397903442,0.0016739695565775,0.0466501265764236,0.0,0.0,-0.9417214393615724,-0.2946819067001343
-0.0205908771604299,1.1149601936340332,-0.0118374591693282,-0.539795994758606,0.0039917975664138,0.0463569238781929,0.0,0.0,-0.9426857829093932,-0.4463696479797363
-0.0206449516117572,1.1026374101638794,-0.0077421613968908,-0.5476876497268677,0.006295267958194,0.0460692681372165,0.0,0.0,-0.8416430950164795,-0.4625141620635986
-0.0206586830317974,1.0901371240615845,-0.0036932423245161,-0.5555793046951294,0.008584645576775,0.0457875356078147,0.0,0.0,-0.9345539808273317,0.3219412565231323
-0.0206325538456439,1.0774593353271484,0.0003053327091038,-0.5634709596633911,0.0108602372929453,0.0455118156969547,0.0,0.0,-0.8953223824501038,0.2821078300476074
-0.0205671302974224,1.0646040439605713,0.0042493129149079,-0.5713626146316528,0.0131223555654287,0.0452424064278602,0.0,0.0,-0.6585859656333923,0.4574272632598877
-0.0204629898071289,1.051571249961853,0.0081341238692402,-0.5792542695999146,0.0153713310137391,0.0449797511100769,0.0,0.0,-0.7043838500976562,-0.0111314058303833
-0.0203207973390817,1.0383610725402832,0.0119548635557293,-0.5871459245681763,0.0176075305789709,0.0447242781519889,0.0,0.0,-0.9412961006164552,0.7104170322418213
-0.0200814250856637,1.024980545043945,0.0231990031898021,-0.5947065353393555,0.0183288492262363,0.0144263030961155,0.0,0.0,-0.8778905272483826,-0.0568318367004394
-0.0198055263608694,1.0114222764968872,0.026875477284193,-0.6025977730751038,0.0190381817519664,0.0141866458579897,0.0,0.0,-0.7687608599662781,-0.2456050515174865
-0.0194937698543071,0.9976863265037536,0.0304710362106561,-0.610489010810852,0.0197359658777713,0.0139558017253875,0.0,0.0,-0.6493803858757019,0.0307116508483886
-0.0191470142453908,0.9837730526924132,0.0339793264865875,-0.6183802485466003,0.020422663539648,0.0137343285605311,0.0,0.0,-0.9704133868217468,0.3790158033370971
-0.0187662132084369,0.9696820974349976,0.037393607199192,-0.6262714862823486,0.02109881862998,0.0135229248553514,0.0,0.0,-0.9454962015151978,0.0173529386520385
-0.0183524135500192,0.9554137587547302,0.0407067462801933,-0.6341628432273865,0.021764937788248,0.0133223477751016,0.0,0.0,-0.8987172842025757,-0.1986498832702636
-0.0179066658020019,0.9409677386283876,0.0439112745225429,-0.6420541405677795,0.02242162078619,0.013133393600583,0.0,0.0,-0.8742881417274475,0.3917315006256103
-0.0174302104860544,0.9263441562652588,0.046999342739582,-0.6499453186988831,0.0230694748461246,0.012956884689629,0.0,0.0,-0.8542616963386536,0.4213992357254028
-0.0169240944087505,0.911543071269989,0.0499627776443958,-0.6578365564346313,0.0237091649323701,0.0127937700599432,0.0,0.0,-0.7825654149055481,-0.2804586887359619
-0.0163897518068552,0.8965643644332886,0.0527931377291679,-0.6657277345657349,0.0243414044380188,0.0126449298113584,0.0,0.0,-0.949160635471344,0.4701968431472778
-0.0158285144716501,0.8814082145690918,0.0554817244410514,-0.6736189126968384,0.0249669812619686,0.0125114219263196,0.0,0.0,-0.6342349648475647,0.6104594469070435
-0.0152045246213674,0.8660812973976135,0.0627356469631195,-0.6811920404434204,0.0246395301073789,-0.0065492144785821,0.0,0.0,-0.8861352801322937,0.5788513422012329
-0.0145125389099121,0.8505766987800598,0.0706608369946479,-0.6890662908554077,0.0231964066624641,-0.0288625415414571,0.0,0.0,-0.9082642197608948,-0.7042959928512573
-0.0138408662751317,0.834892988204956,0.0675448849797248,-0.697048544883728,0.0228162296116352,-0.0076034544035792,0.0,0.0,-0.8338037729263306,0.2737985849380493
-0.0131489755585789,0.8190317749977112,0.0695768594741821,-0.7049398422241211,0.0224329456686973,-0.0076656294986605,0.0,0.0,-0.627670168876648,0.1640877723693847
-0.0124386791139841,0.8029929995536804,0.0714224576950073,-0.7128309607505798,0.0220475848764181,-0.0077073676511645,0.0,0.0,-0.8434498310089111,0.039630651473999
-0.0117118833586573,0.786776602268219,0.0730732232332229,-0.7207221984863281,0.0216612014919519,-0.0077276825904846,0.0,0.0,-0.659039318561554,0.5367766618728638
-0.0109176635742187,0.7703823447227478,0.0811712816357612,-0.7286072969436646,0.0199433807283639,-0.0343563891947269,0.0,0.0,-0.9325825572013856,-0.6678054928779602
-0.0101720811799168,0.7538057565689087,0.0747313275933265,-0.7367331981658936,0.0197658110409975,-0.0035513050388544,0.0,0.0,-0.7630623579025269,0.5166563987731934
-0.0093691824004054,0.7370578646659851,0.0816755965352058,-0.7443349957466125,0.0184024181216955,-0.0272678788751363,0.0,0.0,-0.7423030734062195,-0.4205399751663208
-0.0085582733154296,0.7201323509216309,0.0824728161096572,-0.7522262930870056,0.0170427206903696,-0.0271939970552921,0.0,0.0,-0.6317929029464722,-0.7474014759063721
-0.0077934265136718,0.7030357718467712,0.0765339881181716,-0.7598494291305542,0.0169893577694892,-0.0010674119694158,0.0,0.0,-0.7483513355255127,-0.4848531484603882
-0.0070252418518066,0.6857616305351257,0.0768708512187004,-0.7677406668663025,0.0169422328472137,-0.0009426375036127,0.0,0.0,-0.5913673043251038,-0.5802612900733948
-0.006297874264419,0.6683037877082825,0.0717073380947113,-0.7759153246879578,0.0179587826132774,0.0203308705240488,0.0,0.0,-0.6055579781532288,0.3521631956100464
-0.0055717467330396,0.6506684422492981,0.0715724974870681,-0.7838066220283508,0.0189841743558645,0.0205077044665813,0.0,0.0,-0.4233078956604004,0.6368069648742676
-0.0047885896638035,0.6328557133674622,0.078821413218975,-0.791672945022583,0.0184936001896858,-0.0098113995045423,0.0,0.0,-0.4526562690734863,-0.7060755491256714
-0.0040649413131177,0.6148650050163269,0.0714767128229141,-0.7996006608009338,0.0193635709583759,0.0173994936048984,0.0,0.0,-0.6498523354530334,0.0466823577880859
-0.0033495903480798,0.5966966152191162,0.0706343352794647,-0.8074920177459717,0.0202462524175643,0.0176537819206714,0.0,0.0,0.2713613510131836,-0.2753137350082397
-0.0027493475936353,0.57902991771698,0.0595638863742351,-0.785191535949707,0.0207022260874509,0.0091194473206996,0.0,0.0,-0.2565076351165771,0.1282598972320556
-0.0021619796752929,0.5611857175827026,0.0582642368972301,-0.7930828928947449,0.0211733914911746,0.009423155337572,0.0,0.0,0.1043720245361328,0.038973331451416
-0.00153884885367,0.5434588193893433,0.0615591779351234,-0.7878709435462952,0.0219147354364395,0.0148268211632967,0.0,0.0,-0.0126789212226867,0.1240401268005371
-0.0009329795720987,0.5255544781684875,0.0598241761326789,-0.7957622408866882,0.0226735845208168,0.0151769127696752,0.0,0.0,0.7532620429992676,-0.2224005460739135
-0.0004574775812216,0.5082224607467651,0.0472283139824867,-0.7703172564506531,0.0229889899492263,0.0063084200955927,0.0,0.0,-0.1022348999977111,-0.305781602859497
-3.24249276673072e-06,0.4907128810882568,0.0450869537889957,-0.7782086133956909,0.0233240369707345,0.0067009418271481,0.0,0.0,0.6364424228668213,0.0897959470748901
0.0004440307675395,0.4739512801170349,0.0442228391766548,-0.7449697852134705,0.0238206088542938,0.0099314814433455,0.0,0.0,0.714085578918457,-0.5466350317001343
0.0006593704456463,0.458325445652008,0.0202933549880981,-0.6944993138313293,0.0250395368784666,0.0243786983191967,0.0,0.0,-0.7922133803367615,-0.0363830924034118
0.0008479118114337,0.4425221681594848,0.01760720834136,-0.7023907899856567,0.0262808669358491,0.0248264167457819,0.0,0.0,0.0035716295242309,0.0999249219894409
0.000981617020443,0.4268966913223266,0.0121830869466066,-0.694484293460846,0.0274506341665983,0.023394925519824,0.0,0.0,-0.7456248998641968,0.0717666149139404
0.0010854720603674,0.4110938310623169,0.0091803092509508,-0.7023756504058838,0.0286443065851926,0.0238734260201454,0.0,0.0,0.8069312572479248,-0.1065465211868286
0.0011130332713946,0.395668476819992,0.0016785676125437,-0.6855913400650024,0.029702678322792,0.0211676992475986,0.0,0.0,0.6712579727172852,0.4791147708892822
0.0010757446289062,0.3812682926654815,-0.0047900835052132,-0.6400305032730103,0.0307471472769975,0.0208892915397882,0.0,0.0,0.2618085145950317,0.3903661966323852
0.0010464668739587,0.3676275014877319,-0.0042874468490481,-0.6062859296798706,0.032100174576044,0.0270604733377695,0.0,0.0,-0.7361862659454346,0.8417561054229736
0.0010363578330725,0.3538202047348022,-0.0010329273063689,-0.6136560440063477,0.0321161411702632,0.0003194548480678,0.0,0.0,0.1038880348205566,0.5045723915100098
0.000928115856368,0.3401593267917633,-0.0096697565168142,-0.6071242690086365,0.0309715829789638,-0.022891167551279,0.0,0.0,0.8904851675033569,0.691523551940918
0.0008591652149334,0.3276882171630859,-0.0044942507520318,-0.5542253851890564,0.0285994242876768,-0.0474431291222572,0.0,0.0,0.6229660511016846,0.3340764045715332
0.0006365776062011,0.3158830404281616,-0.0194206424057483,-0.5246235132217407,0.0257944129407405,-0.0561002269387245,0.0,0.0,-0.743556797504425,0.468682050704956
0.000375080097001,0.3039004504680633,-0.0233347173780202,-0.5325153470039368,0.0230173394083976,-0.0555413551628589,0.0,0.0,0.632906436920166,0.2055401802062988
4.6253204345703125e-05,0.292776346206665,-0.0300429873168468,-0.4943613111972809,0.0202138237655162,-0.0560704059898853,0.0,0.0,-0.8604142665863037,0.7985802888870239
-0.00025062559871,0.2814772427082062,-0.0250334683805704,-0.5021244287490845,0.0156206358224153,-0.0918637737631797,0.0,0.0,-0.0593237280845642,-0.3123412728309631
-0.0005885123973712,0.2700009047985077,-0.0291669014841318,-0.5100173950195312,0.011056219227612,-0.0912881642580032,0.0,0.0,-0.0269776582717895,-0.7932718396186829
-0.00102109904401,0.2583405971527099,-0.0400204807519912,-0.5182178020477295,0.0078554889187216,-0.0640144273638725,0.0,0.0,0.5508077144622803,0.4786090850830078
-0.0013620376121252,0.2473084032535553,-0.0315284207463264,-0.4903070628643036,0.0053227855823934,-0.050653975456953,0.0,0.0,0.6969197988510132,-0.6373307108879089
-0.0016433715354651,0.2367023825645446,-0.0272604711353778,-0.4713798761367798,0.0044558066874742,-0.0173393543809652,0.0,0.0,0.6746881008148193,-0.1053249835968017
-0.0019769668579101,0.2270609438419342,-0.0324956960976123,-0.4285052716732025,0.0035917253699153,-0.017281437292695,0.0,0.0,0.0624597072601318,0.3381068706512451
-0.0023362159263342,0.2179737687110901,-0.0351669155061244,-0.4038714468479156,0.0028493844438344,-0.0148470606654882,0.0,0.0,0.038737416267395,0.4487028121948242
-0.0026623725425451,0.2093385607004165,-0.0322557240724563,-0.3837884366512298,0.0024990432430058,-0.0070068328641355,0.0,0.0,-0.3214143514633178,0.0822776556015014
-0.003032875014469,0.2005257457494735,-0.0367259830236434,-0.3916796743869781,0.0021786363795399,-0.006408127490431,0.0,0.0,-0.1480095386505127,-0.197137713432312
-0.0034480094909667,0.1915354132652282,-0.041229460388422,-0.3995708525180816,0.0018882889999076,-0.0058070407249033,0.0,0.0,-0.1192776560783386,0.7155227661132812
-0.0038436888717114,0.1823762059211731,-0.0376607254147529,-0.4070716500282287,5.170461918169167e-06,-0.0376625061035156,0.0,0.0,0.2274342775344848,-0.4673897624015808
-0.0043020248413085,0.1736738234758377,-0.0438722111284732,-0.386774331331253,-0.0019278204999864,-0.0386599078774452,0.0,0.0,0.4088282585144043,-0.129135251045227
-0.0049106599763035,0.1658117324113845,-0.0584401413798332,-0.3494292795658111,-0.0043213479220867,-0.0478704199194908,0.0,0.0,-0.6136378645896912,0.2054321765899658
-0.0055650710128247,0.1577722579240799,-0.0630501955747604,-0.3573209345340729,-0.0066843833774328,-0.0472605749964714,0.0,0.0,-0.3856991529464721,0.3621692657470703
-0.0062655447982251,0.1495552659034729,-0.0676813796162605,-0.3652125895023346,-0.0090168146416544,-0.0466485694050788,0.0,0.0,-0.5661336183547974,0.5251433849334717
-0.0069763185456395,0.141164094209671,-0.0678315013647079,-0.3729637861251831,-0.0122192660346627,-0.0640491843223571,0.0,0.0,-0.3560800552368164,0.0507899522781372
-0.0077334404923021,0.1325955539941787,-0.072499543428421,-0.3808557391166687,-0.0153909046202898,-0.0634326338768005,0.0,0.0,-0.4623128771781921,0.2521837949752807
-0.0085370065644383,0.1238495409488678,-0.0771836265921592,-0.3887477517127991,-0.0185315907001495,-0.0628136992454528,0.0,0.0,0.4147946834564209,0.2643611431121826
-0.0095078470185399,0.115602359175682,-0.0933299586176872,-0.3665923476219177,-0.0222372878342866,-0.0741141587495803,0.0,0.0,-0.0106308460235595,0.8463431596755981
-0.0104466434568166,0.1071802973747253,-0.0881547182798385,-0.3744086623191833,-0.0278907194733619,-0.1130686625838279,0.0,0.0,0.4477014541625976,-0.2007386088371276
-0.0113696102052927,0.0990636423230171,-0.0868543833494186,-0.3608514964580536,-0.0332641415297985,-0.107468232512474,0.0,0.0,0.5947678089141846,0.2281296253204345
-0.0121750831604003,0.0918667390942573,-0.0757996439933776,-0.3199727833271026,-0.0379583872854709,-0.0938846617937088,0.0,0.0,0.147655963897705,0.5115039348602295
-0.0129841808229684,0.0853036940097808,-0.0751174539327621,-0.2918502986431122,-0.0436728149652481,-0.1142888441681861,0.0,0.0,-0.2180516123771667,-0.1704890131950378
-0.0138403894379735,0.0785634815692901,-0.0798715949058532,-0.2997441291809082,-0.0493554510176181,-0.113652691245079,0.0,0.0,0.4174380302429199,-0.3218594789505005
-0.0146539686247706,0.0723862498998642,-0.0759476423263549,-0.2747319042682647,-0.0547033436596393,-0.1069581061601638,0.0,0.0,-0.1056601405143737,-0.3278596401214599
-0.0155149456113576,0.0660318434238433,-0.0807171985507011,-0.282625287771225,-0.0600190944969654,-0.1063150390982627,0.0,0.0,0.3320760726928711,-0.3327702283859253
-0.0163363460451364,0.0604465566575527,-0.0770285427570343,-0.2484481632709503,-0.0650762692093849,-0.1011432781815528,0.0,0.0,-0.1713154911994934,-0.1137656569480896
-0.0172052383422851,0.0546840280294418,-0.0818104594945907,-0.2563413381576538,-0.0701008960604667,-0.1004925146698951,0.0,0.0,0.2282125949859619,-0.1762256026268005
-0.0181800834834575,0.0494416318833828,-0.0920221135020256,-0.2332613170146942,-0.0755134299397468,-0.1082504987716674,0.0,0.0,-0.0178892016410827,0.6821119785308838
-0.0191602706909179,0.044015560299158,-0.0915082022547721,-0.2415022403001785,-0.0819623991847038,-0.1289792954921722,0.0,0.0,0.4727563858032226,-0.0674079060554504
-0.0201660152524709,0.0391659848392009,-0.0940117537975311,-0.2159080803394317,-0.0884669870138168,-0.1300919353961944,0.0,0.0,-0.2662912011146545,0.7216973304748535
-0.0211602207273244,0.0341304391622543,-0.0913721174001693,-0.2243018299341201,-0.0964387059211731,-0.1594343483448028,0.0,0.0,0.690220832824707,-0.1438971757888794
-0.0220335014164447,0.0294479466974735,-0.0799551308155059,-0.2086038440465927,-0.1037587150931358,-0.1464003026485443,0.0,0.0,0.1565775871276855,0.212708830833435
-0.0228370670229196,0.0252921674400568,-0.0733314827084541,-0.185208186507225,-0.1107291877269744,-0.1394092887639999,0.0,0.0,0.2186006307601928,0.009000539779663
-0.0236041061580181,0.0218432042747735,-0.0698098912835121,-0.153811439871788,-0.1175800040364265,-0.1370164155960083,0.0,0.0,0.0632963180541992,0.2475757598876953
