x_pos,y_pos,x_vel,y_vel,angle,ang_vel,leg_1,leg_2,main_booster,lat_booster
-0.0015129089588299,1.403093695640564,-0.1534063518047332,-0.3478432595729828,0.001892190775834,0.0373349785804748,0.0,0.0,-0.8182365385059751,0.8285699279949671
-0.0029444694519042,1.394755721092224,-0.1433593481779098,-0.370576798915863,0.0020925642456859,0.0040085762739181,0.0,0.0,0.6173483915681868,0.9398783230313597
-0.0041450499556958,1.3864734172821045,-0.1187378764152526,-0.3680972456932068,0.0007944361423142,-0.0259650759398937,0.0,0.0,0.3333635359208484,0.601142766809068
-0.0053930282592773,1.378262996673584,-0.1222149133682251,-0.3649055659770965,-0.0017677601426839,-0.0512488856911659,0.0,0.0,0.0753940690715446,-0.9894793580479756
-0.0066065788269042,1.370161533355713,-0.1208851709961891,-0.3600663542747497,-0.0022277941461652,-0.009201462380588,0.0,0.0,-0.0484377982597068,-0.8632660145240914
-0.0078616142272949,1.3615280389785769,-0.126540869474411,-0.3837073743343353,-0.0012010086793452,0.0205374173820018,0.0,0.0,0.7537010933821717,-0.6218188585848046
-0.0091795921325683,1.353283405303955,-0.1341994851827621,-0.3664254248142242,0.0011642843019217,0.0473102293908596,0.0,0.0,0.6975913474115123,-0.6406888218881324
-0.0103719709441065,1.3455071449279783,-0.123516596853733,-0.3456176519393921,0.005399745889008,0.084716722369194,0.0,0.0,0.7232351774802859,0.9943705131897224
-0.0114940647035837,1.338520884513855,-0.1146707087755203,-0.3105171024799347,0.007836315780878,0.0487358346581459,0.0,0.0,-0.5546989422125563,0.8479207503265955
-0.0125385280698537,1.3310096263885498,-0.1054168194532394,-0.3338382542133331,0.0087970709428191,0.0192170161753892,0.0,0.0,-0.1238684485114018,-0.7018727343559319
-0.0136194229125976,1.3229676485061646,-0.1104809194803237,-0.3574388325214386,0.0111589906737208,0.047242484986782,0.0,0.0,-0.1930840747672342,-0.9539591969949204
-0.0147559167817235,1.314391851425171,-0.1179375797510147,-0.3811818659305572,0.0154058020561933,0.0849438682198524,0.0,0.0,0.2442264067747355,0.7423720927618519
-0.0157204624265432,1.30608332157135,-0.0996279194951057,-0.3693054318428039,0.0185499973595142,0.0628894865512847,0.0,0.0,-0.1626816988578141,-0.9576048270214365
-0.0167408939450979,1.2972333431243896,-0.1071603447198867,-0.3934063017368316,0.023609135299921,0.1011919751763343,0.0,0.0,0.5516199881936179,-0.9118740936402552
-0.0176917072385549,1.2890262603759766,-0.1024704948067665,-0.3648882806301117,0.0309156253933906,0.1461431682109832,0.0,0.0,-0.3501989295572119,-0.7185311155625542
-0.0186781883239746,1.280278563499451,-0.107462391257286,-0.3889903724193573,0.0396352373063564,0.1744082868099212,0.0,0.0,-0.4025298846229124,0.6443126025747458
-0.0195919033139944,1.2710124254226685,-0.0988581180572509,-0.4120456576347351,0.047035627067089,0.1480211615562439,0.0,0.0,0.2874757075034355,0.9774838033180424
-0.0203025825321674,1.261659860610962,-0.0769019573926925,-0.4158625900745392,0.0528192110359668,0.1156821027398109,0.0,0.0,-0.1365648954313658,0.7381498905970977
-0.0209354404360055,1.2517892122268677,-0.0676734670996666,-0.4388552904129028,0.0571664571762084,0.0869525894522667,0.0,0.0,-0.1650792435545818,0.9378387768712332
-0.0214938167482614,1.2413933277130127,-0.0588731057941913,-0.4621639549732208,0.0601743087172508,0.0601624436676502,0.0,0.0,0.8438538918055019,-0.7530460873164837
-0.0219971649348735,1.231737494468689,-0.0555230900645256,-0.4293658435344696,0.0653070881962776,0.1026648059487342,0.0,0.0,0.7419178196080825,0.8285326407497291
-0.0224417690187692,1.2222524881362915,-0.0482872053980827,-0.4217306673526764,0.0691044107079505,0.0759531334042549,0.0,0.0,-0.7961618502583026,0.8711376737979417
-0.0227926261723041,1.2122445106506348,-0.0370903313159942,-0.4448974430561065,0.071089968085289,0.0397147759795188,0.0,0.0,0.4475149266744758,0.976066815142444
-0.0230053905397653,1.202120065689087,-0.0216821953654289,-0.449996143579483,0.0714947655797004,0.0080965589731931,0.0,0.0,-0.0661486846557788,-0.7147725056558581
-0.0232779495418071,1.1914594173431396,-0.0297546535730361,-0.4739245772361755,0.0739637911319732,0.0493851080536842,0.0,0.0,0.6979410527617731,0.6561931557824294
-0.0237035751342773,1.1813206672668457,-0.0436678044497966,-0.4506674110889435,0.0750590786337852,0.0219055395573377,0.0,0.0,-0.6268085384276911,0.7432706971270417
-0.0240607261657714,1.1706626415252686,-0.0356413125991821,-0.4736836552619934,0.0749802887439727,-0.0015753989573568,0.0,0.0,0.4493254672353739,-0.7627298106543872
-0.0246506687253713,1.1605439186096191,-0.0605673007667064,-0.4498018622398376,0.0765395835041999,0.0311860349029302,0.0,0.0,-0.6041789367879233,-0.7273972259112682
-0.025301456451416,1.149892807006836,-0.0687604323029518,-0.473577082157135,0.0801867991685867,0.0729443877935409,0.0,0.0,-0.4939115930267979,-0.9397361645765642
-0.0260196682065725,1.138698697090149,-0.0777906849980354,-0.4978441596031189,0.086103931069374,0.1183427572250366,0.0,0.0,0.0222717098153104,0.7615818488903385
-0.0267009735107421,1.1277756690979004,-0.0729215294122695,-0.4857550859451294,0.0908436551690101,0.094794675707817,0.0,0.0,0.7447202156280013,-0.7186897102006589
-0.0275611877441406,1.1169897317886353,-0.0923880711197853,-0.4797715544700622,0.0971626564860344,0.1263801604509353,0.0,0.0,-0.4329786848736119,-0.6801766263323974
-0.028474235907197,1.1056716442108154,-0.0995689705014228,-0.5035829544067383,0.1053660735487937,0.164068192243576,0.0,0.0,-0.7946901926217367,-0.6752412592187724
-0.0294372551143169,1.0938090085983276,-0.106421485543251,-0.5279738903045654,0.1154098212718963,0.200874775648117,0.0,0.0,0.0215352150613385,0.8853385569520595
-0.0303556434810161,1.082011103630066,-0.1005258113145828,-0.5250458121299744,0.1240373477339744,0.1725508272647857,0.0,0.0,-0.9038557861040146,-0.9611487379902538
-0.0313402190804481,1.0696778297424316,-0.1093441843986511,-0.5490926504135132,0.134878784418106,0.2168291360139846,0.0,0.0,-0.832185677187466,-0.626547912100945
-0.032368279993534,1.0568023920059204,-0.1153507381677627,-0.5734211206436157,0.1473876386880874,0.250177264213562,0.0,0.0,0.4786419332409641,0.6093355120152318
-0.0334053039550781,1.0444331169128418,-0.1154507026076316,-0.5509501099586487,0.1591185182332992,0.2346176356077194,0.0,0.0,0.2780306788726605,0.6305022661364826
-0.0345236770808696,1.0325117111206057,-0.1225922852754592,-0.5310333967208862,0.1698905229568481,0.2154401987791061,0.0,0.0,-0.2755975942215369,0.6274119218543908
-0.0355841629207134,1.0200756788253784,-0.1158568412065506,-0.5538689494132996,0.1797144263982772,0.1964781582355499,0.0,0.0,0.2362793299381524,-0.8282818218057554
-0.0368977561593055,1.007935643196106,-0.1430879682302475,-0.5410127639770508,0.1914907991886139,0.2355275452136993,0.0,0.0,-0.92271488904953,0.9373102188110352
-0.0381175056099891,0.9952909350395204,-0.1317913234233856,-0.5632904767990112,0.2013747096061706,0.19767826795578,0.0,0.0,-0.9435814619064332,0.997336745262146
-0.0392401702702045,0.9821341037750244,-0.1201462298631668,-0.5858423113822937,0.2093147039413452,0.1588001251220703,0.0,0.0,-0.9766660332679749,0.9743521213531494
-0.0402692779898643,0.9684741497039796,-0.1088939681649208,-0.6079702973365784,0.2153513580560684,0.1207334175705909,0.0,0.0,-0.957084596157074,0.9619812965393066
-0.0412221923470497,0.954296350479126,-0.0998606607317924,-0.6307973265647888,0.2199712395668029,0.0923973023891449,0.0,0.0,-0.920810043811798,0.9924309253692628
-0.0420862212777137,0.9396068453788756,-0.0892224609851837,-0.6532928943634033,0.2228298187255859,0.0571717023849487,0.0,0.0,-0.8539846539497375,0.9862816333770752
-0.0428608879446983,0.9244108200073242,-0.0785125344991684,-0.6755363345146179,0.2238880693912506,0.0211648978292942,0.0,0.0,-0.8376103639602661,0.9508870840072632
-0.0435730926692485,0.9087154269218444,-0.0710922628641128,-0.6975548267364502,0.223764955997467,-0.002462197560817,0.0,0.0,-0.0876573920249939,0.9897207021713256
-0.0442228317260742,0.8925191760063171,-0.063695415854454,-0.7196404337882996,0.2224664241075515,-0.0259704086929559,0.0,0.0,-0.2615950107574463,0.9746053218841552
-0.0447958000004291,0.8758150935173035,-0.0545209236443042,-0.7419869303703308,0.2196631431579589,-0.0560657680034637,0.0,0.0,-0.383674144744873,0.9377973079681396
-0.0452754981815815,0.8586112856864929,-0.0432650372385978,-0.7639212012290955,0.2149100005626678,-0.0950632914900779,0.0,0.0,0.7941519021987915,0.9581196308135986
-0.0459175109863281,0.8420588374137878,-0.0578589960932731,-0.7347589135169983,0.2085075974464416,-0.1280479431152343,0.0,0.0,-0.6238088011741638,0.8869979381561279
-0.0464746467769146,0.8249980211257935,-0.0476646833121776,-0.7571384310722351,0.2003905475139618,-0.1623409986495971,0.0,0.0,-0.8251526951789856,0.1894714832305908
-0.0470289215445518,0.8074084520339966,-0.0477475598454475,-0.7807415127754211,0.1926633715629577,-0.1545438468456268,0.0,0.0,-0.1471205949783325,0.5330877304077148
-0.0475286468863487,0.7893030047416687,-0.0413479879498481,-0.803588330745697,0.1839924603700637,-0.1734185814857483,0.0,0.0,0.6030724048614502,0.5006749629974365
-0.0481677055358886,0.771324634552002,-0.0543919801712036,-0.7978906035423279,0.1744391918182373,-0.1910649538040161,0.0,0.0,0.5250451564788818,-0.1923962831497192
-0.0488468185067176,0.7539267539978027,-0.0591679401695728,-0.7722364068031311,0.165677472949028,-0.175234168767929,0.0,0.0,-0.6860981583595276,0.6992359161376953
-0.0494573600590229,0.7360199093818665,-0.0509599260985851,-0.794776201248169,0.1555824875831604,-0.2018995732069015,0.0,0.0,-0.0520623922348022,0.3296138048171997
-0.0500662811100482,0.7175841927528381,-0.051161952316761,-0.8183808922767639,0.1458769291639328,-0.1941107809543609,0.0,0.0,0.6369282007217407,0.1095751523971557
-0.0508613586425781,0.6997587084770203,-0.069816455245018,-0.7913287878036499,0.1362110525369644,-0.1933174729347229,0.0,0.0,0.1230133771896362,0.994870662689209
-0.0515694618225097,0.6817945241928101,-0.0594940707087516,-0.7974161505699158,0.1249412968754768,-0.2253951132297516,0.0,0.0,-0.4336376190185547,0.4921369552612304
-0.0522765144705772,0.6633017063140869,-0.0597581565380096,-0.8210219144821167,0.1140585243701934,-0.2176551818847656,0.0,0.0,0.6840829849243164,0.891826868057251
-0.0528328903019428,0.6451000571250916,-0.0434971302747726,-0.808089017868042,0.1020002588629722,-0.2411654740571975,0.0,0.0,0.8463594913482666,0.1540285348892212
-0.0534321777522563,0.6273960471153259,-0.0482739172875881,-0.7860954403877258,0.090448148548603,-0.2310424149036407,0.0,0.0,0.1405365467071533,0.1527515649795532
-0.0540505424141883,0.609577476978302,-0.0505788326263427,-0.7912967205047607,0.0793037042021751,-0.2228890359401703,0.0,0.0,0.8197202682495117,-0.1481538414955139
-0.0548559203743934,0.5921872854232788,-0.069024458527565,-0.7723252773284912,0.067909337580204,-0.2278875857591629,0.0,0.0,0.1949062347412109,0.4143989086151123
-0.0556875243782997,0.5751961469650269,-0.0720970779657363,-0.7546933889389038,0.0569654554128646,-0.2188777178525924,0.0,0.0,-0.7513171434402466,0.8361653089523315
-0.0564435943961143,0.5576727986335754,-0.0630058497190475,-0.7783814668655396,0.0445089451968669,-0.2491302490234375,0.0,0.0,0.786567211151123,-0.3422086238861084
-0.0572116859257221,0.5410061478614807,-0.0647065564990043,-0.740422248840332,0.0325614064931869,-0.2389509230852127,0.0,0.0,-0.5670545101165771,0.5825541019439697
-0.0579409599304199,0.5238102674484253,-0.0602156594395637,-0.764033317565918,0.020007349550724,-0.2510812282562256,0.0,0.0,0.6326465606689453,-0.2342997193336486
-0.0587746612727642,0.5070865154266357,-0.070604458451271,-0.7431536316871643,0.0074012274853885,-0.2521223723888397,0.0,0.0,-0.7479017972946167,-0.1760235428810119
-0.0596088394522666,0.4898341000080108,-0.07102070748806,-0.7667583227157593,-0.0048406100831925,-0.2448368072509765,0.0,0.0,0.7683227062225342,-0.3086551427841186
-0.0605772025883197,0.4734096825122833,-0.0841487720608711,-0.7300585508346558,-0.0173597820103168,-0.2503834068775177,0.0,0.0,0.2449383735656738,0.0761106014251709
-0.0614832863211631,0.4571075737476349,-0.0785518735647201,-0.7247180342674255,-0.0292664598673582,-0.2381338328123092,0.0,0.0,-0.0868518352508544,-0.5785233378410339
-0.062438677996397,0.4402738213539123,-0.08506940305233,-0.7484027147293091,-0.0396066308021545,-0.2068033665418625,0.0,0.0,0.8589953184127808,0.072971224784851
-0.0633041411638259,0.423454076051712,-0.0767857581377029,-0.7478288412094116,-0.0492458008229732,-0.1927836239337921,0.0,0.0,0.921973466873169,-0.498347520828247
-0.0641879066824913,0.4066988527774811,-0.0788006335496902,-0.7450188994407654,-0.0587131679058074,-0.1893474608659744,0.0,0.0,0.9884421825408936,-0.3283716440200805
-0.0650269538164138,0.3908440768718719,-0.074620597064495,-0.7050444483757019,-0.0678908824920654,-0.1835544407367706,0.0,0.0,0.686070442199707,-0.5989763140678406
-0.0657700523734092,0.3757069706916809,-0.0667928308248519,-0.6731204986572266,-0.0753251239657402,-0.1486846059560775,0.0,0.0,0.7764644622802734,-0.708861768245697
-0.066634751856327,0.3613820374011993,-0.0804125517606735,-0.6369794011116028,-0.0813171193003654,-0.1198400259017944,0.0,0.0,0.9049344062805176,-0.2293677330017089
-0.0676185637712478,0.347115695476532,-0.0919623374938964,-0.6344251036643982,-0.0876824259757995,-0.1273060292005539,0.0,0.0,0.7663345336914062,-0.2684172391891479
-0.0684871673583984,0.3335757553577423,-0.0809476003050804,-0.6021314263343811,-0.0935388579964637,-0.1171286255121231,0.0,0.0,0.8121036291122437,-0.4038606286048889
-0.0694091767072677,0.320463478565216,-0.0860830023884773,-0.5831654071807861,-0.0996079593896865,-0.121381901204586,0.0,0.0,0.3271231651306152,-0.359146237373352
-0.0703227967023849,0.3076396584510803,-0.0853315070271492,-0.5703607201576233,-0.1055877655744552,-0.1195961013436317,0.0,0.0,0.5385931730270386,-0.9356059432029724
-0.0712554007768631,0.2952747344970703,-0.0894004255533218,-0.549828827381134,-0.1094303801655769,-0.0768522694706916,0.0,0.0,-0.5459356307983398,0.2841554880142212
-0.0721902847290039,0.2823788225650787,-0.0898901298642158,-0.5734187364578247,-0.1129985675215721,-0.0713638663291931,0.0,0.0,0.8769288063049316,-0.7409519553184509
-0.0731132477521896,0.2695291936397552,-0.0905207842588424,-0.571232795715332,-0.1147607788443565,-0.0352443866431713,0.0,0.0,0.8460748195648193,-0.1103989481925964
-0.0738840103149414,0.2568009197711944,-0.0760408192873001,-0.565779447555542,-0.1157901063561439,-0.0205862615257501,0.0,0.0,0.9600811004638672,-0.0998386740684509
-0.0744055733084678,0.2445206940174102,-0.0521723739802837,-0.5457866787910461,-0.1157700046896934,0.0004017593746539,0.0,0.0,0.961357831954956,-0.4544038772583008
-0.0747110396623611,0.2323782294988632,-0.0315785557031631,-0.539585530757904,-0.1147544384002685,0.0203114468604326,0.0,0.0,0.8793826103210449,0.0173827409744262
-0.0749277099967002,0.2209792733192443,-0.0228823777288198,-0.5065294504165649,-0.113551415503025,0.0240604914724826,0.0,0.0,0.5844085216522217,-0.5085726380348206
-0.0750728622078895,0.2101386338472366,-0.017036011442542,-0.481615662574768,-0.1110430434346199,0.0501676201820373,0.0,0.0,0.1044905185699462,-0.8015619516372681
-0.0751382857561111,0.1994294077157974,-0.0109321000054478,-0.4756456613540649,-0.1066900342702865,0.0870603919029235,0.0,0.0,0.4991464614868164,0.0361831188201904
-0.0750841125845909,0.1886165887117386,0.0004271745274309,-0.4802212119102478,-0.1017383709549903,0.0990333929657936,0.0,0.0,0.8105144500732422,0.6971868276596069
-0.0749835968017578,0.1781048327684402,0.0064462507143616,-0.4669462740421295,-0.0981626510620117,0.0715142637491226,0.0,0.0,0.654726505279541,0.1648560762405395
-0.07471714168787,0.168339803814888,0.0225015487521886,-0.4337336421012878,-0.0940506979823112,0.0822390019893646,0.0,0.0,0.0063035488128662,-0.7992637753486633
-0.0745008438825607,0.1585729271173477,0.0157505962997674,-0.4337285757064819,-0.0882221758365631,0.1165704280138015,0.0,0.0,0.4447081089019775,0.6173791885375977
-0.0742959007620811,0.1493296027183532,0.0159850195050239,-0.4105535745620727,-0.0837607011198997,0.0892293080687522,0.0,0.0,0.1741372346878051,0.1301013231277465
-0.0739912986755371,0.1402892619371414,0.0255754645913839,-0.4015275835990906,-0.0789201408624649,0.0968111455440521,0.0,0.0,0.3888659477233886,-0.6294233798980713
-0.0737391486763954,0.1316778808832168,0.0190858412533998,-0.3824185729026794,-0.0728465467691421,0.1214719265699386,0.0,0.0,0.1152515411376953,0.2109037637710571
-0.0735093131661415,0.1232983693480491,0.0170390736311674,-0.3721460700035095,-0.0669749751687049,0.1174312382936477,0.0,0.0,-0.0274848341941833,0.5520411729812622
-0.073241613805294,0.1143823489546775,0.0218655485659837,-0.3960559666156769,-0.0621201545000076,0.0970965176820755,0.0,0.0,0.9212021827697754,0.6761741638183594
-0.0730265602469444,0.1059920415282249,0.0183108579367399,-0.3727746307849884,-0.0589598454535007,0.0632059425115585,0.0,0.0,0.7559947967529297,0.2947069406509399
-0.0729421600699424,0.0979186594486236,0.0059866197407245,-0.358720451593399,-0.0565407276153564,0.0483826287090778,0.0,0.0,0.7795305252075195,0.3915619850158691
-0.0727041214704513,0.0904641970992088,0.0208431184291839,-0.3312025964260101,-0.0536148771643638,0.0585170984268188,0.0,0.0,0.1330982446670532,0.8266083002090454
-0.0723427757620811,0.0828415751457214,0.0348441451787948,-0.3387353122234344,-0.0523491837084293,0.0253141708672046,0.0,0.0,0.7930786609649658,-0.3825818300247192
-0.0717851668596267,0.0759162530303001,0.0538095533847808,-0.307725578546524,-0.0504158474504947,0.0386668220162391,0.0,0.0,0.1157529354095459,-0.6259334683418274
-0.0712718963623046,0.0692556500434875,0.0482135526835918,-0.295925885438919,-0.0473404787480831,0.061507511883974,0.0,0.0,0.0339488983154296,-0.2966167330741882
-0.0706483870744705,0.0628594011068344,0.0589179024100303,-0.2841753661632538,-0.0439518950879573,0.0677718371152877,0.0,0.0,-0.04323410987854,-0.4338095784187317
-0.0700292587280273,0.0559325069189071,0.0586007460951805,-0.3077678978443146,-0.0406824462115764,0.0653891041874885,0.0,0.0,0.441003680229187,0.4726881980895996
-0.0693919211626052,0.04954269900918,0.0605964660644531,-0.2839078605175018,-0.0375802777707576,0.0620433501899242,0.0,0.0,0.5774435997009277,0.9471325874328612
-0.068590261042118,0.0437498427927494,0.0790164917707443,-0.2574319243431091,-0.036439973860979,0.0228060968220233,0.0,0.0,0.0435931682586669,-0.3898309469223022
-0.0677316635847091,0.037857636809349,0.0846434161067009,-0.2618472874164581,-0.0352393761277198,0.0240122824907302,0.0,0.0,0.4257967472076416,0.5483837127685547
-0.0669297203421592,0.0322393029928207,0.0805459171533584,-0.249711737036705,-0.0355890914797782,-0.0069944076240062,0.0,0.0,0.2258549928665161,-0.0648630857467651
-0.0662139877676963,0.0266679618507623,0.0725845471024513,-0.2476413697004318,-0.0365894436836242,-0.020007049664855,0.0,0.0,0.2420201301574707,0.6660640239715576
-0.0654527693986892,0.0211989022791385,0.078731320798397,-0.2431344836950302,-0.0391690395772457,-0.0515915378928184,0.0,0.0,0.562483549118042,-0.0067426562309265
-0.0646518692374229,0.0159540753811597,0.0828266665339469,-0.2331805378198623,-0.0418776832520961,-0.054172970354557,0.0,0.0,0.7829854488372803,-0.6187355518341064
-0.0637371093034744,0.010748085565865,0.0928452163934707,-0.2314156740903854,-0.0432292483747005,-0.0270311944186687,0.0,0.0,0.7907872200012207,-0.1338430643081665
-0.0626894012093544,0.0061153387650847,0.1059190034866333,-0.2059336304664611,-0.0443647727370262,-0.0227103941142559,0.0,0.0,0.5736407041549683,-0.829171895980835
-0.0616510398685932,0.0021138763986527,0.1035651415586471,-0.1778361052274704,-0.0440942049026489,0.0054113580845296,1.0,0.0,0.8712301254272461,-0.3701980710029602
-0.0604392066597938,-0.0011702203191816,0.1022983416914939,-0.1457686573266983,-0.0246357880532741,0.3901966214179992,1.0,0.0,0.7498152256011963,-0.1512174010276794
