x_pos,y_pos,x_vel,y_vel,angle,ang_vel,leg_1,leg_2,main_booster,lat_booster
-0.0015874862438067,1.403397798538208,-0.1611615419387817,-0.3343203663825989,0.002157014561817,0.0425787456333637,0.0,0.0,-0.6634120180678291,0.9878113571673954
-0.0031532286666333,1.3956676721572876,-0.1569096148014068,-0.3435612618923187,0.0024815455544739,0.0064919926226139,0.0,0.0,-0.3380870504858644,-0.8502333669781568
-0.0048314095474779,1.3877041339874268,-0.1698213368654251,-0.3539398908615112,0.0044587603770196,0.0395481139421463,0.0,0.0,0.9129637742837702,0.6513505218108137
-0.0066673280671238,1.3803789615631104,-0.1842234432697296,-0.3255641758441925,0.0050821122713387,0.0124684032052755,0.0,0.0,0.9518181161976612,0.9375452689507734
-0.0083212852478027,1.3739874362945557,-0.1648289859294891,-0.2840646803379059,0.0045287660323083,-0.0110677871853113,0.0,0.0,-0.8113348393843594,-0.8767863322938203
-0.0100819589570164,1.3673675060272217,-0.1772087514400482,-0.2942169904708862,0.0056604626588523,0.0226357225328683,0.0,0.0,-0.3661682723923443,-0.7921259658239852
-0.0119581222534179,1.3605209589004517,-0.1907579600811004,-0.3043128848075866,0.0087620206177234,0.0620369799435138,0.0,0.0,-0.787224906158688,-0.9289614893512308
-0.0139375682920217,1.3534499406814575,-0.2028256356716156,-0.3143037557601928,0.0135906506329774,0.0965811908245086,0.0,0.0,0.4142066795750048,0.944559858090713
-0.0159095767885446,1.347238540649414,-0.2005170881748199,-0.2760958075523376,0.0168786030262708,0.0657650977373123,0.0,0.0,-0.406354107724987,0.9440907259128064
-0.0178493503481149,1.3408082723617554,-0.1957580149173736,-0.2858090996742248,0.0186417251825332,0.0352656953036785,0.0,0.0,-0.744722418052163,0.7084055127378874
-0.0197640415281057,1.3341538906097412,-0.1919717788696289,-0.2957537770271301,0.0191424805670976,0.0100161600857973,0.0,0.0,-0.537473180398633,-0.8293513307684757
-0.0217715259641408,1.3272697925567627,-0.2030707895755767,-0.3059929311275482,0.0214356929063797,0.0458682961761951,0.0,0.0,-0.1025386807566448,0.998600687548094
-0.0237150192260742,1.3201674222946167,-0.194575160741806,-0.3156656324863434,0.0216591302305459,0.0044691981747746,0.0,0.0,0.9451873581062328,0.6031165672739421
-0.0255609508603811,1.3134642839431765,-0.1842009723186493,-0.2979084253311157,0.0212729685008525,-0.007724022027105,0.0,0.0,0.6876638815470195,-0.7317405408514401
-0.0273489002138376,1.3078083992004397,-0.1805515587329864,-0.2514029145240783,0.0230132136493921,0.0348081961274147,0.0,0.0,-0.5147550020465432,0.9939379602802116
-0.0290637966245412,1.3019171953201294,-0.1712368726730346,-0.2618218660354614,0.0227568093687295,-0.0051282695494592,0.0,0.0,-0.799642441497926,0.6054620160417311
-0.0307357795536518,1.2958089113235474,-0.1657910048961639,-0.2714626491069793,0.021357512101531,-0.0279885027557611,0.0,0.0,0.6373861956018125,0.6981982237213027
-0.0322179794311523,1.290031671524048,-0.1460635364055633,-0.2567335963249206,0.0192375890910625,-0.0424026176333427,0.0,0.0,0.9269837280209284,-0.7685808057200499
-0.033662986010313,1.2854411602020264,-0.1445200741291046,-0.204022541642189,0.0192554909735918,0.0003581876226235,0.0,0.0,-0.8557867486953779,0.7390463435589243
-0.0350604057312011,1.2806252241134644,-0.1388034522533416,-0.214036613702774,0.018326511606574,-0.0185817033052444,0.0,0.0,0.9056869546446156,-0.6298657841524125
-0.0363645553588867,1.276890993118286,-0.1314884275197982,-0.1659775078296661,0.0193940065801143,0.0213517043739557,0.0,0.0,-0.9679584821193474,-0.8077159170583872
-0.0377257354557514,1.2729235887527466,-0.1391008198261261,-0.176363319158554,0.0223543476313352,0.0592119097709655,0.0,0.0,0.8475628351286972,0.8205249754439385
-0.0388665199279785,1.269649624824524,-0.1160773262381553,-0.1455451697111129,0.0243242513388395,0.0394014976918697,0.0,0.0,0.3652082143775654,-0.7214148192369508
-0.039992332458496,1.2665281295776367,-0.1164314299821853,-0.1388017982244491,0.0281455814838409,0.076433278620243,0.0,0.0,-0.1302766003966131,0.6311469945773679
-0.0410617813467979,1.2631837129592896,-0.1101535931229591,-0.1487064063549041,0.0313178673386573,0.0634511709213256,0.0,0.0,-0.7117022931050432,-0.6014391471068767
-0.0421676635742187,1.259592056274414,-0.1156240329146385,-0.159743532538414,0.0362848229706287,0.0993392765522003,0.0,0.0,0.2366153988736794,-0.8024304807270094
-0.0433275215327739,1.2565913200378418,-0.1229380592703819,-0.1335512697696685,0.0431564599275589,0.1374326646327972,0.0,0.0,0.3311101951633166,0.6657362416223259
-0.0445502288639545,1.2543638944625854,-0.1279880255460739,-0.099169835448265,0.0488062314689159,0.1129953861236572,0.0,0.0,-0.404187978863427,0.96596177586255
-0.0456797592341899,1.251922845840454,-0.1174496635794639,-0.1086433231830596,0.0532498620450496,0.0888726413249969,0.0,0.0,-0.421049577885727,-0.7367408989674651
-0.0468322746455669,1.2492483854293823,-0.1215867847204208,-0.1191063672304153,0.0595096312463283,0.125195637345314,0.0,0.0,0.7478588733531262,-0.9988317598788072
-0.0480545982718467,1.2476956844329834,-0.1309138685464859,-0.06937887519598,0.0680806115269661,0.1714196801185608,0.0,0.0,-0.4655239174357817,0.8691076538842726
-0.0491735450923442,1.2459185123443604,-0.1193208545446395,-0.0793388783931732,0.0754395574331283,0.147178903222084,0.0,0.0,0.5610864250920307,0.6708379757450669
-0.0503352172672748,1.245051383972168,-0.1223650202155113,-0.0388661175966262,0.0815742686390876,0.122694157063961,0.0,0.0,0.6207149084181318,0.6158404401102753
-0.0514947883784771,1.244479417800903,-0.1210429221391677,-0.0257047675549983,0.0866135284304618,0.1007851809263229,0.0,0.0,0.4392096281721003,0.7310119499622783
-0.0525761619210243,1.244509220123291,-0.1120680123567581,0.0010875792941078,0.0905089005827903,0.0779075846076011,0.0,0.0,-0.8865234378310209,-0.8286987020850652
-0.0536664016544818,1.2443106174468994,-0.1148622781038284,-0.0091900210827589,0.0962887331843376,0.1155967935919761,0.0,0.0,-0.2793465746044377,-0.7049357066615534
-0.0547573082149028,1.2438745498657229,-0.1166809052228927,-0.0198911968618631,0.1038192138075828,0.1506096571683883,0.0,0.0,0.6963305433553368,0.888926004615807
-0.0557571426033973,1.24440336227417,-0.1061315387487411,0.0230655986815691,0.1099241077899932,0.1220976486802101,0.0,0.0,0.1273533955382029,-0.9484966942940152
-0.0568656921386718,1.2455569505691528,-0.119169607758522,0.050635527819395,0.118195429444313,0.1654264479875564,0.0,0.0,0.7631998791312065,-0.8595652716626182
-0.0580217353999614,1.247446894645691,-0.1259937584400177,0.0831410586833953,0.1285180747509002,0.2064529359340667,0.0,0.0,0.6981903875822233,0.693291540532723
-0.0592801086604595,1.250295877456665,-0.134818285703659,0.1258242428302765,0.1374666541814804,0.1789712607860565,0.0,0.0,-0.8083453178405762,0.7101864814758301
-0.0604045875370502,1.252932071685791,-0.1199815869331359,0.1164519339799881,0.14497971534729,0.1502611339092254,0.0,0.0,-0.8696900606155396,0.5277032852172852
-0.0614122375845909,1.2553476095199585,-0.1073446497321128,0.1067053452134132,0.1515425592660904,0.1312567293643951,0.0,0.0,-0.8608049154281616,0.827771782875061
-0.0622748360037803,1.257553219795227,-0.0911589488387107,0.0975195243954658,0.1564476937055587,0.0981029421091079,0.0,0.0,-0.872809886932373,0.1912422180175781
-0.0630662888288497,1.259533166885376,-0.0843240544199943,0.0874458402395248,0.161621555685997,0.103477194905281,0.0,0.0,-0.90583735704422,0.6718912124633789
-0.063728429377079,1.2612943649291992,-0.0702050551772117,0.0778417661786079,0.165618434548378,0.079937644302845,0.0,0.0,-0.9195870757102966,0.4776017665863037
-0.0643172264099121,1.2628300189971924,-0.0631341934204101,0.0677685886621475,0.1698804795742035,0.0852409899234771,0.0,0.0,-0.926422655582428,0.7823693752288818
-0.0647829994559288,1.2641609907150269,-0.0498236045241355,0.0587756894528865,0.1731257289648056,0.0649052932858467,0.0,0.0,-0.9515494108200072,0.5732629299163818
-0.0651392936706543,1.2652801275253296,-0.0382367596030235,0.0494342893362045,0.1757334768772125,0.0521550588309764,0.0,0.0,-0.9579848051071168,0.3918933868408203
-0.0654194802045822,1.2661733627319336,-0.0308764018118381,0.0393617413938045,0.1786006987094879,0.0573442876338958,0.0,0.0,-0.9400067925453186,0.6428848505020142
-0.0655607208609581,1.266857385635376,-0.0156521033495664,0.0302178487181663,0.1801292449235916,0.0305711328983306,0.0,0.0,-0.9720469117164612,0.8646610975265503
-0.065564252436161,1.2673377990722656,-0.0005623255856335,0.0213256198912858,0.1803410500288009,0.004236243199557,0.0,0.0,-0.9186201691627502,0.6632864475250244
-0.0654280632734298,1.2676053047180176,0.0147250369191169,0.0120228426530957,0.1792364567518234,-0.0220922045409679,0.0,0.0,-0.8891232013702393,0.734957218170166
-0.0651561766862869,1.2676692008972168,0.0295154638588428,0.0031196849886327,0.1768963187932968,-0.0468026213347911,0.0,0.0,-0.7536189556121826,0.5389089584350586
-0.0647522956132888,1.267519474029541,0.0438196510076522,-0.0062581389211118,0.1734575033187866,-0.0687761455774307,0.0,0.0,-0.8541212677955627,0.2771153450012207
-0.0642683058977127,1.2671436071395874,0.0515813343226909,-0.0163308437913656,0.1702636927366256,-0.0638760849833488,0.0,0.0,-0.9143473505973816,0.7221121788024902
-0.0636396408081054,1.266565442085266,0.0674890875816345,-0.0251756403595209,0.1656350493431091,-0.0925728157162666,0.0,0.0,-0.9585664868354796,0.4420866966247558
-0.0629301071166992,1.2657614946365356,0.0753448158502578,-0.0352488942444324,0.1612451523542404,-0.0877981632947921,0.0,0.0,-0.9598667621612548,0.928307294845581
-0.0620590224862098,1.2647610902786257,0.0933689028024673,-0.0437929555773735,0.1549957543611526,-0.1249882951378822,0.0,0.0,-0.9403496384620668,0.1942070722579956
-0.06110630184412,1.2635351419448853,0.1013034135103225,-0.0538673624396324,0.1489778012037277,-0.1203591004014015,0.0,0.0,-0.9594034552574158,0.6909387111663818
-0.060012437403202,1.262091040611267,0.1166935712099075,-0.063468299806118,0.1416909396648407,-0.1457370966672897,0.0,0.0,-0.9447122812271118,0.1965957880020141
-0.0588363632559776,1.260421633720398,0.1246934160590171,-0.0735435187816619,0.1346270740032196,-0.1412777006626129,0.0,0.0,-0.9582843780517578,0.9386296272277832
-0.0574891082942485,1.258542537689209,0.1438740044832229,-0.0827175602316856,0.1255224645137787,-0.1820924580097198,0.0,0.0,-0.9625396132469176,-0.824550449848175
-0.056121539324522,1.2564276456832886,0.1441120207309723,-0.0933975204825401,0.1182122901082038,-0.1462032794952392,0.0,0.0,-0.9483396410942078,-0.5674664974212646
-0.0547147765755653,1.254075050354004,0.146697923541069,-0.1040949299931526,0.1122292056679725,-0.1196616142988205,0.0,0.0,-0.9061167240142822,0.579372763633728
-0.0531889908015728,1.2515032291412354,0.1593339145183563,-0.1138121634721756,0.1055290848016738,-0.1340023726224899,0.0,0.0,-0.9084622263908386,0.1291456222534179
-0.0515800490975379,1.2487056255340576,0.1674486100673675,-0.1238858178257942,0.0990239232778549,-0.1301033496856689,0.0,0.0,-0.9563708901405334,0.9002830982208252
-0.0498065948486328,1.2456839084625244,0.1857586354017257,-0.1337650716304779,0.0906710103154182,-0.1670587062835693,0.0,0.0,-0.8667264580726624,-0.9649748206138612
-0.0480233207345008,1.2424378395080566,0.184722751379013,-0.1438985913991928,0.0843314528465271,-0.1267907321453094,0.0,0.0,-0.7754552364349365,0.4491167068481445
-0.0461567863821983,1.23896586894989,0.1928796917200088,-0.1539713591337204,0.0781642124056816,-0.1233449727296829,0.0,0.0,-0.905828297138214,-0.6649457216262817
-0.0442676544189453,1.2352635860443115,0.1934463232755661,-0.1643169224262237,0.0736860856413841,-0.0895628705620765,0.0,0.0,-0.777582049369812,-0.3819129467010498
-0.0422950759530067,1.2313350439071655,0.2016218453645706,-0.1743877381086349,0.0693622156977653,-0.0864773765206337,0.0,0.0,-0.5234100222587585,-0.2733196020126343
-0.0402392372488975,1.2271804809570312,0.2098041474819183,-0.184458315372467,0.0651826709508895,-0.0835906788706779,0.0,0.0,-0.1443285942077636,-0.6349670886993408
-0.0381442084908485,1.2227952480316162,0.2124678194522857,-0.1947691142559051,0.0622466765344142,-0.058719802647829,0.0,0.0,-0.1385128498077392,0.507371187210083
-0.0359280593693256,1.2181833982467651,0.2254218757152557,-0.2048172056674957,0.0584806688129901,-0.0753201469779014,0.0,0.0,0.0312614440917968,0.2226662635803222
-0.0335984230041503,1.2136528491973877,0.2364682406187057,-0.2012255191802978,0.0550216436386108,-0.0691806301474571,0.0,0.0,-0.6134779453277588,0.3205313682556152
-0.0311858169734478,1.208895921707153,0.2446612119674682,-0.2112951725721359,0.0516607388854026,-0.0672179237008094,0.0,0.0,-0.4892655611038208,-0.6531178951263428
-0.0287428852170705,1.2039146423339844,0.2462663948535919,-0.2213290333747863,0.0497013963758945,-0.0391866788268089,0.0,0.0,-0.2665796279907226,0.5533523559570312
-0.0261680595576763,1.1987159252166748,0.2606543302536011,-0.2309463322162628,0.0465648882091045,-0.0627301707863807,0.0,0.0,0.1426783800125122,-0.4602211117744446
-0.0236146934330463,1.1941325664520264,0.2588192224502563,-0.2035993486642837,0.0431263409554958,-0.0687709674239158,0.0,0.0,-0.4029760360717773,0.4666312932968139
-0.0209791176021099,1.1893230676651,0.2669970989227295,-0.2136686444282531,0.039730068296194,-0.0679254159331321,0.0,0.0,-0.640013575553894,0.2316095829010009
-0.0182615276426076,1.1842869520187378,0.2751670479774475,-0.2237378805875778,0.036360889673233,-0.0673837214708328,0.0,0.0,-0.2636727094650268,0.2127920389175415
-0.0154623035341501,1.179024577140808,0.2833272814750671,-0.2338070422410965,0.0330032333731651,-0.0671532303094863,0.0,0.0,-0.7317166328430176,-0.0301461815834045
-0.0125816343352198,1.173535704612732,0.2914761006832123,-0.2438761591911316,0.0296412389725446,-0.067239761352539,0.0,0.0,-0.4005517959594726,0.2149491310119629
-0.0096197128295898,1.1678204536437988,0.2996115982532501,-0.2539452314376831,0.0262588653713464,-0.0676474422216415,0.0,0.0,-0.3745733499526977,0.3748525381088257
-0.0065770149230957,1.1618788242340088,0.3077318072319031,-0.2640143036842346,0.0228399336338043,-0.0683787018060684,0.0,0.0,-0.3295825123786926,-0.1502623558044433
-0.0034538269974291,1.1557109355926514,0.3158348500728607,-0.2740833461284637,0.0193682201206684,-0.0694340765476226,0.0,0.0,-0.3287335634231567,-0.160138726234436
-0.0002505302545614,1.1493165493011477,0.3239185214042663,-0.2841524183750152,0.0158276110887527,-0.0708123371005058,0.0,0.0,-0.5338651537895203,0.098360538482666
0.0030325888656079,1.1426959037780762,0.3319806456565857,-0.2942215204238891,0.0122020877897739,-0.0725104138255119,0.0,0.0,-0.0979508161544799,-0.7377076148986816
0.0063502313569188,1.1358420848846436,0.3343946635723114,-0.304588109254837,0.009603546001017,-0.051970861852169,0.0,0.0,-0.7016515731811523,-0.141538381576538
0.0097468374297022,1.1287620067596436,0.3424066007137298,-0.3146567344665527,0.0068889018148183,-0.0542927309870719,0.0,0.0,-0.3020464181900024,-0.8054483532905579
0.0131613733246922,1.1214607954025269,0.3428006470203399,-0.3244887292385101,0.0055622961372137,-0.0265322066843509,0.0,0.0,-0.1494224667549133,-0.5572820901870728
0.0166190154850482,1.1139349937438965,0.3463625311851501,-0.334480345249176,0.0049688913859426,-0.011868086643517,0.0,0.0,-0.7637661695480347,-0.7275166511535645
0.0201063156127929,1.1061745882034302,0.3482683300971985,-0.3449085652828216,0.005420230794698,0.0090268747881054,0.0,0.0,-0.4592452049255371,-0.7193565368652344
0.0236087795346975,1.0981851816177368,0.3483830392360687,-0.3550962209701538,0.0072535700164735,0.0366671532392501,0.0,0.0,-0.2875722646713257,-0.841166615486145
0.0271303169429302,1.0899784564971924,0.3490396440029144,-0.3647523820400238,0.0103380428627133,0.0616890601813793,0.0,0.0,-0.776278555393219,-0.9265574216842652
0.0306517593562603,1.0815441608428955,0.3472797274589538,-0.3749014735221863,0.0151378698647022,0.0959967821836471,0.0,0.0,-0.5614990592002869,-0.912744164466858
0.0341612808406353,1.072890043258667,0.3440853059291839,-0.38471120595932,0.0219173114746809,0.1355888247489929,0.0,0.0,-0.9214896559715272,-0.9275115728378296
0.0376826301217079,1.064012885093689,0.3438994884490967,-0.3946900963783264,0.0300532951951026,0.1627193987369537,0.0,0.0,-0.7896833419799805,-0.9588311314582824
0.0411953926086425,1.0549132823944092,0.3411661386489868,-0.404662549495697,0.0400337502360343,0.1996094286441803,0.0,0.0,-0.6444793939590454,-0.9596055150032043
0.0446949005126953,1.0455902814865112,0.3379032909870147,-0.4147215485572815,0.0519434437155723,0.2381938248872757,0.0,0.0,-0.8906401991844177,-0.9199115037918092
0.048191450536251,1.0360337495803833,0.3359362483024597,-0.4252658784389496,0.0655098706483841,0.2713285982608795,0.0,0.0,-0.608317494392395,-0.9759870767593384
0.0516677871346473,1.0262451171875,0.3318421840667724,-0.4358095824718475,0.0811370760202407,0.3125437200069427,0.0,0.0,-0.7284026741981506,-0.9095464944839478
0.0551254265010356,1.0162203311920166,0.3279843628406524,-0.4465971291065216,0.0987632349133491,0.3525232970714569,0.0,0.0,-0.6729726791381836,-0.9002135992050171
0.0585943236947059,1.0059698820114136,0.32792529463768,-0.4569378197193146,0.1175931915640831,0.3765988945960998,0.0,0.0,-0.6709876656532288,-0.731650173664093
0.0620812401175498,0.9954819083213806,0.3287198841571808,-0.4678253829479217,0.1374574452638626,0.3972850441932678,0.0,0.0,-0.5028501152992249,-0.7422722578048706
0.0655913352966308,0.984768807888031,0.3302635252475738,-0.478180319070816,0.1581590473651886,0.414032518863678,0.0,0.0,-0.3021240234375,-0.9160568118095398
0.0690932273864746,0.9738244414329528,0.3279059529304504,-0.4889371693134308,0.1804683208465576,0.446185290813446,0.0,0.0,0.4804589748382568,-0.6495425701141357
0.0726096183061599,0.9638209939002992,0.3281719088554382,-0.4476243555545807,0.2040618360042572,0.4718706011772156,0.0,0.0,0.3036239147186279,-0.5559994578361511
0.0761190429329872,0.9542760252952576,0.3266485035419464,-0.4277502298355102,0.2286090850830078,0.4909452795982361,0.0,0.0,0.1708804368972778,0.2778236865997314
0.0795554146170616,0.9453551173210144,0.3198011517524719,-0.4003627896308899,0.2528280317783355,0.4843789637088775,0.0,0.0,0.1990113258361816,0.8452444076538086
0.0830230712890625,0.937095046043396,0.3250159323215484,-0.3710173368453979,0.2750551700592041,0.4445429742336273,0.0,0.0,-0.1083081364631652,-0.2967451810836792
0.0865511894226074,0.928613543510437,0.331511527299881,-0.3811184167861938,0.2969714999198913,0.4383264482021332,0.0,0.0,0.0513983964920043,0.8603024482727051
0.090000532567501,0.920465052127838,0.3257536292076111,-0.3661893010139465,0.3168185651302337,0.3969413042068481,0.0,0.0,0.3232312202453613,0.7657679319381714
0.0933271422982215,0.9126530289649964,0.3155536651611328,-0.3510395288467407,0.3346476256847381,0.3565814793109894,0.0,0.0,0.0070778131484985,0.2326599359512329
0.0965852737426757,0.905097484588623,0.3091634809970855,-0.3397603929042816,0.3520984947681427,0.3490170836448669,0.0,0.0,0.2831765413284302,0.8865346908569336
0.0998434051871299,0.8979470729827881,0.3112681806087494,-0.3214299082756042,0.3674284517765045,0.3065995872020721,0.0,0.0,0.5123546123504639,0.8962537050247192
0.1032305732369422,0.8911349773406982,0.3261506557464599,-0.3060417473316192,0.3807578980922699,0.2665891945362091,0.0,0.0,-0.0094295740127563,0.4566938877105713
0.1066699996590614,0.8840970396995544,0.3317430019378662,-0.3161137998104095,0.3937656581401825,0.2601552903652191,0.0,0.0,0.5994876623153687,-0.119531512260437
0.1098827347159385,0.8779286742210388,0.3093369901180267,-0.2775147259235382,0.4065629243850708,0.2559446394443512,0.0,0.0,0.8613235950469971,0.9070301055908204
0.1131462082266807,0.872097909450531,0.3163763582706451,-0.262044757604599,0.4173047840595245,0.2148374021053314,0.0,0.0,0.7264150381088257,0.0738776922225952
