x_pos,y_pos,x_vel,y_vel,angle,ang_vel,leg_1,leg_2,main_booster,lat_booster
-0.0016433715354651,1.403331637382507,-0.1666570156812667,-0.3372727036476135,0.0020756204612553,0.0409669429063797,0.0,0.0,0.0195549726486206,0.9377932548522948
-0.0032956122886389,1.3958959579467771,-0.1656134724617004,-0.330474704504013,0.0024602054618299,0.0076931091025471,0.0,0.0,-0.3139307498931885,-0.3779954314231872
-0.005067634396255,1.3881666660308838,-0.1778148859739303,-0.3435236811637878,0.0030616696458309,0.0120306145399808,0.0,0.0,-0.2841607332229614,0.747494101524353
-0.006911945529282,1.3801422119140625,-0.1840611696243286,-0.3566438853740692,0.0026893159374594,-0.0074475877918303,0.0,0.0,-0.1968360543251037,0.821284294128418
-0.0087970737367868,1.3718276023864746,-0.1863488554954528,-0.369534283876419,0.0005553618539124,-0.0426831729710102,0.0,0.0,-0.4922351837158203,0.8405520915985107
-0.0107195852324366,1.363218903541565,-0.188238114118576,-0.3826068043708801,-0.0034134138841181,-0.079382985830307,0.0,0.0,-0.408882737159729,0.7618017196655273
-0.012702465057373,1.3543174266815186,-0.1930138915777206,-0.3956463932991028,-0.008631301112473,-0.1043672934174537,0.0,0.0,-0.0151548981666564,0.7538503408432007
-0.0147289279848337,1.3451244831085205,-0.1956827789545059,-0.4086262881755829,-0.0155136417597532,-0.1376596391201019,0.0,0.0,-0.6613739728927612,0.5465238094329834
-0.0168300624936819,1.3356443643569946,-0.2022783011198043,-0.4214425981044769,-0.0232634898275136,-0.1550112068653106,0.0,0.0,-0.3517959117889404,0.7449741363525391
-0.0189889911562204,1.3258745670318604,-0.2067455798387527,-0.434376448392868,-0.0322999954223632,-0.1807471364736557,0.0,0.0,-0.4684019088745117,0.7970812320709229
-0.0211915969848632,1.315810203552246,-0.2094928324222564,-0.4475732147693634,-0.0429605767130851,-0.2132312804460525,0.0,0.0,-0.2195779681205749,0.8085150718688965
-0.0234380718320608,1.3054481744766235,-0.2122389823198318,-0.4609342515468597,-0.0552374087274074,-0.2455591410398483,0.0,0.0,-0.6806042194366455,0.8376240730285645
-0.0257181171327829,1.2947930097579956,-0.2137389481067657,-0.4741486310958862,-0.069365955889225,-0.2825968563556671,0.0,0.0,-0.8392480611801147,0.5196807384490967
-0.0280657764524221,1.283838152885437,-0.2195198237895965,-0.4876655638217926,-0.0844843983650207,-0.3023965060710907,0.0,0.0,-0.4360328912734985,0.5572229623794556
-0.0304710380733013,1.2725921869277954,-0.2240783870220184,-0.5008333325386047,-0.1008144617080688,-0.3266312479972839,0.0,0.0,-0.7503024935722351,0.4227423667907715
-0.0329872146248817,1.2610565423965454,-0.2353352755308151,-0.5138770937919617,-0.1169994845986366,-0.3237301707267761,0.0,0.0,-0.3781787157058716,-0.8532044291496277
-0.0356637947261333,1.2492496967315674,-0.2528689801692962,-0.5259752869606018,-0.1317341327667236,-0.2947197258472442,0.0,0.0,-0.371259331703186,0.3616691827774048
-0.0384490005671978,1.237152338027954,-0.2638787031173706,-0.5390166640281677,-0.1463433504104614,-0.2922108471393585,0.0,0.0,-0.5016077160835266,-0.2160167694091797
-0.0413414016366004,1.224764704704285,-0.2747451066970825,-0.5520572066307068,-0.1608361452817917,-0.2898820638656616,0.0,0.0,-0.4646437168121338,0.2003648281097412
-0.0443394668400287,1.2120864391326904,-0.285456120967865,-0.5650979280471802,-0.1752229928970337,-0.2877630591392517,0.0,0.0,-0.3266785144805908,-0.2543841600418091
-0.0474417693912982,1.1991175413131714,-0.295998603105545,-0.5781389474868774,-0.189514473080635,-0.2858555018901825,0.0,0.0,0.034330129623413,-0.1877734661102295
-0.0505869872868061,1.1862637996673584,-0.3004530370235443,-0.5731326937675476,-0.203687310218811,-0.2834824323654175,0.0,0.0,0.2845561504364013,-0.543704628944397
-0.0536811836063861,1.173719882965088,-0.2967870831489563,-0.5592980980873108,-0.2164611965417862,-0.2555006444454193,0.0,0.0,0.0306593179702758,-0.4846132397651672
-0.0567895881831646,1.1611559391021729,-0.2984985709190368,-0.5602564215660095,-0.2289716899394989,-0.2502321004867553,0.0,0.0,0.4732028245925903,-0.876408040523529
-0.0600703246891498,1.149213433265686,-0.3173838555812835,-0.5324763655662537,-0.2398340553045272,-0.2172662764787674,0.0,0.0,-0.3174514770507812,-0.8872564435005188
-0.0635324493050575,1.136993646621704,-0.3377534747123718,-0.5445045232772827,-0.2484309524297714,-0.1719378530979156,0.0,0.0,-0.4618881344795227,-0.197111427783966
-0.0670864135026931,1.1244819164276123,-0.3469811975955963,-0.5575305819511414,-0.2570032179355621,-0.171446144580841,0.0,0.0,-0.1179737448692321,-0.3930092453956604
-0.070729449391365,1.111677885055542,-0.3559169769287109,-0.5705568194389343,-0.2655631601810455,-0.1711994558572769,0.0,0.0,-0.3783859014511108,-0.56939297914505
-0.0745101943612098,1.0986077785491943,-0.3710979223251343,-0.5821774005889893,-0.2727159857749939,-0.1430565416812896,0.0,0.0,-0.4819997549057007,0.0455248355865478
-0.078373908996582,1.0852453708648682,-0.3793827891349792,-0.5952024459838867,-0.2798807322978973,-0.1432947814464569,0.0,0.0,-0.6432312726974487,0.4148211479187011
-0.0823168754577636,1.0715909004211426,-0.3873074650764465,-0.6082276105880737,-0.2870692610740661,-0.1437706053256988,0.0,0.0,0.138566255569458,-0.0113979578018188
-0.0863013267517089,1.0581012964248655,-0.391196459531784,-0.6009786128997803,-0.2945413291454315,-0.1494409143924713,0.0,0.0,-0.5277953743934631,0.1571271419525146
-0.0903574973344802,1.044319748878479,-0.3983271420001983,-0.6140046715736389,-0.3020603358745575,-0.1503806561231613,0.0,0.0,0.0938258171081543,0.1044325828552246
-0.0944500938057899,1.0306071043014526,-0.4017588496208191,-0.6110349297523499,-0.309832900762558,-0.1554513275623321,0.0,0.0,-0.8058153390884399,-0.1855672597885131
-0.0986055359244346,1.0166025161743164,-0.4079941809177398,-0.6240619421005249,-0.3176747560501098,-0.1568372100591659,0.0,0.0,-0.0548593401908874,0.6119407415390015
-0.1027710884809494,1.0022873878479004,-0.4076978266239166,-0.6382001042366028,-0.3268777728080749,-0.1840601861476898,0.0,0.0,0.0697507858276367,0.6458609104156494
-0.1068655997514724,0.988081157207489,-0.3992613852024078,-0.633723258972168,-0.3375154733657837,-0.2127541750669479,0.0,0.0,-0.1319682598114013,0.2076603174209594
-0.1110076904296875,0.9735839366912842,-0.4039666652679443,-0.6467553973197937,-0.3482539057731628,-0.2147686034440994,0.0,0.0,0.449898362159729,0.2803719043731689
-0.1149720177054405,0.9598559141159058,-0.3859711587429046,-0.612701952457428,-0.3592627942562103,-0.2201775759458542,0.0,0.0,0.6732945442199707,0.1416599750518798
-0.1187293976545333,0.946686327457428,-0.3653377592563629,-0.5879520177841187,-0.3702596127986908,-0.2199364602565765,0.0,0.0,0.6451026201248169,0.2459179162979126
-0.1223358139395713,0.9343680739402772,-0.3496961593627929,-0.5503574013710022,-0.3818778991699219,-0.2323655635118484,0.0,0.0,0.0012710094451904,0.1387065649032592
-0.1257789582014084,0.9221587777137756,-0.3336089551448822,-0.5455368757247925,-0.3932888507843017,-0.2282187640666961,0.0,0.0,-0.6822236776351929,0.1913982629776001
-0.1292401254177093,0.9096589684486388,-0.3353307843208313,-0.5585721731185913,-0.4048471748828888,-0.231165811419487,0.0,0.0,0.0666819810867309,0.4601278305053711
-0.1325197219848632,0.8973013758659363,-0.3173500001430511,,-0.4162647426128387,-0.2283511459827423,0.0,0.0,0.0140514373779296,-0.5448375344276428
-0.1357978880405426,0.8849380016326904,-0.3181046843528747,-0.5523774027824402,-0.4267635941505432,-0.2099778205156326,0.0,0.0,0.1650615930557251,0.446213960647583
-0.1389477699995041,0.8725857138633728,-0.3053108155727386,-0.5519643425941467,-0.4372842907905578,-0.2104136049747467,0.0,0.0,0.3744310140609741,-0.537677526473999
-0.1419218033552169,0.8604370951652527,-0.2887326180934906,-0.5426753163337708,-0.4467469751834869,-0.1892535537481308,0.0,0.0,0.892647385597229,-0.765856921672821
-0.1446468383073806,0.8494264483451843,-0.2649028301239013,-0.4918154776096344,-0.4550834894180298,-0.1667303889989853,0.0,0.0,0.4155702590942383,-0.8051915764808655
-0.1472236663103103,0.839166522026062,-0.2513277232646942,-0.4580899178981781,-0.4620749950408935,-0.139830082654953,0.0,0.0,0.7174625396728516,-0.5269196629524231
-0.1495963037014007,0.8293671011924744,-0.2316985428333282,-0.4373945593833923,-0.4682283699512481,-0.1230675801634788,0.0,0.0,0.8561815023422241,-0.8677394986152649
-0.1515490561723709,0.8200607299804688,-0.1914472132921219,-0.4149116277694702,-0.4724570512771606,-0.0845734998583793,0.0,0.0,0.8667929172515869,-0.8915693163871765
-0.1532080620527267,0.8116763830184937,-0.1634828746318817,-0.3734637200832367,-0.4751407504081726,-0.0536739453673362,0.0,0.0,0.973357915878296,-0.8779779672622681
-0.1545147895812988,0.803653359413147,-0.1299595981836319,-0.356824517250061,-0.4759368002414703,-0.0159207880496978,0.0,0.0,0.7666935920715332,-0.9298430681228638
-0.1554388105869293,0.7965308427810669,-0.0932620167732238,-0.3162588477134704,-0.4749855697154999,0.0190243329852819,0.0,0.0,0.7523303031921387,-0.8725547194480896
-0.1559766829013824,0.7897306084632874,-0.0563341081142425,-0.3013613522052765,-0.4721576273441314,0.056558758020401,0.0,0.0,-0.3215662240982055,-0.8609057664871216
-0.1565240919589996,0.7826889157295227,-0.0589718148112297,-0.3115359842777252,-0.467475414276123,0.0936445295810699,0.0,0.0,0.4796321392059326,-0.82842618227005
-0.1566550284624099,0.7762985229492188,-0.018807491287589,-0.2821083962917328,-0.4611645936965942,0.1262164264917373,0.0,0.0,-0.2985750436782837,-0.902090549468994
-0.1567625999450683,0.7696568369865417,-0.0176081247627735,-0.2929438948631286,-0.4536344110965729,0.1506041884422302,0.0,0.0,-0.3807533979415893,-0.9284266829490662
-0.1568492949008941,0.7627747654914856,-0.0168689377605915,-0.3032329976558685,-0.4446364343166351,0.1799594610929489,0.0,0.0,-0.3723081946372986,-0.8243152499198914
-0.1569197624921798,0.7556554079055786,-0.0168498009443283,-0.3133324384689331,-0.4339405298233032,0.2139184027910232,0.0,0.0,-0.7545387148857117,-0.7919563055038452
-0.1569600105285644,0.7482758164405823,-0.0150373177602887,-0.3246289193630218,-0.4219984710216522,0.238841027021408,0.0,0.0,-0.8272527456283569,-0.7894200086593628
-0.1569776535034179,0.7406547665596008,-0.0143697764724493,-0.3350031971931457,-0.4083946347236633,0.2720764279365539,0.0,0.0,-0.1838012933731079,-0.2320069670677185
-0.1569044142961502,0.7327443361282349,-0.005121674388647,-0.3480464518070221,-0.3950503468513489,0.2668857872486114,0.0,0.0,-0.9306355118751526,0.0456266403198242
-0.1567373275756836,0.72454434633255,0.0044458243064582,-0.3610891103744507,-0.3819686472415924,0.2616339325904846,0.0,0.0,-0.975793480873108,-0.2485978603363037
-0.1564735472202301,0.7160548567771912,0.0143093885853886,-0.3741311132907867,-0.3691523969173431,0.2563249766826629,0.0,0.0,-0.9635640978813172,0.2255411148071289
-0.1561102867126464,0.7072756290435791,0.0244468096643686,-0.387172520160675,-0.3566042482852936,0.2509629428386688,0.0,0.0,-0.9863585233688354,0.6221708059310913
-0.1555958688259124,0.6981865763664246,0.0410056971013546,-0.4014010727405548,-0.3456407785415649,0.2192696332931518,0.0,0.0,-0.9922292828559875,0.1757934093475341
-0.1549775153398513,0.6888073086738586,0.0516302101314067,-0.414438784122467,-0.3349500894546509,0.2138139903545379,0.0,0.0,-0.9931947588920592,0.4138494729995727
-0.1542530059814453,0.6791377663612366,0.0624689944088459,-0.4274758398532867,-0.3245342671871185,0.2083166539669037,0.0,0.0,-0.9619863629341124,-0.2548888325691223
-0.1534203588962555,0.6691778302192688,0.0735046714544296,-0.4405122697353363,-0.3143952488899231,0.2027807980775833,0.0,0.0,-0.9846476912498474,-0.1485826969146728
-0.1524779349565506,0.6589273810386658,0.0847210511565208,-0.4535481631755829,-0.304534763097763,0.1972094476222992,0.0,0.0,-0.9970394968986512,-0.0711582899093627
-0.1514242142438888,0.6483861804008484,0.0961031168699264,-0.4665834605693817,-0.2949544489383697,0.1916054189205169,0.0,0.0,-0.9786630272865297,-0.4284278154373169
-0.1502576768398285,0.6375543475151062,0.1076369732618331,-0.4796181917190552,-0.2856559157371521,0.1859713345766067,0.0,0.0,-0.9801191687583924,-0.2890911102294922
-0.1489768922328949,0.6264318823814392,0.1193097457289695,-0.4926522970199585,-0.2766404449939728,0.1803096681833267,0.0,0.0,-0.9556838274002076,-0.0243824124336242
-0.1475806236267089,0.6150180697441101,0.1311096251010894,-0.5056858062744141,-0.2679093182086944,0.1746227294206619,0.0,0.0,-0.9743157625198364,-0.6172851920127869
-0.1461106240749359,0.6033245921134949,0.1376655846834182,-0.518038809299469,-0.2583606541156769,0.1909730434417724,0.0,0.0,-0.9860259890556335,-0.6132440567016602
-0.1445732116699218,0.5913538336753845,0.1433850079774856,-0.5302437543869019,-0.2477984726428985,0.2112435847520828,0.0,0.0,-0.9817521572113036,-0.4206236600875854
-0.1429170668125152,0.5790924429893494,0.15550297498703,-0.543279230594635,-0.237523928284645,0.2054909020662307,0.0,0.0,-0.9872000813484192,-0.4692361354827881
-0.1411415040493011,0.5665404200553894,0.1677096933126449,-0.5563140511512756,-0.2275379449129104,0.1997198909521103,0.0,0.0,-0.9943788647651672,-0.5675050616264343
-0.1392965316772461,0.5537211894989014,0.1735678166151046,-0.5680953860282898,-0.2164800018072128,0.2211587876081466,0.0,0.0,-0.9973679780960084,-0.7053969502449036
-0.1373977661132812,0.5406264066696167,0.1775121241807937,-0.5802284479141235,-0.2039929032325744,0.2497419863939285,0.0,0.0,-0.998100757598877,0.0101417303085327
-0.1353772133588791,0.5272413492202759,0.1899396181106567,-0.5932667255401611,-0.1917967796325683,0.2439228296279907,0.0,0.0,-0.9659268260002136,-0.4216237068176269
-0.1332344114780426,0.5135660171508789,0.2024289071559906,-0.6063041090965271,-0.1798922419548034,0.2380907535552978,0.0,0.0,-0.9663629531860352,-0.8637986779212952
-0.1310415267944336,0.4996240139007568,0.2058089524507522,-0.6180654764175415,-0.166387677192688,0.27009117603302,0.0,0.0,-0.9363610148429872,0.1284446716308593
-0.1287253350019455,0.4853920936584472,0.218404933810234,-0.6311051249504089,-0.1531758904457092,0.2642357051372528,0.0,0.0,-0.8030210137367249,-0.3438172936439514
-0.1262853592634201,0.4708700180053711,0.23104789853096,-0.6441438794136047,-0.1402573436498642,0.2583709955215454,0.0,0.0,-0.7376769185066223,-0.8471275568008423
-0.1237857788801193,0.4560632407665252,0.2356541603803634,-0.6567959189414978,-0.1260100156068802,0.2849465012550354,0.0,0.0,-0.3391657471656799,-0.3147718906402588
-0.1211617439985275,0.4409666061401367,0.2483780831098556,-0.6698364615440369,-0.1120567247271537,0.2790656685829162,0.0,0.0,-0.457702100276947,-0.7464358806610107
-0.1184572204947471,0.4255874752998352,0.2555698752403259,-0.6824673414230347,-0.0972724929451942,0.2956845760345459,0.0,0.0,0.1029269695281982,-0.3856542110443115
-0.1155092269182205,0.4102981686592102,0.2797472774982452,-0.6786133646965027,-0.0823524445295333,0.2984006702899933,0.0,0.0,-0.1878308057785034,-0.2013496160507202
-0.1124358177185058,0.3947191834449768,0.2925677001476288,-0.6916545629501343,-0.067727193236351,0.2925048768520355,0.0,0.0,0.4824178218841553,-0.661597490310669
-0.1092122048139572,0.3798762559890747,0.3064683079719543,-0.6590393781661987,-0.0520177595317363,0.3141888678073883,0.0,0.0,-0.0241890549659729,-0.5954998731613159
-0.1059000939130783,0.3647492527961731,0.3146629333496094,-0.6718200445175171,-0.0356629788875579,0.3270955681800842,0.0,0.0,0.2663030624389648,-0.5509917140007019
-0.1024120301008224,0.3497001230716705,0.3312457501888275,-0.6685187220573425,-0.0183340031653642,0.3465796113014221,0.0,0.0,0.7309708595275879,-0.2752816081047058
-0.0988431945443153,0.3351637721061706,0.3398908376693725,-0.6459376215934753,-0.0015547139337286,0.3355859220027923,0.0,0.0,0.7417864799499512,-0.3881310224533081
-0.0950572937726974,0.3217023611068725,0.3614694774150848,-0.5983505249023438,0.0153423873707652,0.3379420638084411,0.0,0.0,0.4165745973587036,-0.7616947889328003
-0.0912351608276367,0.3086817860603332,0.3639072179794311,-0.578977644443512,0.0334257334470748,0.3616668879985809,0.0,0.0,0.2954292297363281,-0.662984311580658
-0.0874682441353797,0.2963058650493622,0.3575364947319031,-0.5505796670913696,0.05235381051898,0.3785612881183624,0.0,0.0,0.1460018157958984,-0.4101878404617309
-0.0835397690534591,0.2843712568283081,0.373723030090332,-0.5312014818191528,0.0712669342756271,0.3782625794410705,0.0,0.0,0.5182071924209595,-0.4839403629302978
-0.0795827880501747,0.2731744050979614,0.377120703458786,-0.4986258745193481,0.0896587967872619,0.3678373098373413,0.0,0.0,0.3476643562316894,-0.6177192330360413
-0.0756767243146896,0.2625893354415893,0.371263325214386,-0.4717200398445129,0.1088440045714378,0.3837043642997741,0.0,0.0,0.1777701377868652,-0.4726340770721435
-0.0717001929879188,0.2522420287132263,0.3787268400192261,-0.4613646268844604,0.1276546269655227,0.3762124180793762,0.0,0.0,0.0241748094558715,-0.5402480363845825
-0.0677667632699012,0.2421378195285797,0.3737926781177521,-0.4508639872074127,0.1471266001462936,0.3894392549991607,0.0,0.0,-0.2955915331840515,0.0826121568679809
-0.0637067779898643,0.2317450195550918,0.3868025541305542,-0.4639123976230621,0.1663075089454651,0.3836182653903961,0.0,0.0,0.3581055402755737,-0.315515398979187
-0.0595319755375385,0.2219588905572891,0.3982235491275787,-0.4372049570083618,0.1856009662151336,0.3858695328235626,0.0,0.0,0.1750304698944091,-0.3361341953277588
-0.0552361495792865,0.2122829705476761,0.4104842245578766,-0.4325456619262695,0.2048071324825287,0.3841233551502228,0.0,0.0,0.0776896476745605,-0.2386289834976196
-0.0508223548531532,0.2030778527259826,0.4222104549407959,-0.4118850529193878,0.2241629213094711,0.3871158361434936,0.0,0.0,0.3317033052444458,-0.2930140495300293
-0.0464391708374023,0.1944923549890518,0.4196096062660217,-0.3845334351062774,0.2431467026472091,0.379675805568695,0.0,0.0,0.3254772424697876,-0.274921715259552
-0.0419833175837993,0.1866570860147476,0.4267097413539886,-0.3514668345451355,0.2623745799064636,0.3845578134059906,0.0,0.0,0.329055905342102,-0.2839870452880859
-0.0374629013240337,0.1792320758104324,0.4332769513130188,-0.3334787487983703,0.2816025018692016,0.3845583200454712,0.0,0.0,0.4546120166778564,-0.5285828709602356
-0.0330635085701942,0.1725386530160904,0.4205240309238434,-0.3013562560081482,0.3015991449356079,0.3999327421188354,0.0,0.0,0.6277873516082764,-0.2754499316215515
-0.0287115089595317,0.1666942238807678,0.4159165024757385,-0.2638772130012512,0.3215917944908142,0.3998531699180603,0.0,0.0,0.7522485256195068,-0.7256428003311157
-0.0243522636592388,0.1612668633460998,0.4154189229011535,-0.2459186017513275,0.3429881036281585,0.4279263615608215,0.0,0.0,0.4514596462249756,-0.1345821022987365
-0.0201512333005666,0.1562639325857162,0.400492250919342,-0.2271591126918792,0.363611102104187,0.4124604761600494,0.0,0.0,0.110497236251831,-0.5045551061630249
-0.0160729400813579,0.1513842493295669,0.3878207802772522,-0.2220933437347412,0.3848207294940948,0.4241926670074463,0.0,0.0,0.1173328161239624,-0.4932870864868164
-0.0120258331298828,0.1467377245426178,0.3851856291294098,-0.2119299918413162,0.4056916534900665,0.4174185395240783,0.0,0.0,-0.0577457547187805,-0.497467041015625
-0.0078535079956054,0.141801968216896,0.3981328010559082,-0.2249753326177597,0.4262940585613251,0.412048727273941,0.0,0.0,0.1731559038162231,0.0224181413650512
-0.0035772323608398,0.1369832158088684,0.4085533618927002,-0.220082938671112,0.4470598995685577,0.4153168201446533,0.0,0.0,0.3068709373474121,-0.2489343881607055
0.0006595611339434,0.1326567679643631,0.4047107100486755,-0.198493406176567,0.4679200649261474,0.4172035157680511,0.0,0.0,-0.4068049192428589,-0.292446494102478
0.005020999815315,0.1280409395694732,0.4176029562950134,-0.2115368694067001,0.4885215759277344,0.412030279636383,0.0,0.0,-0.1700104475021362,-0.2980989217758178
