x_pos,y_pos,x_vel,y_vel,angle,ang_vel,leg_1,leg_2,main_booster,lat_booster
-0.0015010833740234,1.402969241142273,-0.1524016559123993,-0.3533690273761749,0.0020504014100879,0.0404676049947738,0.0,0.0,-0.4167479276657104,0.8583780527114868
-0.0029065131675451,1.3943824768066406,-0.1409943699836731,-0.3816332817077636,0.0024969943333417,0.0089336037635803,0.0,0.0,-0.1948578953742981,0.9189001321792604
-0.0042011262848973,1.3851337432861328,-0.1279614567756652,-0.4110535383224487,0.0010131280869245,-0.029680248349905,0.0,0.0,-0.0333348512649536,0.5725522041320801
-0.0054370881989598,1.3752280473709106,-0.1214621290564537,-0.4402554929256439,-0.0010928562842309,-0.0421234890818595,0.0,0.0,0.6712833642959595,0.0018850564956665
-0.0065193176269531,1.365656495094299,-0.1070143207907676,-0.4254055321216583,-0.0022901990450918,-0.0239490121603012,0.0,0.0,-0.1818394660949707,-0.0028415918350219
-0.0075793266296386,1.3554295301437378,-0.1050686836242675,-0.4545322358608246,-0.0032069557346403,-0.0183367691934108,0.0,0.0,-0.2950039505958557,0.6830722093582153
-0.0085654258728027,1.3445472717285156,-0.0966422334313392,-0.483660340309143,-0.0051468396559357,-0.0388015508651733,0.0,0.0,0.054829716682434,0.7844494581222534
-0.0093547822907567,1.3336305618286133,-0.0757555365562439,-0.4852043390274048,-0.0082941437140107,-0.0629521384835243,0.0,0.0,0.1706863641738891,-0.918858528137207
-0.0101996418088674,1.3229589462280271,-0.0834130495786666,-0.4742990136146545,-0.0093536237254738,-0.0211912523955106,0.0,0.0,-0.6653634905815125,-0.733515202999115
-0.0110805509611964,1.3116375207901,-0.088770791888237,-0.5031736493110657,-0.0086911004036664,0.0132517833262681,0.0,0.0,0.0185110569000244,-0.0255606174468994
-0.0118837356567382,1.300209879875183,-0.081513300538063,-0.5078869462013245,-0.0075133233331143,0.0235577467828989,0.0,0.0,-0.2917345762252807,-0.7703101634979248
-0.0127193452790379,1.2881261110305786,-0.0863763839006424,-0.5370461344718933,-0.0047285007312893,0.0557018406689167,0.0,0.0,0.1451828479766845,0.3058513402938843
-0.01344137173146,1.276113986968994,-0.0757050514221191,-0.5338675379753113,-0.0012628127587959,0.0693201050162315,0.0,0.0,-0.4161491990089416,-0.46273273229599
-0.014142608270049,1.263446569442749,-0.073883906006813,-0.5629926919937134,0.002452490851283,0.0743125081062316,0.0,0.0,-0.3332005143165588,0.1726820468902588
-0.0148234367370605,1.250124454498291,-0.0720815509557724,-0.5921109914779663,0.0064126141369342,0.0792097821831703,0.0,0.0,-0.8406433463096619,0.3254605531692505
-0.0154839511960744,1.2361472845077517,-0.0702992230653762,-0.6212294101715088,0.0106121767312288,0.0839992016553878,0.0,0.0,-0.7057716250419617,0.2821633815765381
-0.0161245353519916,1.2215152978897097,-0.0685380101203918,-0.6503496766090393,0.0150458039715886,0.0886804983019828,0.0,0.0,-0.8610538244247437,-0.1240112781524658
-0.0167453773319721,1.206228494644165,-0.0667987838387489,-0.6794702410697937,0.0197078548371791,0.0932495445013046,0.0,0.0,-0.6071698665618896,-0.0556646585464477
-0.0173467639833688,1.1902868747711182,-0.0650825649499893,-0.7085911631584167,0.0245925169438123,0.0977020114660263,0.0,0.0,-0.3553320169448852,0.4940569400787353
-0.0179290771484375,1.1736904382705688,-0.0633903667330741,-0.7377124428749084,0.0296937432140111,0.1020336151123046,0.0,0.0,-0.3908970355987549,0.4992184638977051
-0.0184926036745309,1.156439185142517,-0.061723243445158,-0.766834020614624,0.0350053496658802,0.1062415987253189,0.0,0.0,-0.4884884357452392,0.7105512619018555
-0.0189803130924701,1.1385321617126465,-0.0528930015861988,-0.7959673404693604,0.0390818007290363,0.0815360993146896,0.0,0.0,0.2772284746170044,0.8995652198791504
-0.0192795749753713,1.1206109523773191,-0.0325193926692009,-0.7965726852416992,0.0416494868695735,0.0513583309948444,0.0,0.0,-0.10076504945755,0.3543742895126343
-0.0195609088987112,1.1020344495773315,-0.030924329534173,-0.825697124004364,0.0444086603820323,0.0551884770393371,0.0,0.0,0.076622724533081,0.5521427392959595
-0.019902516156435,1.083429217338562,-0.0358538851141929,-0.826952338218689,0.0460833981633186,0.0334976501762867,0.0,0.0,0.6790540218353271,0.7953011989593506
-0.020359706133604,1.065216898918152,-0.0456799678504467,-0.8094366788864136,0.0460510365664958,-0.0006472854875028,0.0,0.0,0.5572341680526733,-0.1121100783348083
-0.0208278652280569,1.0473759174346924,-0.0469745844602584,-0.7929437160491943,0.0462064035236835,0.0031072210986167,0.0,0.0,0.443921685218811,0.4325941801071167
-0.0214269645512104,1.0299525260925293,-0.0596972107887268,-0.7743622064590454,0.0459975972771644,-0.0041761063039302,0.0,0.0,0.7323744297027588,0.0892078876495361
-0.0221839901059865,1.0130817890167236,-0.0750093087553978,-0.7497889399528503,0.0453128889203071,-0.01369418669492,0.0,0.0,0.3270257711410522,-0.8125773668289185
-0.0230263713747262,0.9961341023445128,-0.0853055566549301,-0.7532609105110168,0.0463736876845359,0.021216120570898,0.0,0.0,0.7530148029327393,0.0072011947631835
-0.0238751415163278,0.9798787832260132,-0.0861965864896774,-0.7224954962730408,0.0476690493524074,0.0259071104228496,0.0,0.0,-0.8738717436790466,0.5389089584350586
-0.0246719364076852,0.962968111038208,-0.0801871344447135,-0.7516046166419983,0.0481667593121528,0.0099544581025838,0.0,0.0,0.7032380104064941,0.7959680557250977
-0.0255251880735158,0.9466456770896912,-0.084170401096344,-0.7254008054733276,0.0470309928059577,-0.0227153953164815,0.0,0.0,-0.3412256240844726,0.1261631250381469
-0.0263644214719533,0.9296683669090272,-0.0828990638256073,-0.7545182704925537,0.0460162907838821,-0.0202942229807376,0.0,0.0,-0.3275876045227051,0.092631459236145
-0.0271902084350585,0.9120360612869264,-0.0816656649112701,-0.7836354970932007,0.0451153591275215,-0.0180185735225677,0.0,0.0,0.1923004388809204,0.4561265707015991
-0.0280144698917865,0.8945673704147339,-0.0816813260316848,-0.7763633131980896,0.0443816147744655,-0.0146749913692474,0.0,0.0,0.755162239074707,0.1658666133880615
-0.028875445947051,0.8771666288375854,-0.0853249952197074,-0.7733444571495056,0.0436181612312793,-0.0152689572423696,0.0,0.0,-0.0666005611419677,0.7532939910888672
-0.0296611785888671,0.8591208457946777,-0.076280727982521,-0.8019729852676392,0.0413524322211742,-0.0453147403895854,0.0,0.0,0.8328678607940674,-0.8216320276260376
-0.030587101355195,0.8418229818344116,-0.0919331908226013,-0.7687742710113525,0.0407096594572067,-0.0128554105758667,0.0,0.0,0.3894611597061157,0.4335598945617676
-0.0314988121390342,0.8246376514434814,-0.0907144099473953,-0.7637765407562256,0.0402547605335712,-0.0090978676453232,0.0,0.0,-0.3737834692001343,0.0447638034820556
-0.0323999412357807,0.8067973256111145,-0.0897214040160179,-0.792893648147583,0.0398709177970886,-0.007676585111767,0.0,0.0,0.1458255052566528,0.2562645673751831
-0.0332198143005371,0.7888511419296265,-0.0820636823773384,-0.797608494758606,0.0399472527205944,0.0015267853159457,0.0,0.0,0.8257461786270142,0.2939882278442383
-0.0339365005493164,0.7707757353782654,-0.0723114982247352,-0.8033667206764221,0.0405777730047702,0.0126103954389691,0.0,0.0,0.8881765604019165,0.7675381898880005
-0.034484289586544,0.7529604434967041,-0.0542108640074729,-0.7917774319648743,0.0400056429207325,-0.0114421490579843,0.0,0.0,0.6594862937927246,0.3691734075546264
-0.0350760444998741,0.7349308729171753,-0.0584551878273487,-0.801293671131134,0.0392892882227897,-0.0143268750980496,0.0,0.0,0.8226332664489746,0.0363250970840454
-0.035623550415039,0.7168017029762268,-0.0542908422648906,-0.8057273626327515,0.0388457775115966,-0.0088701229542493,0.0,0.0,0.8867815732955933,-0.130774438381195
-0.0361133590340614,0.6987864375114441,-0.0488934926688671,-0.8006740808486938,0.0387568771839141,-0.0017780754715204,0.0,0.0,0.5819597244262695,0.7892414331436157
-0.0366838462650775,0.6813179850578308,-0.0551855489611625,-0.7763304114341736,0.0369183346629142,-0.0367709137499332,0.0,0.0,0.0723111629486084,0.3406126499176025
-0.0373523719608783,0.6639565825462341,-0.0646143332123756,-0.7715700268745422,0.0347023420035839,-0.0443197861313819,0.0,0.0,0.7247847318649292,0.8457889556884766
-0.0379904732108116,0.6467358469963074,-0.0598364174365997,-0.7652780413627625,0.0307766441255807,-0.0785137712955474,0.0,0.0,-0.0477026104927063,0.4547276496887207
-0.0386227592825889,0.6288601756095886,-0.0592578053474426,-0.794396162033081,0.0268613658845424,-0.0783058255910873,0.0,0.0,0.8343505859375,0.2997639179229736
-0.0393354408442974,0.6115535497665405,-0.067004270851612,-0.7691131234169006,0.022655738517642,-0.0841124653816223,0.0,0.0,0.4316684007644653,0.730656623840332
-0.0398886688053607,0.5941713452339172,-0.049772672355175,-0.7724697589874268,0.0171725023537874,-0.1096647977828979,0.0,0.0,0.6482483148574829,0.0141836404800415
-0.0404478088021278,0.5773279666900635,-0.050371266901493,-0.7485391497612,0.0117003917694091,-0.1094422563910484,0.0,0.0,-0.2601571083068847,-0.3960168361663818
-0.0410027503967285,0.5598299503326416,-0.0499474257230758,-0.7776585221290588,0.006220597308129,-0.1095956563949585,0.0,0.0,0.926153302192688,0.1411712169647216
-0.0416687950491905,0.5425000786781311,-0.0605180487036705,-0.770199179649353,0.0002139513526344,-0.1201330050826072,0.0,0.0,0.9164644479751588,-0.3387497067451477
-0.0422225967049598,0.5259024500846863,-0.0497884564101696,-0.7376840114593506,-0.0053033181466162,-0.1103456243872642,0.0,0.0,0.954556941986084,-0.0532087087631225
-0.0426058769226074,0.5098455548286438,-0.0334844812750816,-0.7136660218238831,-0.0100836753845214,-0.0956072062253952,0.0,0.0,0.679297924041748,-0.4088701009750366
-0.0429021827876567,0.4943878650665283,-0.0251163244247436,-0.6870449781417847,-0.0145339705049991,-0.0890062451362609,0.0,0.0,-0.5343400239944458,-0.235744833946228
-0.0431961044669151,0.4782752990722656,-0.0248659439384937,-0.7161634564399719,-0.0190081223845481,-0.0894826427102088,0.0,0.0,0.320034384727478,-0.5119458436965942
-0.0434787757694721,0.4619469940662384,-0.0248415432870388,-0.7257486581802368,-0.0223879404366016,-0.067596398293972,0.0,0.0,0.9373935461044312,-0.2678666114807129
-0.0438590049743652,0.4462012052536011,-0.0340136885643005,-0.6998773217201233,-0.0263398606330156,-0.0790386274456977,0.0,0.0,0.7938034534454346,-0.3856741189956665
-0.0440890304744243,0.4306371808052063,-0.019595505669713,-0.6917981505393982,-0.0297012329101562,-0.0672276616096496,0.0,0.0,0.9517409801483154,-0.1687473654747009
-0.0442686080932617,0.415502667427063,-0.0146579016000032,-0.6727163791656494,-0.0329649485647678,-0.0652742013335228,0.0,0.0,0.9132688045501708,0.0271134376525878
-0.0444232001900672,0.4004086256027221,-0.0121571840718388,-0.6709226965904236,-0.0362187661230564,-0.0650764554738998,0.0,0.0,0.7235512733459473,-0.4415699243545532
-0.0446839332580566,0.3855908811092376,-0.022142169997096,-0.6586657166481018,-0.0401026345789432,-0.0776774883270263,0.0,0.0,0.9554265737533568,-0.5881848931312561
-0.0449230186641216,0.371644377708435,-0.021209068596363,-0.6199206113815308,-0.0427725873887538,-0.0533989779651165,0.0,0.0,0.7443610429763794,-0.5663589239120483
-0.0451011657714843,0.3574956953525543,-0.0164702236652374,-0.6288698315620422,-0.0441022850573062,-0.0265941713005304,0.0,0.0,0.9741928577423096,0.4310457706451416
-0.0452022552490234,0.3442184925079345,-0.0088780429214239,-0.5901374220848083,-0.0453149378299713,-0.0242531858384609,0.0,0.0,0.5360300540924072,-0.3402880430221557
-0.0453711524605751,0.3309515714645386,-0.0152171729132533,-0.5896933078765869,-0.0469638668000698,-0.0329786352813243,0.0,0.0,0.8817782402038574,0.1980490684509277
-0.0456088073551654,0.3181924819946289,-0.0215726532042026,-0.5671392679214478,-0.0491270162165164,-0.0432630963623523,0.0,0.0,0.4983531236648559,-0.3647845983505249
-0.0457914359867572,0.3056219220161438,-0.0161797273904085,-0.5587607622146606,-0.0511899664998054,-0.0412590429186821,0.0,0.0,0.458430528640747,-0.4300736784934997
-0.0460503585636615,0.2935218811035156,-0.0232384819537401,-0.5378724336624146,-0.0538059100508689,-0.0523190274834632,0.0,0.0,0.5962399244308472,-0.4490240216255188
-0.0462091453373432,0.2815967798233032,-0.0135433198884129,-0.5300907492637634,-0.0561181977391243,-0.0462456420063972,0.0,0.0,0.2293890714645385,0.2198266983032226
-0.0463776588439941,0.2694545984268188,-0.0143731338903307,-0.5397480726242065,-0.0585685968399047,-0.0490082539618015,0.0,0.0,0.6260716915130615,-0.3752384185791015
-0.0464616790413856,0.25713050365448,-0.0062162233516573,-0.5478218793869019,-0.0607285127043724,-0.0431982800364494,0.0,0.0,0.8484330177307129,-0.8387458920478821
-0.0466290488839149,0.2447212487459182,-0.016150165349245,-0.5515488982200623,-0.0613125041127204,-0.0116797136142849,0.0,0.0,0.9303665161132812,-0.3349118828773498
-0.0467505455017089,0.2330452799797058,-0.0114988218992948,-0.518959105014801,-0.0619538314640522,-0.0128265544772148,0.0,0.0,0.8343231678009033,-0.5369328260421753
-0.046764850616455,0.2220706790685653,-0.0021314560435712,-0.4877308309078216,-0.061264231801033,0.0137920156121253,0.0,0.0,0.579072117805481,-0.4595058560371399
-0.0468395240604877,0.2116204351186752,-0.0076589919626712,-0.4644489884376526,-0.0610744170844554,0.0037964354269206,0.0,0.0,0.5993807315826416,-0.1464639902114868
-0.0470207221806049,0.2010065466165542,-0.0177285987883806,-0.4717432260513305,-0.0614628158509731,-0.0077678277157247,0.0,0.0,0.5484027862548828,-0.6287034153938293
-0.0471657738089561,0.1908531337976455,-0.0154811320826411,-0.4512225091457367,-0.0605012401938438,0.0192314721643924,0.0,0.0,-0.1041675209999084,-0.2296633124351501
-0.0473118796944618,0.1800446063280105,-0.0155923292040824,-0.4803393483161926,-0.0595278516411781,0.0194677896797657,0.0,0.0,0.8717730045318604,-0.1590033769607544
-0.0474751479923725,0.1697363406419754,-0.0170391835272312,-0.4581169486045837,-0.0588242188096046,0.0140726612880826,0.0,0.0,0.8419387340545654,0.4228650331497192
-0.0476067550480365,0.1599414944648742,-0.0138271721079945,-0.4353002607822418,-0.058158554136753,0.0133131351321935,0.0,0.0,0.3964998722076416,0.1406549215316772
-0.0476367957890033,0.1502214521169662,-0.0040533570572733,-0.431959331035614,-0.0571217648684978,0.020735802128911,0.0,0.0,0.2763828039169311,0.0006635189056396
-0.0476340278983116,0.1402407735586166,-0.0008932040072977,-0.4435410797595978,-0.0559632815420627,0.023169619962573,0.0,0.0,0.7156012058258057,-0.4736876487731933
-0.0475120544433593,0.1302231103181839,0.0105292703956365,-0.4451696574687958,-0.0543151274323463,0.0329630449414253,0.0,0.0,0.8329390287399292,-0.4869371652603149
-0.0471929535269737,0.1204859092831611,0.0294305179268121,-0.4326758682727813,-0.0518604703247547,0.0490932799875736,0.0,0.0,0.8801989555358887,-0.5024384260177612
-0.0467227920889854,0.1107522845268249,0.0429529957473278,-0.4324721097946167,-0.0478451736271381,0.0803058668971061,0.0,0.0,0.9676833152770996,-0.6375492811203003
-0.0462671294808387,0.101713091135025,0.0401723869144916,-0.4015779197216034,-0.0425128191709518,0.1066468507051467,0.0,0.0,0.8412566184997559,-0.7539440393447876
-0.0457970611751079,0.0932933166623115,0.0399343445897102,-0.3740269243717193,-0.0355220064520835,0.1398161202669143,0.0,0.0,0.7537298202514648,-0.1955031156539917
-0.0451690666377544,0.0852735862135887,0.0550200529396534,-0.3562698066234588,-0.0278359483927488,0.1537210047245025,0.0,0.0,0.8372461795806885,0.0519270896911621
-0.0444178581237793,0.0771391242742538,0.0667096972465515,-0.361398309469223,-0.0195386558771133,0.1659457087516784,0.0,0.0,0.7717409133911133,0.4820111989974975
-0.04371128231287,0.0691710337996482,0.0624181926250457,-0.3540507853031158,-0.0114006949588656,0.1627591550350189,0.0,0.0,0.8415582180023193,0.8676631450653076
-0.0428195968270301,0.0619984492659568,0.0823715701699256,-0.3187455832958221,-0.0046835234388709,0.1343433856964111,0.0,0.0,0.7189011573791504,-0.4151312708854675
-0.0419475547969341,0.0550596825778484,0.0803868621587753,-0.3083836436271667,0.0020411589648574,0.134493738412857,0.0,0.0,0.7382960319519043,0.0667700767517089
-0.041206169873476,0.0487214438617229,0.0678085386753082,-0.2817217409610748,0.0082894191145896,0.1249651163816452,0.0,0.0,0.730705738067627,0.0969181060791015
-0.0403773300349712,0.0428263060748577,0.0759864896535873,-0.2620598375797272,0.0150982914492487,0.136177584528923,0.0,0.0,0.6667497158050537,0.2322127819061279
-0.0396113395690918,0.0374106727540493,0.0698129087686538,-0.2407777309417724,0.0218058880418539,0.1341519057750702,0.0,0.0,0.196449875831604,0.915769100189209
-0.038851547986269,0.0321602672338485,0.0708941370248794,-0.2334330081939697,0.0268230848014354,0.1003438457846641,0.0,0.0,0.0850681066513061,0.554305911064148
-0.0380715355277061,0.0267447084188461,0.0739024579524993,-0.2407721728086471,0.0308762695640325,0.0810640081763267,0.0,0.0,0.5007846355438232,0.6237636804580688
-0.037370778620243,0.0214907974004745,0.0673002228140831,-0.2335648834705352,0.0336171239614486,0.0548169240355491,0.0,0.0,0.682503342628479,0.1758286952972412
-0.0368370041251182,0.0163739304989576,0.0511259362101554,-0.2274715602397918,0.035837460309267,0.0444065555930137,0.0,0.0,0.8073639869689941,0.9323303699493408
-0.0361246094107627,0.0117968656122684,0.0704580619931221,-0.2034451961517334,0.0366105772554874,0.0154622644186019,0.0,0.0,0.4106212854385376,-0.0156720876693725
-0.0353665351867675,0.0070398785173892,0.0745652168989181,-0.2114523947238922,0.0378344617784023,0.0244778841733932,0.0,0.0,0.8233547210693359,0.1747794151306152
-0.0344751365482807,0.002899048384279,0.0869293436408042,-0.1840928941965103,0.040017332881689,0.0436571761965751,0.0,0.0,0.7372496128082275,0.1157426834106445
-0.0337310805916786,5.100727139506489e-05,0.0914445295929908,-0.1262298673391342,0.0231272298842668,-0.3378719687461853,0.0,1.0,0.8013064861297607,0.1523146629333496
-0.0329466834664344,-0.0015382909914478,0.1090919375419616,-0.0704608038067817,-0.0072053801268339,-0.6067468523979187,0.0,1.0,0.3538256883621216,-0.669278085231781
-0.0320311561226844,-0.0023848318960517,0.1002188697457313,-0.0377132296562194,-0.0157044380903244,-0.1699131280183792,1.0,1.0,0.3193503618240356,-0.9799165725708008
-0.0311763770878314,-0.0019801401067525,0.0823830589652061,0.0179925672709941,-0.0125918788835406,0.0623033158481121,1.0,1.0,-0.4370481967926025,-0.9530115127563475
-0.030471134930849,-0.0012456440599635,0.0649021193385124,0.0326692350208759,-0.0070261610671877,0.1113479360938072,1.0,1.0,-0.6846899390220642,-0.9464879631996156
-0.0298996921628713,-0.0010483050718903,0.0556032359600067,0.0087685286998748,-0.0054956609383225,0.0306134633719921,1.0,1.0,-0.2160922884941101,-0.733390748500824
-0.0294659622013568,-0.0012019777204841,0.0444225631654262,-0.0068460656329989,-0.0065200771205127,-0.0204693339765071,1.0,1.0,-0.5064025521278381,-0.9188223481178284
-0.0291996002197265,-0.001481213606894,0.0286352429538965,-0.0124332280829548,-0.0084782261401414,-0.03914051130414,1.0,1.0,-0.1331574916839599,-0.5402103662490845
-0.0290499683469533,-0.0017111683264374,0.016591565683484,-0.010242024436593,-0.0100751128047704,-0.0319166444242,1.0,1.0,-0.5938811302185059,-0.3192552328109741
-0.0289651863276958,-0.0017729663522914,0.0088364789262413,-0.0027581439353525,-0.010411724448204,-0.0067162699997425,1.0,1.0,-0.5986729860305786,-0.1273752450942993
-0.0289179794490337,-0.0016000890173017,0.0032275221310555,0.007693394087255,-0.0089464765042066,0.0292933285236358,1.0,1.0,-0.7143076062202454,0.168459415435791
-0.028850745409727,-0.0011976147070527,0.0035859339404851,0.0179003905504941,-0.0058351936750113,0.0622271969914436,1.0,1.0,-0.7370855212211609,0.378371000289917
-0.0287679675966501,-0.0006260180380195,0.0038481256924569,0.0254153776913881,-0.0014719808241352,0.0872646421194076,1.0,1.0,-0.5002276301383972,0.4772394895553589
-0.0287379268556833,-0.0006175065063871,0.0029550092294812,0.0003776164085138,-0.0014260029420256,0.0009203703957609,1.0,1.0,-0.4634758830070495,-0.0331910848617553
