x_pos,y_pos,x_vel,y_vel,angle,ang_vel,leg_1,leg_2,main_booster,lat_booster
-0.0015176773304119,1.403505802154541,-0.1538089215755462,-0.3295202553272247,0.0018220234196633,0.0359456576406955,0.0,0.0,-0.7169546670575975,0.6821663421007953
-0.0029723166953772,1.3959931135177612,-0.1458010375499725,-0.3339015245437622,0.0021562478505074,0.0066858069039881,0.0,0.0,-0.859855785284589,-0.7268341135906293
-0.0044672014191746,1.388355731964111,-0.150954782962799,-0.3394374549388885,0.0036021205596625,0.0289200954139232,0.0,0.0,-0.8451429426303703,0.7024059677303327
-0.0059144971892237,1.3805979490280151,-0.1450300216674804,-0.3447993993759155,0.0038928156718611,0.0058149206452071,0.0,0.0,-0.5290040020385911,-0.5849484012133832
-0.0073957443237304,1.3727229833602903,-0.1492676436901092,-0.3499993085861206,0.0050247758626937,0.0226412005722522,0.0,0.0,-0.5608172464323116,0.8643732156959241
-0.0087922094389796,1.364728927612305,-0.1385639905929565,-0.3552893996238708,0.0039563262835145,-0.0213706064969301,0.0,0.0,-0.3790796501160929,-0.5699870156445298
-0.0102348327636718,1.3566161394119265,-0.1442297101020813,-0.360574722290039,0.0039295284077525,-0.000536143197678,0.0,0.0,-0.9700455885163416,0.8993421825119328
-0.0115896221250295,1.3483877182006836,-0.1330500990152359,-0.3656991720199585,0.0015205407980829,-0.0481843762099742,0.0,0.0,0.0585672860782493,0.7958911676258223
-0.0128931049257516,1.340853929519653,-0.1261241734027862,-0.3348331749439239,-0.0026569259352982,-0.0835571065545082,0.0,0.0,-0.5516211622308904,0.7016624068467257
-0.0141438487917184,1.3332059383392334,-0.1192253828048706,-0.3399287164211273,-0.0084379222244024,-0.1156306490302085,0.0,0.0,-0.6500344151495017,-0.926938172094322
-0.0154605861753225,1.325441598892212,-0.1271704882383346,-0.345124751329422,-0.0128866238519549,-0.088982306420803,0.0,0.0,-0.933112777721396,-0.6075466052993546
-0.0168238636106252,1.3175581693649292,-0.132640391588211,-0.350406676530838,-0.0165416859090328,-0.0731076076626777,0.0,0.0,0.3048185139620913,0.881201705892294
-0.0179959293454885,1.3103851079940796,-0.1115609258413314,-0.3188789784908294,-0.0221279151737689,-0.111734889447689,0.0,0.0,0.1055281808939039,-0.7163894250921882
-0.0191728584468364,1.303443431854248,-0.1132175773382186,-0.3085883557796478,-0.026554200798273,-0.0885339081287384,0.0,0.0,0.5262550454698975,-0.6922601813158387
-0.0202481262385845,1.2975291013717651,-0.1043874472379684,-0.2629147469997406,-0.0296536814421415,-0.0619953498244285,0.0,0.0,0.7662844142626508,-0.7969226450448788
-0.0212563518434762,1.2919607162475586,-0.0991927534341812,-0.2475257217884063,-0.0312697663903236,-0.0323244743049144,0.0,0.0,-0.4610238143795893,-0.7599535673776593
-0.0223196037113666,1.286284565925598,-0.1054791361093521,-0.2522822320461273,-0.0321018584072589,-0.0166434459388256,0.0,0.0,0.4706521094916307,-0.5270318059283163
-0.0232868194580078,1.280981421470642,-0.0968931466341018,-0.2357002198696136,-0.0319396741688251,0.0032440237700939,0.0,0.0,0.5914268658301616,-0.7308616906041259
-0.0241946224123239,1.2767235040664673,-0.0921942219138145,-0.1892060786485672,-0.0305381473153829,0.0280331186950206,0.0,0.0,0.5773339822312813,0.856341208869187
-0.0251153949648141,1.273157835006714,-0.0912116691470146,-0.1584966778755188,-0.0314029455184936,-0.0172971319407224,0.0,0.0,-0.7420081190929442,-0.7252227947665257
-0.0260931011289358,1.2694810628890991,-0.0975925251841545,-0.1634160578250885,-0.0315770879387855,-0.0034832146484404,0.0,0.0,0.0421085484653418,-0.7142585653921752
-0.0271224975585937,1.26610267162323,-0.1037366613745689,-0.150135651230812,-0.0307874716818332,0.0157935004681348,0.0,0.0,-0.5442979066494122,0.5461240228143895
-0.028112506493926,1.2626025676727295,-0.0979837328195571,-0.1555791199207306,-0.0317919217050075,-0.0200906284153461,0.0,0.0,0.6583945375800737,0.6550806311080745
-0.0289783477783203,1.259440779685974,-0.0839359313249588,-0.1405890136957168,-0.0344100072979927,-0.0523663647472858,0.0,0.0,-0.5033550239885858,-0.9306920371818714
-0.0299490932375192,1.256167769432068,-0.0962420180439949,-0.145488828420639,-0.0352363921701908,-0.0165292117744684,0.0,0.0,-0.1227242976607809,-0.9160083348648488
-0.0310249328613281,1.2527644634246826,-0.1085148900747299,-0.1512310951948166,-0.0343062803149223,0.0186022389680147,0.0,0.0,0.4170970991306209,-0.7416582843804462
-0.0321491248905658,1.2501845359802246,-0.1143486872315406,-0.1146192178130149,-0.0324106141924858,0.0379136726260185,0.0,0.0,0.7138173117657418,-0.6499328199814687
-0.0334589965641498,1.2487863302230835,-0.1333365142345428,-0.0620970465242862,-0.0300925355404615,0.0463615134358406,0.0,0.0,0.4136594106077544,0.6677381531957285
-0.0348349586129188,1.2482720613479614,-0.1378221213817596,-0.022846907377243,-0.0298631507903337,0.0045875557698309,0.0,0.0,-0.1513641002398298,-0.5375526250193265
-0.0362710952758789,1.2476396560668943,-0.1444221884012222,-0.0280964877456426,-0.0290670711547136,0.0159215293824672,0.0,0.0,-0.8838385940645341,0.8704642480146165
-0.0376525893807411,1.2468953132629397,-0.1365959346294403,-0.0331025347113609,-0.0306012723594903,-0.0306840874254703,0.0,0.0,-0.972059965133667,-0.6388399600982666
-0.0391080863773822,1.2460318803787231,-0.1448881775140762,-0.0383918695151805,-0.0312532447278499,-0.0130394073203206,0.0,0.0,-0.9430704116821288,-0.3842765092849731
-0.0405807495117187,1.245050072669983,-0.1460357755422592,-0.0436615422368049,-0.0324628539383411,-0.024192264303565,0.0,0.0,-0.975761651992798,-0.1969190835952758
-0.0420706756412982,1.2439500093460083,-0.1472038328647613,-0.0489313714206218,-0.0342351645231246,-0.0354458764195442,0.0,0.0,-0.9608255624771118,-0.3889124989509582
-0.0435782447457313,1.2427318096160889,-0.1483906805515289,-0.0542014427483081,-0.0365747399628162,-0.0467915385961532,0.0,0.0,-0.9863300323486328,-0.4011962413787842
-0.0451036468148231,1.2413954734802246,-0.1495947390794754,-0.0594718270003795,-0.0394858047366142,-0.0582212507724761,0.0,0.0,-0.985965609550476,0.2241246700286865
-0.0466470718383789,1.239940881729126,-0.1508145779371261,-0.0647426173090934,-0.0429721847176551,-0.0697277411818504,0.0,0.0,-0.9724912643432616,0.4234123229980469
-0.0482087135314941,1.238368272781372,-0.1520488858222961,-0.0700138956308364,-0.0470374040305614,-0.0813043564558029,0.0,0.0,-0.9824041724205016,-0.6940485239028931
-0.0498469360172748,1.236689805984497,-0.1606059670448303,-0.0747133418917656,-0.0502122305333614,-0.0634965524077415,0.0,0.0,-0.9870696663856506,-0.4550206661224365
-0.0515036582946777,1.2348928451538086,-0.1618655622005462,-0.0799848213791847,-0.0539720132946968,-0.0751956701278686,0.0,0.0,-0.985244870185852,0.2941983938217163
-0.0531789772212505,1.232978343963623,-0.1631362289190292,-0.0852568373084068,-0.0583194121718406,-0.0869480520486831,0.0,0.0,-0.9630114436149596,0.0721648931503295
-0.054872989654541,1.2309459447860718,-0.1644170433282852,-0.090529479086399,-0.0632568672299385,-0.0987490266561508,0.0,0.0,-0.9987531304359436,-0.0596900582313537
-0.0565859787166118,1.2287960052490234,-0.1657071411609649,-0.0958028361201286,-0.068786583840847,-0.1105943173170089,0.0,0.0,-0.985518515110016,-0.4238461256027221
-0.0583179481327533,1.226528525352478,-0.1670057326555252,-0.1010769978165626,-0.0749105811119079,-0.1224799528717994,0.0,0.0,-0.9786436557769777,0.0565930604934692
-0.0600689873099327,1.2241435050964355,-0.1683120876550674,-0.1063520610332489,-0.0816306918859481,-0.134402334690094,0.0,0.0,-0.9983357787132264,0.3898204565048218
-0.0618391036987304,1.2216413021087646,-0.1696256101131439,-0.1116280928254127,-0.0889485999941825,-0.1463581323623657,0.0,0.0,-0.9934006929397584,-0.2450822591781616
-0.0636284798383712,1.2190220355987549,-0.1709456741809845,-0.1169051975011825,-0.0968658179044723,-0.1583442389965057,0.0,0.0,-0.9689631462097168,0.7033909559249878
-0.0653914436697959,1.2162871360778809,-0.1665686219930648,-0.1222155839204788,-0.1065216064453125,-0.1931159943342209,0.0,0.0,-0.9927826523780824,-0.0479317307472229
-0.0671737641096115,1.2134356498718262,-0.1679005771875381,-0.1274968832731247,-0.1167793199419975,-0.2051542699337005,0.0,0.0,-0.977886199951172,0.4106552600860595
-0.0689753517508506,1.210468292236328,-0.1692377477884292,-0.1327797025442123,-0.1276400536298751,-0.2172150611877441,0.0,0.0,-0.9787318110466005,-0.6438139081001282
-0.0708347335457801,1.2073919773101809,-0.1754119098186493,-0.1376585215330124,-0.1381255239248275,-0.2097091227769851,0.0,0.0,-0.9956199526786804,-0.1526784300804138
-0.0727134719491005,1.204200029373169,-0.1767580509185791,-0.142942801117897,-0.149215966463089,-0.2218088656663894,0.0,0.0,-0.9964898228645324,-0.3969497680664062
-0.0746116638183593,1.200892210006714,-0.1781083643436432,-0.1482287049293518,-0.1609122306108474,-0.2339249104261398,0.0,0.0,-0.9947998523712158,-0.8200628757476807
-0.0765919685363769,1.1974918842315674,-0.1873782277107238,-0.1523191332817077,-0.1715776473283767,-0.2133086919784546,0.0,0.0,-0.976531147956848,-0.3267018795013428
-0.0785917267203331,1.1939759254455566,-0.1887352764606475,-0.1576053947210312,-0.1828503161668777,-0.2254529744386673,0.0,0.0,-0.9923994541168212,-0.8009056448936462
-0.0806835144758224,1.1903607845306396,-0.1992012113332748,-0.1619320660829544,-0.1928716152906417,-0.2004261463880539,0.0,0.0,-0.9851475954055786,-0.2476536631584167
-0.0827947631478309,1.1866302490234375,-0.2005637139081955,-0.1672182828187942,-0.2035012245178222,-0.2125922739505767,0.0,0.0,-0.9956408143043518,-0.6630926132202148
-0.0849645584821701,1.182798981666565,-0.2068646252155304,-0.1717048287391662,-0.2137102931737899,-0.2041813880205154,0.0,0.0,-0.9689179062843324,-0.2791430950164795
-0.0871538147330284,1.1788524389266968,-0.2082320004701614,-0.1769923716783523,-0.2245284765958786,-0.2163633108139038,0.0,0.0,-0.9942885041236876,-0.7309316992759705
-0.0894248932600021,1.1748183965682983,-0.2174804955720901,-0.1807911098003387,-0.2342922687530517,-0.1952762752771377,0.0,0.0,-0.9545892477035522,-0.37608802318573
-0.0917155295610427,1.1706689596176147,-0.2188515663146972,-0.1860789507627487,-0.2446657121181488,-0.207468956708908,0.0,0.0,-0.9838499426841736,-0.7390176057815552
-0.094091035425663,1.1664326190948486,-0.2284711301326751,-0.1898198872804641,-0.2539048790931701,-0.1847831308841705,0.0,0.0,-0.9877933859825134,0.2084248065948486
-0.096485897898674,1.162081003189087,-0.2298450469970703,-0.1951078474521637,-0.2637539207935333,-0.1969814747571945,0.0,0.0,-0.929773211479187,0.6579813957214355
-0.0988480597734451,1.1575942039489746,-0.2246462553739547,-0.2015357464551925,-0.2755961716175079,-0.2368450462818145,0.0,0.0,-0.9793325662612916,0.1107653379440307
-0.1012293845415115,1.152993083000183,-0.2260245829820633,-0.206829160451889,-0.2880483269691467,-0.2490429133176803,0.0,0.0,-0.8507569432258606,-0.7930392622947693
-0.1037022620439529,1.1483100652694702,-0.2365028858184814,-0.2103063911199569,-0.2991681396961212,-0.2223961055278778,0.0,0.0,-0.9740041494369508,-0.8146646022796631
-0.1062516197562217,1.1435487270355225,-0.2451556175947189,-0.213662251830101,-0.3092899024486542,-0.2024351358413696,0.0,0.0,-0.8547291159629822,-0.5031322240829468
-0.1088541969656944,1.1386826038360596,-0.2507693767547607,-0.2183326631784439,-0.31914222240448,-0.1970462799072265,0.0,0.0,-0.9404988884925842,-0.2604674100875854
-0.1114762276411056,1.1337015628814695,-0.252149760723114,-0.2236246019601822,-0.3296037912368774,-0.2092316448688507,0.0,0.0,-0.8611692786216736,-0.7374215722084045
-0.114181712269783,1.1286355257034302,-0.2616163194179535,-0.2272253036499023,-0.3389354050159454,-0.1866313964128494,0.0,0.0,-0.9149208068847656,-0.2578816413879394
-999.0,1.1234548091888428,-0.2629971504211426,-0.2325173318386078,-0.3488755226135254,-0.1988022625446319,0.0,0.0,-0.9760587811470032,-0.947338044643402
-0.1197166442871093,1.118197321891785,-0.2727329134941101,-0.2357005923986435,-0.357578843832016,-0.1740662157535553,0.0,0.0,-0.7046136856079102,-0.3085328340530395
-0.1225460991263389,1.1128250360488892,-0.2741135656833648,-0.2409925758838653,-0.3668896555900574,-0.186216652393341,0.0,0.0,-0.9029853343963624,-0.502058207988739
-0.1254270523786544,1.1073569059371948,-0.2795835733413696,-0.2452382743358612,-0.3759010136127472,-0.1802270859479904,0.0,0.0,-0.812917947769165,0.3335614204406738
-0.1283271759748459,1.1017742156982422,-0.2809640765190124,-0.2505314350128174,-0.3855185210704803,-0.1923502385616302,0.0,0.0,-0.8387498259544373,-0.5109469294548035
-0.1312808990478515,1.0960923433303833,-0.2866535484790802,-0.2549194097518921,-0.3948131501674652,-0.185893252491951,0.0,0.0,-0.6781312227249146,-0.5921316742897034
-0.1343005150556564,1.09031879901886,-0.2939016222953796,-0.2588680684566498,-0.4034321010112762,-0.1723787486553192,0.0,0.0,-0.7971027493476868,-0.1603519916534423
-0.1373391151428222,1.0844308137893677,-0.2952802181243896,-0.2641618251800537,-0.4126544296741485,-0.1844470798969268,0.0,0.0,-0.9611648321151732,-0.279746413230896
-0.1403967887163162,1.0784283876419067,-0.2966585457324981,-0.2694567739963531,-0.4224790632724762,-0.1964925229549408,0.0,0.0,-0.8702760338783264,-0.7250238060951233
-0.1435327529907226,1.072359919548035,-0.3056365847587585,-0.2721201777458191,-0.4311084151268005,-0.1725869625806808,0.0,0.0,-0.6121787428855896,-0.6622554063796997
-0.1467469185590744,1.066210389137268,-0.3144676387310028,-0.2754632234573364,-0.4386730492115021,-0.1512925624847412,0.0,0.0,-0.5316377282142639,-0.826014518737793
-0.1500326097011566,1.0599913597106934,-0.322569191455841,-0.278290718793869,-0.4452199041843414,-0.1309372335672378,0.0,0.0,0.0933386087417602,-0.6154426336288452
-0.1532845497131347,1.054252862930298,-0.319757878780365,-0.256783664226532,-0.4511736035346985,-0.119073748588562,0.0,0.0,0.4021910429000854,0.0326396226882934
-0.1563464105129242,1.0492069721221924,-0.3000321686267853,-0.2262738049030304,-0.457937091588974,-0.1352698504924774,0.0,0.0,-0.2365329265594482,-0.3858994841575622
-0.1594271659851074,1.0440465211868286,-0.3013988733291626,-0.2315673977136612,-0.4652930796146393,-0.1471196115016937,0.0,0.0,-0.3706034421920776,-0.4527465105056762
-0.1625266075134277,1.0387717485427856,-0.3027636110782623,-0.23686183989048,-0.4732392728328705,-0.1589240878820419,0.0,0.0,0.0571528673171997,-0.0648677349090576
-0.1655313521623611,1.0336648225784302,-0.2928560376167297,-0.2295994460582733,-0.4817030429840088,-0.169276013970375,0.0,0.0,0.1237392425537109,-0.5049552917480469
-0.1684025824069976,1.028783917427063,-0.2800754308700561,-0.2194072157144546,-0.4895678460597992,-0.1572960466146469,0.0,0.0,0.5142015218734741,0.2162325382232666
-0.1709271371364593,1.0243865251541138,-0.2454759776592254,-0.1979397386312484,-0.4973909854888916,-0.1564624905586242,0.0,0.0,0.619765043258667,-0.8838791847229004
-0.1732144355773925,1.020318865776062,-0.223081037402153,-0.1828421503305435,-0.5037389397621155,-0.1269587278366089,0.0,0.0,0.8864902257919312,-0.4422560334205627
-0.1751114875078201,1.017268419265747,-0.1835581362247467,-0.1378539651632309,-0.5106920599937439,-0.1390620470046997,0.0,0.0,0.9196176528930664,-0.6374178528785706
-0.1766042709350586,1.0152695178985596,-0.1439192593097686,-0.0908590480685234,-0.5167644023895264,-0.1214455366134643,0.0,0.0,0.8145656585693359,-0.7585166096687317
-0.1776742041110992,1.0140472650527954,-0.102830171585083,-0.0559018403291702,-0.5214928388595581,-0.0945695787668228,0.0,0.0,0.4266809225082397,-0.7182350158691406
-0.1785894334316253,1.0130404233932495,-0.0883255749940872,-0.0459742322564125,-0.5251253843307495,-0.0726515054702758,0.0,0.0,-0.4525819420814514,-0.7917393445968628
-0.1795814484357834,1.011967420578003,-0.0971329137682914,-0.0484926030039787,-0.5274930000305176,-0.0473517999053001,0.0,0.0,-0.0020114779472351,-0.7707642316818237
-0.1806329786777496,1.0108264684677124,-0.1038347259163856,-0.051219068467617,-0.5289918780326843,-0.0299778636544942,0.0,0.0,0.2363609075546264,-0.5407683253288269
-0.1815402060747146,1.010168433189392,-0.0899135619401931,-0.0295662321150302,-0.529924750328064,-0.0186570063233375,0.0,0.0,0.049559473991394,-0.8626741766929626
-0.182345300912857,1.010177731513977,-0.0808382183313369,0.0005429133889265,-0.5295393466949463,0.0077077141031622,0.0,0.0,-0.1552766561508178,-0.8719388842582703
-0.1832164824008941,1.0101197957992554,-0.0883846804499626,-0.0020804752130061,-0.5280945897102356,0.0288954712450504,0.0,0.0,-0.160013198852539,-0.5137133002281189
-0.1841414421796798,1.0099830627441406,-0.0943471118807792,-0.0053589236922562,-0.5259796977043152,0.0422975309193134,0.0,0.0,-0.0690130591392517,-0.5997386574745178
-0.1851280182600021,1.0097750425338743,-0.1013412624597549,-0.0082125505432486,-0.5229251384735107,0.0610908940434455,0.0,0.0,0.3622825145721435,-0.4295172691345215
-0.1859443634748459,1.0100009441375732,-0.0837855786085128,0.0108635686337947,-0.5204698443412781,0.0491061024367809,0.0,0.0,0.1869702339172363,-0.4693050384521484
-0.1866353005170822,1.010736346244812,-0.070473700761795,0.0332132428884506,-0.5188961625099182,0.0314742103219032,0.0,0.0,-0.0273274779319763,-0.4532517194747925
-0.1873427331447601,1.0113563537597656,-0.0717038959264755,0.0279248245060443,-0.5178049802780151,0.021823588758707,0.0,0.0,0.0534796714782714,-0.7883796095848083
-0.1878233850002288,1.0124497413635254,-0.0501036271452903,0.0493682548403739,-0.5154886841773987,0.0463258549571037,0.0,0.0,-0.6226665377616882,-0.5253506898880005
-0.1883536279201507,1.0134509801864624,-0.0555338971316814,0.0454451479017734,-0.5126379132270813,0.0570161156356334,0.0,0.0,-0.5125876665115356,-0.5011115670204163
-0.1889239251613617,1.0143619775772097,-0.0598828569054603,0.041546244174242,-0.5094190835952759,0.0643771439790725,0.0,0.0,-0.480712890625,-0.7465975284576416
-0.1895603239536285,1.015206813812256,-0.067568764090538,0.0390068143606185,-0.5049797296524048,0.0887866616249084,0.0,0.0,0.1460093259811401,-0.4014075994491577
-0.1898383200168609,1.0166423320770264,-0.0317717716097831,0.0652603879570961,-0.500493049621582,0.0897340476512909,0.0,0.0,-0.3163954019546509,-0.332969069480896
-0.1901307106018066,1.0179619789123535,-0.0328842438757419,0.0599749349057674,-0.4963989555835724,0.0818824544548988,0.0,0.0,-0.6384621858596802,-0.2410101294517517
-0.1904372274875641,1.0191657543182373,-0.033970221877098,0.0546906068921089,-0.4926783442497253,0.0744119584560394,0.0,0.0,-0.2406811714172363,-0.5260294675827026
-0.1907883584499359,1.020283579826355,-0.0390267297625541,0.0510722175240516,-0.4883077144622803,0.0874127894639968,0.0,0.0,-0.1823519468307495,-0.505358874797821
-0.1911837607622146,1.021307110786438,-0.0439761094748973,0.0470518581569194,-0.4833514392375946,0.0991255119442939,0.0,0.0,-0.1402288079261779,-0.2914752960205078
-0.1915916502475738,1.0222142934799194,-0.0449700579047203,0.0417698211967945,-0.4787041246891022,0.0929463952779769,0.0,0.0,-0.337145984172821,-0.4955061078071594
-0.1920116394758224,1.0230047702789309,-0.0459280721843242,0.0364890322089195,-0.4743418097496032,0.0872464627027511,0.0,0.0,-0.3640826940536499,-0.4627226591110229
-0.1924430876970291,1.0236787796020508,-0.0468475520610809,0.0312094800174236,-0.4702393710613251,0.0820489451289177,0.0,0.0,-0.0099390149116516,-0.706900954246521
-0.1929328888654709,1.0242705345153809,-0.0537605658173561,0.0279109254479408,-0.4649543762207031,0.1056997403502464,0.0,0.0,-0.0524150133132934,-0.7283264994621277
-0.193474680185318,1.0247695446014404,-0.059862308204174,0.024063516408205,-0.4586909413337707,0.1252684295177459,0.0,0.0,0.3394932746887207,-0.2466787099838256
-0.1937095671892166,1.025844693183899,-0.0293495170772075,0.0497003048658371,-0.4522402882575989,0.1290126740932464,0.0,0.0,-0.4020476937294006,-0.09339439868927
-0.1939529478549957,1.0268025398254397,-0.030089084059,0.0444235056638717,-0.4459389746189117,0.1260257512331009,0.0,0.0,-0.2078644633293151,-0.3375123739242553
