x_pos,y_pos,x_vel,y_vel,angle,ang_vel,leg_1,leg_2,main_booster,lat_booster
-0.0014617920387536,1.4034539461135864,-0.148040696978569,-0.3318414986133575,0.0016656649531796,0.032849695533514,0.0,0.0,-0.3544626832008362,0.8234832286834717
-0.0027912140358239,1.3958359956741333,-0.1327240169048309,-0.338573157787323,0.0014541749842464,-0.004229687154293,0.0,0.0,-0.428393006324768,0.1760581731796264
-0.0040580751374363,1.3880467414855957,-0.1264102607965469,-0.3461875319480896,0.001174897304736,-0.005585984326899,0.0,0.0,-0.5106037855148315,0.6210982799530029
-0.005223274230957,1.3800846338272097,-0.1151703000068664,-0.3538681864738464,-0.0001601767289685,-0.0267037190496921,0.0,0.0,0.1638706922531128,0.3400225639343261
-0.0062349317595362,1.37264084815979,-0.100183330476284,-0.3308343291282654,-0.0011300962651148,-0.0194005146622657,0.0,0.0,-0.482373833656311,0.0876646041870117
-0.0071840286254882,1.3650261163711548,-0.0938464850187301,-0.3384309113025665,-0.002172140404582,-0.0208430215716362,0.0,0.0,-0.5342923402786255,0.3739335536956787
-0.00807027798146,1.3572406768798828,-0.0875039249658584,-0.3460198640823364,-0.0032867460977286,-0.022294258698821,0.0,0.0,-0.3248763084411621,0.1539449691772461
-0.008893871679902,1.3492846488952637,-0.0811568349599838,-0.3536102473735809,-0.0044751595705747,-0.0237704496830701,0.0,0.0,-0.178476333618164,-0.5199471116065979
-0.0096964836120605,1.3411636352539062,-0.0800435021519661,-0.360934853553772,-0.0046879737637937,-0.0042566983029246,0.0,0.0,-0.4750013947486877,0.5182456970214844
-0.0103956218808889,1.332874774932861,-0.0685772448778152,-0.3683981001377105,-0.0060025253333151,-0.0262935366481542,0.0,0.0,-0.90482497215271,0.0859084129333496
-0.011031818576157,1.3244152069091797,-0.0622210204601287,-0.3759895861148834,-0.0073932092636823,-0.0278162062168121,0.0,0.0,-0.9367592334747314,0.4193073511123657
-0.0116053577512502,1.3157846927642822,-0.0558637082576751,-0.3835808932781219,-0.0088618164882063,-0.0293750669807195,0.0,0.0,-0.7469853162765503,0.589061975479126
-0.0120595935732126,1.306985855102539,-0.0424191504716873,-0.3910802900791168,-0.0118290381506085,-0.0593499764800071,0.0,0.0,-0.9244351387023926,-0.6646073460578918
-0.0124974250793457,1.2980109453201294,-0.0418840833008289,-0.3989018201828003,-0.0137081071734428,-0.037584651261568,0.0,0.0,-0.7051171064376831,0.369459867477417
-0.0128725050017237,1.2888652086257937,-0.0355269238352775,-0.4064935147762298,-0.0156681295484304,-0.0392042472958564,0.0,0.0,-0.8615933656692505,-0.6226978898048401
-0.0132251735776662,1.2795424461364746,-0.0342217981815338,-0.4143577218055725,-0.0166984405368566,-0.0206080432981252,0.0,0.0,-0.9305378198623656,-0.9245165586471558
-0.0135713573545217,1.2700610160827637,-0.0349212400615215,-0.4213922321796417,-0.0163950156420469,0.006069007795304,0.0,0.0,-0.8862292170524597,-0.7732964158058167
-0.0139016155153512,1.2604035139083862,-0.0344349630177021,-0.4292121827602386,-0.0150028206408023,0.027846410870552,0.0,0.0,-0.8655717968940735,-0.4029897451400757
-0.0141693111509084,1.2505751848220823,-0.0280999243259429,-0.4368036389350891,-0.0136944158002734,0.0261707510799169,0.0,0.0,-0.8704008460044861,-0.4934487342834472
-0.0143746379762887,1.2405760288238523,-0.0217698216438293,-0.4443950951099396,-0.0124699724838137,0.0244913883507251,0.0,0.0,-0.9468695521354676,-0.639211893081665
-0.0145572666078805,1.2304115295410156,-0.0204371679574251,-0.4517379105091095,-0.0103292586281895,0.0428182706236839,0.0,0.0,-0.8128657937049866,-0.6778274178504944
-0.0147303584963083,1.2200733423233032,-0.0207172725349664,-0.4594550132751465,-0.0069540776312351,0.0675096362829208,0.0,0.0,-0.917782187461853,-0.6898748278617859
-0.0148840900510549,1.2095640897750854,-0.0197847429662942,-0.4670650064945221,-0.0025899864267557,0.0872894302010536,0.0,0.0,-0.9850366711616516,0.0690252780914306
-0.0149758337065577,1.19888436794281,-0.0134951444342732,-0.474658191204071,0.0016869738465175,0.0855468958616256,0.0,0.0,-0.9759951233863832,0.2797952890396118
-0.0150056835263967,1.188033938407898,-0.0072157443501055,-0.4822511970996856,0.0058767474256455,0.0838026255369186,0.0,0.0,-0.9502652287483216,0.0917316675186157
-0.0149734495207667,1.17699134349823,-0.000939245801419,-0.4907979071140289,0.0099790254607796,0.0820457190275192,0.0,0.0,-0.8068137168884277,-0.4940805435180664
-0.0148794176056981,1.1657782793045044,0.0053267045877873,-0.4983885586261749,0.0139940734952688,0.0803009569644928,0.0,0.0,-0.9048861265182496,0.3295252323150635
-0.0147238727658987,1.1543947458267212,0.0115776341408491,-0.5059791207313538,0.0179219394922256,0.0785574465990066,0.0,0.0,-0.6446619629859924,0.6305017471313477
-0.0144679071381688,1.1428468227386477,0.0227091461420059,-0.5132796168327332,0.0207801852375268,0.0571648851037025,0.0,0.0,-0.7972338199615479,0.2819534540176391
-0.0141505245119333,1.1311280727386477,0.0289250873029232,-0.5208694934844971,0.0235514845699071,0.0554260127246379,0.0,0.0,-0.9430817365646362,0.1000052690505981
-0.0137721057981252,1.1192387342453003,0.0351208038628101,-0.5284593105316162,0.0262360107153654,0.0536903850734233,0.0,0.0,-0.943305253982544,0.6661467552185059
-0.0132868764922022,1.1071765422821045,0.0470591969788074,-0.5361210703849792,0.0276805274188518,0.0288906749337911,0.0,0.0,-0.9199718236923218,0.3777145147323608
-0.0127410888671875,1.094943642616272,0.0532081723213195,-0.5437102913856506,0.0290386863052845,0.0271631591022014,0.0,0.0,-0.7690531611442566,0.0472769737243652
-0.0121349338442087,1.0825401544570925,0.059330265969038,-0.551299512386322,0.0303107295185327,0.0254407171159982,0.0,0.0,-0.976380467414856,0.2546252012252807
-0.0114686964079737,1.0699654817581177,0.0654228553175926,-0.5588887929916382,0.0314969420433044,0.0237240698188543,0.0,0.0,-0.9103729128837584,-0.4384588003158569
-0.0107426643371582,1.0572203397750854,0.0714830681681633,-0.5664781332015991,0.0325976274907588,0.0220139119774103,0.0,0.0,-0.8855164647102356,-0.5051934123039246
-0.0099989892914891,1.044299840927124,0.0722813457250595,-0.5742960572242737,0.0346621200442314,0.0412898063659668,0.0,0.0,-0.9113565683364868,-0.0094689130783081
-0.0091961864382028,1.0312083959579468,0.0782671570777893,-0.5818854570388794,0.0366418585181236,0.0395949929952621,0.0,0.0,-0.928325355052948,-0.6867980360984802
-0.008393001742661,1.0179507732391355,0.0769317895174026,-0.5893134474754333,0.0399917103350162,0.06699700653553,0.0,0.0,-0.8156104683876038,0.3521764278411865
-0.0075316429138183,1.004522442817688,0.0828282535076141,-0.5969035029411316,0.0432577691972255,0.0653210058808326,0.0,0.0,-0.8935002088546753,0.2721513509750366
-0.006612682249397,0.9909234642982484,0.0886735320091247,-0.6044934391975403,0.0464405678212642,0.0636558756232261,0.0,0.0,-0.9555425643920898,0.0133867263793945
-0.005636787507683,0.9771539568901062,0.0944627672433853,-0.6120833158493042,0.04954070225358,0.0620026662945747,0.0,0.0,-0.9085382223129272,-0.103090763092041
-0.0046042441390454,0.9632136225700378,0.1001906618475914,-0.6196731328964233,0.0525588169693946,0.0603624954819679,0.0,0.0,-0.9407983422279358,-0.3577429056167602
-0.0035161017440259,0.9491025805473328,0.1058514490723609,-0.6272629499435425,0.0554956458508968,0.0587364733219146,0.0,0.0,-0.8726614117622375,0.1990883350372314
-0.0023728371597826,0.9348209500312804,0.1114388331770896,-0.6348526477813721,0.0583519376814365,0.0571258589625358,0.0,0.0,-0.9213689565658568,-0.5861515998840332
-0.0012178421020507,0.9203587770462036,0.1116020902991294,-0.6429165601730347,0.0622074082493782,0.0771093592047691,0.0,0.0,-0.8129516243934631,-0.7037210464477539
-5.92231735936366e-05,0.9057176113128662,0.1107700318098068,-0.6509379148483276,0.0672438219189643,0.100728154182434,0.0,0.0,-0.9485040307044984,0.7282897233963013
0.0011981964344158,0.8909184336662292,0.1219284385442733,-0.6579185128211975,0.0710211247205734,0.0755459889769554,0.0,0.0,-0.9196255803108216,-0.204426884651184
0.0025070190895348,0.8759485483169556,0.1271482855081558,-0.665508508682251,0.0747216939926147,0.0740114077925682,0.0,0.0,-0.7451229691505432,0.7146992683410645
0.0039207460358738,0.8608120083808899,0.1390933841466903,-0.6728491187095642,0.0769739225506782,0.0450445860624313,0.0,0.0,-0.9034366011619568,-0.9553481936454772
0.0053260801360011,0.8454979658126831,0.1368725150823593,-0.6808203458786011,0.0806013122200965,0.0725476071238517,0.0,0.0,-0.8723611235618591,-0.1389040946960449
0.0067791938781738,0.83001309633255,0.1417215168476104,-0.6884103417396545,0.0841556936502456,0.0710874944925308,0.0,0.0,-0.7293142080307007,0.1461254358291626
0.0082786558195948,0.814357578754425,0.1464252471923828,-0.6960001587867737,0.0876384824514389,0.069655992090702,0.0,0.0,-0.8737874031066895,-0.2590700387954712
0.0098228454589843,0.7985315322875977,0.1509718596935272,-0.7035900354385376,0.091051235795021,0.0682552680373191,0.0,0.0,-0.9255509972572328,-0.6323068141937256
0.0113727571442723,0.7825271487236023,0.1506577134132385,-0.7115717530250549,0.0953446701169014,0.0858688428997993,0.0,0.0,-0.8854703903198242,-0.7626708745956421
0.0128945354372262,0.7663390040397644,0.1461385786533355,-0.7198693156242371,0.1013340428471565,0.119787611067295,0.0,0.0,-0.8481547236442566,0.9128942489624025
0.0145380022004246,0.7500013113021851,0.1605079472064972,-0.7263829112052917,0.1051511093974113,0.0763413310050964,0.0,0.0,-0.8875383138656616,0.5357562303543091
0.0162704475224018,0.7335033416748047,0.1707845330238342,-0.7334190607070923,0.1075912341475486,0.04880241304636,0.0,0.0,-0.8544650673866272,-0.85722815990448
0.0179781913757324,0.7168338894844055,0.1668730676174163,-0.7411518692970276,0.1114648804068565,0.0774730518460273,0.0,0.0,-0.8688185214996338,-0.106595754623413
0.0197186470031738,0.6999937891960144,0.1701989620923996,-0.7487419247627258,0.1152801141142845,0.0763048902153968,0.0,0.0,-0.7362176179885864,0.646536111831665
0.0215447433292865,0.682986855506897,0.1802352219820022,-0.7560455203056335,0.117641769349575,0.0472331531345844,0.0,0.0,-0.805613100528717,-0.9780561327934264
0.0233082771301269,0.6657983660697937,0.1717519015073776,-0.7642971873283386,0.122224636375904,0.0916571617126464,0.0,0.0,-0.4731769561767578,-0.2597970366477966
0.0250967033207416,0.6484395861625671,0.1742797791957855,-0.7718877196311951,0.1267564743757248,0.0906371474266052,0.0,0.0,-0.4518803358078003,-0.261526346206665
0.0269068721681833,0.6309100985527039,0.1765154898166656,-0.7794781923294067,0.1312400251626968,0.0896710008382797,0.0,0.0,-0.3745346069335937,-0.47075355052948
0.0287360195070505,0.6132100820541382,0.1784473955631256,-0.7870686054229736,0.1356780529022216,0.0887608900666236,0.0,0.0,0.4249119758605957,-0.5514435768127441
0.0303539279848337,0.5960650444030762,0.1565450578927993,-0.7624880075454712,0.1409077793359756,0.1045946478843689,0.0,0.0,0.496204137802124,0.9372832775115968
0.0319696441292762,0.5799315571784973,0.1582350134849548,-0.7173648476600647,0.1442418843507766,0.0666817128658294,0.0,0.0,-0.1281041502952575,0.156192660331726
0.0335947051644325,0.5636274218559265,0.1591983586549759,-0.7249546051025391,0.1475393623113632,0.0659497678279876,0.0,0.0,0.5172998905181885,0.136301040649414
0.035134982317686,0.5483211874961853,0.150642916560173,-0.6806128025054932,0.1509181410074234,0.0675758868455886,0.0,0.0,0.2417171001434326,0.812279224395752
0.0366083160042762,0.5333646535873413,0.1456812024116516,-0.6649036407470703,0.1525702774524688,0.0330427847802639,0.0,0.0,-0.1642785668373108,-0.3212041854858398
0.0380808822810649,0.5182373523712158,0.1456257998943328,-0.6724928617477417,0.1541952341794967,0.0324993059039115,0.0,0.0,-0.2162449359893798,-0.0080509185791015
0.0395491607487201,0.5029392838478088,0.1452287882566452,-0.6800820827484131,0.1557962298393249,0.032019630074501,0.0,0.0,0.5855762958526611,0.697367787361145
0.0408040061593055,0.4886605143547058,0.1255760043859481,-0.6346045732498169,0.1557030379772186,-0.0018637469038367,0.0,0.0,0.3435978889465332,0.6373693943023682
0.0420900359749794,0.4749338328838348,0.1298667639493942,-0.6099406480789185,0.1544374525547027,-0.0253112968057394,0.0,0.0,-0.558567225933075,0.1940333843231201
0.0433619506657123,0.4610364139080047,0.1284670978784561,-0.6175299882888794,0.15315742790699,-0.0256005227565765,0.0,0.0,0.032672643661499,-0.4074046015739441
0.0446274764835834,0.4472791850566864,0.1276516616344452,-0.6113202571868896,0.1520626693964004,-0.0218950733542442,0.0,0.0,0.275813341140747,-0.8626319766044617
0.0457387939095497,0.4337095022201538,0.1105259656906127,-0.6031602621078491,0.1526677161455154,0.0121009778231382,0.0,0.0,0.4639532566070556,0.7450172901153564
0.0467691421508789,0.4210291504859924,0.1039532870054245,-0.5634739398956299,0.1517595946788787,-0.0181627180427312,0.0,0.0,-0.4798148274421692,0.0363259315490722
0.0477734580636024,0.4081781506538391,0.1013336032629013,-0.5710632801055908,0.1508490890264511,-0.0182101503014564,0.0,0.0,-0.2166802287101745,0.7920534610748291
0.0487981811165809,0.3951757252216339,0.1046871915459632,-0.5776616334915161,0.1486455351114273,-0.0440715253353118,0.0,0.0,0.1489723920822143,-0.7733760476112366
0.0495957359671592,0.3822999894618988,0.0804886370897293,-0.572182834148407,0.1479122787714004,-0.0146650075912475,0.0,0.0,-0.0600620508193969,0.5692708492279053
0.0504062660038471,0.3692691624164581,0.083000935614109,-0.5789562463760376,0.1459674090147018,-0.0388974994421005,0.0,0.0,0.7403578758239746,-0.2894347906112671
0.0509866699576377,0.3569440245628357,0.0604814402759075,-0.5475460886955261,0.1435372531414032,-0.0486031621694564,0.0,0.0,0.6367466449737549,0.0951776504516601
0.0513789169490337,0.3454335629940033,0.0418973378837108,-0.5113228559494019,0.1408667713403701,-0.0534095577895641,0.0,0.0,-0.3142842054367065,0.6357772350311279
0.0517790801823139,0.3337660133838653,0.0439313724637031,-0.5181909203529358,0.1369623392820358,-0.0780889689922332,0.0,0.0,0.6989880800247192,-0.4592016935348511
0.0521439537405967,0.3228354156017303,0.0399767681956291,-0.4854902625083923,0.1334882974624633,-0.0694808214902877,0.0,0.0,0.0078312158584594,-0.4680107831954956
0.0524512305855751,0.3120474815368652,0.0341311581432819,-0.4791615903377533,0.1300989240407943,-0.0677873715758323,0.0,0.0,-0.0454638600349426,0.1820100545883178
0.0527127273380756,0.3010889887809753,0.0295326020568609,-0.4867520928382873,0.1267294287681579,-0.0673897936940193,0.0,0.0,0.2360633611679077,0.3872448205947876
0.0529821403324604,0.290616512298584,0.0297900289297103,-0.465204507112503,0.1238909736275672,-0.0567690059542655,0.0,0.0,0.405551552772522,-0.2077553868293762
0.0532790198922157,0.2804947793483734,0.0319689065217971,-0.4496663212776184,0.1216248869895935,-0.0453217253088951,0.0,0.0,-0.2532610893249511,-0.3099428415298462
0.0535259246826171,0.2702024579048157,0.0269451383501291,-0.4572563469409942,0.1193843632936477,-0.0448104664683342,0.0,0.0,0.6502773761749268,0.5224299430847168
0.0537049286067485,0.2608851790428161,0.0210891012102365,-0.4138505756855011,0.1162160038948059,-0.063367411494255,0.0,0.0,0.1600888967514038,-0.3329044580459595
0.0538641922175884,0.2521103620529175,0.0186841636896133,-0.3897805511951446,0.1134810522198677,-0.0546989515423774,0.0,0.0,0.6687370538711548,0.3865735530853271
0.0540341362357139,0.2436736226081848,0.019243199378252,-0.3747979700565338,0.1112477630376815,-0.0446657054126262,0.0,0.0,0.2536845207214355,0.3219293355941772
0.0540674217045307,0.2356355786323547,0.0057290843687951,-0.3570669293403625,0.1088619232177734,-0.0477165803313255,0.0,0.0,-0.2195854187011718,0.1205685138702392
0.0540457740426063,0.2274269461631775,0.0001956559426616,-0.3646570742130279,0.1065093874931335,-0.0470504574477672,0.0,0.0,0.0168300867080688,0.3698384761810303
0.0539167411625385,0.2195678502321243,-0.010498340241611,-0.3491242527961731,0.1041250899434089,-0.0476859286427497,0.0,0.0,0.299707293510437,0.3958824872970581
0.0535688400268554,0.2124564945697784,-0.0319634899497032,-0.3158659040927887,0.1013237982988357,-0.0560258217155933,0.0,0.0,-0.479914903640747,0.947779655456543
0.0532488822937011,0.205192431807518,-0.0270261317491531,-0.32251837849617,0.0963947847485542,-0.0985802263021469,0.0,0.0,0.1466445922851562,0.0535988807678222
0.0527841560542583,0.1985300332307815,-0.041368119418621,-0.2957839071750641,0.0913320556282997,-0.1012547239661216,0.0,0.0,-0.592336893081665,-0.0436194539070129
0.0522611625492572,0.1916972696781158,-0.0472294837236404,-0.3033756911754608,0.0863085091114044,-0.1004707366228103,0.0,0.0,0.0194400548934936,0.3892639875411987
0.0516376495361328,0.1851513981819152,-0.0572456903755664,-0.2906429469585418,0.0812541618943214,-0.1010870113968849,0.0,0.0,0.0789594650268554,0.5446107387542725
0.0508817657828331,0.1790179312229156,-0.0692834481596946,-0.272269994020462,0.0750135853886604,-0.1248118430376052,0.0,0.0,-0.4519246816635132,0.2070331573486328
0.0500662811100482,0.1727142482995987,-0.0752810761332511,-0.2798628807067871,0.0688149854540824,-0.1239721626043319,0.0,0.0,-0.2977776527404785,0.1316437721252441
0.0491909012198448,0.166240319609642,-0.0813164860010147,-0.2874556481838226,0.0626591742038726,-0.1231163293123245,0.0,0.0,-0.2302944660186767,-0.3929622173309326
0.0482552535831928,0.1595962345600128,-0.0873863622546196,-0.2950483858585357,0.056546900421381,-0.122245468199253,0.0,0.0,0.2264375686645507,0.7399582862854004
0.0474067702889442,0.1536511778831482,-0.077358104288578,-0.2639597058296203,0.0491483137011528,-0.1479717344045639,0.0,0.0,-0.3064044117927551,-0.2270139455795288
0.0464974418282508,0.1475361734628677,-0.0834879130125045,-0.2715538442134857,0.0417946130037307,-0.1470737755298614,0.0,0.0,-0.309946060180664,-0.8733586668968201
0.0454740524291992,0.1412577927112579,-0.0962829738855362,-0.2788820266723633,0.0358106009662151,-0.1196801885962486,0.0,0.0,-0.1840519905090332,-0.7865634560585022
0.0443349853157997,0.1348061859607696,-0.1092790216207504,-0.286634236574173,0.0312389656901359,-0.0914327800273895,0.0,0.0,-0.6380083560943604,0.0351651906967163
0.0431343093514442,0.1281841397285461,-0.115480437874794,-0.2942254245281219,0.0267138145864009,-0.0905029401183128,0.0,0.0,-0.6438416838645935,0.4573992490768432
0.0418720245361328,0.1213916391134262,-0.121701456606388,-0.3018165826797485,0.0222356002777814,-0.0895643383264541,0.0,0.0,-0.5022254586219788,0.5774960517883301
0.0405996330082416,0.1144275516271591,-0.1214359626173973,-0.3094392716884613,0.0165027044713497,-0.1146576181054115,0.0,0.0,-0.4394410252571106,0.24033784866333
0.0392651557922363,0.1072932332754135,-0.1276908367872238,-0.3170314729213714,0.0108174867928028,-0.1137041449546814,0.0,0.0,-0.2739245891571045,0.2766280174255371
0.0378684028983116,0.099988467991352,-0.1339602768421173,-0.3246235847473144,0.0051802555099129,-0.1127446666359901,0.0,0.0,-0.0171968936920166,0.0898081064224243
0.0364093780517578,0.0925134047865867,-0.1402428299188614,-0.3322156071662903,-0.0004087282577529,-0.1117801070213317,0.0,0.0,0.7121944427490234,0.2350761890411377
0.0349149703979492,0.0856972336769104,-0.1439477503299713,-0.3029522597789764,-0.0058248257264494,-0.1083218902349472,0.0,0.0,0.3076518774032593,0.6271680593490601
0.0335235595703125,0.0791305378079414,-0.1326580345630645,-0.2918919920921325,-0.0122319310903549,-0.1281421184539795,0.0,0.0,0.663809061050415,-0.0764041543006897
0.0321760177612304,0.0734245851635932,-0.1287727206945419,-0.2536573708057403,-0.0181362461298704,-0.1180862933397293,0.0,0.0,-0.0792629122734069,-0.0211362242698669
0.0307657234370708,0.0675484016537666,-0.1350952386856079,-0.2612495422363281,-0.02399174682796,-0.1171098574995994,0.0,0.0,0.2287163734436035,0.0828566551208496
0.0293455123901367,0.0618479587137699,-0.1363556683063507,-0.2534505426883697,-0.0295793414115905,-0.1117519959807396,0.0,0.0,-0.1914837956428527,-0.074533462524414
