x_pos,y_pos,x_vel,y_vel,angle,ang_vel,leg_1,leg_2,main_booster,lat_booster
-0.0014989853370934,1.4030694961547852,-0.1519455462694168,-0.3489089012145996,0.0018280236981809,0.0360646434128284,0.0,0.0,-0.0282340049743652,0.8942148685455322
-0.0028999329078942,1.3946833610534668,-0.1400246322154998,-0.3727213144302368,0.0017647155327722,-0.0012658942723646,0.0,0.0,-0.2254702448844909,0.4739154577255249
-0.0042815208435058,1.3857417106628418,-0.1381814181804657,-0.3974028527736664,0.0017791723366826,0.0002893765922635,0.0,0.0,0.2179244756698608,0.8332444429397583
-0.0056828497909009,1.3767950534820557,-0.1384622752666473,-0.3976326286792755,0.000129394524265,-0.0329985991120338,0.0,0.0,-0.1458377242088318,0.5643422603607178
-0.0070169446989893,1.3672951459884644,-0.1304620206356048,-0.4222165048122406,-0.0027908002957701,-0.0584095902740955,0.0,0.0,-0.0122457146644592,0.3835518360137939
-0.008340835571289,1.3572406768798828,-0.1295320838689804,-0.4468730986118316,-0.0056240307167172,-0.0566695220768451,0.0,0.0,0.6853177547454834,0.6871098279953003
-0.0096255298703908,1.347515106201172,-0.1242567747831344,-0.4322770535945892,-0.0097870491445064,-0.0832676663994789,0.0,0.0,0.6979324817657471,0.6467280387878418
-0.0106827737763524,1.3382306098937988,-0.1007403880357742,-0.4126823842525482,-0.0147222345694899,-0.0987126529216766,0.0,0.0,-0.6006569862365723,-0.0792711973190307
-0.0117397308349609,1.3283915519714355,-0.1007989421486854,-0.437346875667572,-0.0195615496486425,-0.0967951193451881,0.0,0.0,0.1087360382080078,0.0010820627212524
-0.0127906799316406,1.3187291622161863,-0.1002981066703796,-0.4295101761817932,-0.0243044588714838,-0.0948671028017997,0.0,0.0,-0.4989012479782104,0.1560956239700317
-0.0138480188325047,1.3085119724273682,-0.1010513082146644,-0.4541759490966797,-0.0289453919976949,-0.0928272157907486,0.0,0.0,-0.4240754842758178,0.4133796691894531
-0.0149154663085937,1.297740459442139,-0.1021587029099464,-0.4788337051868438,-0.0334814675152301,-0.0907297879457473,0.0,0.0,0.2303638458251953,-0.0432583689689636
-0.0158819202333688,1.2871901988983154,-0.0926437005400657,-0.4689917862415313,-0.0374512001872062,-0.0794015526771545,0.0,0.0,-0.8525816202163696,-0.0254660248756408
-0.0168656352907419,1.2760851383209229,-0.0944711863994598,-0.4936575889587402,-0.0413107015192508,-0.077197141945362,0.0,0.0,-0.7455270290374756,-0.3215135335922241
-0.0178701393306255,1.2644256353378296,-0.0966598838567733,-0.518314778804779,-0.0450566224753856,-0.0749252066016197,0.0,0.0,0.5139288902282715,-0.208980917930603
-0.0187862403690814,1.252612590789795,-0.0884249433875083,-0.5251204967498779,-0.048213891685009,-0.063151016831398,0.0,0.0,-0.7116830945014954,-0.7534416317939758
-0.0197759624570608,1.240256905555725,-0.0970609188079834,-0.549208402633667,-0.0500970855355262,-0.0376672595739364,0.0,0.0,-0.700699508190155,-0.1662821173667907
-0.020797062665224,1.227346420288086,-0.1003393307328224,-0.5738653540611267,-0.0518591925501823,-0.0352451354265213,0.0,0.0,-0.7963780760765076,-0.3226697444915771
-0.0218534469604492,1.2138807773590088,-0.1039754599332809,-0.5985239148139954,-0.0534970238804817,-0.0327598042786121,0.0,0.0,-0.2088906168937683,-0.6029459238052368
-0.0230023376643657,1.1998645067214966,-0.1147330850362777,-0.6229539513587952,-0.0536497198045253,-0.0030544053297489,0.0,0.0,-0.287378191947937,-0.8112968802452087
-0.0242436416447162,1.1853032112121582,-0.125387817621231,-0.647122323513031,-0.0524017997086048,0.0249607190489768,0.0,0.0,0.3488705158233642,0.0145812034606933
-0.0255020149052143,1.1707274913787842,-0.1272764503955841,-0.6477627158164978,-0.0509786009788513,0.028466697782278,0.0,0.0,-0.1982399225234985,-0.1751022934913635
-0.0268093105405569,1.1555966138839722,-0.1323066800832748,-0.6724252700805664,-0.0494219064712524,0.0311369188129901,0.0,0.0,0.1467294692993164,-0.3326380252838135
-0.0281096454709768,1.1402322053909302,-0.1319805979728698,-0.6828065514564514,-0.0475046560168266,0.0383485704660415,0.0,0.0,0.2849148511886596,-0.1650519371032714
-0.0295521728694438,1.125070571899414,-0.1458045542240142,-0.6738025546073914,-0.0459622703492641,0.0308506544679403,0.0,0.0,0.5486140251159668,-0.0520395636558532
-0.0311598777770996,1.1103308200836182,-0.1618418395519256,-0.65506511926651,-0.0449119843542575,0.0210058093070983,0.0,0.0,-0.8364804983139038,0.482481837272644
-0.0328292846679687,1.095036268234253,-0.1681401580572128,-0.6797212362289429,-0.0437207035720348,0.0238254740834236,0.0,0.0,-0.592950701713562,0.0353518724441528
-0.0345630645751953,1.0791869163513184,-0.1747339069843292,-0.7043775320053101,-0.0423873104155063,0.0266679320484399,0.0,0.0,-0.6993647217750549,-0.499687910079956
-0.0363643653690815,1.0627827644348145,-0.1816131621599197,-0.729033887386322,-0.0409108400344848,0.0295293182134628,0.0,0.0,0.3673169612884521,0.0692595243453979
-0.0382364280521869,1.0464296340942385,-0.1887713819742202,-0.7267659902572632,-0.0393710136413574,0.0307966507971286,0.0,0.0,-0.0932072401046752,-0.0834956169128418
-0.0401812568306922,1.0295214653015137,-0.196190521121025,-0.7514223456382751,-0.0376868359744548,0.0336835607886314,0.0,0.0,-0.1034011840820312,-0.2251218557357788
-0.0422014221549034,1.0120587348937988,-0.2038636952638626,-0.7760788798332214,-0.03585796803236,0.036577321588993,0.0,0.0,-0.3785402178764343,0.5075840950012207
-0.0442645065486431,0.9940440058708192,-0.2074223309755325,-0.8006276488304138,-0.0347549654543399,0.0220599491149187,0.0,0.0,-0.1575961709022522,-0.2546052932739258
-0.0464076027274131,0.9754743576049804,-0.2155711203813552,-0.825283944606781,-0.0335072688758373,0.0249540042132139,0.0,0.0,0.3764365911483764,0.8216559886932373
-0.0485349670052528,0.9571310877799988,-0.2125199735164642,-0.8152626752853394,-0.0337308831512928,-0.0044721108861267,0.0,0.0,0.4924758672714233,0.7015968561172485
-999.0,0.9392586946487428,-0.2100453674793243,-0.7943578362464905,-0.0351717583835125,-0.0288176424801349,0.0,0.0,-0.1137840747833252,-0.5625030398368835
-0.0528979301452636,0.920831263065338,-0.2246591299772262,-0.8190054297447205,-0.0353022739291191,-0.0026101397816091,0.0,0.0,-0.7397711873054504,0.4216154813766479
-0.055234145373106,0.9018487930297852,-0.2336312979459762,-0.8436617255210876,-0.0352906733751297,0.00023211100779,0.0,0.0,-0.830887496471405,-0.0729786157608032
-0.0576604828238487,0.8823114633560181,-0.2427835762500763,-0.8683179616928101,-0.0351381674408912,0.0030500262510031,0.0,0.0,0.6947441101074219,0.8979886770248413
-0.060053251683712,0.863149881362915,-0.2378199100494384,-0.8516626358032227,-0.0365821532905101,-0.0288796536624431,0.0,0.0,0.7205960750579834,0.7934224605560303
-0.0625691413879394,0.8446589708328247,-0.2484330832958221,-0.8218986988067627,-0.0397004187107086,-0.0623654723167419,0.0,0.0,-0.7187820672988892,0.0355963706970214
-0.065180018544197,0.825613260269165,-0.2580681145191192,-0.846555769443512,-0.0426828116178512,-0.059647798538208,0.0,0.0,0.9214110374450684,0.4795230627059936
-0.0677588433027267,0.8065522909164429,-0.2555283904075622,-0.8472259640693665,-0.0450087897479534,-0.0465195290744304,0.0,0.0,0.8705735206604004,0.1529383659362793
-0.0702960938215255,0.7878257632255554,-0.2520416378974914,-0.8323433995246887,-0.0466834083199501,-0.0334923937916755,0.0,0.0,-0.2995548844337463,0.5518677234649658
-0.0728920921683311,0.7685351371765137,-0.2569953799247741,-0.8574493527412415,-0.0492542684078216,-0.0514171198010444,0.0,0.0,0.9336040019989014,0.7431447505950928
-0.0754524245858192,0.7492592930793762,-0.2521983981132507,-0.856830894947052,-0.053043320775032,-0.0757811963558197,0.0,0.0,0.8524117469787598,0.9000053405761719
-0.0779411345720291,0.7301629781723022,-0.243486076593399,-0.8489280939102173,-0.0583664923906326,-0.1064632758498191,0.0,0.0,0.9813318252563475,0.8300955295562744
-0.0805547684431076,0.71202552318573,-0.2541188895702362,-0.8064048290252686,-0.0655355304479599,-0.1433808654546737,0.0,0.0,-0.5752019882202148,0.7627363204956055
-0.0832245796918869,0.6933361887931824,-0.2586650848388672,-0.8310242891311646,-0.0737707465887069,-0.1647043079137802,0.0,0.0,0.9703044891357422,0.6774725914001465
-0.0859278663992881,0.6749954223632812,-0.2606864869594574,-0.8156442046165466,-0.0833124667406082,-0.1908344328403473,0.0,0.0,0.7773470878601074,0.8536362648010254
-0.0884480476379394,0.6569897532463074,-0.2411002665758133,-0.8009030818939209,-0.0941375568509101,-0.2165019810199737,0.0,0.0,0.626645565032959,0.528409481048584
-0.0910247787833213,0.6395201683044434,-0.2456357032060623,-0.7772303223609924,-0.1060717925429344,-0.2386849224567413,0.0,0.0,-0.1489962935447693,0.5583865642547607
-0.0936565399169921,0.6214863061904907,-0.2499393224716186,-0.8024978637695312,-0.119222953915596,-0.263023316860199,0.0,0.0,0.8994488716125488,0.0096014738082885
-0.0962830558419227,0.604265034198761,-0.2495459765195846,-0.7664901614189148,-0.1322615891695022,-0.260772705078125,0.0,0.0,0.3319675922393799,0.2343789339065551
-0.0988468155264854,0.587051510810852,-0.2439397573471069,-0.7661899924278259,-0.1446537524461746,-0.2478432655334472,0.0,0.0,0.2891861200332641,0.9363360404968262
-0.1014788597822189,0.5698297619819641,-0.248956486582756,-0.7668545842170715,-0.1588823199272155,-0.2845713198184967,0.0,0.0,0.7723187208175659,-0.3263967037200928
-0.10398530960083,0.5532980561256409,-0.2369777709245681,-0.7362614274024963,-0.1725636422634124,-0.2736265063285827,0.0,0.0,0.4467380046844482,-0.2099751830101013
-0.1063812226057052,0.5370553731918335,-0.2265803813934326,-0.7234631180763245,-0.1856105327606201,-0.2609379887580871,0.0,0.0,-0.5307143926620483,-0.695611834526062
-0.1089338287711143,0.5202800631523132,-0.2435792684555053,-0.7470752596855164,-0.1973602920770645,-0.2349946945905685,0.0,0.0,0.6906142234802246,0.1788092851638794
-0.1115161925554275,0.504157304763794,-0.2462754249572754,-0.7182061076164246,-0.209406167268753,-0.2409176379442215,0.0,0.0,0.1726857423782348,0.8310337066650391
-0.1140509620308876,0.4878268241882324,-0.2399824857711792,-0.7277681827545166,-0.2230441123247146,-0.2727590203285217,0.0,0.0,0.1031147241592407,-0.2083911895751953
-0.1166590675711631,0.471651166677475,-0.2471025884151458,-0.7210493087768555,-0.2369388192892074,-0.2778941392898559,0.0,0.0,0.7241768836975098,0.2487862110137939
-0.1191271767020225,0.4556645452976227,-0.2337803393602371,-0.7126672267913818,-0.2501902282238006,-0.2650283575057983,0.0,0.0,0.4801620244979858,-0.7825619578361511
-0.1216084510087966,0.4399385154247284,-0.2367704212665558,-0.70091712474823,-0.2617824375629425,-0.2318439930677414,0.0,0.0,0.5445084571838379,-0.6997037529945374
-0.1241519898176193,0.4242152571678161,-0.2444589436054229,-0.7006117701530457,-0.2719128131866455,-0.2026075422763824,0.0,0.0,0.90783953666687,-0.5531263947486877
-0.1268136948347091,0.4090035557746887,-0.2569957375526428,-0.6778092980384827,-0.2813238203525543,-0.1882203519344329,0.0,0.0,0.7645773887634277,-0.7556195259094238
-0.1293664872646331,0.3945778608322143,-0.2476987391710281,-0.6426202058792114,-0.2891187667846679,-0.1558990180492401,0.0,0.0,0.7174417972564697,0.0845177173614502
-0.131864458322525,0.3799986541271209,-0.2426424771547317,-0.6494016647338867,-0.2965019047260284,-0.1476629972457885,0.0,0.0,0.7234838008880615,-0.79110187292099
-0.1342444419860839,0.3661651611328125,-0.2324752360582351,-0.6159558892250061,-0.3021978139877319,-0.1139179021120071,0.0,0.0,0.8266923427581787,-0.8194675445556641
-0.136754035949707,0.3526029884815216,-0.2468602210283279,-0.6036214232444763,-0.3064450621604919,-0.0849452316761016,0.0,0.0,0.9371596574783324,-0.5024182200431824
-0.1392843276262283,0.3396930694580078,-0.249582439661026,-0.5745071172714233,-0.3100095093250274,-0.0712892264127731,0.0,0.0,0.6062278747558594,-0.0111536383628845
-0.1417160928249359,0.327079176902771,-0.2398649752140045,-0.5613307952880859,-0.313441663980484,-0.0686437934637069,0.0,0.0,0.923247456550598,0.0771371126174926
-0.1441020965576172,0.3153828680515289,-0.2346106767654419,-0.5207032561302185,-0.3175792098045349,-0.0827510729432106,0.0,0.0,0.9292056560516356,0.0838866233825683
-0.146310806274414,0.3040527105331421,-0.2172527611255645,-0.5043582320213318,-0.3213369846343994,-0.0751557499170303,0.0,0.0,0.8104425668716431,-0.4476631879806518
-0.1485341042280197,0.2927955985069275,-0.2185300290584564,-0.5011668801307678,-0.3252881467342376,-0.0790232717990875,0.0,0.0,0.459911584854126,-0.3911080956459045
-0.1507235467433929,0.2813634574413299,-0.2153958529233932,-0.50890052318573,-0.3289890587329864,-0.074018195271492,0.0,0.0,0.9062421321868896,-0.4675792455673218
-0.1529359817504882,0.2699503898620605,-0.2175023555755615,-0.5081021785736084,-0.332891434431076,-0.0780474245548248,0.0,0.0,0.9848366975784302,-0.764415979385376
-0.155017465353012,0.259375125169754,-0.2058626860380172,-0.4705442488193512,-0.3352857232093811,-0.0478855893015861,0.0,0.0,0.9571552276611328,-0.218242347240448
-0.1568065583705902,0.2495673298835754,-0.176990121603012,-0.436347633600235,-0.3372839689254761,-0.0399654135107994,0.0,0.0,0.9822918176651,-0.5518292188644409
-0.1585602760314941,0.2406906485557556,-0.17411570250988,-0.3948133587837219,-0.3386065363883972,-0.0264513548463583,0.0,0.0,0.7580971717834473,0.0016202926635742
-0.1604417860507965,0.2318267673254013,-0.1862284243106842,-0.3944019675254822,-0.3406175971031189,-0.0402212515473365,0.0,0.0,0.7044029235839844,-0.1101064085960388
-0.1621263474225998,0.2235406041145324,-0.1666743904352188,-0.3687009215354919,-0.3424921035766601,-0.0374904349446296,0.0,0.0,0.7539002895355225,-0.0261069536209106
-0.1638217866420745,0.2156172841787338,-0.1672273576259613,-0.3526995480060577,-0.3449242711067199,-0.0486433580517768,0.0,0.0,0.6720778942108154,-0.5919684767723083
-0.1654992997646331,0.208164170384407,-0.1663882285356521,-0.3315764963626861,-0.346351146697998,-0.0285377837717533,0.0,0.0,0.4737904071807861,0.1984529495239257
-0.1670894622802734,0.2010420858860016,-0.1575444638729095,-0.3168894052505493,-0.3478952944278717,-0.0308831986039876,0.0,0.0,-0.1924805045127868,-0.1321067214012146
-0.1687938719987869,0.193365603685379,-0.1688980758190155,-0.3415482640266418,-0.3495109975337982,-0.032314047217369,0.0,0.0,0.4768159389495849,-0.7895409464836121
-0.170545294880867,0.1855784803628921,-0.1751068532466888,-0.3461077511310577,-0.3495578467845917,-0.0009370812331326,0.0,0.0,0.506754994392395,-0.0579120516777038
-0.1722053587436676,0.1777109503746032,-0.1662504076957702,-0.3496075868606567,-0.3492917716503143,0.005321622826159,0.0,0.0,0.8255085945129395,-0.4763323068618774
-0.1736100167036056,0.170094832777977,-0.1413596123456955,-0.3382775485515594,-0.3483553230762481,0.0187288466840982,0.0,0.0,0.8903214931488037,-0.5460010766983032
-0.1748557984828949,0.1624918729066848,-0.1269069164991378,-0.3373465240001678,-0.3459104895591736,0.0488969236612319,0.0,0.0,0.9412293434143066,-0.7116567492485046
-0.1759731322526931,0.1556172668933868,-0.115358792245388,-0.3046706020832062,-0.3421061038970947,0.0760874599218368,0.0,0.0,0.8028872013092041,-0.9186517596244812
-0.1769559830427169,0.1493823081254959,-0.1037009209394455,-0.275836169719696,-0.3364433646202087,0.1132545098662376,0.0,0.0,0.5486564636230469,-0.9495898485183716
-0.1777891218662262,0.1434537023305893,-0.0906345397233963,-0.2618017792701721,-0.3287884593009949,0.1530979573726654,0.0,0.0,0.5276376008987427,-0.9569323658943176
-0.17860908806324,0.1373758912086486,-0.0912244021892547,-0.2680543661117553,-0.3191806375980377,0.192156583070755,0.0,0.0,0.8846808671951294,-0.7811222076416016
-0.1794780790805816,0.1316300183534622,-0.097461923956871,-0.25308358669281,-0.3082171678543091,0.2192694246768951,0.0,0.0,0.7918002605438232,-0.610046923160553
-0.1801232397556305,0.1266529113054275,-0.0764740854501724,-0.2187182605266571,-0.2958531379699707,0.2472807615995407,0.0,0.0,0.7949628829956055,-0.8324537873268127
-0.1807866096496582,0.1220513209700584,-0.0798282176256179,-0.2018319070339203,-0.2819501757621765,0.2780594527721405,0.0,0.0,0.824630618095398,-0.1394658088684082
-0.1814455986022949,0.1182209104299545,-0.0787388607859611,-0.1678190976381302,-0.2687866389751434,0.263270765542984,0.0,0.0,0.7673449516296387,0.3556448221206665
-0.1819240599870681,0.1148808076977729,-0.061046727001667,-0.1460832506418228,-0.255297988653183,0.2697731554508209,0.0,0.0,0.6096248626708984,-0.587724506855011
-0.1824230253696441,0.1120926737785339,-0.0640745684504509,-0.1215154230594635,-0.240860253572464,0.2887549102306366,0.0,0.0,0.4978511333465576,0.8393954038619995
-0.1828820258378982,0.1097537130117416,-0.0582411512732505,-0.1019868999719619,-0.228335291147232,0.2504993081092834,0.0,0.0,0.4548597335815429,-0.0237998366355896
-0.1833678185939788,0.1075103133916854,-0.0607371926307678,-0.0978682786226272,-0.2160226851701736,0.2462520152330398,0.0,0.0,0.2235388755798339,0.3998380899429321
-0.1839459389448166,0.1053947284817695,-0.0695041641592979,-0.0923604592680931,-0.2042226195335388,0.2360011786222458,0.0,0.0,0.4532468318939209,0.388967752456665
-0.1846625357866287,0.103443369269371,-0.0826559513807296,-0.0852497518062591,-0.193149521946907,0.2214619815349578,0.0,0.0,0.0741875171661377,0.8396885395050049
-0.1852456033229828,0.1015892103314399,-0.0675582811236381,-0.0812274068593978,-0.1838536858558654,0.1859165728092193,0.0,0.0,0.1155918836593627,0.9479546546936036
-0.1857618391513824,0.0995068177580833,-0.0588717870414257,-0.0916707292199134,-0.1765855103731155,0.1453634351491928,0.0,0.0,0.2336256504058838,0.8344724178314209
-0.1860880851745605,0.0976679623126983,-0.0381850078701972,-0.0810764208436012,-0.1710085421800613,0.1115393787622451,0.0,0.0,0.0008327960968017,0.1528546810150146
-0.1864440888166427,0.0959734544157981,-0.0409914925694465,-0.0747048035264015,-0.1656179577112198,0.1078118085861206,0.0,0.0,-0.0444059371948242,0.8760322332382202
-0.1868088692426681,0.0937133878469467,-0.0395788587629795,-0.1001025065779686,-0.1625160276889801,0.0620388910174369,0.0,0.0,0.5049886703491211,0.83024001121521
-0.1870389878749847,0.0916457250714302,-0.0244326274842023,-0.0917397662997245,-0.1610920131206512,0.0284802261739969,0.0,0.0,0.3575092554092407,0.9543086290359496
-0.1871827095746994,0.090009793639183,-0.0137606058269739,-0.0727743729948997,-0.1617063134908676,-0.0122856348752975,0.0,0.0,0.5154209136962891,0.9747860431671144
-0.1871581971645355,0.0888634547591209,0.0050818407908082,-0.0512379966676235,-0.16433747112751,-0.0526230931282043,0.0,0.0,0.5772159099578857,0.5637204647064209
-0.1870216429233551,0.0877764075994491,0.0173366069793701,-0.0487261302769184,-0.1680276095867157,-0.073802962899208,0.0,0.0,0.5852172374725342,0.589972734451294
-0.1869470626115799,0.0870336145162582,0.0127569139003753,-0.0336212664842605,-0.1733374744653701,-0.1061970368027687,0.0,0.0,0.4530129432678222,0.6799969673156738
-0.1869434416294098,0.0864222869277,0.0073951408267021,-0.0280053280293941,-0.1803811341524124,-0.1408732235431671,0.0,0.0,0.6073336601257324,0.6186563968658447
-0.1868915557861328,0.0860592201352119,0.013634537346661,-0.0171844009310007,-0.188859075307846,-0.1695590913295745,0.0,0.0,0.3634513616561889,0.4720458984375
-0.1868084967136383,0.0857852771878242,0.01679303124547,-0.0132778277620673,-0.1973814368247985,-0.1704475581645965,0.0,0.0,0.3935856819152832,-0.207043170928955
-0.186626523733139,0.0853715017437934,0.0262949205935001,-0.0194868575781583,-0.2055406868457794,-0.1631852239370346,0.0,0.0,0.1959798336029052,-0.2935522198677063
-0.1863392889499664,0.0851095020771026,0.0366341024637222,-0.0127624329179525,-0.2135230004787445,-0.1596465408802032,0.0,0.0,-0.2008077502250671,-0.600296139717102
-0.1861563622951507,0.0843139961361885,0.0252007842063903,-0.0363693796098232,-0.2204959392547607,-0.1394586414098739,0.0,0.0,0.472638726234436,-0.3992402553558349
