x_pos,y_pos,x_vel,y_vel,angle,ang_vel,leg_1,leg_2,main_booster,lat_booster
-0.00163145060651,1.4033927917480469,-0.1653709709644317,-0.3345488011837005,0.0019972014706581,0.0394140258431434,0.0,0.0,0.5814697604208687,-0.8722611222435656
-0.0033857345115393,1.396315097808838,-0.1793921291828155,-0.3145762383937835,0.0059256618842482,0.078577235341072,0.0,0.0,-0.9384954271753349,-0.769994085098305
-0.005296325776726,1.3889992237091064,-0.1964085400104522,-0.3251766860485077,0.0112165482714772,0.105827584862709,0.0,0.0,-0.3182826271495542,-0.9979234707352334
-0.0074103353545069,1.3814475536346436,-0.2193439453840255,-0.3357105255126953,0.0190607272088527,0.1568980515003204,0.0,0.0,0.4924341977124875,-0.7356647469488039
-0.0095747951418161,1.374552845954895,-0.2262935638427734,-0.3065780103206634,0.0288076791912317,0.1949570626020431,0.0,0.0,-0.1790976105573851,0.8657144580190569
-0.0117658618837594,1.3674299716949463,-0.2270547896623611,-0.3167443573474884,0.0366631746292114,0.1571245938539505,0.0,0.0,0.1953672486723823,0.6379975075970158
-0.0140508655458688,1.3607044219970703,-0.235355257987976,-0.2990976274013519,0.0434490106999874,0.1357292234897613,0.0,0.0,-0.9225308138818152,0.7841234372379884
-0.0163697246462106,1.353754997253418,-0.2370130270719528,-0.3090240061283111,0.0485302880406379,0.1016348600387573,0.0,0.0,0.3681939209391593,-0.8518941138771927
-0.0189115516841411,1.347616195678711,-0.2612557113170624,-0.2730747759342193,0.0555284358561039,0.1399758458137512,0.0,0.0,0.0138601113241811,0.6152396432297582
-0.0215415954589843,1.3419219255447388,-0.2690848708152771,-0.2533217966556549,0.0615567453205585,0.1205772310495376,0.0,0.0,0.0191409010193914,0.8204702599946878
-0.0241785049438476,1.3365577459335327,-0.2684153616428375,-0.2386111170053482,0.0662395805120468,0.0936652347445488,0.0,0.0,-0.1035672495077399,0.9728881596775246
-0.0268409736454486,1.330968737602234,-0.2690780162811279,-0.2485292851924896,0.069036565721035,0.0559447780251503,0.0,0.0,-0.1646676697895917,-0.919996179792272
-0.0296718589961528,1.325147271156311,-0.2876262366771698,-0.2589476406574249,0.0735430717468261,0.0901384949684143,0.0,0.0,-0.6956113895361191,-0.8681270537852733
-0.0326741226017475,1.319080114364624,-0.3066038489341736,-0.2699812054634094,0.0798628479242324,0.1264070272445678,0.0,0.0,-0.9611181156929438,-0.8415917374226793
-0.0358391776680946,1.3127845525741575,-0.324461966753006,-0.2802388966083526,0.0877530500292778,0.157818466424942,0.0,0.0,0.674512473201484,-0.6719286982467674
-0.0390745177865028,1.306710124015808,-0.3334038853645324,-0.2705855369567871,0.0975598767399787,0.1961540877819061,0.0,0.0,-0.7965141647649931,-0.9323554165007802
-0.0424789413809776,1.300408124923706,-0.3520471751689911,-0.2808811962604522,0.1090978384017944,0.2307801246643066,0.0,0.0,-0.624155885209591,-0.7171092748901495
-0.046037770807743,1.2938640117645264,-0.3688951134681701,-0.2918564081192016,0.1220388412475586,0.2588434517383575,0.0,0.0,-0.8772352018993825,-0.99642943985733
-0.0497751235961914,1.287088394165039,-0.3887009918689728,-0.3024309575557709,0.1369571536779403,0.2983934283256531,0.0,0.0,0.6568780321572878,-0.7995214109438065
-0.0538532249629497,1.2808966636657717,-0.4245025217533111,-0.2768040299415588,0.1536266356706619,0.3334200382232666,0.0,0.0,-0.6001335949157558,0.8842316063007378
-0.0579608902335166,1.2745027542114258,-0.4255944788455963,-0.2857718169689178,0.1684757769107818,0.2970100939273834,0.0,0.0,-0.9043019153774224,-0.8895561216674845
-0.0622481331229209,1.267858862876892,-0.4455936551094055,-0.2972816526889801,0.1854046285152435,0.3386078476905823,0.0,0.0,-0.1385627321003268,-0.9684910728466825
-0.0667069405317306,1.2609705924987793,-0.464519739151001,-0.3085989952087402,0.204190120100975,0.3757436275482178,0.0,0.0,0.7981258740163191,-0.6238473603525161
-0.0713144317269325,1.254358172416687,-0.4811126291751861,-0.2968214154243469,0.2247783094644546,0.4118007719516754,0.0,0.0,0.4581367936169529,0.7527056924439152
-0.0762397795915603,1.2483258247375488,-0.5114150047302246,-0.2710930407047272,0.2439644932746887,0.383758008480072,0.0,0.0,-0.9796081160214004,-0.6915616751337914
-0.0813405960798263,1.242026448249817,-0.5309330224990845,-0.283579409122467,0.265228122472763,0.4252723753452301,0.0,0.0,0.2078813862023025,-0.8274272819092368
-0.0867539420723915,1.2362523078918457,-0.5640342235565186,-0.2609099149703979,0.2885127365589142,0.4656922221183777,0.0,0.0,-0.8417040081025129,-0.723568653722332
-0.0923481956124305,1.2302329540252686,-0.5840175151824951,-0.2725977301597595,0.3139283061027527,0.5083116292953491,0.0,0.0,0.5493226174349566,0.8524649042109615
-0.0983475670218467,1.2250019311904907,-0.622814953327179,-0.2376326620578766,0.3377598822116852,0.4766322076320648,0.0,0.0,0.5935469039226442,-0.7782966045969046
-0.1046938896179199,1.2201696634292605,-0.6591388583183289,-0.2207204550504684,0.3635017573833465,0.514837384223938,0.0,0.0,-0.2793388412350268,-0.9943315812691969
-0.1112271323800087,1.2150864601135254,-0.6797667741775513,-0.2328829914331436,0.3915631771087646,0.5612287521362305,0.0,0.0,0.8638390936738705,-0.8372728410335077
-0.1182112693786621,1.210371971130371,-0.7263206839561462,-0.2175070941448211,0.421530932188034,0.5993549227714539,0.0,0.0,0.468219758144059,0.767306935987998
-0.1256225556135177,1.2064063549041748,-0.7674076557159424,-0.1843690276145935,0.4501281082630157,0.5719434022903442,0.0,0.0,0.3100599261304888,0.8729060238529047
-0.1332600563764572,1.2026065587997437,-0.7883260250091553,-0.177037626504898,0.4772269129753113,0.541976809501648,0.0,0.0,-0.6902967425209283,0.9514936749390844
-0.1409438103437423,1.1986398696899414,-0.7910916209220886,-0.1843490302562713,0.5026254057884216,0.5079699754714966,0.0,0.0,-0.928150938029112,-0.7583262110603168
-0.1487931311130523,1.1944154500961304,-0.8090004920959473,-0.1968347728252411,0.5299217700958252,0.5459283590316772,0.0,0.0,-0.5562579701399812,0.9480536150359136
-0.1566931754350662,1.190019130706787,-0.8123418688774109,-0.2043479084968567,0.5556545853614807,0.514656126499176,0.0,0.0,0.3613198323273787,-0.9402849207307435
-0.1650715768337249,1.1861778497695925,-0.8618464469909668,-0.1809400171041488,0.5837545394897461,0.5620003342628479,0.0,0.0,-0.1556950338866445,0.6895821796304347
-0.1735247671604156,1.1821634769439695,-0.8679993748664856,-0.1886675357818603,0.6108092069625854,0.5410948395729065,0.0,0.0,0.7779505573824959,0.9748890295646768
-0.1823767721652984,1.1788270473480225,-0.9060617685317992,-0.1582684516906738,0.6361474394798279,0.5067664384841919,0.0,0.0,0.2737581370627704,0.8702514809305082
-0.1917223930358886,1.1759740114212036,-0.9537565112113952,-0.1364560723304748,0.6598860621452332,0.4747729301452636,0.0,0.0,-0.9971100091934204,0.999765396118164
-0.2011051625013351,1.1729816198349,-0.9553207159042358,-0.1419868618249893,0.6813443303108215,0.4291668534278869,0.0,0.0,-0.902360737323761,0.9988324642181396
-0.2105243653059005,1.1698412895202637,-0.9569851160049438,-0.1478650867938995,0.7006219029426575,0.3855516612529754,0.0,0.0,-0.9992848634719848,0.9990150928497314
-0.2199840545654297,1.1665607690811155,-0.9590972661972046,-0.1532937884330749,0.7176817059516907,0.3411977887153625,0.0,0.0,-0.9993531107902528,0.9987170696258544
-0.2294936180114746,1.163116455078125,-0.9626086950302124,-0.1599594801664352,0.7330450415611267,0.3072668612003326,0.0,0.0,-0.9834432005882264,0.9966094493865968
-0.239045575261116,1.1595211029052734,-0.9651851654052734,-0.1658612787723541,0.7463856935501099,0.2668131291866302,0.0,0.0,-0.9984137415885924,0.9997477531433104
-0.2486404478549957,1.1557810306549072,-0.9678016901016236,-0.1714033037424087,0.7576229572296143,0.2247454822063446,0.0,0.0,-0.9997603893280028,0.999932050704956
-0.2583016753196716,1.1518856287002563,-0.9732627868652344,-0.1776677519083023,0.7673631310462952,0.1948035508394241,0.0,0.0,-0.9421172142028807,0.996495246887207
-0.2680301070213318,1.1478309631347656,-0.9788896441459656,-0.1841251850128173,0.7756854891777039,0.1664465963840484,0.0,0.0,-0.9054813385009766,0.9991894960403442
-0.2778093814849853,1.1436240673065186,-0.9826198816299438,-0.190054103732109,0.7821856737136841,0.1300039738416671,0.0,0.0,-0.9702508449554444,0.9993346929550172
-0.2876253724098205,1.139289379119873,-0.9845072031021118,-0.1945888847112655,0.7862390279769897,0.0810669660568237,0.0,0.0,-0.999257504940033,0.9996424913406372
-0.2974987924098968,1.1348047256469729,-0.9890189170837402,-0.2004463970661163,0.7885791063308716,0.0468025803565979,0.0,0.0,-0.999468982219696,0.9987417459487916
-0.3074080348014831,1.1301839351654053,-0.9909402132034302,-0.2053779661655426,0.7886033654212952,0.0004846534284297,0.0,0.0,-0.9968713521957396,0.9975762367248536
-0.3173688054084778,1.1254229545593262,-0.9947025179862976,-0.2106794416904449,0.7866821885108948,-0.0384240001440048,0.0,0.0,-0.9990858435630798,0.9996297359466552
-0.3273603916168213,1.1205326318740845,-0.9960147142410278,-0.2152502387762069,0.7822883129119873,-0.0878770053386688,0.0,0.0,-0.9953123331069946,0.9994878768920898
-0.3374033868312835,1.1154792308807373,-1.000009059906006,-0.2217710316181183,0.7763375639915466,-0.1190152615308761,0.0,0.0,-0.9975035190582277,0.9938404560089112
-0.3474858701229095,1.1102967262268066,-1.002285122871399,-0.2264508306980133,0.7681133151054382,-0.1644832193851471,0.0,0.0,-0.982279658317566,0.9898436069488524
-0.3576000332832336,1.1049869060516355,-1.00363290309906,-0.2310271114110946,0.7574759721755981,-0.2127464562654495,0.0,0.0,-0.9977150559425354,0.994459867477417
-0.3677524626255035,1.0995455980300903,-1.005739450454712,-0.2359163761138916,0.7446398138999939,-0.2567236423492431,0.0,0.0,-0.9990347623825072,0.9908193349838256
-0.3779543936252594,1.0939514636993408,-1.0093576908111572,-0.2420625239610672,0.7301755547523499,-0.2892847657203674,0.0,0.0,-0.980715811252594,0.9580600261688232
-0.3881860375404358,1.0882046222686768,-1.010671615600586,-0.2480623722076416,0.7137311697006226,-0.3288880586624145,0.0,0.0,-0.9867321252822876,0.9991226196289062
-0.398463100194931,1.0822991132736206,-1.0138379335403442,-0.2545987963676452,0.6957463026046753,-0.3596985936164856,0.0,0.0,-0.9948405623435974,0.9377071857452391
-0.4087622165679931,1.0762501955032349,-1.0141117572784424,-0.2602056860923767,0.6755838394165039,-0.4032491743564605,0.0,0.0,-0.9945602416992188,0.8525822162628174
-0.4190966188907623,1.0700418949127195,-1.0160787105560305,-0.2668233215808868,0.6537817716598511,-0.4360426962375641,0.0,0.0,-0.9857644438743592,0.946601629257202
-0.4294556677341461,1.0636723041534424,-1.016789197921753,-0.2735442221164703,0.6302018165588379,-0.471599280834198,0.0,0.0,-0.9985267519950868,-0.7943994402885437
-0.4399587512016296,1.0570133924484253,-1.0328360795974731,-0.2876214981079101,0.6090004444122314,-0.4240272939205169,0.0,0.0,-0.9956191182136536,0.4437315464019775
-0.4505428373813629,1.0501298904418943,-1.0409210920333862,-0.2979629933834076,0.5880947113037109,-0.4181141853332519,0.0,0.0,-0.9883899092674256,0.7498645782470703
-0.4611466825008392,1.0430700778961182,-1.041356325149536,-0.3054995238780975,0.5656628012657166,-0.4486382007598877,0.0,0.0,-0.9709655046463012,0.5979733467102051
-0.4717878401279449,1.0358312129974363,-1.043885350227356,-0.3133628666400909,0.5421693325042725,-0.4698697924613952,0.0,0.0,-0.97748863697052,0.2627180814743042
-0.4825016856193542,1.0283689498901367,-1.0511143207550049,-0.3237109780311584,0.518957793712616,-0.4642306864261627,0.0,0.0,-0.9927648901939392,-0.4597770571708679
-0.4932848811149597,1.0206828117370603,-1.058029055595398,-0.3340580761432647,0.4960229098796844,-0.4586976170539856,0.0,0.0,-0.985657513141632,0.7780163288116455
-0.5040785074234009,1.0128202438354492,-1.057506799697876,-0.3417662978172302,0.471633106470108,-0.487795889377594,0.0,0.0,-0.9701451063156128,0.3851097822189331
-0.5149348974227905,1.0047346353530884,-1.063739538192749,-0.3521171510219574,0.4475086033344269,-0.4824900031089782,0.0,0.0,-0.8965270519256592,-0.4945629835128784
-0.5258499979972839,0.9964258074760436,-1.0696099996566772,-0.3624668717384338,0.4236431419849396,-0.4773094058036804,0.0,0.0,-0.9028156399726868,-0.4983842372894287
-0.5368202328681946,0.9878933429718018,-1.0751034021377563,-0.3728154897689819,0.400030106306076,-0.4722604751586914,0.0,0.0,-0.9464657306671144,-0.4443874359130859
-0.5478411912918091,0.979137361049652,-1.080204963684082,-0.3831629753112793,0.3766626715660095,-0.4673494696617126,0.0,0.0,-0.4426603317260742,-0.7418196797370911
-0.5589640140533447,0.970116376876831,-1.091936707496643,-0.3957182466983795,0.3551509082317352,-0.4302361607551574,0.0,0.0,-0.7116263508796692,-0.6535071134567261
-0.5701791644096375,0.9608485102653505,-1.1025279760360718,-0.4073379933834076,0.3352225124835968,-0.3985677361488342,0.0,0.0,-0.1904169917106628,-0.7127189040184021
-0.581479549407959,0.9513372182846068,-1.11233651638031,-0.4187199771404266,0.3167729675769806,-0.3689910769462585,0.0,0.0,-0.6552764773368835,0.4009832143783569
-0.5928131341934204,0.9415993094444276,-1.115753173828125,-0.4290493130683899,0.2985380589962005,-0.3646981120109558,0.0,0.0,0.3723571300506592,0.7052133083343506
-0.6043158769607544,0.9319945573806764,-1.1312038898468018,-0.4230856299400329,0.2788936197757721,-0.3928886950016022,0.0,0.0,-0.3179070949554443,-0.223583698272705
-0.615842878818512,0.9221637845039368,-1.133715033531189,-0.4334178268909454,0.2594472467899322,-0.3889272511005401,0.0,0.0,-0.0447139143943786,0.2265211343765258
-0.6273894906044006,0.9121066927909852,-1.1357662677764893,-0.4437490999698639,0.2401903420686721,-0.38513845205307,0.0,0.0,-0.3515170216560364,-0.792608916759491
-0.6390178799629211,0.9018020033836364,-1.1457507610321045,-0.4552979171276092,0.2228566408157348,-0.3466739058494568,0.0,0.0,-0.1648691892623901,-0.1649140119552612
-0.650656521320343,0.891269862651825,-1.146876335144043,-0.4656222462654114,0.2056945413351059,-0.3432418406009674,0.0,0.0,0.1807676553726196,-0.6350933909416199
-0.6623666286468506,0.8811267018318176,-1.1554967164993286,-0.4487300515174866,0.1900750547647476,-0.3123896718025207,0.0,0.0,0.4462137222290039,0.7805396318435669
-0.674049973487854,0.8712135553359985,-1.1514060497283936,-0.4385046660900116,0.173081487417221,-0.3398712277412414,0.0,0.0,0.3101767301559448,0.6018023490905762
-0.6856577396392822,0.8615736365318298,-1.1428927183151243,-0.426454097032547,0.1551831215620041,-0.3579672873020172,0.0,0.0,0.1598086357116699,0.3755437135696411
-0.6972174644470215,0.852324366569519,-1.1386492252349854,-0.4093604385852813,0.1378975212574005,-0.3457121253013611,0.0,0.0,0.7229785919189453,-0.6618627309799194
-0.7087165713310242,0.8434750437736511,-1.1343767642974854,-0.391940027475357,0.122429147362709,-0.3093675374984741,0.0,0.0,0.8715856075286865,0.7116653919219971
-0.7202543020248413,0.83567875623703,-1.1368751525878906,-0.3451963663101196,0.1056379228830337,-0.3358245193958282,0.0,0.0,0.8097480535507202,0.3600145578384399
-0.7318249940872192,0.8288994431495667,-1.1404014825820925,-0.3002045452594757,0.0891110152006149,-0.3305382132530212,0.0,0.0,0.8180468082427979,0.9561800956726074
-0.7432085871696472,0.8230233192443848,-1.1200928688049316,-0.2601677179336548,0.0710155740380287,-0.361908882856369,0.0,0.0,0.814521312713623,0.8606798648834229
-0.7543984055519104,0.8174682259559631,-1.0992696285247805,-0.2460809201002121,0.0515234358608722,-0.3898428082466125,0.0,0.0,0.6435012817382812,0.8268051147460938
-0.7655737996101379,0.8124439716339111,-1.096130609512329,-0.2227013558149337,0.0303691402077674,-0.4230861067771911,0.0,0.0,0.6992580890655518,0.9544434547424316
-0.7765666246414185,0.808544397354126,-1.076140522956848,-0.1730097085237503,0.007523039355874,-0.4569222927093506,0.0,0.0,0.7828547954559326,0.92143714427948
-0.7874787449836731,0.8053417801856995,-1.066235065460205,-0.142389103770256,-0.0171369556337595,-0.4932000041007995,0.0,0.0,0.7710201740264893,0.0716249942779541
-0.7984658479690552,0.8031982779502869,-1.0731689929962158,-0.0957497730851173,-0.0423579327762126,-0.50441974401474,0.0,0.0,0.4387316703796386,-0.5457884669303894
-0.8093410730361938,0.8017421960830688,-1.0633546113967896,-0.0655730068683624,-0.0662513896822929,-0.4778692722320556,0.0,0.0,0.4731869697570801,-0.4422316551208496
-0.8201692700386047,0.8010680079460144,-1.058501362800598,-0.0312139485031366,-0.0903259813785553,-0.4814919531345367,0.0,0.0,0.2714464664459228,-0.4018802642822265
-0.8309553861618042,0.8010393977165222,-1.054081678390503,-0.0029336239676922,-0.1146630495786666,-0.4867416024208069,0.0,0.0,-0.0450136065483093,-0.4067099094390869
-0.8416850566864014,0.8007869124412537,-1.0485321283340454,-0.0132794883102178,-0.1389756202697754,-0.4862515032291412,0.0,0.0,-0.1519908308982849,0.1866387128829956
-0.8523555397987366,0.8003103733062744,-1.0427106618881226,-0.0236251540482044,-0.163270890712738,-0.4859057962894439,0.0,0.0,0.3365559577941894,-0.5217453837394714
-0.8630663752555847,0.8002780675888062,-1.0475952625274658,-0.0041915979236364,-0.1868135780096054,-0.4708538651466369,0.0,0.0,-0.1755504608154297,-0.167707622051239
-0.873712956905365,0.8000211119651794,-1.0412728786468506,-0.0145340086892247,-0.2103527039289474,-0.4707828164100647,0.0,0.0,-0.4754059910774231,-0.1755855679512024
-0.8842928409576416,0.7995397448539734,-1.0347211360931396,-0.0248763170093297,-0.2338946759700775,-0.4708397388458252,0.0,0.0,-0.226333200931549,0.0879786014556884
-0.8948038816452026,0.7988340854644775,-1.0279532670974731,-0.0352185294032096,-0.2574456036090851,-0.4710188508033752,0.0,0.0,-0.1002376675605773,-0.0854536294937133
-0.9052439332008362,0.797903835773468,-1.020982027053833,-0.045560672879219,-0.2810113131999969,-0.4713141322135925,0.0,0.0,-0.6582361459732056,0.6667237281799316
-0.9155469536781312,0.796730101108551,-1.0058053731918335,-0.0570870004594326,-0.306263267993927,-0.5050398707389832,0.0,0.0,-0.6656153798103333,0.1331206560134887
-0.925774872303009,0.7953327894210815,-0.9984679222106934,-0.0674355551600456,-0.3315404951572418,-0.5055447816848755,0.0,0.0,-0.6145386695861816,-0.2838125228881836
-0.9359259605407716,0.7937120199203491,-0.9909636378288268,-0.0777840167284011,-0.3568478226661682,-0.5061467885971069,0.0,0.0,-0.6720018982887268,0.2611178159713745
-0.9459985494613647,0.7918676733970642,-0.9833035469055176,-0.088132344186306,-0.3821898102760315,-0.5068396925926208,0.0,0.0,-0.8144351840019226,0.1109074354171752
-0.9559909701347352,0.789799690246582,-0.9754981994628906,-0.09848053753376,-0.4075706303119659,-0.5076169371604919,0.0,0.0,-0.8483050465583801,0.6741039752960205
-0.96586275100708,0.7874845862388611,-0.9626244306564332,-0.110192634165287,-0.4341054260730743,-0.5306965112686157,0.0,0.0,-0.652829110622406,0.1674857139587402
-0.9756512641906738,0.7849463820457458,-0.9545612335205078,-0.1205449476838111,-0.4606864154338836,-0.5316196084022522,0.0,0.0,-0.8589522242546082,0.1557251214981079
-0.9853553175926208,0.7821853756904602,-0.9463817477226256,-0.1308970153331756,-0.4873167872428894,-0.5326071977615356,0.0,0.0,-0.9590727090835572,-0.0821057558059692
-0.9949735403060912,0.7792014479637146,-0.9380949139595032,-0.1412487775087356,-0.5139994025230408,-0.5336528420448303,0.0,0.0,-0.9397937655448914,-0.2725520730018616
-1.004504919052124,0.7759944200515747,-0.9297086596488952,-0.1516002267599105,-0.5407368540763855,-0.5347499847412109,0.0,0.0,-0.9397937655448914,-0.2725520730018616
