x_pos,y_pos,x_vel,y_vel,angle,ang_vel,leg_1,leg_2,main_booster,lat_booster
-0.0015042305458337,1.4035162925720217,-0.1523734182119369,-0.3290636837482452,0.0017545038135722,0.0346084274351596,0.0,0.0,0.2571673534377567,0.7885843140470896
-0.0028823851607739,1.396550178527832,-0.1380228102207183,-0.309605211019516,0.0019612081814557,0.0041352086700499,0.0,0.0,0.2492426380982801,0.988511699202739
-0.0040449141524732,1.3899266719818115,-0.1145463958382606,-0.2943718731403351,0.0002697000745683,-0.0338335670530796,0.0,0.0,0.4069254651135938,0.8041450314251162
-0.005237674806267,1.3838305473327637,-0.1157924681901931,-0.2709419131278991,-0.0031771084759384,-0.0689427852630615,0.0,0.0,0.5193375558617721,-0.8356142201568769
-0.0063407896086573,1.378528118133545,-0.1087183207273483,-0.2356740683317184,-0.0047435904853045,-0.0313322395086288,0.0,0.0,0.081664589713954,-0.7256456503628772
-0.0073753357864916,1.3736491203308103,-0.1034409254789352,-0.216843381524086,-0.0047578755766153,-0.0002858382358681,0.0,0.0,0.4241253473505786,0.7116208902920518
-0.0083518978208303,1.369408130645752,-0.0961884707212448,-0.1884877830743789,-0.0062043867073953,-0.0289328303188085,0.0,0.0,-0.5669348315608107,-0.8632457588643623
-0.0093581201508641,1.36506187915802,-0.1004772409796714,-0.1931668072938919,-0.0063437861390411,-0.0027883206494152,0.0,0.0,-0.9617595517724358,0.8486477213613144
-0.0102771762758493,1.3606159687042236,-0.0901219695806503,-0.1976020783185959,-0.0081092994660139,-0.035313680768013,0.0,0.0,-0.3872928727786353,0.7761467677083038
-0.0111133577302098,1.356066107749939,-0.0803052857518196,-0.2022418677806854,-0.0113854007795453,-0.0655282288789749,0.0,0.0,0.2999977298459721,-0.5981845212043986
-0.0118948938325047,1.352109432220459,-0.076210431754589,-0.1758653819561004,-0.0132979322224855,-0.0382541492581367,0.0,0.0,0.5156408138281896,0.5852313565148741
-0.0125313755124807,1.348767876625061,-0.0607469491660594,-0.14854596555233,-0.0161737743765115,-0.0575223639607429,0.0,0.0,0.1528287369121026,-0.8430440358740274
-0.0130990026518702,1.3460533618927002,-0.0556402318179607,-0.120659589767456,-0.017281025648117,-0.0221467576920986,0.0,0.0,0.8189695997195698,-0.8473002582430278
-0.0136207584291696,1.34380841255188,-0.0529610142111778,-0.0997613742947578,-0.01651525311172,0.0153171587735414,0.0,0.0,-0.5114241638076402,-0.784390887951657
-0.0141675947234034,1.3414647579193115,-0.0567006580531597,-0.1041503474116325,-0.0145296659320592,0.0397155135869979,0.0,0.0,0.971022654653632,-0.5422860053463949
-0.014591502957046,1.3395360708236694,-0.0459246188402175,-0.0856827944517135,-0.0110213663429021,0.0701720938086509,0.0,0.0,0.6734964625951676,-0.7520294456879357
-0.0148895261809229,1.3388062715530396,-0.0352057553827762,-0.0324037335813045,-0.0056797512806952,0.1068420857191085,0.0,0.0,0.0705089804078828,0.7509484956919532
-0.0149983409792184,1.338324785232544,-0.0148755954578518,-0.0213943254202604,-0.0017229313962161,0.0791433379054069,0.0,0.0,0.9591491533398004,0.6626487956270025
-0.0149070741608738,1.3391687870025637,0.0061050057411193,0.0375107489526271,0.0012714596232399,0.0598928220570087,0.0,0.0,0.0749145507811919,-0.8751124436337921
-0.0149246212095022,1.3404560089111328,-0.0065526119433343,0.0572045296430587,0.0060150702483952,0.0948805585503578,0.0,0.0,-0.5547317441333746,-0.5008883438217655
-0.0149510381743311,1.3416388034820557,-0.0082466015592217,0.0525372177362442,0.0115643544122576,0.1109955906867981,0.0,0.0,0.4841243746858603,0.5472008083775339
-0.0149048808962106,1.343307614326477,5.60090811632108e-05,0.074132390320301,0.0160744544118642,0.0902101844549179,0.0,0.0,-0.5264986929323678,-0.5927944311993629
-0.014872932806611,1.3448667526245115,-0.002325477078557,0.0692264288663864,0.0215275511145591,0.109071709215641,0.0,0.0,-0.3157128657765338,-0.9118071982191408
-0.0148821827024221,1.3463059663772583,-0.0080779260024428,0.063846930861473,0.0285987686365842,0.1414370834827423,0.0,0.0,-0.7950609434866198,-0.8179928123573219
-0.0149491308256983,1.3476364612579346,-0.0158847793936729,0.0589380003511905,0.0376921407878398,0.1818834245204925,0.0,0.0,-0.0173221960046814,-0.6666504481906372
-0.0150586124509572,1.3488385677337646,-0.0218305047601461,0.0531141944229602,0.0484419837594032,0.2149970084428787,0.0,0.0,-0.6703166274029071,-0.9084840692975662
-0.0152172092348337,1.3499348163604736,-0.0285498164594173,0.048255331814289,0.0609942786395549,0.2510457336902618,0.0,0.0,-0.7670249073434232,0.7874839429688212
-0.0153048513457179,1.3509371280670166,-0.0202182251960039,0.0440422445535659,0.072321243584156,0.2265393286943435,0.0,0.0,-0.0626743307472088,-0.870014557756442
-0.0154541013762354,1.351831316947937,-0.0284825358539819,0.0390321835875511,0.08575439453125,0.2686629891395569,0.0,0.0,0.0543613047662303,-0.7710759330223613
-0.0156835559755563,1.3530722856521606,-0.0380435399711132,0.054219651967287,0.1007126048207283,0.2991641461849212,0.0,0.0,0.5260292602757333,-0.8108013556554405
-0.0160146709531545,1.3553775548934937,-0.0498326383531093,0.1012515053153038,0.1173058971762657,0.3318660855293274,0.0,0.0,-0.895902693271637,0.9855880737304688
-0.0162558555603027,1.3575841188430786,-0.0390691086649894,0.0968283712863922,0.1321765333414077,0.2974124550819397,0.0,0.0,-0.8455535769462585,0.9827897548675536
-0.0164093971252441,1.359707593917847,-0.0285485088825225,0.0931453853845596,0.1453319638967514,0.263108879327774,0.0,0.0,-0.6631666421890259,0.9443589448928832
-0.0164738651365041,1.3617305755615234,-0.0179186724126338,0.0887520834803581,0.1567821055650711,0.2290028631687164,0.0,0.0,-0.7757814526557922,0.8919403553009033
-0.0164450649172067,1.3636655807495115,-0.0067047430202364,0.0849587172269821,0.1663716584444046,0.1917911171913147,0.0,0.0,-0.70163893699646,0.9119107723236084
-0.0163218490779399,1.3655184507369995,0.0046654255129396,0.0814698040485382,0.1740441620349884,0.1534501016139984,0.0,0.0,-0.5471873879432678,0.5376328229904175
-0.0161362644284963,1.3672713041305542,0.0119663542136549,0.0771230533719062,0.1806511878967285,0.1321405172348022,0.0,0.0,-0.4962737560272217,0.418887734413147
-0.015928840264678,1.3689165115356443,0.0142016429454088,0.0723085701465606,0.1872162222862243,0.1313008815050125,0.0,0.0,-0.5696232318878174,0.3798310756683349
-0.0156996734440326,1.3704538345336914,0.0164324045181274,0.0674942582845687,0.1937336921691894,0.1303489804267883,0.0,0.0,-0.7546740174293518,0.8882465362548828
-0.0153770446777343,1.3719055652618408,0.0277071688324213,0.0639149695634841,0.1983296275138855,0.0919187813997268,0.0,0.0,-0.625251293182373,0.7192893028259277
-0.0149877546355128,1.3732688426971436,0.0356099382042884,0.0601390190422534,0.2016732394695282,0.0668721348047256,0.0,0.0,-0.5948981046676636,-0.3265445232391357
-0.0145769119262695,1.374523639678955,0.0378228053450584,0.0553276985883712,0.2049516290426254,0.0655679628252983,0.0,0.0,-0.6009626984596252,0.6904313564300537
-0.0140817640349268,1.3756821155548096,0.047928899526596,0.0512648299336433,0.2065522968769073,0.0320132113993167,0.0,0.0,-0.5101341009140015,0.3262306451797485
-0.013565445318818,1.3767321109771729,0.0501268878579139,0.046454444527626,0.2080754935741424,0.030463570728898,0.0,0.0,-0.4537717700004577,0.213413119316101
-0.0130279539152979,1.377673625946045,0.0523164682090282,0.0416442044079303,0.2095149308443069,0.0287889242172241,0.0,0.0,-0.5763133764266968,0.6143755912780762
-0.0124176982790231,1.3785167932510376,0.0610073916614055,0.0374723859131336,0.2095389813184738,0.000480908434838,0.0,0.0,-0.3973406553268432,0.0504398345947265
-0.0117865558713674,1.379251480102539,0.0631778165698051,0.0326625630259513,0.2094666212797165,-0.0014468868030235,0.0,0.0,-0.3477681279182434,0.6054778099060059
-0.0110979080200195,1.3798961639404297,0.0700326785445213,0.0288137532770633,0.2082961499691009,-0.02340929210186,0.0,0.0,-0.4333528280258178,0.9502429962158204
-0.0103326793760061,1.3804584741592407,0.0792659595608711,0.0253834687173366,0.2055203467607498,-0.0555163696408271,0.0,0.0,-0.4325252771377563,0.8531301021575928
-0.0094834323972463,1.3809300661087036,0.089438758790493,0.0215785726904869,0.2009758204221725,-0.0908905565738678,0.0,0.0,-0.546137809753418,0.8710949420928955
-0.0085307117551565,1.3813188076019287,0.1020615920424461,0.0181829500943422,0.1941420584917068,-0.1366752833127975,0.0,0.0,-0.374710202217102,0.0198688507080078
-0.0075582503341138,1.3815995454788208,0.104170061647892,0.0133696822449564,0.1871800124645233,-0.139240488409996,0.0,0.0,-0.3336884975433349,0.468703031539917
-0.0065663335844874,1.381772518157959,0.1062628775835037,0.0085562923923134,0.1800834387540817,-0.1419317424297332,0.0,0.0,-0.2928776741027832,-0.4553002119064331
-0.0055551528930664,1.3818374872207642,0.1083389073610305,0.0037427556235343,0.1728460639715194,-0.1447478830814361,0.0,0.0,0.0320860147476196,-0.5866119265556335
-0.004519653506577,1.3822572231292725,0.1096056923270225,0.0193499960005283,0.1667783409357071,-0.1213546618819236,0.0,0.0,-0.1691646575927734,-0.7666769623756409
-0.0035343170166015,1.3825477361679075,0.1029820814728736,0.0134115060791373,0.1623388975858688,-0.0887893065810203,0.0,0.0,-0.0538951754570007,-0.3268447518348694
-0.0025302886497229,1.38273024559021,0.1049996614456176,0.0086005292832851,0.1577403992414474,-0.0919702500104904,0.0,0.0,-0.3048144578933716,-0.6838042736053467
-0.0015494346152991,1.3827970027923584,0.1017970293760299,0.0033632107079029,0.154030367732048,-0.0742007493972778,0.0,0.0,-0.3497313261032104,0.6531082391738892
-0.0004940032958984,1.3827757835388184,0.1109056919813156,-0.0004059142665937,0.1486769467592239,-0.1070680022239685,0.0,0.0,-0.2758806943893432,-0.6555730700492859
0.0005207061767578,1.382638692855835,0.1055446118116378,-0.0056902961805462,0.1446212530136108,-0.0811141803860664,0.0,0.0,-0.4541428089141845,-0.5005588531494141
0.0015174865256994,1.3823810815811155,0.1030063778162002,-0.0111291296780109,0.1413018405437469,-0.0663881972432136,0.0,0.0,-0.2211248278617859,0.8873565196990967
0.0025888443924486,1.382032036781311,0.1121284142136573,-0.0150468684732913,0.1363146305084228,-0.0997445657849311,0.0,0.0,-0.1440221667289734,-0.6208230257034302
0.0036381720565259,1.3815652132034302,0.1091511473059654,-0.0203713383525609,0.1321221441030502,-0.0838496536016464,0.0,0.0,0.0271534919738769,0.0712319612503051
0.0046682357788085,1.3815594911575315,0.1073487401008606,0.0001243331789737,0.1278003603219986,-0.0864355713129043,0.0,0.0,-0.2297614216804504,-0.7660249471664429
0.0056554796174168,1.381428360939026,0.1017489656805992,-0.0055745220743119,0.1247892752289772,-0.060221679508686,0.0,0.0,0.0832576751708984,-0.8938707709312439
0.0064449310302734,1.3817347288131714,0.080392986536026,0.0137414196506142,0.1233477219939231,-0.0288310293108224,0.0,0.0,-0.0989463925361633,0.9356098175048828
0.0073246001265943,1.381957769393921,0.0915812104940414,0.0102025819942355,0.1197559684514999,-0.0718349069356918,0.0,0.0,-0.0954937934875488,-0.3635146617889404
0.0082190511748194,1.3820722103118896,0.0932703539729118,0.0053921593353152,0.1159493401646614,-0.0761325731873512,0.0,0.0,-0.0521138310432434,-0.2317219972610473
0.0091277118772268,1.3820781707763672,0.0949191302061081,0.0005815751501359,0.1119239032268524,-0.0805088877677917,0.0,0.0,-0.1526551842689514,-0.6784088015556335
0.009988784790039,1.3819626569747925,0.0888068526983261,-0.0049399863928556,0.1092420890927314,-0.0536362342536449,0.0,0.0,-0.2311040163040161,0.0927373170852661
0.0108631132170557,1.3817384243011477,0.0903690755367279,-0.0097500206902623,0.1063342615962028,-0.0581563301384449,0.0,0.0,0.0811022520065307,-0.8529354929924011
0.0116634368896484,1.3820078372955322,0.0814694464206695,0.0120742665603756,0.1049038618803024,-0.0286078490316867,0.0,0.0,0.0146200656890869,-0.4333651065826416
0.0123431207612156,1.382929801940918,0.0700093731284141,0.0411249510943889,0.1028752401471138,-0.0405724197626113,0.0,0.0,-0.2074959278106689,-0.4081403017044067
0.0130346296355128,1.3837435245513916,0.0714278221130371,0.036315131932497,0.100611612200737,-0.0452725812792778,0.0,0.0,-0.1371992826461792,-0.8305253386497498
0.0136687280610203,1.3844316005706787,0.0641730949282646,0.0306351296603679,0.0998614355921745,-0.0150036886334419,0.0,0.0,-0.0312821269035339,0.274196982383728
0.0143136978149414,1.3850111961364746,0.065486654639244,0.0258255861699581,0.0988714769482612,-0.0197990797460079,0.0,0.0,-0.1553759574890136,0.0871683359146118
0.0149687770754098,1.3854823112487793,0.06674525141716,0.0210160054266452,0.0976397544145584,-0.0246343947947025,0.0,0.0,0.0182251930236816,0.0578902959823608
0.0155805591493844,1.3865737915039062,0.0626941472291946,0.0486094318330287,0.0961406677961349,-0.0299817863851785,0.0,0.0,0.1780085563659668,-0.1446977257728576
0.0162023548036813,1.3884334564208984,0.0636710450053215,0.0827464610338211,0.094660572707653,-0.0296020209789276,0.0,0.0,0.1563256978988647,-0.3958672285079956
0.016700267791748,1.391027808189392,0.0518979616463184,0.1154310405254364,0.0925709754228591,-0.0417917855083942,0.0,0.0,-0.1902027726173401,-0.2476989030838012
0.0172058101743459,1.3935134410858154,0.05292185023427,0.1106210947036743,0.0902343019843101,-0.0467337183654308,0.0,0.0,0.0390204191207885,-0.5546009540557861
0.0176579467952251,1.396636128425598,0.0466673895716667,0.1388746798038482,0.0887967199087143,-0.028751665726304,0.0,0.0,-0.1552014350891113,-0.0279645919799804
0.0181166641414165,1.3996503353118896,0.0475665591657161,0.1340648531913757,0.0871110036969184,-0.033714223653078,0.0,0.0,-0.1443003416061401,-0.3319306373596191
0.0185811035335063,1.4025561809539795,0.0484020300209522,0.1292549222707748,0.0851770862936973,-0.0386785753071308,0.0,0.0,-0.2908436059951782,-0.7125912308692932
0.0189932826906442,1.4053494930267334,0.0419624969363212,0.1241966113448143,0.0844418853521347,-0.0147040737792849,0.0,0.0,-0.3761436939239502,0.4723188877105713
0.0194100383669137,1.4080344438552856,0.0426686070859432,0.1193868145346641,0.0834591463208198,-0.0196549762040376,0.0,0.0,-0.080443799495697,-0.3252389430999756
0.0198307037353515,1.410610914230347,0.0433094166219234,0.1145769581198692,0.0822296366095542,-0.0245903991162776,0.0,0.0,-0.2203413248062133,-0.3421033024787903
0.0202547069638967,1.413078784942627,0.0438847281038761,0.1097670271992683,0.0807544142007827,-0.0295043401420116,0.0,0.0,-0.3838542699813843,-0.4342720508575439
0.0206812862306833,1.415438175201416,0.0443945117294788,0.1049569994211196,0.0790348798036575,-0.0343908742070198,0.0,0.0,-0.2575254440307617,-0.7308875918388367
0.0210659019649028,1.4176782369613647,0.0393081977963447,0.0996048003435134,0.0781930387020111,-0.0168366748839616,0.0,0.0,-0.3078158497810364,-0.0374211072921752
0.0214518550783395,1.4198098182678225,0.0396874919533729,0.0947948172688484,0.0771105363965034,-0.021649906411767,0.0,0.0,-0.1133263111114502,-0.3798397779464721
0.0218385700136423,1.421833038330078,0.0400021746754646,0.0899847596883773,0.075789675116539,-0.0264171063899993,0.0,0.0,-0.2675756812095642,-0.0817216634750366
0.0222253799438476,1.4237475395202637,0.0402528829872608,0.0851746052503585,0.0742330700159072,-0.0311318393796682,0.0,0.0,-0.2063591480255127,0.3854681253433227
0.0226117130368948,1.425553798675537,0.0404403805732727,0.080364353954792,0.0724436864256858,-0.0357876010239124,0.0,0.0,-0.0109807848930358,-0.4510178565979004
0.0229969974607229,1.4272515773773191,0.0405656024813652,0.0755539834499359,0.0704247802495956,-0.0403778068721294,0.0,0.0,-0.4213075637817383,-0.788121223449707
0.0233266837894916,1.428844690322876,0.0338767394423484,0.0708456709980964,0.0695262253284454,-0.0179710537195205,0.0,0.0,-0.3425357937812805,0.1891462802886963
0.0236541740596294,1.430329203605652,0.0338806472718715,0.0660353824496269,0.0684057399630546,-0.0224097315222024,0.0,0.0,-0.2686330080032348,-0.2853399515151977
0.0239789001643657,1.4317054748535156,0.0338257998228073,0.0612250342965126,0.0670676305890083,-0.0267622079700231,0.0,0.0,-0.1980711817741394,-0.8106520175933838
0.0242454521358013,1.432971715927124,0.0268250908702611,0.0562882162630558,0.0668961554765701,-0.0034293800126761,0.0,0.0,-0.0869032144546508,-0.7475422620773315
0.0244436264038085,1.4341285228729248,0.0185685642063617,0.0513576678931713,0.0681359693408012,0.0247960966080427,0.0,0.0,-0.2230161428451538,-0.0041655302047729
0.0246376041322946,1.435176968574524,0.0183461345732212,0.0465471856296062,0.0691732391715049,0.0207455400377511,0.0,0.0,-0.1748437881469726,0.2151927947998047
0.0248268134891986,0.0,0.0180710088461637,0.0417367368936538,0.0700137689709663,0.0168105345219373,0.0,0.0,-0.2764574885368347,-0.1986017823219299
0.025010872632265,1.436948537826538,0.0177448876202106,0.0369263030588626,0.0706636905670166,0.0129987327381968,0.0,0.0,-0.3391546010971069,-0.47493577003479
0.0251893047243356,1.437671422958374,0.0173695087432861,0.0321158543229103,0.071129597723484,0.0093179205432534,0.0,0.0,-0.3454033732414245,-0.7560482621192932
0.025312328711152,1.43828547000885,0.0107546634972095,0.0272104553878307,0.0726578086614608,0.0305645111948251,0.0,0.0,-0.0971480011940002,-0.0200924277305603
0.0254288669675588,1.438791036605835,0.0102861728519201,0.022399790585041,0.0740162879228591,0.027169644832611,0.0,0.0,-0.210875928401947,-0.510948121547699
0.0255079269409179,1.4391884803771973,0.005913620814681,0.0175752323120832,0.0759840831160545,0.0393561273813247,0.0,0.0,-0.2953988909721374,-0.1293453574180603
0.025579834356904,1.4394779205322266,0.0053593395277857,0.0127643840387463,0.0777980759739875,0.0362796559929847,0.0,0.0,-0.167143166065216,-0.67485111951828
0.0256032943725585,1.439661979675293,-0.0003730007447302,0.0080357287079095,0.0804901719093322,0.0538421086966991,0.0,0.0,-0.1259103417396545,-0.0926229953765869
0.0256191249936819,1.4397376775741575,-0.0010056514292955,0.0032245393376797,0.0830460265278816,0.0511171892285347,0.0,0.0,-0.3759986162185669,-0.4593966007232666
0.0256268493831157,1.4397051334381104,-0.0016747355693951,-0.0015866264002397,0.0854750499129295,0.048580601811409,0.0,0.0,-0.3912128210067749,0.2215310335159301
0.0256263725459575,1.439564228057861,-0.0023784155491739,-0.0063977842219173,0.0877870768308639,0.0462406799197196,0.0,0.0,-0.2092741131782531,-0.6065709590911865
0.0255763046443462,1.4393064975738523,-0.0082944128662347,-0.0116478437557816,0.0910402163863182,0.0650627166032791,0.0,0.0,-0.2315702438354492,0.4203332662582397
0.0255175586789846,1.4389406442642212,-0.0090617695823311,-0.016459496691823,0.0941972509026527,0.0631408840417862,0.0,0.0,-0.4022229313850403,0.0221859216690063
0.0254498478025198,1.4384664297103882,-0.0098583111539483,-0.0212711617350578,0.0972692817449569,0.0614404305815696,0.0,0.0,-0.0339233875274658,0.2172197103500366
0.0253732688724994,1.4378840923309326,-0.0106822755187749,-0.0260828509926795,0.1002677232027053,0.059969238936901,0.0,0.0,-0.2929413914680481,-0.0117519497871398
0.0252876281738281,1.437193512916565,-0.0115319266915321,-0.03089458681643,0.1032044813036918,0.0587351098656654,0.0,0.0,-0.3024467229843139,-0.0810802578926086
0.025192642584443,1.4363946914672852,-0.0124055547639727,-0.0357063822448253,0.1060917750000953,0.0577455647289752,0.0,0.0,-0.393358826637268,0.4516186714172363
0.0250883102416992,1.4354876279830933,-0.0133014768362045,-0.040518257766962,0.1089421808719635,0.057007759809494,0.0,0.0,-0.1341546773910522,0.3886129856109619
0.0249745361506938,1.4344725608825684,-0.0142180398106575,-0.0453302152454853,0.1117686107754707,0.0565286166965961,0.0,0.0,-0.4569929242134094,-0.1655698418617248
0.0248513221740722,1.4333490133285522,-0.0151536110788583,-0.0501422807574272,0.1145843416452407,0.0563145764172077,0.0,0.0,-0.3620955944061279,0.5271210670471191
0.0247668270021677,1.432126760482788,-0.0100655509158968,-0.054451547563076,0.1161792948842048,0.0318994224071502,0.0,0.0,-0.2817825078964233,0.2359315156936645
