x_pos,y_pos,x_vel,y_vel,angle,ang_vel,leg_1,leg_2,main_booster,lat_booster
-0.0015254020690917,1.4035217761993408,-0.154444009065628,-0.3288139104843139,0.0017041221726685,0.0336109511554241,0.0,0.0,0.0318694114685058,0.9230111837387084
-0.0029417038895189,1.3964718580245972,-0.1414052844047546,-0.3133279681205749,0.0014739762991666,-0.0046027721837162,0.0,0.0,-0.1346983909606933,0.3764429092407226
-0.0043593407608568,1.3893187046051023,-0.1414667069911956,-0.3179180920124054,0.001182988518849,-0.0058200675994157,0.0,0.0,0.2396830320358276,0.5207235813140869
-0.0058349608443677,1.382623553276062,-0.1459340006113052,-0.2975683808326721,-0.0004202968848403,-0.0320685133337974,0.0,0.0,-0.5448699593544006,-0.0062060356140136
-0.0073110582306981,1.3758254051208496,-0.1459445655345916,-0.3021362423896789,-0.0020739254541695,-0.0330757871270179,0.0,0.0,-0.1842021942138672,0.0059244632720947
-0.0087876319885253,1.368924856185913,-0.1459289193153381,-0.3066981732845306,-0.003773569362238,-0.0339959487318992,0.0,0.0,-0.2758151292800903,0.3692059516906738
-0.01026411075145,1.3619215488433838,-0.1458847373723983,-0.3112609684467315,-0.0055130650289356,-0.0347930639982223,0.0,0.0,-0.0601878762245178,0.4344216585159302
-0.0117401126772165,1.3548158407211304,-0.1458100974559784,-0.3158245682716369,-0.0072862524539232,-0.0354670993983745,0.0,0.0,-0.3632467985153198,0.6925070285797119
-0.0131618501618504,1.3476141691207886,-0.1389956623315811,-0.3200865387916565,-0.010430596768856,-0.0628928765654563,0.0,0.0,-0.3452773094177246,0.0662001371383667
-0.0145823480561375,1.3403103351593018,-0.1388512551784515,-0.3246508240699768,-0.0135945370420813,-0.0632847473025322,0.0,0.0,-0.5710169672966003,0.3496897220611572
-0.0160012245178222,1.3329036235809326,-0.1386718600988388,-0.3292150795459747,-0.0167718138545751,-0.0635512918233871,0.0,0.0,-0.1117051243782043,-0.0901341438293457
-0.0174179077148437,1.3253945112228394,-0.1384555548429489,-0.3337794542312622,-0.019954714924097,-0.0636635199189186,0.0,0.0,-0.2048584222793579,-0.2383742332458496
-0.0188319198787212,1.3177827596664429,-0.1382009983062744,-0.3383438885211944,-0.0231355298310518,-0.0636215656995773,0.0,0.0,-0.2968178987503052,0.4919133186340332
-0.0202430728822946,1.3100683689117432,-0.137906789779663,-0.3429083228111267,-0.0263062473386526,-0.0634200572967529,0.0,0.0,-0.6448641419410706,0.7845349311828613
-0.0215742103755474,1.3022568225860596,-0.1279799193143844,-0.3472805023193359,-0.0313784107565879,-0.1014525294303894,0.0,0.0,-0.580195426940918,0.091213583946228
-0.022901153191924,1.2943427562713623,-0.1275969743728637,-0.3518462777137756,-0.0364227406680583,-0.1008957847952842,0.0,0.0,-0.8553232550621033,0.4125961065292358
-0.0242235176265239,1.28632652759552,-0.1271711736917495,-0.3564120829105377,-0.0414317995309829,-0.1001901254057884,0.0,0.0,-0.2878349423408508,0.3188169002532959
-0.0255407337099313,1.278207778930664,-0.1267009675502777,-0.3609780073165893,-0.0463963560760021,-0.099300242960453,0.0,0.0,-0.6885784864425659,0.2548240423202514
-0.0268522258847951,1.2699867486953735,-0.126185655593872,-0.3655439019203186,-0.0513074360787868,-0.0982303991913795,0.0,0.0,-0.8880029320716858,0.2210137844085693
-0.0281574241816997,1.2616631984710691,-0.125624418258667,-0.3701098561286926,-0.0561558865010738,-0.0969777554273605,0.0,0.0,-0.9294028878211976,0.606680154800415
-0.029397677630186,1.2532368898391724,-0.1177229508757591,-0.3747517168521881,-0.0623930543661117,-0.1247543469071388,0.0,0.0,-0.7073981165885925,-0.5005384087562561
-0.0306693073362112,1.244709014892578,-0.121933564543724,-0.3792424201965332,-0.0675726309418678,-0.1036009788513183,0.0,0.0,-0.8017669320106506,-0.2558008432388305
-0.0319329276680946,1.2360787391662598,-0.1212300285696983,-0.383808434009552,-0.072662129998207,-0.1017990931868553,0.0,0.0,-0.5959767699241638,0.721839427947998
-0.0331249237060546,1.2273311614990234,-0.112543299794197,-0.3891170918941498,-0.0792567953467369,-0.1319051384925842,0.0,0.0,-0.8457735180854797,-0.0489506125450134
-0.0343076698482036,1.2184815406799316,-0.1117380261421203,-0.3936849236488342,-0.0857407227158546,-0.1296902149915695,0.0,0.0,-0.92643141746521,0.5686655044555664
-0.0354477874934673,1.209506630897522,-0.1067251935601234,-0.3993135392665863,-0.0929637476801872,-0.1444603502750396,0.0,0.0,-0.683010458946228,0.0289686918258667
-0.0365777015686035,1.2004296779632568,-0.1058408468961715,-0.4038786590099334,-0.1000583618879318,-0.1418922841548919,0.0,0.0,-0.949828565120697,0.3076122999191284
-0.0376968383789062,1.191250562667847,-0.1049073189496994,-0.4084434509277344,-0.1070149317383766,-0.1391311734914779,0.0,0.0,-0.9407255053520204,0.3168227672576904
-0.0388046279549598,1.1819692850112915,-0.1039246693253517,-0.4130078852176666,-0.1138238236308097,-0.1361777186393737,0.0,0.0,-0.4509404897689819,-0.0734646320343017
-0.0399004928767681,1.1725858449935913,-0.1028930768370628,-0.417572021484375,-0.120475485920906,-0.1330331265926361,0.0,0.0,-0.6827179193496704,0.4538478851318359
-0.0409838669002056,1.163100004196167,-0.1018128544092178,-0.4221357405185699,-0.1269603818655014,-0.1296985745429992,0.0,0.0,-0.6709666848182678,0.7022807598114014
-0.0420063957571983,1.1534985303878784,-0.0946943536400795,-0.4273924529552459,-0.1344923377037048,-0.1506392657756805,0.0,0.0,-0.7275373339653015,-0.769175112247467
-0.0430831909179687,1.1438156366348269,-0.1020611897110939,-0.4308622777462005,-0.1400879770517349,-0.1119127720594406,0.0,0.0,-0.5304529666900635,0.6295615434646606
-0.0441021919250488,1.1340153217315674,-0.0953549593687057,-0.4361964464187622,-0.146617129445076,-0.1305831968784332,0.0,0.0,-0.6590850353240967,-0.7949548959732056
-0.0451667793095111,1.1241276264190674,-0.1016678363084793,-0.4399383664131164,-0.151395171880722,-0.0955612361431121,0.0,0.0,-0.7296224236488342,0.493159532546997
-0.0462160110473632,1.1141369342803955,-0.1003520041704177,-0.4444993138313293,-0.1559609025716781,-0.0913150608539581,0.0,0.0,-0.6373884677886963,-0.3587179183959961
-0.0472494140267372,1.1040436029434204,-0.0989912822842598,-0.4490599036216736,-0.1603057235479354,-0.0868964493274688,0.0,0.0,-0.6785660982131958,0.3607411384582519
-0.0482665076851844,1.093847155570984,-0.0975866094231605,-0.4536201357841491,-0.1644212007522583,-0.0823095589876174,0.0,0.0,-0.7840215563774109,-0.6841403841972351
-0.0493226051330566,1.0835695266723633,-0.1031970158219337,-0.4570569992065429,-0.1668351590633392,-0.0482792556285858,0.0,0.0,-0.8730834722518921,-0.5094001293182373
-0.050399113446474,1.073198914527893,-0.1064547076821327,-0.4610536694526672,-0.1680308282375335,-0.0239133387804031,0.0,0.0,-0.8487270474433899,-0.1004606485366821
-0.051457691937685,1.062725067138672,-0.1049242988228797,-0.4656119644641876,-0.1689733117818832,-0.0188497938215732,0.0,0.0,-0.7300729751586914,0.0366792678833007
-0.0524980537593364,1.0521481037139893,-0.1033544167876243,-0.470170110464096,-0.1696552038192749,-0.0136376172304153,0.0,0.0,-0.6392448544502258,-0.5563881397247314
-0.0535567291080951,1.041471004486084,-0.106382705271244,-0.4744760692119598,-0.1691381633281707,0.0103409262374043,0.0,0.0,-0.6072983741760254,-0.1376755237579345
-0.0545962341129779,1.0306905508041382,-0.1047377958893776,-0.4790340065956116,-0.168346494436264,0.015833344310522,0.0,0.0,-0.9270817637443542,-0.0799081325531005
-0.0556159988045692,1.0198071002960205,-0.1030574291944503,-0.4835919141769409,-0.1672736555337906,0.0214568860828876,0.0,0.0,-0.8352290987968445,-0.2662762999534607
-0.0566159263253212,1.0088202953338623,-0.1013430505990982,-0.4881497025489807,-0.1659133732318878,0.0272052735090255,0.0,0.0,-0.9613751769065856,0.2133471965789795
-0.0575953498482704,0.9977304339408876,-0.099596157670021,-0.4927075505256653,-0.1642597764730453,0.0330720916390419,0.0,0.0,-0.9799293279647828,0.2784979343414306
-0.0585539825260639,0.9865370988845824,-0.0978182703256607,-0.4972654283046722,-0.1623072624206543,0.0390505827963352,0.0,0.0,-0.9816978573799132,-0.0121781826019287
-0.0594914443790912,0.9752404689788818,-0.0960109308362007,-0.501823365688324,-0.1600505858659744,0.0451339147984981,0.0,0.0,-0.88721764087677,0.3631328344345093
-0.0604075416922569,0.9638407230377196,-0.0941757410764694,-0.5063813924789429,-0.1574848145246505,0.0513150170445442,0.0,0.0,-0.9118105173110962,0.5390775203704834
-0.0612498298287391,0.9523252844810486,-0.0857688337564468,-0.5116389989852905,-0.1559415459632873,0.0308654252439737,0.0,0.0,-0.9434992671012878,-0.1972174048423767
-0.062070082873106,0.9407063722610474,-0.0838827639818191,-0.5161969065666199,-0.1540805250406265,0.0372204668819904,0.0,0.0,-0.7814163565635681,0.3657411336898803
-0.062868021428585,0.9289843440055848,-0.0819738060235977,-0.5207548141479492,-0.1518979370594024,0.0436513945460319,0.0,0.0,-0.986049473285675,0.3246916532516479
-0.0636433586478233,0.9171590209007264,-0.080043688416481,-0.5253128409385681,-0.1493904143571853,0.0501504056155681,0.0,0.0,-0.9994714260101318,0.2382851839065551
-0.0643959045410156,0.9052304029464722,-0.0780941545963287,-0.5298710465431213,-0.1465549170970916,0.0567098073661327,0.0,0.0,-0.9680174589157104,0.7931269407272339
-0.06507358700037,0.8931837677955627,-0.0696052759885788,-0.5352299213409424,-0.1447251141071319,0.0365960150957107,0.0,0.0,-0.9242842197418212,-0.4163724184036255
-0.0657281875610351,0.8810338377952576,-0.0676221325993537,-0.5397879481315613,-0.1425625085830688,0.0432521477341651,0.0,0.0,-0.9594106674194336,-0.595429539680481
-0.0663950890302658,0.8687908053398132,-0.0701137334108352,-0.5438079833984375,-0.139146476984024,0.0683202072978019,0.0,0.0,-0.998041808605194,-0.2708284854888916
-0.0670384392142295,0.856444776058197,-0.0681044608354568,-0.5483667850494385,-0.1353944689035415,0.0750402435660362,0.0,0.0,-0.993033230304718,-0.2566463947296142
-0.0676582306623458,0.8439956307411194,-0.0660848766565322,-0.5529258847236633,-0.1313054710626602,0.0817795246839523,0.0,0.0,-0.9957227110862732,0.502651572227478
-0.0682120323181152,0.8314307332038879,-0.0587252676486969,-0.5581502914428711,-0.1279705017805099,0.0666994899511337,0.0,0.0,-0.9914241433143616,-0.39690762758255
-0.0687419921159744,0.8187627196311951,-0.056690651923418,-0.562709391117096,-0.124297946691513,0.0734513700008392,0.0,0.0,-0.9893336892127992,0.1314915418624878
-0.0692481994628906,0.8059916496276855,-0.0546514876186847,-0.5672686696052551,-0.1202881336212158,0.080196239054203,0.0,0.0,-0.9947331547737122,-0.3996257781982422
-0.0697306618094444,0.7931177616119385,-0.0526097603142261,-0.5718284249305725,-0.1159418746829032,0.0869249701499939,0.0,0.0,-0.9928483963012696,0.0533727407455444
-0.0701891928911209,0.7801410555839539,-0.0505674891173839,-0.5763885378837585,-0.1112604513764381,0.0936283469200134,0.0,0.0,-0.997444748878479,-0.0278770923614501
-0.0706238746643066,0.7670614123344421,-0.0485267117619514,-0.5809490084648132,-0.1062456145882606,0.1002969890832901,0.0,0.0,-0.9861944913864136,0.8584678173065186
-0.0709642395377159,0.7538776993751526,-0.0376398935914039,-0.5856916308403015,-0.1026690080761909,0.0715320110321044,0.0,0.0,-0.9830995202064514,-0.5243491530418396
-0.0713170021772384,0.7405903935432434,-0.04012406244874,-0.5902213454246521,-0.0978631675243377,0.0961170345544815,0.0,0.0,-0.9947524070739746,0.4450302124023437
-0.0716463103890419,0.7272003889083862,-0.0381002910435199,-0.5947824120521545,-0.0927319973707199,0.1026234254240989,0.0,0.0,-0.9876102805137634,-0.0753606557846069
-0.071952149271965,0.7137076258659363,-0.0360865667462348,-0.5993438363075256,-0.0872792080044746,0.1090558022260665,0.0,0.0,-0.9803748726844788,0.3881609439849853
-0.0722347274422645,0.7001123428344727,-0.034085139632225,-0.6039057374000549,-0.0815090090036392,0.1154038310050964,0.0,0.0,-0.9978111386299132,0.6408677101135254
-0.0724411010742187,0.6864093542098999,-0.0254249274730682,-0.6087778806686401,-0.0767676755785942,0.0948266088962555,0.0,0.0,-0.98867666721344,0.2993695735931396
-0.0726245865225792,0.6726034879684448,-0.0234548673033714,-0.6133395433425903,-0.0717189684510231,0.1009744852781295,0.0,0.0,-0.9883745312690736,0.7241326570510864
-0.0727214813232421,0.6586880087852478,-0.0134567720815539,-0.6182869672775269,-0.0679865702986717,0.0746480673551559,0.0,0.0,-0.996999740600586,0.579601526260376
-0.0727530494332313,0.6446608901023865,-0.0061273919418454,-0.6232950091362,-0.0650494322180748,0.0587426051497459,0.0,0.0,-0.9758597016334534,0.0258228778839111
-0.0727626830339431,0.6305311322212219,-0.0042225453071296,-0.6278559565544128,-0.0618240088224411,0.0645083039999008,0.0,0.0,-0.9859606623649596,0.511533260345459
-0.0727126151323318,0.6162897944450378,0.0024383168201893,-0.6328417658805847,-0.0592837631702423,0.0508047528564929,0.0,0.0,-0.9493278861045836,-0.2507649660110473
-0.0726412758231163,0.6019458174705505,0.0042868251912295,-0.6374026536941528,-0.0564708486199379,0.0562586486339569,0.0,0.0,-0.8582236766815186,0.1245608329772949
-0.0725490599870681,0.5874990820884705,0.0061031179502606,-0.6419638395309448,-0.0533938929438591,0.0615389570593833,0.0,0.0,-0.9650236964225768,-0.043614387512207
-0.0724365264177322,0.5729497075080872,0.0078844223171472,-0.6465252637863159,-0.0500622205436229,0.0666337013244628,0.0,0.0,-0.9547179341316224,0.6222426891326904
-0.0722657218575477,0.5582882165908813,0.0144517971202731,-0.6515337824821472,-0.0474590100347995,0.0520642213523387,0.0,0.0,-0.8130691051483154,0.3190784454345703
-0.0720753669738769,0.5435240864753723,0.0161545798182487,-0.6560951471328735,-0.0446214415132999,0.0567511431872844,0.0,0.0,-0.7612705826759338,0.03121018409729
-0.0718663185834884,0.5286572575569153,0.0178136564791202,-0.660656750202179,-0.0415606647729873,0.0612156093120574,0.0,0.0,-0.3197922706604004,0.4396932125091553
-0.0716388672590255,0.513687789440155,0.0194259863346815,-0.6652185320854187,-0.0382884033024311,0.065445065498352,0.0,0.0,-0.3118815422058105,0.5722591876983643
-0.0713494271039962,0.4986161589622497,0.0265614483505487,-0.6697929501533508,-0.0359324738383293,0.047118455171585,0.0,0.0,-0.1751177906990051,-0.084595501422882
-0.0710430145263671,0.4834417998790741,0.0280709471553564,-0.674354612827301,-0.0333904698491096,0.050840176641941,0.0,0.0,0.4730720520019531,0.246024489402771
-0.0706890076398849,0.4686213433742523,0.0325573347508907,-0.6586256623268127,-0.0305782500654459,0.0562442913651466,0.0,0.0,-0.4818143844604492,-0.3844949007034302
-0.0703193694353103,0.4536982476711273,0.0339510925114154,-0.6631876826286316,-0.0276078637689352,0.0594078786671161,0.0,0.0,0.0744004249572753,0.2036257982254028
-0.0698291808366775,0.4392255544662475,0.0454244315624237,-0.6431699991226196,-0.0240515936166048,0.071125254034996,0.0,0.0,-0.4072569012641907,0.5453780889511108
-0.0692718476057052,0.4246441125869751,0.053349632769823,-0.6480252742767334,-0.0217036828398704,0.0469581969082355,0.0,0.0,0.6259748935699463,0.0807540416717529
-0.0686910599470138,0.4110691547393799,0.0556202605366706,-0.6032999157905579,-0.0192699246108531,0.0486751943826675,0.0,0.0,-0.3545565605163574,0.5541706085205078
-0.0680518150329589,0.3973943889141083,0.0625324100255966,-0.607749342918396,-0.0178996566683053,0.0274054016917943,0.0,0.0,0.3435547351837158,0.5377151966094971
-0.0672390013933181,0.3844285011291504,0.0806478485465049,-0.5762542486190796,-0.0172735936939716,0.0125212939456105,0.0,0.0,-0.5765855312347412,-0.2023187279701233
-0.0664158836007118,0.3713600039482116,0.081613965332508,-0.5808159708976746,-0.0165876280516386,0.0137191768735647,0.0,0.0,-0.4362668395042419,-0.4466317892074585
-0.0655836090445518,0.3581887781620025,0.0824969559907913,-0.5853776335716248,-0.015860129147768,0.0145500469952821,0.0,0.0,-0.1335501670837402,-0.0021997094154357
-0.0647430419921875,0.3449150025844574,0.0832934826612472,-0.5899394154548645,-0.0151099395006895,0.0150038106366992,0.0,0.0,0.4802651405334472,-0.6804534196853638
-0.0639645606279373,0.332304835319519,0.0757640749216079,-0.5604296922683716,-0.0130475256592035,0.0412484444677829,0.0,0.0,0.3563864231109619,0.2445049285888672
-0.0632737129926681,0.3205736875534057,0.0674954950809478,-0.5213706493377686,-0.0114741036668419,0.0314681567251682,0.0,0.0,0.3089382648468017,-0.1241167783737182
-0.0625026673078537,0.3095680475234985,0.0752220526337623,-0.4891263544559479,-0.0096182907000184,0.0371164567768573,0.0,0.0,-0.6302123665809631,-0.03898686170578
-0.0617280006408691,0.2984598577022552,0.0756409913301467,-0.4936884641647339,-0.0078195389360189,0.0359752960503101,0.0,0.0,-0.4436796903610229,-0.3162049651145935
-0.0609509460628032,0.2872489988803863,0.075958177447319,-0.4982505440711975,-0.0060986559838056,0.0344177298247814,0.0,0.0,0.0144610404968261,-0.3813648223876953
-0.0601861961185932,0.2763944268226623,0.0749027356505394,-0.4824223518371582,-0.0045474055223166,0.0310251116752624,0.0,0.0,-0.1898470520973205,-0.198585033416748
-0.0594216361641883,0.2654371261596679,0.0750086978077888,-0.4869843125343323,-0.0031164076644927,0.0286199450492858,0.0,0.0,0.4734617471694946,-0.1795465350151062
-0.0587912574410438,0.2550785839557647,0.0623611286282539,-0.4603791832923889,-0.0024479341227561,0.0133693050593137,0.0,0.0,-0.2285428047180175,-0.3804191350936889
-0.0581636428833007,0.2446174025535583,0.062246985733509,-0.464940994977951,-0.0019427399383857,0.010103921405971,0.0,0.0,0.3192245960235595,-0.4261220097541809
-0.0574906356632709,0.2344953864812851,0.0667473226785659,-0.4498671591281891,-0.0013958209892734,0.0109383258968591,0.0,0.0,-0.5042264461517334,-0.1150577664375305
-0.056823156774044,0.2242707312107086,0.0664061829447746,-0.4544289708137512,-0.0010553816100582,0.0068087256513535,0.0,0.0,0.3883343935012817,-0.5724421143531799
-0.0562280640006065,0.2149264216423034,0.0582887753844261,-0.4152993857860565,0.0001496187906013,0.024099975824356,0.0,0.0,-0.2110741734504699,-0.6496297717094421
-0.0556804649531841,0.2054871171712875,0.0527941882610321,-0.4195265769958496,0.0020908357109874,0.0388242229819297,0.0,0.0,0.0268460512161254,0.3937739133834839
-0.0550957694649696,0.196485698223114,0.0565502271056175,-0.4000660181045532,0.0039806878194212,0.0377971231937408,0.0,0.0,-0.0185157060623168,0.0709249973297119
-0.0545221343636512,0.187381699681282,0.05574382096529,-0.4046279788017273,0.0055788299068808,0.0319630615413188,0.0,0.0,0.3556306362152099,-0.3974615335464477
-0.0539147369563579,0.1791448146104812,0.0592067316174507,-0.3660909831523895,0.0070947944186627,0.0303192175924778,0.0,0.0,-0.0258629918098449,-0.6086203455924988
-0.0533627495169639,0.1708018630743026,0.05293420702219,-0.3708123862743377,0.0093262884765863,0.0446298979222774,0.0,0.0,0.1974635124206543,-0.4730172157287597
-0.0529187209904193,0.1630271822214126,0.0429130420088768,-0.3455515503883362,0.0107947867363691,0.0293700397014617,0.0,0.0,-0.2986751198768616,-0.512413740158081
-0.052540399134159,0.1551477015018463,0.0354724712669849,-0.3502174615859985,0.0131269879639148,0.0466439649462699,0.0,0.0,-0.3937366008758545,0.5047652721405029
-0.052141286432743,0.1471660286188125,0.0389228500425815,-0.354749858379364,0.0140995942056179,0.0194522161036729,0.0,0.0,-0.2752136588096618,-0.6037313938140869
-0.0518071167171001,0.1390795558691024,0.0316946879029274,-0.3594146370887756,0.0158107075840234,0.0342220962047576,0.0,0.0,-0.3330739736557007,-0.1036548018455505
-0.0514931678771972,0.1308903843164444,0.0300917774438858,-0.3639760315418243,0.0170933045446872,0.0256517138332128,0.0,0.0,-0.0141480565071105,0.7574588060379028
-0.051131248474121,0.1226037144660949,0.0371156074106693,-0.3682877123355865,0.0161793380975723,-0.0182792413979768,0.0,0.0,0.3722449541091919,0.1025983095169067
-0.0507822036743164,0.115219622850418,0.0362032204866409,-0.3281677663326263,0.0148984976112842,-0.0256170090287923,0.0,0.0,-0.2355497479438781,-0.7691120505332947
