x_pos,y_pos,x_vel,y_vel,angle,ang_vel,leg_1,leg_2,main_booster,lat_booster
-0.0014984130393713,1.403158187866211,-0.1516169309616089,-0.3449691832065582,0.0015933775575831,0.0314179509878158,0.0,0.0,0.2885920776815998,-0.7894634328634693
-0.0029897689819335,1.39548921585083,-0.1521792560815811,-0.3408494889736175,0.0046039158478379,0.0602170825004577,0.0,0.0,0.6732633697538275,-0.6531117008053104
-0.0043653487227857,1.3879632949829102,-0.1421054005622863,-0.3345060646533966,0.0091029750183224,0.0899893194437027,0.0,0.0,0.5961232041311613,0.8394457831437117
-0.0057864189147949,1.3806917667388916,-0.1445911824703216,-0.3232017159461975,0.0115485517308115,0.0489163696765899,0.0,0.0,0.7194185936390891,-0.6499806692592882
-0.0071020126342773,1.3739755153656006,-0.1355259120464325,-0.2985332906246185,0.0154803888872265,0.0786439627408981,0.0,0.0,-0.0582183789842269,0.9908626642233104
-0.008303833194077,1.366793870925903,-0.1215532049536705,-0.3191980719566345,0.0168330036103725,0.0270545836538076,0.0,0.0,-0.5318195771315355,0.9209024539583032
-0.0094193462282419,1.359148025512695,-0.1109667271375656,-0.3398146331310272,0.0162602197378873,-0.0114569384604692,0.0,0.0,0.6210917311743944,0.952461945199023
-0.0102897640317678,1.3519965410232544,-0.0846131518483161,-0.3178159892559051,0.0138602629303932,-0.04800371453166,0.0,0.0,-0.2195961513517845,0.5052528497094387
-0.0111072538420557,1.3443851470947266,-0.0781616568565368,-0.3382535278797149,0.0103056970983743,-0.0710979029536247,0.0,0.0,-0.8767689623425852,-0.9242604625162446
-0.0119853019714355,1.3363122940063477,-0.0858792513608932,-0.3587756156921386,0.0084099881350994,-0.0379176847636699,0.0,0.0,-0.0927832348622048,-0.6502224299395674
-0.0128959659487009,1.3277734518051147,-0.0900968685746193,-0.3795048892498016,0.0074419593438506,-0.0193621348589658,0.0,0.0,-0.6493024861089711,0.742890167287085
-0.0137314796447753,1.318767547607422,-0.0807315185666084,-0.400251179933548,0.0046523050405085,-0.05579824000597,0.0,0.0,0.0163081906078661,0.6423543817129123
-0.014418601989746,1.3099452257156372,-0.0645375624299049,-0.392091691493988,0.0005168351344764,-0.082716666162014,0.0,0.0,-0.248715667999843,0.7639107429602129
-0.0150313377380371,1.300649881362915,-0.0551996454596519,-0.4131307303905487,-0.0054841535165905,-0.120030865073204,0.0,0.0,-0.590777206668099,0.9178412348725692
-0.015548420138657,1.290898084640503,-0.0431885793805122,-0.4334688484668731,-0.0139083871617913,-0.1685000658035278,0.0,0.0,0.2311739384824649,-0.6588985007058872
-0.0160183906555175,1.2810046672821045,-0.0397543683648109,-0.4397932589054107,-0.0210561174899339,-0.1429681330919265,0.0,0.0,-0.57808729611618,-0.9562390584752124
-0.0165423396974802,1.2706587314605713,-0.0464708022773265,-0.4599219262599945,-0.0269184075295925,-0.1172567009925842,0.0,0.0,0.8519336252199436,-0.5563590690722136
-0.0169262886047363,1.2604668140411377,-0.0338898375630378,-0.4530610144138336,-0.0313679203391075,-0.0889984816312789,0.0,0.0,-0.4873692380913694,-0.996853646182116
-0.0173742286860942,1.249821424484253,-0.0417999029159545,-0.4731961190700531,-0.0343355573713779,-0.0593577995896339,0.0,0.0,0.66002472080063,0.7026256657698771
-0.0178348533809185,1.239564061164856,-0.0412857420742511,-0.4560009241104126,-0.0390706472098827,-0.0947102308273315,0.0,0.0,0.5538830201460567,0.5423162089045285
-0.0180962570011615,1.2298946380615234,-0.0204138830304145,-0.4299114644527435,-0.0447293631732463,-0.1131847351789474,0.0,0.0,-0.3736885367879183,0.96582394101593
-0.0182809829711914,1.2197489738464355,-0.0105990311130881,-0.451173335313797,-0.0525259673595428,-0.1559461206197738,0.0,0.0,-0.0908780355114253,-0.961530719775615
-0.0185271259397268,1.2091413736343384,-0.0180763434618711,-0.471692144870758,-0.0590009577572345,-0.1295113712549209,0.0,0.0,-0.6158131675833776,-0.6431385090124058
-0.0188210494816303,1.1980650424957275,-0.0238176360726356,-0.4925120770931244,-0.0645266324281692,-0.1105232089757919,0.0,0.0,0.8766413855986417,-0.6148248875185083
-0.0192920677363872,1.1876405477523804,-0.0421212911605834,-0.4635395109653473,-0.0694670528173446,-0.0988172069191932,0.0,0.0,0.8415726334092857,0.658456652228882
-0.0198363307863473,1.1779195070266724,-0.0474791787564754,-0.4323811531066894,-0.0763316079974174,-0.1372911632061004,0.0,0.0,-0.6644667757106406,0.7695246056858821
-0.0203239433467388,1.1677310466766355,-0.0400803312659263,-0.453281432390213,-0.0849174931645393,-0.1717176735401153,0.0,0.0,-0.2960576741398071,0.887967313024057
-0.0207612998783588,1.1570801734924316,-0.0334946364164352,-0.4739880561828613,-0.0950661450624466,-0.2029731720685959,0.0,0.0,0.5922092579258944,0.7331490761095726
-0.0212128646671772,1.1470972299575806,-0.0330158583819866,-0.4445078074932098,-0.1071195751428604,-0.2410687506198883,0.0,0.0,-0.1075967896738419,-0.8966247441640292
-0.0217437744140625,1.1366584300994873,-0.0426328666508197,-0.4647313058376312,-0.1175039261579513,-0.2076870650053024,0.0,0.0,-0.0337625979369831,0.8547755887850536
-0.0222108848392963,1.1257526874542236,-0.0343301817774772,-0.4857177138328552,-0.1298236101865768,-0.2463935613632202,0.0,0.0,-0.9694468379020692,-0.9897713661193848
-0.0227726940065622,1.1143943071365356,-0.0458757355809211,-0.5057461857795715,-0.1400941014289856,-0.2054097205400467,0.0,0.0,-0.9980387687683104,-0.899974524974823
-0.0234207157045602,1.1025967597961426,-0.0563697926700115,-0.5251561999320984,-0.1484954059123993,-0.1680261939764022,0.0,0.0,-0.9847252368927002,-0.9741541743278505
-0.0241606719791889,1.0903441905975342,-0.0675577670335769,-0.5452154278755188,-0.1549274325370788,-0.1286405026912689,0.0,0.0,-0.8704275488853455,-0.7986986637115479
-0.024968147277832,1.0776420831680298,-0.0756911411881446,-0.5650713443756104,-0.1599842011928558,-0.1011353358626365,0.0,0.0,-0.9523271322250366,-0.9669422507286072
-0.0258550643920898,1.0644993782043457,-0.0853313729166984,-0.5844860672950745,-0.1633404344320297,-0.0671245604753494,0.0,0.0,-0.5734377503395081,-0.7568196058273315
-0.0268108360469341,1.0509023666381836,-0.0936259105801582,-0.6045262813568115,-0.1652982831001281,-0.0391568318009376,0.0,0.0,-0.9408202767372132,-0.9583077430725098
-0.027842616662383,1.0368645191192627,-0.1028365045785904,-0.623944878578186,-0.1656348556280136,-0.006731444504112,0.0,0.0,-0.7207362055778503,-0.7275431156158447
-0.0289403907954692,1.0223838090896606,-0.1108138188719749,-0.6434640884399414,-0.1645954251289367,0.020788699388504,0.0,0.0,-0.6158275604248047,-0.6048598885536194
-0.0300891883671283,1.007449746131897,-0.1168960332870483,-0.6635247468948364,-0.1625822633504867,0.0402631387114524,0.0,0.0,-0.5139646530151367,-0.2411320209503173
-0.0312438961118459,0.9920496940612792,-0.1173011660575866,-0.6842447519302368,-0.1607503890991211,0.036637432873249,0.0,0.0,-0.1255838871002197,-0.3607227206230163
-0.0324040427803993,0.976184070110321,-0.1176610812544822,-0.7049646377563477,-0.1590999066829681,0.0330092087388038,0.0,0.0,0.0851519107818603,0.2502169609069824
-0.0334733948111534,0.9601425528526306,-0.1086988449096679,-0.7127677798271179,-0.1573358029127121,0.0352820083498954,0.0,0.0,-0.7694392800331116,-0.7102392911911011
-0.034593392163515,0.9436449408531188,-0.1147794127464294,-0.7329362630844116,-0.1545671075582504,0.055374126881361,0.0,0.0,-0.3284255266189575,0.6039350032806396
-0.0356739051640033,0.926664173603058,-0.1095072403550148,-0.7545449733734131,-0.1531110852956771,0.0291201975196599,0.0,0.0,-0.1069667339324951,-0.516608476638794
-0.0367952361702919,0.909221351146698,-0.1143510192632675,-0.7750142216682434,-0.1508851647377014,0.0445184037089347,0.0,0.0,-0.0137060284614562,-0.2621376514434814
-0.0379184707999229,0.8913126587867737,-0.1143770366907119,-0.7957341074943542,-0.1488413363695144,0.0408766642212867,0.0,0.0,0.1009411811828613,0.2306925058364868
-0.039034653455019,0.8737789988517761,-0.1131336838006973,-0.7791172862052917,-0.147326186299324,0.0303029175847768,0.0,0.0,0.3252817392349243,-0.074333369731903
-0.0401634201407432,0.856741189956665,-0.1137277707457542,-0.7571529150009155,-0.1464857161045074,0.0168095175176858,0.0,0.0,0.0620914697647094,-0.3554621934890747
-0.0412572845816612,0.8397258520126343,-0.1099776029586792,-0.756181001663208,-0.1458906084299087,0.0119020920246839,0.0,0.0,0.3013125658035278,-0.7406491637229919
-0.0422162041068077,0.8228971362113953,-0.0979601815342903,-0.7477426528930664,-0.1438273042440414,0.0412662290036678,0.0,0.0,0.0320392847061157,-0.6991810202598572
-0.0432011596858501,0.8063112497329712,-0.1017564162611961,-0.7368400692939758,-0.1405791044235229,0.0649643242359161,0.0,0.0,-0.1405922174453735,-0.0103704333305358
-0.0441819205880165,0.789259672164917,-0.1011513024568557,-0.7575603127479553,-0.1375135332345962,0.0613113418221473,0.0,0.0,-0.0300666689872741,-0.1927051544189453
-0.0451571457087993,0.7717423439025879,-0.1004178747534751,-0.7782803177833557,-0.1346306353807449,0.0576583333313465,0.0,0.0,-0.1524218916893005,0.4404900074005127
-0.0461256019771099,0.7537593841552734,-0.0995500013232231,-0.7990002036094666,-0.131930336356163,0.0540059804916381,0.0,0.0,0.5914645195007324,0.1930524110794067
-0.0471173301339149,0.7360037565231323,-0.1012661084532737,-0.7889540791511536,-0.1298383176326751,0.0418400354683399,0.0,0.0,0.677460789680481,0.3993130922317505
-0.0478998199105262,0.7189674973487854,-0.0806097835302352,-0.7569659948348999,-0.1274871379137039,0.0470234118402004,0.0,0.0,-0.1271184682846069,0.2056726217269897
-0.0486711487174034,0.7014654874801636,-0.0793035253882408,-0.7776857018470764,-0.1253181397914886,0.0433797910809516,0.0,0.0,-0.168584406375885,-0.4333436489105224
-0.0494295135140419,0.6834976673126221,-0.0778402239084243,-0.7984050512313843,-0.1233310401439666,0.0397418439388275,0.0,0.0,0.4341506958007812,-0.5535451173782349
-0.0502037033438682,0.6661055088043213,-0.0801806077361106,-0.7727582454681396,-0.1205843091011047,0.0549345314502716,0.0,0.0,0.2430552244186401,-0.170626163482666
-0.050890065729618,0.6486555933952332,-0.0713914483785629,-0.7753325700759888,-0.1178404539823532,0.0548769310116767,0.0,0.0,0.1592398881912231,0.1853837966918945
-0.0515705123543739,0.6314854025840759,-0.0703000426292419,-0.7629431486129761,-0.1156025752425193,0.0447575859725475,0.0,0.0,-0.0237968564033508,0.0437662601470947
-0.0522314086556434,0.6138495206832886,-0.0681614577770233,-0.7836625576019287,-0.1135444939136505,0.0411618426442146,0.0,0.0,0.1614964008331298,-0.4965302348136902
-0.0528056137263774,0.5963870286941528,-0.0593910999596118,-0.775958240032196,-0.111588716506958,0.039115373045206,0.0,0.0,0.469336986541748,-0.547967791557312
-0.0533528327941894,0.5789921879768372,-0.0576282516121864,-0.7728883028030396,-0.1087013557553291,0.057747084647417,0.0,0.0,0.6403918266296387,-0.2832412719726562
-0.0539335235953331,0.5620266795158386,-0.0602207593619823,-0.7538701295852661,-0.1065593585371971,0.0428398735821247,0.0,0.0,0.797879695892334,-0.7602506875991821
-0.0544219017028808,0.5459986329078674,-0.052401065826416,-0.7121047973632812,-0.1030191853642463,0.0708032771944999,0.0,0.0,-0.074602723121643,-0.1030137538909912
-0.0548812858760356,0.5295048356056213,-0.0493370778858661,-0.7328245043754578,-0.0996529534459114,0.067324623465538,0.0,0.0,0.4599936008453369,-0.6633157730102539
-0.0552603714168071,0.5136829614639282,-0.042516566812992,-0.7028947472572327,-0.0950825959444046,0.0914073586463928,0.0,0.0,0.2004376649856567,-0.0464268326759338
-0.0556420311331748,0.4979187250137329,-0.042288314551115,-0.7003768086433411,-0.0909987166523933,0.0816775038838386,0.0,0.0,0.1315126419067382,-0.2878874540328979
-0.0560094825923442,0.4823900759220123,-0.0403975397348403,-0.6899451017379761,-0.087373711168766,0.0725003108382225,0.0,0.0,0.249936819076538,-0.2873176336288452
-0.0562758445739746,0.4670961201190948,-0.0302373766899108,-0.6795237064361572,-0.0838064551353454,0.0713449418544769,0.0,0.0,0.7292468547821045,0.0389517545700073
-0.0565638542175293,0.4526745676994324,-0.0316059775650501,-0.640802800655365,-0.0810254961252212,0.0556191392242908,0.0,0.0,0.1038289070129394,-0.1041871905326843
-0.0567309372127056,0.4383580684661865,-0.0195871572941541,-0.6361371874809265,-0.0781769156455993,0.0569715872406959,0.0,0.0,0.3396656513214111,0.1183582544326782
-0.0568577758967876,0.4240531027317047,-0.0152817294001579,-0.6356434226036072,-0.0756108164787292,0.0513220950961113,0.0,0.0,0.7123627662658691,-0.3568083047866821
-0.0568443313241004,0.4097781777381897,-0.0014175490941852,-0.634303629398346,-0.0728708878159523,0.0547987446188926,0.0,0.0,0.3446171283721924,-0.2064070105552673
-0.0567896850407123,0.3954534530639648,0.0029615482781082,-0.6365355849266052,-0.0703979432582855,0.0494587495923042,0.0,0.0,0.8190310001373291,-0.2754467725753784
-0.0566342361271381,0.381970465183258,0.0132336448878049,-0.5991359353065491,-0.0681111365556716,0.0457364507019519,0.0,0.0,0.1569744348526001,-0.1935077309608459
-0.0563334450125694,0.3688707649707794,0.0276443567126989,-0.582099974155426,-0.0657036080956459,0.0481506511569023,0.0,0.0,-0.4138748049736023,-0.788936197757721
-0.0560537353157997,0.355320394039154,0.0237820725888013,-0.6020599603652954,-0.0615642480552196,0.0827874839305877,0.0,0.0,0.6486635208129883,-0.3850241899490356
-0.0558282844722271,0.3418110013008117,0.0190932266414165,-0.6002808809280396,-0.058149691671133,0.0682911053299903,0.0,0.0,0.6575837135314941,-0.0038024187088012
-0.0554601661860942,0.3290197849273681,0.0332962051033973,-0.5683649778366089,-0.0546694099903106,0.0696055889129638,0.0,0.0,0.4239265918731689,-0.2325706481933593
-0.0550939552485942,0.3165127038955688,0.0336131379008293,-0.5557623505592346,-0.051708098500967,0.0592261478304863,0.0,0.0,0.2470932006835937,-0.4686676263809204
-0.0546829216182231,0.3043093681335449,0.0384100042283535,-0.5422809720039368,-0.0490463860332965,0.0532342903316021,0.0,0.0,0.2719436883926391,-0.1218510270118713
-0.0541931167244911,0.2924472093582153,0.0464331582188606,-0.5271235108375549,-0.0465282052755355,0.0503634884953498,0.0,0.0,0.0014891624450683,-0.5016881823539734
-0.0536046996712684,0.280646413564682,0.0552758947014808,-0.5243753790855408,-0.0430053025484085,0.0704582408070564,0.0,0.0,0.3659467697143554,-0.4247322082519531
-0.052919577807188,0.2688024938106537,0.0649441480636596,-0.5262976288795471,-0.0394772961735725,0.0705602467060089,0.0,0.0,0.3285021781921386,0.0086171627044677
-0.0520804412662982,0.2569735050201416,0.0800682976841926,-0.5256351828575134,-0.0356816798448562,0.0759123861789703,0.0,0.0,0.4111768007278442,-0.6849037408828735
-0.0510709770023822,0.2454051822423935,0.0955367535352706,-0.5140279531478882,-0.0303443893790245,0.1067460402846336,0.0,0.0,0.4155703783035278,-0.3115298748016357
-0.0498620979487896,0.2338723987340927,0.1149818897247314,-0.5124603509902954,-0.0245151370763778,0.1165849789977073,0.0,0.0,0.4460349082946777,-0.7134012579917908
-0.0486276634037494,0.2228675484657287,0.1161653250455856,-0.4890018701553345,-0.0173281468451023,0.1437398493289947,0.0,0.0,0.114270806312561,-0.6507063508033752
-0.0473394393920898,0.2121703922748565,0.1202389225363731,-0.4753547310829162,-0.0088599687442183,0.1693635880947113,0.0,0.0,-0.034224510192871,-0.6488862633705139
-0.046017836779356,0.2010111212730407,0.1225815787911415,-0.4959395229816437,0.0005974024534225,0.189147263765335,0.0,0.0,0.8262128829956055,-0.2657486200332641
-0.0445094108581543,0.1899282336235046,0.1407658010721206,-0.4926044344902038,0.0105448653921484,0.1989493668079376,0.0,0.0,0.7850079536437988,-0.5944381356239319
-0.0430377945303916,0.1792025417089462,0.1360620856285095,-0.4768110513687134,0.0214981604367494,0.219065859913826,0.0,0.0,0.591559886932373,-0.7994912266731262
-0.0414790138602256,0.1692694276571273,0.1430321037769317,-0.4417028129100799,0.0341860987246036,0.2537588477134704,0.0,0.0,0.3032423257827759,-0.1012721061706543
-0.0398746505379676,0.1595443785190582,0.1476785838603973,-0.4325610697269439,0.0467891581356525,0.2520613074302673,0.0,0.0,0.2596968412399292,-0.6589356660842896
-0.0383761413395404,0.1502593606710434,0.1359444409608841,-0.4131601750850677,0.0605427511036396,0.2750717997550964,0.0,0.0,-0.3642665147781372,-0.2777553796768188
-0.0367959961295127,0.1405107080936432,0.1440863460302353,-0.4338932037353515,0.0743128359317779,0.2754018008708954,0.0,0.0,0.5661236047744751,0.0197081565856933
-0.0352368354797363,0.131356656551361,0.1422242820262909,-0.4075824320316314,0.0878724977374076,0.2711930871009826,0.0,0.0,0.3433518409729004,0.1192283630371093
-0.0337146744132041,0.1226397603750228,0.138828694820404,-0.3882571160793304,0.1011528000235557,0.265606015920639,0.0,0.0,0.3323386907577514,0.0715250968933105
-0.0321684852242469,0.1140554025769233,0.1412930637598037,-0.3824826180934906,0.1143792942166328,0.2645300328731537,0.0,0.0,0.3773567676544189,-0.0610436201095581
-0.0306908600032329,0.1057376936078071,0.1348662823438644,-0.3707131445407867,0.1272017657756805,0.2564495205879211,0.0,0.0,0.6311686038970947,0.408144474029541
-0.0293400771915912,0.0976970791816711,0.1228435784578323,-0.3584468066692352,0.1393894106149673,0.2437525242567062,0.0,0.0,0.3596919775009155,0.4561452865600586
-0.027898121625185,0.0900891870260238,0.1315124332904815,-0.3393619358539581,0.1520388424396515,0.2529884874820709,0.0,0.0,0.2248399257659912,0.4700379371643066
-0.0263650901615619,0.0824334472417831,0.1403801292181015,-0.341629296541214,0.1649630069732666,0.2584833204746246,0.0,0.0,0.5665168762207031,0.631000280380249
-0.0246662143617868,0.0754381045699119,0.157841682434082,-0.3122884631156921,0.177022099494934,0.2411818951368332,0.0,0.0,0.1054869890213012,0.0031315088272094
-0.0229848865419626,0.0687413066625595,0.1561122387647628,-0.2991136610507965,0.1890853494405746,0.2412653863430023,0.0,0.0,-0.0881316065788269,0.2438645362854004
-0.0212141033262014,0.0615805238485336,0.1650172621011734,-0.3198440372943878,0.2012283951044082,0.2428609579801559,0.0,0.0,0.773923397064209,0.4571123123168945
-0.0193971637636423,0.0548950992524623,0.1691871434450149,-0.2988819777965545,0.213834598660469,0.2521241009235382,0.0,0.0,0.7030563354492188,0.1090008020401001
-0.0176755897700786,0.048977218568325,0.1596409827470779,-0.2648821771144867,0.2264948934316635,0.2532059848308563,0.0,0.0,0.3369038105010986,-0.4419885277748108
-0.0159582141786813,0.0435436330735683,0.1589377075433731,-0.2435118108987808,0.2394746094942093,0.2595943808555603,0.0,0.0,0.4134629964828491,-0.1176245808601379
-0.0141756059601902,0.0382425896823406,0.1651034951210022,-0.2378017753362655,0.252869188785553,0.2678914368152618,0.0,0.0,0.1392301321029663,-0.3966294527053833
-0.0124896047636866,0.0330655686557292,0.1557749360799789,-0.232356458902359,0.2659730017185211,0.2620763480663299,0.0,0.0,0.3235101699829101,-0.2622371912002563
-0.0109190940856933,0.0279812440276145,0.1446305811405182,-0.2282823473215103,0.2787036895751953,0.2546141445636749,0.0,1.0,0.9969696998596193,0.9976491928100586
-0.009525584988296,0.0244159083813428,0.1457002907991409,-0.1576638668775558,0.2711934447288513,-0.1516453623771667,0.0,1.0,0.966931700706482,0.815382719039917
-0.0083300592377781,0.0221298784017562,0.1466612815856933,-0.0968515947461128,0.2434289157390594,-0.5554167032241821,0.0,1.0,0.6407201290130615,-0.6924388408660889
-0.0072021484375,0.0204473827034235,0.1502361893653869,-0.069053865969181,0.2054203152656555,-0.7602869272232056,0.0,1.0,0.5673978328704834,-0.9333029985427856
-0.006223774049431,0.019387874752283,0.1370746791362762,-0.0421523973345756,0.1659005880355835,-0.7905234694480896,0.0,1.0,0.424207329750061,-0.917797863483429
-0.005372810177505,0.0188625901937484,0.1208410039544105,-0.0197488535195589,0.1302187740802765,-0.7136365175247192,0.0,1.0,0.0551389455795288,-0.8951960206031799
-0.0045705796219408,0.0181690789759159,0.114323079586029,-0.0281944777816534,0.0963313430547714,-0.6777492761611938,0.0,0.0,-0.9673574566841124,-0.8216849565505981
