x_pos,y_pos,x_vel,y_vel,angle,ang_vel,leg_1,leg_2,main_booster,lat_booster
-0.0016208648448809,1.4033544063568115,-0.163306251168251,-0.3362562358379364,0.0010927029652521,0.0215043704956769,0.0,0.0,0.8531727635570141,-0.6326411890044432
-0.0033275603782385,1.3963146209716797,-0.1724344491958618,-0.3128772675991058,0.0028371002990752,0.0348918065428733,0.0,0.0,0.8965730668354281,-0.6005439097121433
-0.0050171851180493,1.3896960020065308,-0.1716550290584564,-0.2941703200340271,0.0054987324401736,0.0532376654446125,0.0,0.0,-0.909792621555526,-0.5654938771242133
-0.0068583488464355,1.3828048706054688,-0.1874101310968399,-0.3062888979911804,0.0087552536278963,0.0651365667581558,0.0,0.0,0.4307898555980125,-0.7396814132147596
-0.0087369922548532,1.37649405002594,-0.192104086279869,-0.2805126905441284,0.0129530178382992,0.0839629620313644,0.0,0.0,0.3609963874467445,-0.8686101349968885
-0.0106596946716308,1.3705838918685913,-0.197647139430046,-0.2627218663692474,0.0182742588222026,0.1064343079924583,0.0,0.0,-0.637137540776272,0.8023982505902413
-0.0126202581450343,1.3644055128097534,-0.1991335451602935,-0.2746381163597107,0.0213207304477691,0.0609349012374877,0.0,0.0,0.0918827480762678,0.5397939644240826
-0.0145367626100778,1.3586045503616333,-0.1931092441082,-0.2578445672988891,0.0227605905383825,0.028799682855606,0.0,0.0,0.5157575907024614,0.9619743840228294
-0.0165064819157123,1.3536970615386963,-0.1957249045372009,-0.2180951237678527,0.0215351860970258,-0.0245101302862167,0.0,0.0,-0.6765140113567103,0.633516706332744
-0.0185248367488384,1.3485246896743774,-0.1985865533351898,-0.2298415154218673,0.0183133408427238,-0.0644430294632911,0.0,0.0,0.8814842078195164,-0.5058374952962524
-0.0205902103334665,1.344099521636963,-0.2038692235946655,-0.1966393738985061,0.0156737081706523,-0.0527973063290119,0.0,0.0,0.140596595616099,-0.650416102021881
-0.0227563865482807,1.3399498462677002,-0.2145757377147674,-0.184413805603981,0.0136604309082031,-0.0402694381773471,0.0,0.0,-0.7336424223472637,0.7343690711040007
-0.0249507911503314,1.3355350494384766,-0.2148593366146087,-0.1961726993322372,0.0091349370777606,-0.0905182883143425,0.0,0.0,0.0041283654559114,-0.827576422702925
-0.0272613521665334,1.3311662673950195,-0.2274097204208374,-0.194150373339653,0.0055221132934093,-0.0722630396485328,0.0,0.0,0.6986186010447837,0.5500022281411263
-0.0294766426086425,1.3278063535690308,-0.2164544314146042,-0.1493262648582458,0.000506286858581,-0.1003256663680076,0.0,0.0,-0.9000097688956354,-0.8188216051571447
-0.0318432822823524,1.3241665363311768,-0.2321877479553222,-0.1617729663848877,-0.0039174603298306,-0.0884829610586166,0.0,0.0,-0.2047880521155731,-0.8116752277399265
-0.0343577377498149,1.3202667236328125,-0.2474873811006546,-0.1733394563198089,-0.0078353276476264,-0.0783644616603851,0.0,0.0,-0.5462210377908461,0.9308901339702504
-0.036879826337099,1.316088318824768,-0.2451908886432647,-0.1857587397098541,-0.0147728081792593,-0.1387622654438018,0.0,0.0,0.1125350985166624,0.5123413957800977
-0.0393797867000103,1.3124537467956543,-0.2413469851016998,-0.1616407483816146,-0.0233164764940738,-0.1708889901638031,0.0,0.0,-0.9070366653982876,0.6827063889309982
-0.0419309623539447,1.3085483312606812,-0.2445646822452545,-0.1737666130065918,-0.0337654501199722,-0.2089980393648147,0.0,0.0,-0.4465910327369315,-0.6858340630208686
-0.0446227081120014,0.0,-0.258974939584732,-0.1854377835988998,-0.0438675470650196,-0.2020599097013473,0.0,0.0,-0.7963307202540251,-0.5819022006796677
-0.0474575981497764,1.2999465465545654,-0.2736970484256744,-0.1974364221096038,-0.0535628125071525,-0.1939226984977722,0.0,0.0,0.4791890943503343,0.6561448331106896
-0.050185203552246,1.2959580421447754,-0.2611806988716125,-0.1777205020189285,-0.0650282129645347,-0.2293286323547363,0.0,0.0,0.5469550297751629,0.6064961036366006
-0.0528729446232318,1.2921210527420044,-0.2554239332675934,-0.171163722872734,-0.0782592967152595,-0.2646450698375702,0.0,0.0,-0.1830108004272954,-0.6588761317148608
-0.055722139775753,1.2880260944366455,-0.2724959254264831,-0.1826895326375961,-0.0905864536762237,-0.2465652227401733,0.0,0.0,-0.7065612763488844,0.5767230874389416
-0.0586354248225688,1.283641338348389,-0.277298092842102,-0.1957905143499374,-0.1045012101531028,-0.2782948911190033,0.0,0.0,0.5738172748947528,-0.6967334114511463
-0.0616244301199913,1.2800345420837402,-0.2855772376060486,-0.1612884551286697,-0.11773232370615,-0.2646220028400421,0.0,0.0,0.6338649783442201,0.7049611465748591
-0.064699076116085,1.277399659156799,-0.2917438745498657,-0.1184217408299446,-0.1333729028701782,-0.312812328338623,0.0,0.0,-0.1373109863241093,0.7679347282424404
-0.0678228363394737,1.27449631690979,-0.2947772145271301,-0.1307044029235839,-0.150922805070877,-0.3509978950023651,0.0,0.0,0.510030132935311,0.5118232458175376
-0.0709568038582801,1.2719833850860596,-0.294048398733139,-0.1137646436691284,-0.170258343219757,-0.3867108225822449,0.0,0.0,0.8607405948690934,0.9165724809532748
-0.0739295035600662,1.2706027030944824,-0.2755212187767029,-0.0639946386218071,-0.1920883059501648,-0.4365995526313782,0.0,0.0,-0.821927011013031,-0.9996132850646972
-0.0770863518118858,1.268979549407959,-0.2955599129199981,-0.0748771801590919,-0.2123573571443557,-0.4053808152675628,0.0,0.0,-0.8323644995689392,-0.9178344011306764
-0.080418013036251,1.2671277523040771,-0.3145101964473724,-0.0850963816046714,-0.2312182486057281,-0.3772180080413818,0.0,0.0,-0.8698203563690186,-0.9401333332061768
-0.0839259177446365,1.265032172203064,-0.3336036801338196,-0.0959350764751434,-0.2486844062805175,-0.3493233323097229,0.0,0.0,-0.8767751455307007,-0.9959481954574584
-0.0876025184988975,1.2627025842666626,-0.3517830967903137,-0.1063095405697822,-0.2648815214633941,-0.3239422440528869,0.0,0.0,-0.9632945656776428,-0.9272656440734864
-0.0914408713579177,1.260142803192139,-0.3691366314888,-0.1164928451180458,-0.2799380123615265,-0.3011298775672912,0.0,0.0,-0.5839079022407532,-0.9825079441070556
-0.0954521149396896,1.257346749305725,-0.3878366351127624,-0.1268699765205383,-0.2936010360717773,-0.2732607424259186,0.0,0.0,-0.8348566889762878,-0.8685436844825745
-0.0996170043945312,1.254319667816162,-0.4042266309261322,-0.1370615512132644,-0.3062804043292999,-0.2535874545574188,0.0,0.0,-0.5291035771369934,-0.6257445812225342
-0.1039239913225174,1.251057505607605,-0.4191425442695617,-0.1474695950746536,-0.3182665109634399,-0.2397219836711883,0.0,0.0,-0.3022209405899048,-0.9713015556335448
-0.1083928123116493,1.2475647926330566,-0.4365479946136474,-0.1575318127870559,-0.329028457403183,-0.2152390778064727,0.0,0.0,-0.3990457057952881,-0.6843972206115723
-0.1130126938223838,1.2438424825668335,-0.4526469707489013,-0.1675957590341568,-0.3387970328330993,-0.1953710615634918,0.0,0.0,-0.4677902460098266,-0.9244905114173888
-0.1177796348929405,1.239880919456482,-0.4681734144687652,-0.1780952960252761,-0.3477164804935455,-0.1783890724182129,0.0,0.0,0.0250312089920043,-0.8969457149505615
-0.1225727051496505,1.2359176874160769,-0.4719257354736328,-0.1779508888721466,-0.3554725050926208,-0.155120238661766,0.0,0.0,-0.0953275561332702,-0.7030506730079651
-0.1274998635053634,1.2317105531692505,-0.4858971536159515,-0.188684806227684,-0.3626633286476135,-0.1438163220882415,0.0,0.0,0.3084547519683838,-0.82094407081604
-0.1325309723615646,1.2276089191436768,-0.4972601532936096,-0.1837941259145736,-0.3688439130783081,-0.1236118450760841,0.0,0.0,0.6171586513519287,-0.7195338010787964
-0.1375417709350586,1.223695158958435,-0.4961259961128235,-0.1752287745475769,-0.3740795254707336,-0.1047114729881286,0.0,0.0,0.1505624055862426,-0.6480734348297119
-0.1425306349992752,1.2199475765228271,-0.4946936070919037,-0.1676643937826156,-0.3785358071327209,-0.0891253650188446,0.0,0.0,0.2435954809188842,-0.0630780458450317
-0.1474532186985016,1.2168548107147217,-0.487135112285614,-0.1388245224952697,-0.3839854300022125,-0.1089921742677688,0.0,0.0,0.433413028717041,-0.0468815565109252
-0.1523122787475586,1.214511156082153,-0.479733407497406,-0.1058429405093193,-0.390559047460556,-0.1314726173877716,0.0,0.0,0.8016536235809326,-0.5136458277702332
-0.1571050584316253,1.2127056121826172,-0.4735085964202881,-0.0818378403782844,-0.3967240750789642,-0.1233008056879043,0.0,0.0,0.7428693771362305,-0.4241417646408081
-0.1616087853908538,1.2113792896270752,-0.4447421431541443,-0.0605378784239292,-0.4027581214904785,-0.1206807717680931,0.0,0.0,0.3281004428863525,-0.5191856026649475
-0.166044995188713,1.2106598615646362,-0.4383831918239593,-0.0334704034030437,-0.4083813726902008,-0.1124647632241249,0.0,0.0,0.1753288507461547,-0.3053947687149048
-0.1703644692897796,1.2100627422332764,-0.4265617728233337,-0.0281073208898305,-0.4141886234283447,-0.116145871579647,0.0,0.0,0.2952560186386108,-0.1479102373123169
-0.1745087653398513,1.2100560665130615,-0.4085609912872314,-0.0020300773903727,-0.4205145239830017,-0.1265178471803665,0.0,0.0,0.0265324115753173,-0.0904376506805419
-0.1785215437412262,1.2101407051086426,-0.395357608795166,0.0019799403380602,-0.4269281327724457,-0.1282729059457779,0.0,0.0,0.033678650856018,-0.0292088389396667
-0.1825414597988128,1.2103980779647827,-0.3953742086887359,0.0094178179278969,-0.4341194331645965,-0.1438260078430175,0.0,0.0,0.2800287008285522,-0.0948668718338012
-0.1863081902265548,1.2111833095550537,-0.3699428141117096,0.0327923372387886,-0.4414593577384949,-0.146798238158226,0.0,0.0,-0.2599905729293823,0.0321161746978759
-0.1901452988386154,1.2117016315460205,-0.3765714466571808,0.0207671709358692,-0.4492686688899994,-0.1561862528324127,0.0,0.0,-0.3586742877960205,-0.271963357925415
-0.1940503120422363,1.2119534015655518,-0.3829708993434906,0.0087418155744671,-0.4575305581092834,-0.1652376800775528,0.0,0.0,0.3668382167816162,-0.5276260375976562
-0.1978301107883453,1.2128897905349731,-0.3709596395492553,0.0392904207110405,-0.4652695059776306,-0.1547786593437194,0.0,0.0,0.1403250694274902,-0.2019403576850891
-0.2015259712934494,1.213878154754639,-0.3623694479465484,0.0414866916835308,-0.4732620418071747,-0.1598505675792694,0.0,0.0,0.3068547248840332,0.3001412153244018
-0.2050988674163818,1.2153946161270142,-0.3494133949279785,0.0646826177835464,-0.4820198118686676,-0.1751554459333419,0.0,0.0,0.0185567140579223,0.0317435264587402
-0.2085125893354416,1.217015266418457,-0.3335058391094208,0.0692488402128219,-0.4908044934272766,-0.1756937503814697,0.0,0.0,0.1292906999588012,-0.3132433295249939
-0.2117673456668853,1.2189115285873413,-0.3173878788948059,0.0813759267330169,-0.4998740553855896,-0.1813913285732269,0.0,0.0,0.459054946899414,-0.0306602716445922
-0.2148953974246978,1.221002221107483,-0.3044878542423248,0.0898538902401924,-0.509250819683075,-0.1875352710485458,0.0,0.0,0.2787721157073974,-0.4017618894577026
-0.2179292738437652,1.2234950065612793,-0.2944490313529968,0.1074253320693969,-0.5193892121315002,-0.2027684152126312,0.0,0.0,0.0859835147857666,-0.373225450515747
-0.2207129895687103,1.226442813873291,-0.2692760527133941,0.1275123506784439,-0.5297597050666809,-0.2074099332094192,0.0,0.0,-0.0587882399559021,-0.5185588002204895
-0.2235661447048187,1.2291446924209597,-0.2768555283546448,0.1167513281106948,-0.5394651293754578,-0.194108709692955,0.0,0.0,0.1800569295883178,-0.2520487308502197
-0.2261224240064621,1.232349157333374,-0.2470746338367462,0.1389756053686142,-0.5493354201316833,-0.1974055171012878,0.0,0.0,-0.0243549942970275,-0.2279208898544311
-0.2287072241306305,1.2352862358093262,-0.2497764080762863,0.1269541680812835,-0.5594378709793091,-0.2020487338304519,0.0,0.0,-0.3308635354042053,-0.6792583465576172
-0.2313665896654129,1.238006830215454,-0.2585473358631134,0.1177955865859985,-0.5680729746818542,-0.1727018356323242,0.0,0.0,0.0827428102493286,-0.5289681553840637
-0.2338417023420334,1.2409911155700684,-0.240983173251152,0.1298365741968155,-0.5757262110710144,-0.1530641913414001,0.0,0.0,-0.0895913243293762,-0.592753529548645
-0.236376091837883,1.243758201599121,-0.2481237202882766,0.1206667348742485,-0.5819905400276184,-0.1252867579460144,0.0,0.0,-0.0127276182174682,-0.267925500869751
-0.2389206886291504,1.246256709098816,-0.2490420341491699,0.1086531355977058,-0.5883975028991699,-0.1281397640705108,0.0,0.0,0.0039738416671752,-0.3614383935928345
-0.2413557469844818,1.2488000392913818,-0.2379346191883087,0.1105421930551529,-0.5950194597244263,-0.1324387490749359,0.0,0.0,-0.1910069584846496,-0.4141563177108764
-0.2437914311885833,1.2510744333267212,-0.2379346191883087,0.0985302776098251,-0.601739227771759,-0.1343950629234314,0.0,0.0,0.1776686906814575,-0.5764490962028503
-0.2461455315351486,1.2534334659576416,-0.2307424992322921,0.1026931703090667,-0.6073397397994995,-0.1120105013251304,0.0,0.0,0.0419578552246093,-0.2359691858291626
-0.2482095658779144,1.2561436891555786,-0.2016936093568802,0.1182606741786003,-0.6130182147026062,-0.1135697960853576,0.0,0.0,-0.1506522893905639,-0.3146029710769653
-0.2502601742744446,1.2585846185684204,-0.2003344744443893,0.1062526553869247,-0.618728518486023,-0.1142057403922081,0.0,0.0,0.0015227794647216,-0.2469153404235839
-0.2520607113838196,1.2614202499389648,-0.1750807762145996,0.1236598193645477,-0.6247637271881104,-0.1207046061754226,0.0,0.0,-0.2985866069793701,-0.4818651080131531
-0.2538386881351471,1.263986349105835,-0.1728566437959671,0.1116535887122154,-0.6307880878448486,-0.1204883828759193,0.0,0.0,-0.2064770460128784,-0.1994451880455017
-0.2555898129940033,1.266282320022583,-0.1702178418636322,0.0996484085917472,-0.6367809176445007,-0.1198571696877479,0.0,0.0,-0.3467577695846557,-0.4465796947479248
-0.2573098540306091,1.268308162689209,-0.1671785116195678,0.0876443013548851,-0.6427218914031982,-0.1188195198774337,0.0,0.0,-0.3101962804794311,-0.2341853380203247
-0.2589949071407318,1.2700637578964231,-0.1637540012598037,0.0756412521004676,-0.6485911011695862,-0.1173847094178199,0.0,0.0,-0.1453736424446106,-0.6841990947723389
-0.2606827616691589,1.271600365638733,-0.1653556525707245,0.0665602013468742,-0.6528416275978088,-0.0850107669830322,0.0,0.0,-0.150648832321167,-0.6649556159973145
-0.2623631060123443,1.2729065418243408,-0.1657008826732635,0.0568567998707294,-0.6557408571243286,-0.0579846501350402,0.0,0.0,-0.4889432191848755,-0.7597854733467102
-0.2640454173088074,1.2739875316619873,-0.1672811657190323,0.0475473627448082,-0.6569309234619141,-0.0238010175526142,0.0,0.0,0.3319474458694458,-0.5005276203155518
-0.265448659658432,1.275141358375549,-0.1404999941587448,0.0513710863888263,-0.6567106246948242,0.004405646584928,0.0,0.0,-0.1060751080513,-0.6935168504714966
-0.2668318152427673,1.276060700416565,-0.1395424455404281,0.0414917357265949,-0.6551830172538757,0.0305518861860036,0.0,0.0,-0.4778407216072082,-0.4103770852088928
-0.2681597173213959,1.276708483695984,-0.1341650187969207,0.0294964518398046,-0.653476357460022,0.0341336280107498,0.0,0.0,0.2852843999862671,-0.6614152193069458
-0.2691168189048767,1.2778358459472656,-0.0984067171812057,0.0514711178839206,-0.6501293778419495,0.0669392049312591,0.0,0.0,-0.1758610606193542,0.119951844215393
-0.2700132727622986,1.2786914110183716,-0.0925198420882225,0.0394767448306083,-0.6465725898742676,0.0711353495717048,0.0,0.0,-0.1938955783843994,-0.3838653564453125
-0.2708466947078705,1.2792751789093018,-0.0864028260111808,0.027482945472002,-0.6427916288375854,0.0756188482046127,0.0,0.0,-0.6496483087539673,0.0066769123077392
-0.2716147899627685,1.2795872688293457,-0.0800713747739791,0.0154896648600697,-0.6387727856636047,0.0803765207529068,0.0,0.0,-0.2148982882499694,0.0344046354293823
-0.2723154127597809,1.2796273231506348,-0.0735404938459396,0.0034968457184731,-0.6345030069351196,0.085395224392414,0.0,0.0,0.2327315807342529,-0.5763393640518188
-0.2725421786308288,1.2801566123962402,-0.027513587847352,0.025884460657835,-0.6285893321037292,0.1182737797498703,0.0,0.0,-0.408640444278717,-0.2759380340576172
-0.2726976871490478,1.28041410446167,-0.0206270683556795,0.0138913784176111,-0.6224005818367004,0.1237744241952896,0.0,0.0,-0.1676450371742248,-0.0768387913703918
-0.2727801203727722,1.2803997993469238,-0.0135817546397447,0.0018984822090715,-0.6159257888793945,0.1294961869716644,0.0,0.0,-0.6557755470275879,-0.4722369313240051
-0.2727879583835602,1.2801134586334229,-0.0063896351493895,-0.0100942952558398,-0.609154462814331,0.1354263722896576,0.0,0.0,-0.537983775138855,-0.2027675509452819
-0.2727196812629699,1.279555320739746,0.0009380673873238,-0.0220870207995176,-0.6020768284797668,0.1415522694587707,0.0,0.0,-0.6396727561950684,-0.5353235006332397
-0.2726112902164459,1.2787686586380005,0.0035420791245996,-0.031651210039854,-0.5933637619018555,0.1742608845233917,0.0,0.0,-0.2017222046852111,-0.5142219662666321
-0.2724591195583343,1.2777438163757324,0.0066279196180403,-0.0417227707803249,-0.5831767916679382,0.2037394046783447,0.0,0.0,-0.2981541156768799,-0.2559330463409424
-0.2722268998622894,1.2764477729797363,0.0142990751191973,-0.0537189655005931,-0.5726580023765564,0.2103756219148636,0.0,0.0,-0.2570427656173706,-0.4552227258682251
-0.2719135284423828,1.2748804092407229,0.0220678783953189,-0.0657156035304069,-0.5618001222610474,0.2171575725078582,0.0,0.0,-0.4074877500534057,-0.7623493075370789
-0.2715575695037842,1.2730849981307983,0.0247965808957815,-0.0753233209252357,-0.5492459535598755,0.2510822415351867,0.0,0.0,-0.2330585718154907,-0.623420774936676
-0.2711573541164398,1.271048665046692,0.0277964286506176,-0.0855918750166893,-0.5351550579071045,0.2818175256252289,0.0,0.0,-0.5402783155441284,-0.4423068761825561
-0.2706728875637054,1.2687419652938845,0.0358090996742248,-0.0975951105356216,-0.520706832408905,0.2889645993709564,0.0,0.0,-0.7617079019546509,-0.2969006299972534
-0.2701033055782318,1.2661654949188232,0.0438913032412529,-0.1095993816852569,-0.5058963298797607,0.2962112128734588,0.0,0.0,-0.7718065977096558,-0.5691575407981873
-0.269475370645523,1.263349533081055,0.0484716817736625,-0.1199522316455841,-0.489791601896286,0.3220945298671722,0.0,0.0,-0.7480452656745911,-0.5973847508430481
-0.2687965929508209,1.2602932453155518,0.0520982034504413,-0.130331888794899,-0.4722180068492889,0.3514719903469085,0.0,0.0,-0.8065279722213745,-0.5906527638435364
-0.2680700719356537,1.2570055723190308,0.0552379861474037,-0.1403081864118576,-0.4530081450939178,0.3841974437236786,0.0,0.0,-0.9226450324058532,-0.4477455615997314
-0.2672555446624756,1.2534503936767578,0.063538521528244,-0.1523263156414032,-0.4334215521812439,0.3917321562767029,0.0,0.0,-0.9370082020759584,-0.5951504111289978
-0.2663898468017578,1.2496505975723269,0.0671504437923431,-0.1630312800407409,-0.4123870134353637,0.4206916391849518,0.0,0.0,-0.9443247318267822,-0.250482439994812
-0.2654348909854889,1.2455843687057495,0.075534775853157,-0.1750565469264984,-0.3909715116024017,0.4283101558685303,0.0,0.0,-0.977852702140808,-0.1745461225509643
-0.2643903791904449,1.241251826286316,0.0839566960930824,-0.1870839893817901,-0.3691736459732055,0.4359574913978576,0.0,0.0,-0.9865733981132508,-0.0891627073287963
-0.2632558941841125,1.2366533279418943,0.0924129039049148,-0.1991136223077774,-0.3469924032688141,0.443624883890152,0.0,0.0,-0.9753711223602296,0.1718440055847168
-0.2620311379432678,1.231789231300354,0.1009003147482872,-0.2111455798149109,-0.3244272172451019,0.4513038098812103,0.0,0.0,-0.9925133585929872,-0.0554797053337097
-0.2607158720493316,1.226660132408142,0.109416089951992,-0.2231798470020294,-0.3014779090881347,0.4589858949184418,0.0,0.0,-0.9871336817741394,-0.0769526958465576
-0.2593099176883697,1.2212661504745483,0.1179575771093368,-0.2352165728807449,-0.2781447768211365,0.4666628837585449,0.0,0.0,-0.9925100803375244,0.4225282669067383
-0.2578129768371582,1.2156076431274414,0.1265222877264022,-0.2472557574510574,-0.2544284760951996,0.4743267893791199,0.0,0.0,-0.9963857531547546,0.5928122997283936
