x_pos,y_pos,x_vel,y_vel,angle,ang_vel,leg_1,leg_2,main_booster,lat_booster
-0.0014979362022131,1.4030320644378662,-0.151930496096611,-0.3505773842334747,0.001912657637149,0.0377401150763034,0.0,0.0,0.0221036522567612,-0.3821453771165595
-0.0029374123550951,1.3950031995773315,-0.1461477726697921,-0.3568479716777801,0.0040969736874103,0.0436911880970001,0.0,0.0,0.6694822108745517,0.4204821613589222
-0.0042152404785156,1.386994481086731,-0.1308168172836303,-0.3559509813785553,0.0071011120453476,0.0600882358849048,0.0,0.0,0.9199417043273096,0.9291299296750724
-0.0055475234985351,1.3792604207992554,-0.1342852264642715,-0.3437402844429016,0.0081450436264276,0.0208806134760379,0.0,0.0,0.182602605836774,-0.7832745118079749
-0.0068091391585767,1.371637225151062,-0.1290919631719589,-0.3388308882713318,0.0110379764810204,0.0578640401363372,0.0,0.0,0.9817914322686294,-0.5645695316435393
-0.0079163555055856,1.3644002676010132,-0.115495428442955,-0.3216844797134399,0.0157728567719459,0.0947059765458107,0.0,0.0,-0.8105399669742568,0.4422088988653688
-0.0089910505339503,1.356571078300476,-0.1124616265296936,-0.3480184972286224,0.0207059327512979,0.0986708253622055,0.0,0.0,0.7653521189565928,0.2613675020295589
-0.0098872184753417,1.3491919040679932,-0.0955822393298149,-0.3280564248561859,0.0266045965254306,0.1179841756820678,0.0,0.0,0.1968448779712537,-0.3004490824496566
-0.0107743265107274,1.342129468917847,-0.0948399156332016,-0.3140092492103576,0.0326704494655132,0.1213279366493225,0.0,0.0,-0.7033461040866544,-0.0700180355198636
-0.0116266254335641,1.33447527885437,-0.0915845483541488,-0.3403428196907043,0.0389508605003356,0.1256196200847625,0.0,0.0,0.8852210954175459,0.2944701793509169
-0.0123717309907078,1.3272520303726196,-0.0815474689006805,-0.3212383985519409,0.0459162294864654,0.1393202692270279,0.0,0.0,0.0572777795742267,-0.1501990591288896
-0.0130511280149221,1.319946527481079,-0.0754185244441032,-0.3249334990978241,0.0533179678022861,0.1480483710765838,0.0,0.0,-0.9035240322974368,-0.7058107726228543
-0.013737678527832,1.3120496273040771,-0.0774703621864318,-0.3513007164001465,0.0620429404079914,0.1745155900716781,0.0,0.0,0.9547129103008868,-0.419282464857337
-0.0143318176269531,1.3041986227035522,-0.0688385516405105,-0.3493526577949524,0.0713822022080421,0.1868025809526443,0.0,0.0,0.8129810761782283,0.2367332661841007
-0.0147986412048339,1.2971267700195312,-0.0570698603987693,-0.314835637807846,0.0816826075315475,0.2060269862413406,0.0,0.0,-0.2422752632033842,0.7996248984899429
-0.0151527402922511,1.2894632816314695,-0.0441470965743064,-0.3410890400409698,0.0903416648507118,0.1731966137886047,0.0,0.0,-0.8190584940027796,-0.2012710120263136
-0.0154686924070119,1.2812089920043943,-0.0405632853507995,-0.3674195408821106,0.0992388129234314,0.1779590100049972,0.0,0.0,0.4369039571986051,0.8225842770919161
-0.0155749320983886,1.2728732824325562,-0.0183650963008403,-0.371002197265625,0.106933869421482,0.1539153605699539,0.0,0.0,0.3956555224848579,0.1630461214672688
-0.015633201226592,1.264970779418945,-0.0141897546127438,-0.3518351316452026,0.1152539700269699,0.1664173156023025,0.0,0.0,0.0128570342346516,0.2291642939754244
-0.0157415382564067,1.2569856643676758,-0.0192035567015409,-0.3555606305599212,0.123584397137165,0.1666233837604522,0.0,0.0,0.5036036583157528,-0.3398302054236211
-0.015779972076416,1.249449610710144,-0.0129880858585238,-0.3357170820236206,0.1326996982097625,0.1823228746652603,0.0,0.0,-0.9384325487593084,0.6324167587119005
-0.0157283786684274,1.2413290739059448,-0.0029403450898826,-0.3616555333137512,0.140772670507431,0.1614741086959839,0.0,0.0,0.7832774254280748,-0.5832078790928896
-0.0156172756105661,1.233511447906494,0.0012338019441813,-0.3484078645706177,0.1506563276052475,0.1976907551288604,0.0,0.0,-0.2706840815338576,0.7875078433712225
-0.0153972627595067,1.2251099348068235,0.0136271072551608,-0.3742676973342895,0.1590298861265182,0.1674861013889312,0.0,0.0,0.9552472271593664,0.5427997062415459
-0.0153924943879246,1.217214822769165,-0.0065199271775782,-0.3516563475131988,0.1660381704568863,0.1401781886816024,0.0,0.0,-0.7330925608847714,-0.0987220549960076
-0.0153461452573537,1.2087072134017944,-0.0026030549779534,-0.3789383172988891,0.1732909679412841,0.1450560390949249,0.0,0.0,-0.8964710544223167,0.6389976839531715
-0.0152109144255518,1.1996254920959473,0.0073292343877255,-0.4043627083301544,0.1794967502355575,0.1241159290075302,0.0,0.0,0.1176223344275777,0.8626329672169984
-0.0151719097048044,1.1907758712768557,-0.0007606404251419,-0.3938860893249511,0.1841769218444824,0.0936034768819809,0.0,0.0,0.5998267502983157,-0.4521747472372009
-0.0153555870056152,1.182406306266785,-0.0226835720241069,-0.3725281059741974,0.188515156507492,0.0867646113038063,0.0,0.0,-0.8795807632686607,-0.026662034784895
-0.0155005455017089,1.1734451055526731,-0.0190546251833438,-0.3988588452339172,0.193094864487648,0.0915938541293144,0.0,0.0,-0.6979471541417093,-0.0626613324436917
-0.0156071661040186,1.1638925075531006,-0.0154524147510528,-0.4251897037029266,0.1979145407676696,0.0963936746120452,0.0,0.0,-0.8964069485664368,0.8832144737243652
-0.0156154632568359,1.153761386871338,-0.0043236161582171,-0.4507441520690918,0.2014309763908386,0.0703291445970535,0.0,0.0,-0.901106059551239,0.957139253616333
-0.0155234336853027,1.1430668830871582,0.0071320151910185,-0.475588709115982,0.2035175114870071,0.041730847209692,0.0,0.0,-0.9552550315856934,0.6749327182769775
-0.0153465270996093,1.1317893266677856,0.0165835376828908,-0.5013776421546936,0.2046294659376144,0.022239152342081,0.0,0.0,-0.7505173087120056,0.9312105178833008
-0.0150590892881155,1.1199451684951782,0.0293158236891031,-0.526335597038269,0.2040490210056305,-0.0116089768707752,0.0,0.0,-0.9589446187019348,0.5643630027770996
-0.0146909710019826,1.1075271368026731,0.0383265241980552,-0.5517004728317261,0.2025256305932998,-0.0304673947393894,0.0,0.0,-0.922681987285614,0.3484328985214233
-0.0142868999391794,1.094517469406128,0.0416905023157596,-0.5780297517776489,0.2012281566858291,-0.0259491316974163,0.0,0.0,-0.7463028430938721,0.2812902927398681
-0.0138475419953465,1.080916166305542,0.0450025908648967,-0.604358971118927,0.2001534253358841,-0.0214945450425148,0.0,0.0,-0.8417174816131592,0.1420338153839111
-0.0133734699338674,1.066723108291626,0.048259500414133,-0.6306880116462708,0.19929800927639,-0.0171082355082035,0.0,0.0,-0.7536598443984985,0.732269287109375
-0.0128060337156057,1.051957368850708,0.058909572660923,-0.655971348285675,0.1971172988414764,-0.0436141453683376,0.0,0.0,-0.5404988527297974,-0.2394549250602722
-0.0122051239013671,1.0365996360778809,0.0620466358959674,-0.6823004484176636,0.1951484382152557,-0.0393772013485431,0.0,0.0,-0.7768874168395996,0.268913984298706
-0.0115715023130178,1.0206503868103027,0.0651190802454948,-0.7086294293403625,0.1933873891830444,-0.0352213233709335,0.0,0.0,-0.2986741662025451,0.1238356828689575
-0.0109057426452636,1.0041091442108154,0.0681239664554596,-0.734958291053772,0.1918298602104187,-0.0311505012214183,0.0,0.0,-0.4092441201210022,0.0691715478897094
-0.0102087017148733,0.9869763851165771,0.0710584372282028,-0.7612869739532471,0.1904714405536651,-0.0271686501801013,0.0,0.0,0.6010023355484009,0.6642799377441406
-0.0095246313139796,0.9696670770645142,0.0709714293479919,-0.7689753174781799,0.187887042760849,-0.0516876503825187,0.0,0.0,0.2198919057846069,-0.3388246297836303
-0.008823680691421,0.9521390199661256,0.0723257139325141,-0.7787423729896545,0.1856492161750793,-0.0447569005191326,0.0,0.0,0.3830740451812744,0.0637575387954711
-0.0081127164885401,0.93458491563797,0.0729126930236816,-0.7799596190452576,0.1838322132825851,-0.0363399647176265,0.0,0.0,0.8754127025604248,0.8360774517059326
-0.007620430085808,0.9178231954574584,0.052817266434431,-0.7445197701454163,0.1802342683076858,-0.0719588100910186,0.0,0.0,0.0937213897705078,0.3514935970306396
-0.0072808265686035,0.901216208934784,0.0377740040421485,-0.7376287579536438,0.176404133439064,-0.0766027718782424,0.0,0.0,-0.1763399839401245,0.6544188261032104
-0.0068656923249363,0.8840289115905762,0.0464287400245666,-0.763306736946106,0.1714780032634735,-0.09852284938097,0.0,0.0,-0.0954277515411377,0.0054298639297485
-0.0064252852462232,0.8662499785423279,0.0488009415566921,-0.7896363139152527,0.1667149364948272,-0.0952614322304725,0.0,0.0,0.3650529384613037,0.7358146905899048
-0.0060570714995265,0.8487858176231384,0.0429776459932327,-0.7755042314529419,0.1605531722307205,-0.1232352405786514,0.0,0.0,-0.0767069458961486,0.0794789791107177
-0.0056653977371752,0.8307301998138428,0.0451710373163223,-0.8018348217010498,0.154542863368988,-0.120205745100975,0.0,0.0,-0.0344868302345275,0.2559924125671386
-0.005251407623291,0.8120830655097961,0.0472725890576839,-0.8281649351119995,0.1486780792474746,-0.1172956675291061,0.0,0.0,0.5949325561523438,0.5746533870697021
-0.0046872138045728,0.7935850024223328,0.0629312247037887,-0.8214996457099915,0.1421854794025421,-0.1298519521951675,0.0,0.0,0.9266631603240968,0.2095112800598144
-0.0042906762100756,0.7752877473831177,0.0465471111238002,-0.812569797039032,0.1353106945753097,-0.137495681643486,0.0,0.0,0.4844902753829956,0.2747185230255127
-0.00388765335083,0.7574804425239563,0.0466870293021202,-0.7908713221549988,0.1289537250995636,-0.1271394789218902,0.0,0.0,0.421093225479126,-0.4317134022712707
-0.0034231184981763,0.7399672865867615,0.0521730259060859,-0.7778772115707397,0.123266614973545,-0.1137419939041137,0.0,0.0,0.5637485980987549,0.260953426361084
-0.0029667853377759,0.7230355739593506,0.0509111285209655,-0.7520953416824341,0.1180210709571838,-0.1049111261963844,0.0,0.0,0.0780683755874633,0.8063716888427734
-0.00254907598719,0.7062838673591614,0.0485940799117088,-0.7439901828765869,0.1112448424100875,-0.1355249583721161,0.0,0.0,-0.0701884031295776,-0.3468526005744934
-0.0021160126198083,0.6889407634735107,0.0500289499759674,-0.7703202962875366,0.1045703738927841,-0.13348950445652,0.0,0.0,-0.1892930269241333,-0.7083474397659302
-0.0017338752513751,0.6709994673728943,0.043181836605072,-0.7970585227012634,0.0996377021074295,-0.0986532419919967,0.0,0.0,0.4954783916473388,0.2472133636474609
-0.0012738227378576,0.6531814336776733,0.0503722913563251,-0.7916256189346313,0.09531120210886,-0.0865302830934524,0.0,0.0,0.4670443534851074,0.1571907997131347
-0.0008323669317178,0.6355871558189392,0.0483267679810524,-0.7817059755325317,0.091164119541645,-0.0829416066408157,0.0,0.0,0.5212706327438354,0.7685168981552124
-0.000344371801475,0.6179559230804443,0.0544366128742694,-0.7832696437835693,0.0855770781636238,-0.111740842461586,0.0,0.0,0.7008514404296875,-0.1808514595031738
-2.517700158932712e-05,0.6006261706352234,0.0380943156778812,-0.7698752880096436,0.0794706270098686,-0.122129276394844,0.0,0.0,0.0588811635971069,-0.2044523954391479
0.0002736091555561,0.5835263133049011,0.0359157472848892,-0.7596834897994995,0.0734917297959327,-0.1195780038833618,0.0,0.0,0.1233060359954834,-0.6082479357719421
0.0005806923145428,0.5661263465881348,0.0353703461587429,-0.7731091380119324,0.0688768774271011,-0.0922968909144401,0.0,0.0,0.2170754671096801,-0.1170699596405029
0.0008717536693438,0.549077570438385,0.0336240977048873,-0.7575234174728394,0.0644059628248214,-0.0894184559583664,0.0,0.0,0.444526195526123,0.51073157787323
0.0010946274269372,0.5320494771003723,0.0280137863010168,-0.7565678954124451,0.0587429851293563,-0.1132596582174301,0.0,0.0,0.8221124410629272,-0.3176984786987304
0.0011780739296227,0.5155389904975891,0.0145091563463211,-0.7335739135742188,0.0526516549289226,-0.1218267306685447,0.0,0.0,0.5671031475067139,-0.5034501552581787
0.0012264251708984,0.4993210434913635,0.0098717985674738,-0.7206290364265442,0.0476802214980125,-0.0994286090135574,0.0,0.0,-0.0125970244407653,-0.5937695503234863
0.0012214661110192,0.4825136065483093,0.0030514204408973,-0.7468889951705933,0.0441707335412502,-0.0701896324753761,0.0,0.0,0.7618328332901001,0.2950905561447143
0.0012704848777502,0.4660419821739197,0.0080664958804845,-0.7319811582565308,0.0410473011434078,-0.062468834221363,0.0,0.0,0.738266110420227,-0.0728113055229187
0.0012693405151367,0.4495927393436432,0.0031963486690074,-0.730991005897522,0.0377781838178634,-0.0653823688626289,0.0,0.0,0.735998272895813,0.2077616453170776
0.0013281821738928,0.4330673217773437,0.0088359154760837,-0.7343907952308655,0.0348529890179634,-0.0585038475692272,0.0,0.0,0.4380462169647217,0.0647279024124145
0.0013497353065758,0.4163912236690521,0.0052405470050871,-0.7410932779312134,0.0318091623485088,-0.0608762204647064,0.0,0.0,0.9593275785446168,0.0151821374893188
0.0013315200340002,0.4005327224731445,0.0012933837715536,-0.7047592401504517,0.0287233777344226,-0.0617156401276588,0.0,0.0,0.7766196727752686,-0.1373395919799804
0.001373291015625,0.3854009807109833,0.0069011142477393,-0.6724697351455688,0.0260352939367294,-0.0537616722285747,0.0,0.0,0.8252096176147461,-0.1104383468627929
0.0012663841480389,0.3710261881351471,-0.0073947221972048,-0.638823926448822,0.0227690860629081,-0.0653241276741027,0.0,0.0,0.9641518592834472,-0.0172781944274902
0.0009945869678631,0.3566446304321289,-0.0231393314898014,-0.6391274333000183,0.018782777711749,-0.0797261521220207,0.0,0.0,0.8712351322174072,-0.278057336807251
0.0007492065196856,0.3430149257183075,-0.0207075141370296,-0.6057213544845581,0.0149954995140433,-0.0757453963160514,0.0,0.0,-0.4117730855941772,0.2184505462646484
0.0005006790161132,0.3287931382656097,-0.020999725908041,-0.6320478320121765,0.0111925089731812,-0.0760598257184028,0.0,0.0,0.9257898330688475,0.0203838348388671
0.0001759529113769,0.3151631355285644,-0.0283080842345953,-0.605750322341919,0.0070749199949204,-0.0823515579104423,0.0,0.0,0.818941593170166,-0.7983359694480896
-0.0002359390200581,0.3020990788936615,-0.0385682284832,-0.5806167125701904,0.004493408370763,-0.0516304746270179,0.0,0.0,0.7792959213256836,-0.1756104826927185
-0.0005609512445516,0.2893831729888916,-0.0303099118173122,-0.5651440024375916,0.0023216332774609,-0.0434354394674301,0.0,0.0,0.8526978492736816,0.2709183692932129
-0.000865077949129,0.2766509056091308,-0.0283093955367803,-0.5658752918243408,0.0002457818773109,-0.0415169969201087,0.0,0.0,0.8567875623703003,0.4853451251983642
-0.0010700225830078,0.2640052735805511,-0.0188544504344463,-0.5620313882827759,-0.0013769870856776,-0.0324551947414875,0.0,0.0,0.9764821529388428,-0.1253976821899414
-0.0011033058399334,0.2517916262149811,-0.0024776342324912,-0.5428286194801331,-0.0022166252601891,-0.0167929027229547,0.0,0.0,0.9340128898620604,-0.6653779149055481
-0.0010183334816247,0.239672765135765,0.0075874477624893,-0.5386177897453308,-0.0013172518229112,0.0179876405745744,0.0,0.0,0.6865525245666504,-0.4032087326049804
-0.0009437560802325,0.2281118780374527,0.0066105434671044,-0.5138151049613953,-0.0004785571945831,0.0167739428579807,0.0,0.0,0.7359206676483154,-0.2748383283615112
-0.0008419036748819,0.2171542197465896,0.0092115188017487,-0.4870068430900574,0.0004756241978611,0.0190836358815431,0.0,0.0,0.22123384475708,-0.7654496431350708
-0.0007020950433798,0.2063468545675277,0.0113920886069536,-0.4803312420845032,0.0030273923184722,0.0510356910526752,0.0,0.0,0.0772030353546142,-0.2741398215293884
-0.0005030632019042,0.1952668279409408,0.0170520953834056,-0.4924551844596863,0.0058474773541092,0.0564018972218036,0.0,0.0,0.3863523006439209,0.0372316837310791
-0.0003562927304301,0.1842351555824279,0.012061558663845,-0.4903103113174438,0.0084276553243398,0.0516037866473197,0.0,0.0,0.6818927526473999,-0.1418439149856567
-0.000136375427246,0.173929750919342,0.0190061591565608,-0.4580372273921966,0.0113706663250923,0.0588599927723407,0.0,0.0,0.7362847328186035,0.0553056001663208
4.673004150390625e-05,0.1639288961887359,0.0154763655737042,-0.4445086121559143,0.0141651965677738,0.0558905303478241,0.0,0.0,0.5355439186096191,-0.6969989538192749
3.1757354008732364e-05,0.1544472575187683,-0.0054443539120256,-0.4214482307434082,0.0180626008659601,0.077948160469532,0.0,0.0,0.2597665786743164,0.7964684963226318
0.0001405715884175,0.1451792567968368,0.0084932390600442,-0.4119425117969513,0.0204207710921764,0.0471634268760681,0.0,0.0,0.8013533353805542,-0.2603170871734619
0.0001696586550679,0.1365439742803573,0.0008179867872968,-0.3838197290897369,0.0224773790687322,0.0411323308944702,0.0,0.0,0.3863404989242553,-0.8664632439613342
3.261566234868951e-05,0.1282600313425064,-0.0174109078943729,-0.3682368099689483,0.0261426139622926,0.0733048170804977,0.0,0.0,0.476401686668396,0.2849167585372925
-0.0001422882050974,0.1200503185391426,-0.0210639350116252,-0.3649432063102722,0.0296775568276643,0.0706987828016281,0.0,0.0,0.5496094226837158,0.4419666528701782
-0.0004467964172363,0.1120893061161041,-0.0334910899400711,-0.3538869619369507,0.0326813459396362,0.0600756295025348,0.0,0.0,-0.3153557181358337,0.7636792659759521
-0.0007089615100994,0.1035364940762519,-0.0280840601772069,-0.3801654279232025,0.0345236919820308,0.0368468575179576,0.0,0.0,0.9188168048858644,0.3171463012695312
-0.0008794784662313,0.0956490114331245,-0.0194722935557365,-0.3506134450435638,0.0369160659611225,0.0478473752737045,0.0,0.0,0.5937020778656006,-0.3138309717178345
-0.0010058402549475,0.0877060964703559,-0.0153194712474942,-0.3530882000923157,0.0395666137337684,0.0530108101665973,0.0,0.0,0.901264786720276,0.7541937828063965
-0.0009275436168536,0.0805069059133529,0.0062701515853405,-0.320003867149353,0.041114792227745,0.0309635400772094,0.0,0.0,0.8038190603256226,-0.4753330945968628
-0.0009093284606933,0.0739837735891342,0.0003700325614772,-0.2899575233459472,0.0425396598875522,0.0284973345696926,0.0,0.0,0.4547121524810791,-0.4719206094741821
-0.0007974624750204,0.0680038779973983,0.0091675240546464,-0.2658292055130005,0.0445423871278762,0.0400543995201587,0.0,0.0,0.5153626203536987,0.1717952489852905
-0.0006381988641805,0.0622331239283084,0.0135723752900958,-0.2565500438213348,0.0468702092766761,0.0465563833713531,0.0,0.0,0.0544929504394531,0.2419664859771728
-0.0005059242248535,0.0566505528986454,0.0108825657516717,-0.2481860518455505,0.0491831600666046,0.0462589785456657,0.0,0.0,0.0270687341690063,0.6756175756454468
-0.0002986908075399,0.0512224063277244,0.0196977965533733,-0.2412872016429901,0.0502014048397541,0.020364997908473,0.0,0.0,0.0511796474456787,-0.1718077063560485
-5.1021575927734375e-05,0.0456428378820419,0.023479014635086,-0.2480262219905853,0.0514741763472557,0.0254553854465484,0.0,0.0,0.4705075025558471,-0.67836594581604
-9.536743306171048e-08,0.0402831397950649,0.0026472150348126,-0.2382937520742416,0.0538904517889022,0.0483255349099636,0.0,0.0,0.3759181499481201,0.9684270620346068
-1.2874603271484377e-05,0.0349670015275478,-0.0017140269046649,-0.2362882643938064,0.0543256886303424,0.0087048020213842,0.0,0.0,0.5400757789611816,0.789395809173584
-6.961822691664565e-06,0.0298484899103641,0.0017312709242105,-0.2274485528469085,0.0531892292201519,-0.0227291621267795,0.0,0.0,0.5154082775115967,0.5010912418365479
4.6062468754826114e-05,0.0248748883605003,0.0073496764525771,-0.220976784825325,0.0511655583977699,-0.0404733605682849,0.0,0.0,0.7277442216873169,-0.580052375793457
0.0001897811889648,0.0198748931288719,0.0148159340023994,-0.2222102433443069,0.0507281310856342,-0.0087483813986182,0.0,0.0,0.8188426494598389,-0.7824590802192688
0.0003610611020121,0.0154179194942116,0.0156885273754596,-0.1981353014707565,0.052148126065731,0.0284001491963863,0.0,0.0,0.6397304534912109,-0.0386279821395874
0.0005271911504678,0.0115699144080281,0.0149900540709495,-0.1710791438817978,0.0537474304437637,0.0319863185286521,0.0,0.0,0.655397891998291,0.2770216464996338
0.0007531166193075,0.0076030348427593,0.0206075981259346,-0.1763782352209091,0.0557137951254844,0.0393273308873176,0.0,0.0,0.6164019107818604,-0.3483877778053283
