x_pos,y_pos,x_vel,y_vel,angle,ang_vel,leg_1,leg_2,main_booster,lat_booster
-0.0015245437389239,1.4035181999206543,-0.1547088921070099,-0.3289739787578583,0.0020166239701211,0.0397988632321357,0.0,0.0,-0.0633668899536132,0.7890968322753906
-0.0029823302756994,1.3960294723510742,-0.1462961733341217,-0.3328295946121216,0.0025204038247466,0.0100773032754659,0.0,0.0,-0.4341124892234802,0.0152398347854614
-0.0044401166960597,1.3884339332580566,-0.146513745188713,-0.3375767469406128,0.0032445366960018,0.014484129846096,0.0,0.0,-0.3284271359443664,0.5592823028564453
-0.0058621405623853,1.3807305097579956,-0.1422447562217712,-0.3423752784729004,0.0032889463473111,0.00088815233903,0.0,0.0,-0.4178181290626526,0.8443453311920166
-0.0072025298140943,1.3729239702224731,-0.1322323977947235,-0.3469591438770294,0.0015031255315989,-0.0357197597622871,0.0,0.0,-0.3723378181457519,0.6386542320251465
-0.0084796901792287,1.365010380744934,-0.1245262622833252,-0.3517159819602966,-0.0016483154613524,-0.0630348771810531,0.0,0.0,0.1123905181884765,-0.5690886378288269
-0.0098157878965139,1.3575738668441772,-0.1317014843225479,-0.3305110037326813,-0.0035308639053255,-0.0376544184982776,0.0,0.0,-0.3025596737861633,0.1643249988555908
-0.0111493114382028,1.3500310182571411,-0.131605714559555,-0.335239440202713,-0.0052544586360454,-0.0344752110540866,0.0,0.0,-0.4258824586868286,0.4593148231506347
-0.0124797821044921,1.3423820734024048,-0.1314451843500137,-0.3399616181850433,-0.0068310708738863,-0.0315352827310562,0.0,0.0,-0.3107686042785644,0.5766220092773438
-0.0137611385434865,1.334630012512207,-0.1255272328853607,-0.3445513546466827,-0.00941479858011,-0.0516791045665741,0.0,0.0,-0.1529399156570434,0.4027466773986816
-0.0150384902954101,1.3267717361450195,-0.1252318918704986,-0.3492755889892578,-0.0118774371221661,-0.0492576472461223,0.0,0.0,-0.2647075057029724,0.7777278423309326
-0.016242504119873,1.3188045024871826,-0.1162808686494827,-0.3541392385959625,-0.015955414623022,-0.0815674364566803,0.0,0.0,-0.5210157632827759,0.0857669115066528
-0.017441177740693,1.310731291770935,-0.1158473491668701,-0.3588642477989197,-0.019938625395298,-0.0796714425086975,0.0,0.0,-0.3594328165054321,0.1097626686096191
-0.0186340324580669,1.3025517463684082,-0.1153478771448135,-0.3635891079902649,-0.0238415841013193,-0.0780663266777992,0.0,0.0,-0.3306045532226562,-0.4136204719543457
-0.0198206901550292,1.2942661046981812,-0.1147813573479652,-0.368314117193222,-0.027677372097969,-0.0767227336764335,0.0,0.0,-0.6563724279403687,0.0818941593170166
-0.0210002902895212,1.2858744859695437,-0.1141482219099998,-0.373039186000824,-0.0314593985676765,-0.0756469219923019,0.0,0.0,-0.3803118467330932,0.3358715772628784
-0.0221726410090923,1.2773767709732056,-0.1134488731622695,-0.3777643144130707,-0.03520093485713,-0.0748371928930282,0.0,0.0,-0.7684872150421143,0.5501542091369629
-0.0232833866029977,1.2687654495239258,-0.1059611588716507,-0.3828551471233368,-0.0402662716805934,-0.1013158783316612,0.0,0.0,-0.962812066078186,0.1532630920410156
-0.024385642260313,1.2600481510162354,-0.1051270142197609,-0.3875814378261566,-0.0453165844082832,-0.1010152921080589,0.0,0.0,-0.8520406484603882,0.4585486650466919
-0.0254789348691701,1.2512247562408447,-0.1042297631502151,-0.3923077285289764,-0.0503655821084976,-0.1009888797998428,0.0,0.0,-0.8999475836753845,0.3387980461120605
-0.0265627857297658,1.2422956228256226,-0.1032695546746254,-0.3970342874526977,-0.0554256029427051,-0.1012094169855117,0.0,0.0,-0.7915194034576416,-0.0239245891571044
-0.0276365280151367,1.2332603931427002,-0.1022477969527244,-0.4017610549926758,-0.0605090409517288,-0.1016777157783508,0.0,0.0,-0.906610667705536,0.5623703002929688
-0.0286459922790527,1.2241138219833374,-0.0943997651338577,-0.4067957699298858,-0.066987931728363,-0.1295894384384155,0.0,0.0,-0.889733612537384,-0.3863053321838379
-0.0296442992985248,1.2148616313934326,-0.0932549908757209,-0.4115243256092071,-0.0735134184360504,-0.1305209696292877,0.0,0.0,-0.991823434829712,0.14799165725708
-0.0306313522160053,1.2055034637451172,-0.0920537859201431,-0.416253000497818,-0.0800978168845176,-0.1316999197006225,0.0,0.0,-0.9867855310440063,-0.7742209434509277
-0.0316831581294536,1.1960314512252808,-0.1004069000482559,-0.4212416708469391,-0.0848360583186149,-0.0947646647691726,0.0,0.0,-0.7898755073547363,0.1343638896942138
-0.0327229499816894,1.1864534616470337,-0.0991150587797164,-0.4259661436080932,-0.0896558314561843,-0.0963958352804184,0.0,0.0,-0.2950596809387207,0.2833003997802734
-0.0337502472102642,1.176769733428955,-0.0977718159556388,-0.430690735578537,-0.0945675820112228,-0.0982349663972854,0.0,0.0,-0.7698739767074585,0.5504953861236572
-0.0347303375601768,1.1669800281524658,-0.0920877158641815,-0.4354838728904724,-0.1004392951726913,-0.1174343079328537,0.0,0.0,-0.6099267601966858,0.2601771354675293
-0.0356970801949501,1.157084822654724,-0.0906476527452468,-0.4402095973491668,-0.1064226403832435,-0.1196667104959487,0.0,0.0,-0.7259045839309692,0.1455017328262329
-0.0366500839591026,1.1470839977264404,-0.0891621261835098,-0.4449356198310852,-0.1125268563628196,-0.122084341943264,0.0,0.0,-0.9038507342338562,-0.5320864915847778
-0.0376366600394248,1.1369822025299072,-0.093584731221199,-0.4493524134159088,-0.1175633445382118,-0.1007297784090042,0.0,0.0,0.0110743045806884,-0.8390753269195557
-0.0386757850646972,1.1275355815887451,-0.1003891974687576,-0.4201332926750183,-0.1210644021630287,-0.0700213313102722,0.0,0.0,-0.9092990756034852,0.0457206964492797
-0.0397003181278705,1.1179832220077517,-0.0987787693738937,-0.4248577952384949,-0.1247117966413497,-0.0729478970170021,0.0,0.0,-0.7641429305076599,-0.2081066370010376
-0.0407097823917865,1.1083250045776367,-0.0971307307481765,-0.4295824766159057,-0.1285132020711898,-0.0760284811258316,0.0,0.0,-0.2758369445800781,0.2422534227371215
-0.0417040809988975,1.0985606908798218,-0.0954470038414001,-0.4343073666095733,-0.1324759721755981,-0.0792553499341011,0.0,0.0,-0.7799445390701294,0.0764878988265991
-0.0426827445626258,1.0886908769607544,-0.0937294512987136,-0.4390324652194977,-0.1366070359945297,-0.0826208740472793,0.0,0.0,-0.3409105539321899,-0.1872304677963256
-0.0436457619071006,1.0787155628204346,-0.0919798910617828,-0.4437578320503235,-0.1409129053354263,-0.0861174836754798,0.0,0.0,-0.6821768879890442,-0.4143648147583008
-0.044592760503292,1.0686343908309937,-0.0902001112699508,-0.4484834372997284,-0.145399808883667,-0.0897376909852027,0.0,0.0,-0.8800886273384094,0.181706428527832
-0.0455235466361045,1.0584475994110107,-0.0883918032050132,-0.4532093405723572,-0.1500735133886337,-0.093474194407463,0.0,0.0,-0.7618082761764526,-0.1129505634307861
-0.0464378371834754,1.0481551885604858,-0.0865566283464431,-0.457935482263565,-0.1549395024776458,-0.0973198041319847,0.0,0.0,-0.575835645198822,-0.8174612522125244
-0.0473864562809467,1.0377674102783203,-0.0910919457674026,-0.4620792269706726,-0.1587034165859222,-0.0752782151103019,0.0,0.0,-0.6049888134002686,-0.5764281153678894
-0.0483566299080848,1.027276635169983,-0.0940148010849952,-0.4665790200233459,-0.1617054343223571,-0.0600402578711509,0.0,0.0,-0.7395504117012024,-0.6139049530029297
-0.0493499748408794,1.016688585281372,-0.0971463471651077,-0.4708132147789001,-0.1638882756233215,-0.0436571016907691,0.0,0.0,-0.9418641924858092,0.2971818447113037
-0.0503260605037212,1.0059949159622192,-0.0952184349298477,-0.475538432598114,-0.1662818193435669,-0.0478704646229743,0.0,0.0,-0.9721107482910156,0.2933118343353271
-0.0512847900390625,0.9951955676078796,-0.0932708978652954,-0.4802638590335846,-0.1688897758722305,-0.0521592572331428,0.0,0.0,-0.9868961572647096,0.3772429227828979
-0.0522260665893554,0.984290599822998,-0.0913050323724746,-0.4849894642829895,-0.1717156320810318,-0.0565172135829925,0.0,0.0,-0.6506823301315308,-0.4830780625343323
-0.0531496033072471,0.9732799530029296,-0.0893220156431198,-0.4897152483463287,-0.174762561917305,-0.0609382204711437,0.0,0.0,-0.8594539165496826,-0.8543705344200134
-0.0541357025504112,0.9621926546096802,-0.0974326580762863,-0.4929108917713165,-0.1759389489889145,-0.0235277768224477,0.0,0.0,-0.963933289051056,-0.914760947227478
-0.055177878588438,0.9510164856910706,-0.1047079414129257,-0.4966545104980469,-0.1754452884197235,0.0098733156919479,0.0,0.0,-0.5084601640701294,-0.3126230239868164
-0.0562020316720008,0.9397348761558532,-0.1026799231767654,-0.5013798475265503,-0.1751803606748581,0.0052983774803578,0.0,0.0,-0.7936202883720398,-0.5991199612617493
-0.057258702814579,0.9283649325370787,-0.1070118397474289,-0.505172848701477,-0.1738279908895492,0.0270476099103689,0.0,0.0,-0.9996772408485411,-0.0956215858459472
-0.0582970604300498,0.916889190673828,-0.1049588695168495,-0.50989830493927,-0.1727080941200256,0.0223980508744716,0.0,0.0,-0.988462209701538,-0.0404301881790161
-0.0593172088265419,0.905307948589325,-0.1028947606682777,-0.514623761177063,-0.171822115778923,0.0177193321287632,0.0,0.0,-0.9966185688972472,-0.4956056475639343
-0.0603189468383789,0.8936207890510559,-0.1008203476667404,-0.5193491578102112,-0.1711712777614593,0.0130166243761777,0.0,0.0,-0.9993364810943604,-0.088868498802185
-0.0613020882010459,0.8818280696868896,-0.0987364128232002,-0.5240744352340698,-0.170756533741951,0.0082950126379728,0.0,0.0,-0.9900508522987366,-0.8981247544288635
-0.0623248107731342,0.8699529767036438,-0.1039679497480392,-0.5275852680206299,-0.1690549999475479,0.034030832350254,0.0,0.0,-0.9987403154373168,-0.6880292892456055
-0.0633698478341102,0.8579856157302856,-0.1070279031991958,-0.5315976142883301,-0.1665265262126922,0.0505694150924682,0.0,0.0,-0.9971936941146852,-0.7085315585136414
-0.0644436851143837,0.845932126045227,-0.1109177246689796,-0.535322368144989,-0.1629881560802459,0.0707675367593765,0.0,0.0,-0.9992337226867676,-0.2427396178245544
-0.0654987320303917,0.8337728977203369,-0.1088030934333801,-0.5400486588478088,-0.15968719124794,0.0660192817449569,0.0,0.0,-0.9965047836303712,0.4604604244232178
-0.066534899175167,0.8215081095695496,-0.1066823005676269,-0.5447747111320496,-0.1566233783960342,0.0612761750817298,0.0,0.0,-0.994687020778656,-0.7762450575828552
-0.0676223784685134,0.8091585040092468,-0.1133965402841568,-0.5483884215354919,-0.151981845498085,0.0928306877613067,0.0,0.0,-0.9988059997558594,0.2197320461273193
-0.0686908736824989,0.7967035174369812,-0.1112654060125351,-0.55311518907547,-0.1475763171911239,0.08811055123806,0.0,0.0,-0.9984132051467896,0.2803698778152466
-0.069740392267704,0.7841429114341736,-0.109129786491394,-0.5578416585922241,-0.1434058248996734,0.0834100171923637,0.0,0.0,-0.9994432330131532,-0.1603268980979919
-0.0707708373665809,0.771476686000824,-0.1069901958107948,-0.5625678896903992,-0.1394691914319992,0.0787325650453567,0.0,0.0,-0.999796450138092,-0.1338057518005371
-0.071782112121582,0.7587048411369324,-0.1048471555113792,-0.5672938823699951,-0.1357650607824325,0.074082538485527,0.0,0.0,-0.9973032474517822,0.2320863008499145
-0.0727742165327072,0.7458273768424988,-0.1027011647820472,-0.572019636631012,-0.1322918534278869,0.0694642141461372,0.0,0.0,-0.9766632318496704,-0.6838999390602112
-0.0737942680716514,0.7328453063964844,-0.1064384952187538,-0.5765892863273621,-0.1278716623783111,0.0884037017822265,0.0,0.0,-0.9965143203735352,-0.0702155828475952
-0.0747949630022049,0.7197577357292175,-0.1042881235480308,-0.581315279006958,-0.1236786022782325,0.0838611721992492,0.0,0.0,-0.9848124384880066,0.552406907081604
-0.0757400542497634,0.7065552473068237,-0.0975626856088638,-0.5865280628204346,-0.120642103254795,0.0607298538088798,0.0,0.0,-0.973111927509308,-0.2912173867225647
-0.0766657814383506,0.6932469010353088,-0.0954095274209976,-0.5912530422210693,-0.117828145623207,0.0562795512378215,0.0,0.0,-0.9951202273368835,-0.1825543045997619
-0.0775722488760948,0.6798328757286072,-0.0932557135820388,-0.595977783203125,-0.1152340695261955,0.0518813244998455,0.0,0.0,-0.9856765866279602,0.2522168159484863
-0.0784593597054481,0.6663129329681396,-0.0911016836762428,-0.6007023453712463,-0.1128571182489395,0.0475390292704105,0.0,0.0,-0.9872315526008606,-0.6123057007789612
-0.0793693512678146,0.6526944637298584,-0.0942522063851356,-0.6050260663032532,-0.1096217185258865,0.0647078230977058,0.0,0.0,-0.9960952401161194,-0.2189093828201294
-0.0802597999572753,0.638970136642456,-0.0920991450548172,-0.6097508072853088,-0.1065972819924354,0.0604886785149574,0.0,0.0,-0.9915112257003784,-0.485600471496582
-0.0811309814453125,0.6251398324966431,-0.0899471789598465,-0.6144753694534302,-0.1037804633378982,0.0563365742564201,0.0,0.0,-0.9974040389060974,-0.5342915654182434
-0.0820271521806716,0.611205518245697,-0.0933872237801551,-0.6190497875213623,-0.1000483483076095,0.07464250177145,0.0,0.0,-0.9561039805412292,0.0948495864868164
-0.0829039588570594,0.5971652865409851,-0.0912389382719993,-0.6237745881080627,-0.0965166017413139,0.070635125041008,0.0,0.0,-0.9946271181106568,0.4862053394317627
-0.0837612152099609,0.5830192565917969,-0.0890931412577629,-0.6284991502761841,-0.0931813418865203,0.0667052119970321,0.0,0.0,-0.9938012361526488,0.1045106649398803
-0.0845990180969238,0.5687673687934875,-0.0869503244757652,-0.6332235336303711,-0.0900385379791259,0.0628560632467269,0.0,0.0,-0.9652644395828248,0.7560446262359619
-0.0853710174560546,0.5543954372406006,-0.078986681997776,-0.6386464238166809,-0.0882694944739341,0.0353811495006084,0.0,0.0,-0.8212699890136719,0.0817519426345825
-0.0861234664916992,0.5399174690246582,-0.0768512934446334,-0.6433699727058411,-0.0866843611001968,0.0317028872668743,0.0,0.0,-0.5860337615013123,0.3794673681259155
-0.0868564620614051,0.5253334641456604,-0.074720486998558,-0.6480934023857117,-0.085278645157814,0.0281144771724939,0.0,0.0,-0.4943152070045471,0.5685781240463257
-0.087529182434082,0.5106406807899475,-0.0674677565693855,-0.6530023813247681,-0.0850766897201538,0.0040388293564319,0.0,0.0,0.1641596555709839,0.1305650472640991
-0.0881487876176834,0.4965793192386627,-0.061959683895111,-0.6249500513076782,-0.0850838124752044,-0.0001422094355802,0.0,0.0,-0.3931446075439453,0.1166445016860961
-0.0887490287423133,0.4824118912220001,-0.059846144169569,-0.6296731233596802,-0.0852560624480247,-0.0034450348466634,0.0,0.0,0.4806059598922729,0.8399800062179565
-0.0892141312360763,0.4685771465301513,-0.0445179231464862,-0.6149932146072388,-0.0872322022914886,-0.039522536098957,0.0,0.0,-0.1081682443618774,-0.7077370882034302
-0.0897072777152061,0.4546373784542084,-0.0483716614544391,-0.6196010112762451,-0.0881720781326294,-0.0187974087893962,0.0,0.0,0.4633110761642456,-0.0644506812095642
-0.0900067314505577,0.4413300454616546,-0.0294536836445331,-0.5914656519889832,-0.0886590033769607,-0.009738621301949,0.0,0.0,-0.4332887530326843,-0.5264759659767151
-0.0903188735246658,0.4279169142246246,-0.0313984304666519,-0.59613037109375,-0.0884855613112449,0.0034691505134105,0.0,0.0,0.2317175865173339,-0.4625172615051269
-0.0905665382742881,0.4152350127696991,-0.0247777551412582,-0.5636364221572876,-0.088470846414566,0.0002944182488135,0.0,0.0,-0.1024465560913086,0.1714676618576049
-0.0907948464155197,0.4024471640586853,-0.0227184128016233,-0.5683593153953552,-0.0885898619890213,-0.0023800351191312,0.0,0.0,-0.1464606523513794,-0.0930685400962829
-0.0910041779279708,0.3895530998706817,-0.0206712558865547,-0.5730822086334229,-0.0888370722532272,-0.0049444297328591,0.0,0.0,0.6240181922912598,-0.1165526509284973
-0.0910670310258865,0.3770192563533783,-0.0063774161972105,-0.5570563673973083,-0.0887484103441238,0.0017732806736603,0.0,0.0,-0.17328542470932,0.3702194690704345
-0.0911109000444412,0.3643792569637298,-0.0043579628691077,-0.5617791414260864,-0.0887768492102623,-0.0005686812801286,0.0,0.0,0.757330060005188,-0.7877960205078125
-0.0910176262259483,0.353008896112442,0.0076911584474146,-0.5052547454833984,-0.0871482715010643,0.0325711891055107,0.0,0.0,0.054560899734497,0.8325251340866089
-0.090825654566288,0.3420685529708862,0.019343102350831,-0.4862427413463592,-0.0872891992330551,-0.0028186009731143,0.0,0.0,-0.350247859954834,-0.392469048500061
-0.0906148925423622,0.3310222327709198,0.0213112998753786,-0.4909654259681701,-0.0875303819775581,-0.0048234965652227,0.0,0.0,0.1428382396697998,-0.625974178314209
-0.0903254523873329,0.3205918073654175,0.0279191378504037,-0.4635144770145416,-0.0865197405219078,0.0202129129320383,0.0,0.0,-0.3174870610237121,-0.2230464220046997
-0.0900176987051963,0.3100552260875702,0.0298454314470291,-0.4682371914386749,-0.0855981260538101,0.0184323079884052,0.0,0.0,-0.7110248804092407,-0.7082563638687134
-0.0897549614310264,0.29942587018013,0.0238073002547025,-0.4722787737846374,-0.0831534937024116,0.0488925278186798,0.0,0.0,-0.3068190813064575,0.6776983737945557
-0.0894231796264648,0.2886816561222076,0.0321013070642948,-0.4774590134620666,-0.0820818319916725,0.0214330367743968,0.0,0.0,-0.2229509353637695,-0.7462495565414429
-0.0891437530517578,0.2778407335281372,0.0251388903707265,-0.4816650152206421,-0.0793079137802124,0.05547846108675,0.0,0.0,-0.180312693119049,0.6697461605072021
-0.0888072997331619,0.2668876051902771,0.0319233275949955,-0.4867182970046997,-0.077602170407772,0.0341143570840358,0.0,0.0,0.4295053482055664,-0.2726651430130005
-0.0883139595389366,0.2567474246025085,0.0472418218851089,-0.4505652487277984,-0.0755342468619346,0.0413586758077144,0.0,0.0,-0.6190339922904968,-0.8187894821166992
-0.0878621116280555,0.2465007454156875,0.0416763462126255,-0.4552376866340637,-0.072060227394104,0.0694800466299057,0.0,0.0,-0.5066037178039551,0.0032143592834472
-0.0873936638236045,0.2361479848623275,0.0433897674083709,-0.4599609375,-0.0686375349760055,0.0684537962079048,0.0,0.0,0.554863691329956,0.1755003929138183
-0.0868802070617675,0.2267842888832092,0.0480260774493217,-0.4160161316394806,-0.0653607621788978,0.0655354857444763,0.0,0.0,-0.5687709450721741,-0.6439683437347412
-0.086389347910881,0.217325821518898,0.0448180213570594,-0.4201952815055847,-0.0611453577876091,0.0843079537153244,0.0,0.0,-0.2362211942672729,0.2146141529083252
-0.0858831405639648,0.2077614217996597,0.0463985837996006,-0.4249189496040344,-0.056966446340084,0.0835781246423721,0.0,0.0,-0.3008175492286682,0.0480748414993286
-0.085361860692501,0.1980910152196884,0.047927975654602,-0.4296425282955169,-0.0528193302452564,0.0829423144459724,0.0,0.0,-0.0138402581214904,0.1539242267608642
-0.084826186299324,0.1883145421743393,0.0494024455547332,-0.4343660473823547,-0.0486994422972202,0.0823975950479507,0.0,0.0,0.3899867534637451,0.4423590898513794
-0.084190085530281,0.1790051311254501,0.0591507963836193,-0.4136141836643219,-0.044288832694292,0.0882120952010154,0.0,0.0,-0.2686641812324524,0.5768415927886963
-0.0835041999816894,0.1695882230997085,0.0650665313005447,-0.4184287488460541,-0.0408112369477748,0.0695520713925361,0.0,0.0,-0.0038369894027709,-0.5126778483390808
-0.0828548446297645,0.1600670218467712,0.0601779744029045,-0.4230436384677887,-0.0361109748482704,0.0940049067139625,0.0,0.0,0.4490339756011963,-0.7986270189285278
-0.0822599381208419,0.1511851847171783,0.0531704910099506,-0.3946067690849304,-0.0298633240163326,0.1249530687928199,0.0,0.0,-0.0106753706932067,0.8681690692901611
-0.0815819725394249,0.1421927064657211,0.0632941722869873,-0.3995821177959442,-0.0254239197820425,0.0887881442904472,0.0,0.0,0.3863383531570434,0.7074885368347168
-0.080708310008049,0.1335334628820419,0.0840973258018493,-0.3848048448562622,-0.0221936590969562,0.0646050721406936,0.0,0.0,-0.180336594581604,-0.8452829718589783
-0.0798809081315994,0.1247738003730773,0.0780440121889114,-0.3892563879489898,-0.0175539590418338,0.0927940756082534,0.0,0.0,0.4685616493225097,0.0291234254837036
-0.0790097266435623,0.1169829443097114,0.0823129788041114,-0.3462117910385132,-0.0128078553825616,0.0949220433831214,0.0,0.0,-0.2928118705749511,-0.9511039853096008
