x_pos,y_pos,x_vel,y_vel,angle,ang_vel,leg_1,leg_2,main_booster,lat_booster
-0.0014577865367755,1.4029117822647097,-0.1482277959585189,-0.3559302091598511,0.0021936243865638,0.0433034040033817,0.0,0.0,0.2151766812250368,0.7645150463232888
-0.0027507781051099,1.3947192430496216,-0.1304765045642852,-0.3641117513179779,0.0033552511595189,0.0232353918254375,0.0,0.0,-0.6587564953834848,-0.5340154541280908
-0.0040184021927416,1.3858094215393066,-0.1292822957038879,-0.396000862121582,0.0058347131125628,0.0495939925312995,0.0,0.0,0.0165789765182555,-0.941760172557718
-0.0053965570405125,1.3766435384750366,-0.1427373588085174,-0.4073944091796875,0.0107022915035486,0.0973608866333961,0.0,0.0,0.1322610027448216,-0.6260348346121535
-0.0066812513396143,1.367438554763794,-0.1353397965431213,-0.4091752469539642,0.0174902081489563,0.135771095752716,0.0,0.0,-0.1448329659420961,-0.8559406392811929
-0.0079745296388864,1.357519030570984,-0.1380608826875686,-0.4409931600093841,0.0261234063655138,0.1726799458265304,0.0,0.0,0.8112103516416493,-0.9790252187458984
-0.0093508716672658,1.347833514213562,-0.1488263010978698,-0.4307008385658264,0.0371978655457496,0.2215097695589065,0.0,0.0,-0.7266201342971086,0.7803993918452117
-0.0106179239228367,1.337443232536316,-0.1365131437778473,-0.4620591104030609,0.0469033978879451,0.1941284388303756,0.0,0.0,-0.0454679249045399,0.7058388409738284
-0.0118035320192575,1.3263531923294067,-0.1275621652603149,-0.4931898713111877,0.0558099038898944,0.1781464517116546,0.0,0.0,-0.1926545489292321,-0.7716835349556113
-0.0130286216735839,1.3145520687103271,-0.1336333453655243,-0.5249485969543457,0.0668303072452545,0.2204286307096481,0.0,0.0,-0.9351804054342756,0.747000932570071
-0.014171028509736,1.3020472526550293,-0.1242416650056839,-0.5562418699264526,0.0767485946416854,0.1983837336301803,0.0,0.0,-0.9595251058390176,0.6833070833559463
-0.0152435302734375,1.2888370752334597,-0.1163291186094284,-0.5876098871231079,0.0857554972171783,0.1801542788743972,0.0,0.0,0.4394395348646767,0.659472492617461
-0.0161884315311908,1.2758525609970093,-0.1031161546707153,-0.5776011943817139,0.0943172723054885,0.1712514013051986,0.0,0.0,0.6174500768430087,-0.5282162983189718
-0.0171372406184673,1.2626758813858032,-0.105384387075901,-0.5863270163536072,0.1047504395246505,0.2086823433637619,0.0,0.0,0.9099113887487216,0.8069850901234498
-0.017954159528017,1.2502562999725342,-0.0915943756699562,-0.5526961088180542,0.1145963743329048,0.1969365924596786,0.0,0.0,-0.5360690130055261,-0.937132126597486
-0.0188444145023822,1.237105131149292,-0.1010887771844863,-0.5854646563529968,0.126611441373825,0.2403229475021362,0.0,0.0,-0.1029521786120462,-0.7166824590327692
-0.0197987556457519,1.2232447862625122,-0.1092282682657241,-0.6172517538070679,0.1403686851263046,0.2751701474189758,0.0,0.0,-0.7423637837213122,0.5501253683433751
-0.0207254402339458,1.208681583404541,-0.105736568570137,-0.6485334038734436,0.1534232795238495,0.2611155807971954,0.0,0.0,0.3720757244771564,0.9170268790996068
-0.0216238014400005,1.1944435834884644,-0.1017770320177078,-0.6340763568878174,0.1653835624456405,0.2392274141311645,0.0,0.0,0.5700558569025516,0.6376480314021336
-0.0226801875978708,1.1802830696105957,-0.1167690530419349,-0.6306340098381042,0.1765477061271667,0.2233028411865234,0.0,0.0,0.3905886464042158,-0.5512760359251125
-0.0238185878843069,1.1663709878921509,-0.1269712895154953,-0.6199347972869873,0.1897538751363754,0.2641471028327942,0.0,0.0,0.6663006070914539,0.66428979137401
-0.0250239372253417,1.152421951293945,-0.1330305933952331,-0.6216081976890564,0.2023368179798126,0.2516814768314361,0.0,0.0,-0.4538042297840181,-0.9361510401091112
-0.0263383872807025,1.137745380401611,-0.146037071943283,-0.6543505191802979,0.2170813232660293,0.2949164509773254,0.0,0.0,0.99967223529722,0.5764971035415791
-0.0276582725346088,1.122951626777649,-0.1463381350040435,-0.6596699953079224,0.2316174507141113,0.290748655796051,0.0,0.0,0.6281929838123432,0.6508933342548722
-0.0292838104069232,1.1083426475524902,-0.1759081929922104,-0.6514431238174438,0.2451957464218139,0.2715908288955688,0.0,0.0,-0.2813754460484745,-0.5676390203420543
-0.0310260765254497,1.092987895011902,-0.18963024020195,-0.6850884556770325,0.2608970105648041,0.3140245676040649,0.0,0.0,0.0424071846926881,-0.8164148198002151
-0.0330166816711425,1.0775716304779053,-0.2166909277439117,-0.6884063482284546,0.2789521813392639,0.3611032366752624,0.0,0.0,0.20227539805532,0.5670455600629224
-0.0353051200509071,1.0622962713241575,-0.2457654178142547,-0.6822386980056763,0.2963705658912658,0.3483676612377167,0.0,0.0,0.538188229134168,-0.8497493737425503
-0.0380767807364463,1.0472675561904907,-0.2961696088314056,-0.6719321608543396,0.3160348832607269,0.3932864069938659,0.0,0.0,0.0448608523926001,0.9494364601582486
-0.0409683212637901,1.0319973230361938,-0.3068611919879913,-0.6826473474502563,0.3344885408878326,0.3690728843212127,0.0,0.0,0.6794664366456566,-0.8511546878315702
-0.0442714691162109,1.0172282457351685,-0.3502871394157409,-0.6611689329147339,0.3554244637489319,0.4187185764312744,0.0,0.0,-0.6436973214149475,0.9929409027099608
-0.0475963577628135,1.0017850399017334,-0.3513136506080627,-0.6911506652832031,0.375313401222229,0.3977785110473633,0.0,0.0,-0.6301432251930237,0.9911537170410156
-0.0509504303336143,0.9856827855110168,-0.3531098663806915,-0.7204192280769348,0.3941524922847748,0.3767815828323364,0.0,0.0,-0.505651593208313,0.9925878047943116
-0.0543296821415424,0.9689072966575624,-0.3544571697711944,-0.7502601146697998,0.4118942320346832,0.3548347353935241,0.0,0.0,-0.6232070326805115,0.9966449737548828
-0.0577298179268837,0.9514768123626708,-0.3551352620124817,-0.7791863679885864,0.4282379448413849,0.3268741071224212,0.0,0.0,-0.7238466143608093,0.9987870454788208
-0.061154555529356,0.9333974719047546,-0.3561904430389404,-0.8077751994132996,0.4431598782539367,0.29843869805336,0.0,0.0,-0.3050137758255005,0.9934839010238647
-0.0646082907915115,0.9146551489830016,-0.3578576743602752,-0.83700031042099,0.456836849451065,0.2735391855239868,0.0,0.0,-0.5529947876930237,0.9281065464019777
-0.0680943503975868,0.8952638506889343,-0.3597833514213562,-0.8655487895011902,0.4691706895828247,0.2466771155595779,0.0,0.0,-0.0425370931625366,0.923837661743164
-0.0716242790222168,0.8752207159996033,-0.3631163239479065,-0.8942703008651733,0.4804110527038574,0.224806398153305,0.0,0.0,0.035298466682434,0.8804969787597656
-0.0753531455993652,0.8550406098365784,-0.3819592595100403,-0.900077223777771,0.4905271232128143,0.2023221999406814,0.0,0.0,-0.1178386807441711,0.7452410459518433
-0.0791453346610069,0.8341927528381348,-0.3877446055412292,-0.9296302199363708,0.5000759363174438,0.190976470708847,0.0,0.0,0.0448704957962036,0.6473982334136963
-0.0830786675214767,0.8131723999977112,-0.4013263285160064,-0.9371739029884338,0.509075939655304,0.180000364780426,0.0,0.0,-0.3696072101593017,0.7399439811706543
-0.0870567336678505,0.7914868593215942,-0.4048035740852356,-0.9664289951324464,0.5170063376426697,0.1586083471775055,0.0,0.0,-0.3968470096588135,0.4594672918319702
-0.0911417007446289,0.7690943479537964,-0.416111946105957,-0.9981420040130616,0.525671124458313,0.1732952743768692,0.0,0.0,-0.5808485746383667,0.8228380680084229
-0.0952794998884201,0.7460313439369202,-0.4205875396728515,-1.0276789665222168,0.5334582328796387,0.1557422280311584,0.0,0.0,-0.4078776836395263,0.4646962881088257
-0.0995261222124099,0.7222612500190735,-0.4320763647556305,-1.0593925714492798,0.5419799089431763,0.1704340279102325,0.0,0.0,-0.644304633140564,0.5158581733703613
-0.1038434952497482,0.6978162527084351,-0.4387050271034241,-1.089271903038025,0.5500314235687256,0.1610297858715057,0.0,0.0,-0.698049008846283,-0.2429820895195007
-0.1082711219787597,0.6726642847061157,-0.4503437578678131,-1.120986819267273,0.5588172674179077,0.1757162809371948,0.0,0.0,-0.792393147945404,0.3023300170898437
-0.1128100380301475,0.6468056440353394,-0.4620471000671386,-1.1527029275894165,0.568337082862854,0.1903960555791854,0.0,0.0,-0.58245849609375,-0.391512930393219
-0.1174607276916503,0.6202406287193298,-0.4738091826438904,-1.184420466423035,0.5785903930664062,0.2050660103559494,0.0,0.0,-0.7588058114051819,-0.0951985120773315
-0.1222239509224891,0.5929694771766663,-0.4856245517730713,-1.2161394357681274,0.5895765423774719,0.2197225838899612,0.0,0.0,-0.8303952813148499,-0.4192492365837097
-0.1271005570888519,0.5649923086166382,-0.497488260269165,-1.2478599548339844,0.601294755935669,0.234363704919815,0.0,0.0,-0.5565497279167175,-0.2072102427482605
-0.1320909559726715,0.5363096594810486,-0.5093957185745239,-1.279582142829895,0.6137440204620361,0.2489856481552124,0.0,0.0,-0.9027912020683287,-0.2624450325965881
-0.1371957808732986,0.506921648979187,-0.5213426351547241,-1.3113059997558594,0.6269233226776123,0.2635855674743652,0.0,0.0,-0.8781576752662659,-0.0510249733924865
-0.1424154341220855,0.4768285453319549,-0.5333250761032104,-1.343031644821167,0.6408312916755676,0.278159350156784,0.0,0.0,-0.901885986328125,-0.3890223503112793
-0.1477506607770919,0.4460305571556091,-0.5453395247459412,-1.374759316444397,0.6554664969444275,0.2927038371562958,0.0,0.0,-0.9730530977249146,-0.6611083149909973
-0.1532385796308517,0.4144936501979828,-0.5620309710502625,-1.408530592918396,0.6720350384712219,0.3313702940940857,0.0,0.0,-0.9707804322242736,-0.5731747150421143
-0.1588711738586425,0.3822228908538818,-0.5776345133781433,-1.4420087337493896,0.690291702747345,0.365132987499237,0.0,0.0,-0.9750149250030518,-0.5491474270820618
-0.1646523475646972,0.3492181301116943,-0.5936511158943176,-1.4755854606628418,0.7103187441825867,0.4005409181118011,0.0,0.0,-0.9760674834251404,-0.2817903161048889
-0.1705517768859863,0.3155110478401184,-0.6057519912719727,-1.5073283910751345,0.7310646176338196,0.4149180948734283,0.0,0.0,-0.9697962403297424,-0.0610041618347168
-0.1765700280666351,0.2811018824577331,-0.6178692579269409,-1.5390735864639282,0.7525267004966736,0.4292415082454681,0.0,0.0,-0.9599919319152832,0.606783390045166
-0.1826804131269455,0.246033102273941,-0.6264662146568298,-1.5684226751327517,0.7735663056373596,0.4207909703254699,0.0,0.0,-0.9702757596969604,0.9096792936325072
-0.1888487786054611,0.2103487104177475,-0.6306936740875244,-1.5951554775238037,0.7928586602210999,0.3858466148376465,0.0,0.0,-0.920213520526886,0.9420759677886964
-0.1950841844081878,0.1740428358316421,-0.6360811591148376,-1.622221827507019,0.8106474876403809,0.3557767570018768,0.0,0.0,-0.8744890093803406,0.9124631881713868
-0.2013864070177078,0.1371062397956848,-0.6415925025939941,-1.6497184038162231,0.8270589709281921,0.3282293677330017,0.0,0.0,-0.8241007924079895,0.8554415702819824
-0.2077727317810058,0.0995238423347473,-0.6492279171943665,-1.6781176328659058,0.8426249623298645,0.3113197684288025,0.0,0.0,-0.6865001916885376,0.7334423065185547
-0.2142438441514969,0.0613081566989421,-0.6568220257759094,-1.7058316469192505,0.8571391701698303,0.2902844250202179,0.0,1.0,0.9856747388839722,0.9971166849136353
-0.2207880467176437,0.0236080978065729,-0.6661762595176697,-1.6989048719406128,0.8783910870552063,0.3628528714179992,0.0,1.0,0.997629165649414,0.9993224143981934
-0.2239468544721603,0.0131519176065921,-0.4274774193763733,-0.5424041152000427,1.1984328031539917,6.725870609283447,0.0,1.0,0.997629165649414,0.9993224143981934
