x_pos,y_pos,x_vel,y_vel,angle,ang_vel,leg_1,leg_2,main_booster,lat_booster
-0.0016249656910076,1.4032514095306396,-0.1644538789987564,-0.3408346176147461,0.0017551225610077,0.0346206985414028,0.0,0.0,0.4185290579873408,0.6750676231385909
-0.0032507895957678,1.3958237171173096,-0.1629611253738403,-0.3301196992397308,0.0021319352090358,0.0075375847518444,0.0,0.0,-0.1964039960964521,0.7919342220227918
-0.0049030305817723,1.3880168199539185,-0.16355562210083,-0.3469744026660919,0.0004833482671529,-0.0329749174416065,0.0,0.0,-0.9686083400718812,-0.8588814502656346
-0.0067386627197265,1.3798339366912842,-0.1838325411081314,-0.3636874854564667,0.0007435692241415,0.0052051017992198,0.0,0.0,-0.0583393254409405,0.9226488722107896
-0.0085891727358102,1.3712809085845947,-0.1829286515712738,-0.3801376521587372,-0.0013516524340957,-0.0419081076979637,0.0,0.0,-0.7158771938920929,-0.7797420356699647
-0.0105898855254054,1.3623535633087158,-0.1990122944116592,-0.3967664837837219,-0.002403094433248,-0.0210307873785495,0.0,0.0,-0.1182354406283363,-0.7629385502501453
-0.0127559658139944,1.3530535697937012,-0.2169627845287323,-0.4133380651473999,-0.0020499804522842,0.0070631951093673,0.0,0.0,0.9149532586557564,-0.9623840066502974
-0.0149073600769042,1.3445076942443848,-0.2176052629947662,-0.3798179626464844,0.0003901715099345,0.0488074868917465,0.0,0.0,0.124037365037233,-0.8372464395036943
-0.0172374732792377,1.3364516496658323,-0.2369715720415115,-0.3580537438392639,0.0043001375161111,0.0782067030668258,0.0,0.0,-0.7560506294888514,0.853030678916797
-0.0196035392582416,1.3280282020568848,-0.2386684417724609,-0.3743807971477508,0.0063318312168121,0.0406377650797367,0.0,0.0,0.5466931586886632,0.8075320761323856
-0.0219225883483886,1.320068597793579,-0.2323003113269806,-0.3537639677524566,0.0067201876081526,0.0077679185196757,0.0,0.0,-0.7456223705467153,0.8826274776626071
-0.0242666248232126,1.3117345571517944,-0.2326074838638305,-0.3703919351100921,0.0049487431533634,-0.0354322716593742,0.0,0.0,-0.70741128969446,-0.7478812133948394
-0.0267592426389455,1.3030309677124023,-0.2484310865402221,-0.3868221342563629,0.0041281231679022,-0.0164139531552791,0.0,0.0,-0.2683251380166631,0.9896081255268956
-0.0292669292539358,1.2939456701278689,-0.2475105226039886,-0.4037861824035644,0.0009011245565488,-0.0645459294319152,0.0,0.0,-0.7685222318829539,-0.666248066959328
-0.0319167152047157,1.284494161605835,-0.2625107169151306,-0.4200679957866668,-0.0015363956335932,-0.0487546138465404,0.0,0.0,-0.3719904387821007,0.7888690500779284
-0.0345943458378315,1.2746602296829224,-0.2631929516792297,-0.437074065208435,-0.00605383887887,-0.0903572365641594,0.0,0.0,-0.4321698469662984,0.9526283456219132
-0.0372804626822471,1.264464020729065,-0.261457085609436,-0.4532135128974914,-0.0131265791133046,-0.1414678245782852,0.0,0.0,-0.3468620603917944,0.6512913394141726
-0.0400035865604877,0.0,-0.2632872462272644,-0.4701179563999176,-0.0220352616161108,-0.1781900376081466,0.0,0.0,0.8664922885702195,-0.8920859470407992
-0.0427556037902832,1.2443077564239502,-0.2679773271083832,-0.4259348809719085,-0.0291854739189147,-0.1430170685052871,0.0,0.0,-0.9488402994983004,-0.8582493265149941
-0.0456838607788085,1.2343571186065674,-0.2873086333274841,-0.4423660039901733,-0.0346499495208263,-0.1092990860342979,0.0,0.0,-0.4285370193629114,-0.8158767670570454
-0.0487616546452045,1.2240426540374756,-0.3032973110675812,-0.4585365951061249,-0.0390855520963668,-0.0887199491262435,0.0,0.0,-0.1326843547992771,-0.9612342100102406
-0.0520123466849327,1.2133541107177734,-0.3222160339355469,-0.4751218259334564,-0.0419013574719429,-0.0563211850821971,0.0,0.0,0.6317033038996895,-0.7685809662122551
-0.0552575103938579,1.2030924558639526,-0.3232307434082031,-0.4561118483543396,-0.0431786924600601,-0.0255491025745868,0.0,0.0,-0.1886705346605011,-0.763381756808474
-0.0586531646549701,1.1924526691436768,-0.3393690288066864,-0.472888171672821,-0.0433745831251144,-0.0039179790765047,0.0,0.0,0.5286344314566993,0.7354884036742508
-0.0622058883309364,1.1823399066925049,-0.3530631959438324,-0.4495179057121277,-0.0455587431788444,-0.0436869524419307,0.0,0.0,-0.9148587294927152,-0.790677075105276
-0.0659318938851356,1.1718422174453735,-0.3721057176589966,-0.4665780067443847,-0.0460509695112705,-0.0098443739116191,0.0,0.0,0.3296989794637659,-0.6257956546927146
-0.0697712898254394,1.161854863166809,-0.3844388127326965,-0.4438705742359161,-0.0455575622618198,0.009868168272078,0.0,0.0,-0.7639912317443986,0.991994087828127
-0.0736423507332801,1.1515004634857178,-0.3857680857181549,-0.4602307975292206,-0.0468769967555999,-0.0263887755572795,0.0,0.0,-0.2879616647167042,-0.7619231670123345
-0.0776788741350174,1.1407848596572876,-0.40390545129776,-0.4762474298477173,-0.0466225259006023,0.0050890995189547,0.0,0.0,-0.789218520607263,0.698432444795168
-0.0817534476518631,1.1296898126602173,-0.4060811102390289,-0.4931556284427643,-0.0479837395250797,-0.0272243879735469,0.0,0.0,-0.7330635202061009,0.9969574310077002
-0.0858366042375564,1.118227243423462,-0.4045894742012024,-0.5095664858818054,-0.0516647361218929,-0.0736197680234909,0.0,0.0,-0.748266672047263,-0.7073723885745388
-0.0900719612836837,1.1063928604125977,-0.4211446344852447,,-0.0540356002748012,-0.0474170409142971,0.0,0.0,0.2711598234429029,0.7420997113354841
-0.0943744629621505,1.095117449760437,-0.4259787201881408,-0.5012890696525574,-0.0582540407776832,-0.084368772804737,0.0,0.0,-0.7323718061687925,0.6062154249474461
-0.0987207442522049,1.0834602117538452,-0.4289913773536682,-0.5183275938034058,-0.0638352036476135,-0.1116229072213172,0.0,0.0,0.0229026957775611,-0.8196838691229468
-0.1031803116202354,1.0720186233520508,-0.4416793882846832,-0.5087059140205383,-0.0680664628744125,-0.0846252366900444,0.0,0.0,-0.3465285189618265,-0.7497591047483891
-0.1077807396650314,1.0602155923843384,-0.4569440484046936,-0.5247148871421814,-0.0711353421211242,-0.0613774731755256,0.0,0.0,0.5302802215920259,0.9800505629056326
-0.1123840361833572,1.0486608743667605,-0.4549347460269928,-0.5138098001480103,-0.0764728933572769,-0.1067512258887291,0.0,0.0,0.0653394661294177,-0.8390749456863751
-0.1170677170157432,1.0374784469604492,-0.4643863141536712,-0.497204840183258,-0.0804200693964958,-0.0789434760808944,0.0,0.0,0.6184787000443519,0.7462891555176394
-0.1217472106218338,1.027163863182068,-0.4620944559574127,-0.4587462842464447,-0.0862247943878173,-0.11609448492527,0.0,0.0,0.0459251137852656,-0.6924322183756582
-0.1265053749084472,1.0170576572418213,-0.4710678160190582,-0.4494564235210418,-0.0909255146980285,-0.0940144509077072,0.0,0.0,-0.997373453944542,0.8988663271694928
-0.1312806159257888,1.0065784454345703,-0.4710035920143127,-0.4661521017551422,-0.097393125295639,-0.1293521672487259,0.0,0.0,-0.5222244262695312,0.9900696277618408
-0.1360362023115158,0.995711386203766,-0.4663476943969726,-0.4836073517799377,-0.1065370664000511,-0.1828787922859192,0.0,0.0,-0.5016775131225586,0.9801042079925536
-0.1407753974199295,0.9844481348991394,-0.4621263146400451,-0.5014795660972595,-0.1182543039321899,-0.2343446910381317,0.0,0.0,-0.4389151930809021,0.9901628494262696
-0.1454945504665374,0.9727961421012878,-0.4575254917144775,-0.5190666913986206,-0.1325750648975372,-0.2864153385162353,0.0,0.0,-0.6294240951538086,0.7566450834274292
-0.15022774040699,0.9607548117637634,-0.4572282433509826,-0.5366822481155396,-0.1486117988824844,-0.3207351565361023,0.0,0.0,-0.8572626113891602,0.9623825550079346
-0.154947280883789,0.9483168125152588,-0.4535284638404846,-0.5547364354133606,-0.1670292317867279,-0.3683485686779022,0.0,0.0,-0.7440062165260315,0.9743609428405762
-0.1596480309963226,0.935485303401947,-0.4492599964141845,-0.572766125202179,-0.1879045814275741,-0.4175073206424713,0.0,0.0,-0.6709259152412415,0.7466062307357788
-0.1643627136945724,0.922281801700592,-0.4492183625698089,-0.5897901654243469,-0.2103001773357391,-0.4479119181632995,0.0,0.0,-0.4079503417015075,0.8325557708740234
-0.1690858900547027,0.908704400062561,-0.4485914707183838,-0.6069968342781067,-0.2343044430017471,-0.4800852239131927,0.0,0.0,-0.0547581315040588,0.2460541725158691
-0.1738664656877517,0.8947622179985046,-0.4541669487953186,-0.6236323714256287,-0.2586185038089752,-0.4862815737724304,0.0,0.0,-0.3903852701187134,0.3363385200500488
-0.1787023544311523,0.8804559111595154,-0.4595331251621246,-0.6402694582939148,-0.2832439839839935,-0.4925104975700378,0.0,0.0,-0.3473725318908691,0.1942077875137329
-0.1835909783840179,0.8657854795455933,-0.4646877646446228,-0.6569081544876099,-0.3081825375556946,-0.4987715780735016,0.0,0.0,0.197688341140747,-0.2104946970939636
-0.188356876373291,0.8511756658554077,-0.4526541233062744,-0.6546027064323425,-0.3330692052841186,-0.4977331161499023,0.0,0.0,0.618523359298706,-0.5703245401382446
-0.1929534971714019,0.8373345732688904,-0.4367582201957702,-0.6206246018409729,-0.3570918142795563,-0.4804519116878509,0.0,0.0,0.667015790939331,-0.7206358909606934
-0.1973240822553634,0.8237610459327698,-0.4157523214817047,-0.6087303161621094,-0.3796268105506897,-0.4507003426551819,0.0,0.0,0.5982897281646729,-0.699051558971405
-0.2017155587673187,0.8105409741401672,-0.4188801348209381,-0.5931002497673035,-0.4012436270713806,-0.4323364794254303,0.0,0.0,0.5878722667694092,-0.6517137289047241
-0.2058045417070388,0.7979903817176819,-0.3899734020233154,-0.5632935762405396,-0.4216179847717285,-0.4074880182743072,0.0,0.0,0.4175130128860473,-0.5676507353782654
-0.2096190452575683,0.7858157157897949,-0.3637416064739227,-0.5465190410614014,-0.4408554136753082,-0.3847486972808838,0.0,0.0,0.4925079345703125,-0.8979827761650085
-0.2131457775831222,0.7742871046066284,-0.3366143107414245,-0.5175308585166931,-0.4584521353244781,-0.3519347012042999,0.0,0.0,0.3498891592025757,-0.7038063406944275
-0.2165335714817047,0.763342559337616,-0.3238062262535095,-0.4914460778236389,-0.4749947786331177,-0.3308528661727905,0.0,0.0,0.4966309070587158,-0.6407219767570496
-0.2198027670383453,0.7524721026420593,-0.3130678534507751,-0.4879642724990845,-0.4904270768165588,-0.3086459040641784,0.0,0.0,0.4218014478683471,-0.4138274192810058
-0.2228951901197433,0.7420931458473206,-0.2948560118675232,-0.466495931148529,-0.5065857768058777,-0.3231746852397918,0.0,0.0,0.83542799949646,-0.9899192452430724
-0.2256726771593094,0.7320422530174255,-0.265219897031784,-0.4514152705669403,-0.5207796692848206,-0.2838779091835022,0.0,0.0,0.6745085716247559,-0.9735879898071288
-0.2282104939222335,0.7224685549736023,-0.2428978234529495,-0.4297139346599579,-0.5332078337669373,-0.2485629022121429,0.0,0.0,0.8485908508300781,-0.9567019939422609
-0.2306042164564132,0.7131481766700745,-0.2300402820110321,-0.4179432094097137,-0.5439304113388062,-0.2144515812397003,0.0,0.0,0.824402928352356,-0.937886118888855
-0.2328758686780929,0.7044708132743835,-0.2191462963819503,-0.3889226913452148,-0.5532070994377136,-0.1855337172746658,0.0,0.0,0.9684462547302246,-0.729335606098175
-0.2346552312374115,0.6967551112174988,-0.1710783690214157,-0.3457703292369842,-0.5611818432807922,-0.1594948470592498,0.0,0.0,0.8840055465698242,-0.7603486776351929
-0.2362443953752517,0.6890512108802795,-0.1533595323562622,-0.344739705324173,-0.5676658749580383,-0.1296802163124084,0.0,0.0,0.949016571044922,-0.8836055994033813
-0.2373346835374832,0.6822862029075623,-0.1049017906188964,-0.3024285137653351,-0.5725104808807373,-0.0968921035528183,0.0,0.0,0.9489881992340088,-0.9416232109069824
-0.2383048087358474,0.6760105490684509,-0.094150997698307,-0.2801571190357208,-0.5758735537528992,-0.0672614723443985,0.0,0.0,0.9508671760559082,-0.8468999266624451
-0.2390072792768478,0.6705233454704285,-0.0684682577848434,-0.2446401864290237,-0.5779704451560974,-0.0419381223618984,0.0,0.0,0.9090099334716796,-0.8429867029190063
-0.2393514215946197,0.6655922532081604,-0.0339521504938602,-0.2193610370159149,-0.5785150527954102,-0.0108927292749285,0.0,0.0,0.2929201126098633,-0.973670482635498
-0.2395025789737701,0.6612874269485474,-0.0161438602954149,-0.1908730715513229,-0.5773022770881653,0.0242553688585758,0.0,0.0,0.3304133415222168,-0.9737280607223512
-0.2394156008958816,0.657202422618866,0.0061607067473232,-0.180451288819313,-0.5743118524551392,0.0598079934716224,0.0,0.0,-0.2509660720825195,-0.9668936133384703
-0.2394059598445892,0.652805507183075,-0.003160857129842,-0.1936526894569397,-0.5694743394851685,0.0967511311173439,0.0,0.0,-0.0124001502990722,-0.9429966807365416
-0.2394613325595855,0.6480824947357178,-0.0109009109437465,-0.207634150981903,-0.5631901621818542,0.1256840080022812,0.0,0.0,-0.3682866096496582,-0.9763404726982116
-0.2395926415920257,0.6430452466011047,-0.0201246961951255,-0.220962256193161,-0.5550516247749329,0.1627703011035919,0.0,0.0,-0.1248079538345336,-0.7454248666763306
-0.2397749871015548,0.6376901268959045,-0.0263820104300975,,-0.5456147789955139,0.1887363791465759,0.0,0.0,-0.5061803460121155,-0.9136865735054016
-0.240008920431137,0.6320210099220276,-0.032782819122076,-0.2481967061758041,-0.534800112247467,0.216293528676033,0.0,0.0,-0.1797537207603454,-0.8548133969306946
-0.2403085231781005,0.6260503530502319,-0.0410322360694408,-0.2610449492931366,-0.522139310836792,0.2532156109809875,0.0,0.0,0.341078519821167,-0.8541390895843506
-0.2406376898288726,0.6201918125152588,-0.0452885814011096,-0.255696952342987,-0.5080996751785278,0.2807931303977966,0.0,0.0,-0.0745916962623596,-0.2247356176376342
-0.2409652173519134,0.6139646768569946,-0.04493959993124,-0.2723067104816437,-0.4943785369396209,0.2744224965572357,0.0,0.0,-0.2165574431419372,-0.8351863026618958
-0.2413572371006012,0.6074230670928955,-0.0530369989573955,-0.2858489751815796,-0.4789177179336548,0.3092164993286133,0.0,0.0,0.0832829475402832,-0.3737349510192871
-0.2415727078914642,0.601129412651062,-0.035064224153757,-0.275113433599472,-0.4639364182949066,0.2996260523796081,0.0,0.0,0.1106594800949096,-0.5979918241500854
-0.2416224032640457,0.5951381325721741,-0.0194319728761911,-0.2615390717983246,-0.4480210244655609,0.3183078169822693,0.0,0.0,0.0220502614974975,-0.165934145450592
-0.2414623200893402,0.5892300009727478,0.0014790573623031,-0.2580104768276214,-0.4321628212928772,0.3171637952327728,0.0,0.0,-0.1122260689735412,-0.1323269605636596
-0.2412964850664138,0.5829533934593201,0.0022293843794614,-0.2746225297451019,-0.4166074693202972,0.3111070394515991,0.0,0.0,-0.1668471693992614,-0.0343134403228759
-0.2411243468523025,0.5763083100318909,0.0030376960057765,-0.2912335097789764,-0.401350736618042,0.3051345646381378,0.0,0.0,-0.2192190885543823,0.1698496341705322
-0.240945428609848,0.5692945122718811,0.0038960855454206,-0.3078433871269226,-0.3863880336284637,0.299254298210144,0.0,0.0,0.4227896928787231,0.3513587713241577
-0.2405201941728592,0.5623157620429993,0.0281959269195795,-0.3063536584377289,-0.3711590766906738,0.3045792281627655,0.0,0.0,-0.4029500484466553,0.2687011957168579
-0.2400874644517898,0.5549682378768921,0.0291300620883703,-0.3229627311229706,-0.3562136590480804,0.2989085018634796,0.0,0.0,0.0643632411956787,0.4292147159576416
-0.2394578456878662,0.5479280948638916,0.0489147678017616,-0.3094790279865265,-0.3414536714553833,0.2951995730400085,0.0,0.0,-0.5409075021743774,0.1674281358718872
-0.238820269703865,0.5405187606811523,0.0498940870165824,-0.3260861337184906,-0.3269648849964142,0.2897756695747375,0.0,0.0,-0.592927873134613,0.6567342281341553
-0.2381190806627273,0.5327042937278748,0.0579525046050548,-0.3446144461631775,-0.3143143057823181,0.253011405467987,0.0,0.0,-0.6185659170150757,0.2235798835754394
-0.2374099791049957,0.5245197415351868,0.0589478127658367,-0.3612161874771118,-0.3019205331802368,0.2478754520416259,0.0,0.0,-0.4646261930465698,0.2733449935913086
-0.2366929054260254,0.5159649848937988,0.059938721358776,-0.3778170347213745,-0.2897756099700928,0.2428986728191375,0.0,0.0,-0.5904971361160278,0.2637052536010742
-0.2359679639339447,0.5070398449897766,0.0609176866710186,-0.3944169580936432,-0.2778710126876831,0.2380918562412262,0.0,0.0,-0.2315482497215271,0.4729914665222168
-0.235235258936882,0.4977443218231201,0.0618772618472576,-0.411016047000885,-0.2661977112293243,0.2334659099578857,0.0,0.0,-0.392292857170105,0.5805714130401611
-0.2344439923763275,0.4880599975585937,0.0692301094532013,-0.4286464154720306,-0.2560890614986419,0.202173426747322,0.0,0.0,0.5544981956481934,0.4176018238067627
-0.2335154563188552,0.4790481328964233,0.0833688005805015,-0.398903876543045,-0.246424913406372,0.1932831704616546,0.0,0.0,-0.7943695783615112,0.5286117792129517
-0.2325446158647537,0.4696552455425262,0.088681973516941,-0.4160709679126739,-0.2378794103860855,0.1709104478359222,0.0,0.0,-0.3822129964828491,0.489132285118103
-0.2315673381090164,0.4598908424377441,0.0894930362701416,-0.4326630234718323,-0.2295233905315399,0.167120024561882,0.0,0.0,0.1797482967376709,-0.1048148274421691
-0.2305674999952316,0.4504104852676391,0.0922888219356536,-0.4201714098453522,-0.2217304557561874,0.1558586210012436,0.0,0.0,-0.1404311656951904,0.2735151052474975
-0.2295622378587722,0.4405582845211029,0.0929831117391586,-0.4367618262767792,-0.2141029834747314,0.1525495946407318,0.0,0.0,-0.0951865315437316,0.4535031318664551
-0.2285521030426025,0.430334210395813,0.0936089754104614,-0.4533516466617584,-0.2066281884908676,0.149495929479599,0.0,0.0,0.6749138832092285,0.6132419109344482
-0.227348655462265,0.4202463030815124,0.1141334399580955,-0.4474959671497345,-0.2003678530454635,0.1252070218324661,0.0,0.0,0.0770248174667358,0.2485522031784057
-0.225950002670288,0.4104890823364258,0.1333366334438324,-0.432786613702774,-0.1937959939241409,0.1314367353916168,0.0,0.0,-0.8440819978713989,0.5959357023239136
-0.2245034724473953,0.4003511667251587,0.1393706351518631,-0.4498891234397888,-0.1884838640689849,0.1062425822019577,0.0,0.0,-0.0631724596023559,-0.1598987579345703
-0.2230549305677414,0.3898408412933349,0.1396609097719192,-0.4664753675460815,-0.1832692176103592,0.1042930111289024,0.0,0.0,0.0610718727111816,0.2652746438980102
-0.2214892357587814,0.3794935941696167,0.1512298434972763,-0.4592276513576507,-0.1779108345508575,0.1071675643324852,0.0,0.0,-0.1277346014976501,-0.4202877283096313
-0.2199233025312423,0.3687737882137298,0.1513172090053558,-0.4758133888244629,-0.1726205199956894,0.1058067083358764,0.0,0.0,0.5511374473571777,-0.5201631784439087
-0.2182107418775558,0.3587734401226043,0.1648221015930175,-0.4437258541584015,-0.166179671883583,0.128816932439804,0.0,0.0,-0.8499082922935486,0.6928229331970215
-0.2164390534162521,0.3483816981315613,0.1723418533802032,-0.4613239467144012,-0.1613522469997406,0.0965484753251075,0.0,0.0,-0.1674771308898925,-0.7534578442573547
-0.2147406637668609,0.3376359045505523,0.1632146090269088,-0.4768878519535064,-0.1547320038080215,0.1324048936367035,0.0,0.0,-0.3587818145751953,0.0300730466842651
-0.2130460739135742,0.3265176117420196,0.1628354042768478,-0.4934739768505096,-0.1481194496154785,0.1322510242462158,0.0,0.0,0.7774049043655396,-0.1468041539192199
-0.2112898379564285,0.3159316182136535,0.1690964996814727,-0.4698542952537536,-0.141606718301773,0.1302544921636581,0.0,0.0,0.1362648010253906,0.0719633102416992
-0.2094701826572418,0.3055140674114227,0.1753223687410354,-0.4623862206935882,-0.1349891275167465,0.1323519647121429,0.0,0.0,0.1575897932052612,0.0713635683059692
-0.2075333148241043,0.2950799763202667,0.1865826398134231,-0.4631101191043854,-0.1279112845659256,0.1415567696094513,0.0,0.0,0.3111054897308349,0.0378526449203491
-0.2054589688777923,0.2850658893585205,0.1999063640832901,-0.4444432854652405,-0.1204241812229156,0.1497420966625213,0.0,0.0,-0.4279447793960571,0.3711628913879394
-0.2033944576978683,0.2746793925762176,0.1988525688648224,-0.4610296487808227,-0.1128712520003318,0.1510584056377411,0.0,0.0,0.3982555866241455,-0.3811079263687134
