x_pos,y_pos,x_vel,y_vel,angle,ang_vel,leg_1,leg_2,main_booster,lat_booster
-0.0015293121105059,1.4035091400146484,-0.1548791080713272,-0.3293789327144623,0.0017459359951317,0.0344389267265796,0.0,0.0,0.540520999394061,-0.7380091709832362
-0.0030710219871252,1.396647572517395,-0.1574555039405822,-0.3049674034118652,0.0049900696612894,0.0648895800113678,0.0,0.0,0.1094438885037094,0.974434803534432
-0.0044391630217432,1.390071153640747,-0.1381333768367767,-0.2922864854335785,0.0062914886511862,0.0260309129953384,0.0,0.0,-0.1768492336736908,-0.8396893923115849
-0.0058958055451512,1.3833760023117063,-0.1489823013544082,-0.2975823581218719,0.0095693133771419,0.0655625537037849,0.0,0.0,0.3995789223473132,-0.8878799292544572
-0.0073142051696777,1.3773977756500244,-0.1470693051815033,-0.2657375931739807,0.0147419515997171,0.103462278842926,0.0,0.0,0.1599147585221483,0.9712980554493332
-0.0085600856691598,1.371878981590271,-0.1278867423534393,-0.2453139871358871,0.018011437729001,0.0653955787420272,0.0,0.0,-0.7783765592473502,-0.9567769411986808
-0.0098970411345362,1.3662428855895996,-0.1389854550361633,-0.2505623698234558,0.0232481751590967,0.1047444939613342,0.0,0.0,0.8914933001426533,0.794498126742903
-0.0110162738710641,1.361613631248474,-0.1160606369376182,-0.2058170735836029,0.0273410584777593,0.0818650051951408,0.0,0.0,0.5290125208121181,0.9868679634625428
-0.0121068954467773,1.3580436706542969,-0.1112257614731788,-0.1587134152650833,0.0294741578400135,0.0426657050848007,0.0,0.0,-0.6746085803482094,0.6832362174466622
-0.0131599428132176,1.3543646335601809,-0.106104589998722,-0.1635256856679916,0.0302695371210575,0.0159092303365468,0.0,0.0,-0.4680264498690216,0.932064856293498
-0.0141459461301565,1.350574970245361,-0.097281165421009,-0.1684077829122543,0.0289716571569442,-0.0259600766003131,0.0,0.0,-0.8044074268368826,0.8315171092694466
-0.0150761604309082,1.3466713428497314,-0.0898768082261085,-0.1734353005886078,0.0258546695113182,-0.0623455233871936,0.0,0.0,0.926562948061673,-0.6039870190721881
-0.0159313194453716,1.343883037567139,-0.084064170718193,-0.123898759484291,0.0244199708104133,-0.0286963824182748,0.0,0.0,-0.0537532367305371,0.8941865588982764
-0.0167268756777048,1.340973734855652,-0.0761328190565109,-0.1292470246553421,0.021036185324192,-0.067682072520256,0.0,0.0,-0.5588199258529685,0.9766932017622432
-0.0174470897763967,1.337962627410889,-0.0662256404757499,-0.1337552368640899,0.0152931855991482,-0.1148704066872596,0.0,0.0,-0.8744222041345742,0.7736142874761415
-0.0181155204772949,1.3348294496536257,-0.0592291168868541,-0.1391976475715637,0.0077711646445095,-0.1504542678594589,0.0,0.0,0.3945849997560837,0.8562390276775176
-0.0186110492795705,1.332676887512207,-0.0404148921370506,-0.0956376641988754,-0.0012559946626424,-0.180559903383255,0.0,0.0,-0.2848796810882208,-0.7415131767278216
-0.0191726684570312,1.3304036855697632,-0.0481956526637077,-0.1010567396879196,-0.009120644070208,-0.1573074758052826,0.0,0.0,0.061518408194783,-0.7045935076606472
-0.0197355262935161,1.3287959098815918,-0.0498570576310157,-0.0715076699852943,-0.0154803544282913,-0.1272058188915252,0.0,0.0,-0.6099060800992766,0.9627021133534556
-0.0202548988163471,1.3270713090896606,-0.0438719652593135,-0.0767519325017929,-0.0234555881470441,-0.1595188081264495,0.0,0.0,0.3520403072308022,0.6660089643913897
-0.0206143371760845,1.3261539936065674,-0.0267913434654474,-0.0409378930926322,-0.0325031280517578,-0.1809671372175216,0.0,0.0,-0.6609764329743106,0.9193005140053928
-0.0209228508174419,1.3251135349273682,-0.0198678709566593,-0.0465133599936962,-0.0433704182505607,-0.2173653542995453,0.0,0.0,0.4910969509187664,-0.6713187691605755
-0.0211580283939838,1.3246896266937256,-0.0141903134062886,-0.0191324464976787,-0.0526008792221546,-0.1846257895231247,0.0,0.0,0.7250073191823825,0.8637428200586224
-0.021251106634736,1.3246184587478638,0.001559333410114,-0.0035810333210974,-0.0633687376976013,-0.2153763025999069,0.0,0.0,-0.7972474793053472,0.9737048937371016
-0.0213092807680368,1.3244305849075315,0.0064901337027549,-0.0089137256145477,-0.0755711048841476,-0.2440691739320755,0.0,0.0,0.4293438768363655,-0.7453542315027335
-0.0215456001460552,1.325045466423035,-0.0126249445602297,0.0267305485904216,-0.0864680334925651,-0.2179383933544159,0.0,0.0,-0.8814044800808283,0.9108199273382106
-0.0217341426759958,1.3255428075790403,-0.006061403080821,0.021321915090084,-0.0991467908024787,-0.2535751461982727,0.0,0.0,0.2511050299727997,-0.8314114296320371
-0.0220633503049612,1.326894760131836,-0.021761730313301,0.0593088828027248,-0.1102210655808448,-0.2214854508638382,0.0,0.0,0.2046874051296139,0.744544057352769
-0.0224039070308208,1.3289895057678225,-0.0213425531983375,0.0921098291873931,-0.1228556409478187,-0.2526917457580566,0.0,0.0,0.8768560172260997,0.9620357684929994
-0.0226531028747558,1.3317831754684448,-0.0102908257395029,0.1228909566998481,-0.137416198849678,-0.2912113070487976,0.0,0.0,0.8445768786146395,-0.6247846192073737
-0.0228243824094533,1.335880994796753,-0.0038793236017227,0.1808467358350753,-0.1506287008523941,-0.2642503678798675,0.0,0.0,-0.1551251980468999,-0.8014734986032118
-0.0230925567448139,1.3398768901824951,-0.0154486242681741,0.1763994693756103,-0.1619968712329864,-0.2273634970188141,0.0,0.0,-0.9391239092722616,-0.950408933905626
-0.0234702117741107,1.3437880277633667,-0.0285963676869869,0.1728080064058303,-0.1711615920066833,-0.1832946091890335,0.0,0.0,-0.0444203105621621,0.8025214308936632
-0.0238187797367572,1.34756338596344,-0.0243197977542877,0.1665461361408233,-0.1817362904548645,-0.2114939391613006,0.0,0.0,-0.1919000748550081,-0.867956410309789
-0.0242591854184865,1.351244568824768,-0.0352236926555633,0.1625002175569534,-0.190585970878601,-0.1769936978816986,0.0,0.0,-0.7466924775815129,-0.7145668308050919
-0.0247790329158306,1.3548318147659302,-0.0446011871099472,0.1584703028202057,-0.1980134844779968,-0.1485507190227508,0.0,0.0,0.3628319879280257,-0.7197677902470045
-0.0253315921872854,1.358877182006836,-0.049293290823698,0.1789767146110534,-0.2040100991725921,-0.1199321895837783,0.0,0.0,0.7420430662869419,-0.8697798781392301
-0.0257709510624408,1.3640000820159912,-0.0398231782019138,0.2271132916212082,-0.2081566900014877,-0.0829314664006233,0.0,0.0,0.9626166339836232,0.9900937886977796
-0.0260028839111328,1.3704795837402344,-0.0170628689229488,0.2871002852916717,-0.2143537998199463,-0.1239421516656875,0.0,0.0,0.3456948116676239,-0.9097410060234722
-0.0262008663266897,1.3775854110717771,-0.0155043508857488,0.3151835203170776,-0.2186833322048187,-0.0865906178951263,0.0,0.0,0.6660836487130479,-0.679341634950249
-0.0264212600886821,1.385786771774292,-0.0188852008432149,0.364036500453949,-0.2218843549489975,-0.0640204176306724,0.0,0.0,-0.5480260848999023,-0.0690465569496154
-0.0266690254211425,1.39387309551239,-0.0216176901012659,0.3589090406894684,-0.2250768542289734,-0.063850037753582,0.0,0.0,-0.5558132529258728,-0.7269816398620605
-0.0269922260195016,1.4018523693084717,-0.0303774569183588,0.3543340861797333,-0.2270425409078598,-0.0393136404454708,0.0,0.0,-0.4003784656524658,-0.2422712445259094
-0.0273427963256835,1.409716248512268,-0.0331198796629905,0.3492070138454437,-0.2290072441101074,-0.0392942950129509,0.0,0.0,-0.6245338916778564,-0.2010945081710815
-0.027720833197236,1.4174649715423584,-0.0358665436506271,0.3440798819065094,-0.2309749722480774,-0.0393544510006904,0.0,0.0,-0.5830559730529785,-0.2112456560134887
-0.0281265266239643,1.4250982999801636,-0.0386169478297233,0.3389526307582855,-0.2329497933387756,-0.0394964553415775,0.0,0.0,-0.4078543186187744,-0.1790670752525329
-0.0285597797483205,1.4326163530349731,-0.0413706302642822,0.3338252902030945,-0.23493592441082,-0.0397225804626941,0.0,0.0,-0.5966891646385193,-0.3317352533340454
-0.0290207862854003,1.4400192499160769,-0.0441271662712097,0.3286978304386139,-0.2369376718997955,-0.0400348603725433,0.0,0.0,-0.5103049278259277,-0.6009451746940613
-0.0295648574829101,1.4473322629928589,-0.0538843087852001,0.3249393999576568,-0.2374755889177322,-0.0107578970491886,0.0,0.0,-0.5175904035568237,0.0362987518310546
-0.0301368720829486,1.4545300006866455,-0.0566452369093894,0.3198121190071106,-0.2380379736423492,-0.0112477522343397,0.0,0.0,-0.4267230033874511,-0.4421098232269287
-0.0307367332279682,1.4616127014160156,-0.0594078786671161,0.3146847188472748,-0.238629400730133,-0.0118285911157727,0.0,0.0,-0.6681426763534546,-0.1590663194656372
-0.0313646309077739,1.4685800075531006,-0.0621718764305114,0.3095572292804718,-0.2392545044422149,-0.0125016793608665,0.0,0.0,-0.5613222718238831,-0.4664585590362549
-0.0320204719901084,1.4754319190979004,-0.0649368986487388,0.3044296205043793,-0.239917904138565,-0.0132680442184209,0.0,0.0,-0.563030481338501,-0.6011971831321716
-0.0327493660151958,1.4821910858154297,-0.0733850821852684,0.3004824817180633,-0.2394128292798996,0.0101016163825988,0.0,0.0,-0.6325075626373291,-0.3853769302368164
-0.0335063934326171,1.4888348579406738,-0.0761512368917465,0.2953547537326813,-0.2389554977416992,0.0091465655714273,0.0,0.0,-0.6766242384910583,-0.6239274144172668
-0.0343474373221397,1.495380997657776,-0.0859378725290298,0.2912399172782898,-0.2370941489934921,0.037226989865303,0.0,0.0,-0.533693253993988,-0.0337133407592773
-0.0352166183292865,1.501812219619751,-0.0887040644884109,0.2861117422580719,-0.235290065407753,0.0360818691551685,0.0,0.0,-0.6404643654823303,-0.4496476054191589
-0.0361141189932823,1.5081281661987305,-0.0914698094129562,0.2809834778308868,-0.2335479855537414,0.0348417088389396,0.0,0.0,-0.6115846633911133,-0.4721593260765075
-0.0370399467647075,1.514328956604004,-0.0942348092794418,0.2758551239967346,-0.2318726480007171,0.033506728708744,0.0,0.0,-0.6751281023025513,-0.7067281603813171
-0.0380542762577533,1.5204424858093262,-0.1046007126569747,0.2722049951553345,-0.2286586314439773,0.0642801001667976,0.0,0.0,-0.6160340309143066,-0.110267162322998
-0.0390969291329383,1.5264408588409424,-0.1073636040091514,0.2670759260654449,-0.2255207747220993,0.0627570077776908,0.0,0.0,-0.6048228144645691,-0.2885701656341553
-0.0401679053902626,1.5323244333267212,-0.1101248636841774,0.2619467973709106,-0.2224637269973755,0.0611410960555076,0.0,0.0,-0.6769402623176575,-0.2998681664466858
-0.0412673950195312,1.538092851638794,-0.1128842234611511,0.2568176686763763,-0.2194920629262924,0.0594333782792091,0.0,0.0,-0.8387062549591064,-0.7794135808944702
-0.0424528121948242,1.543766975402832,-0.1228846460580825,0.2528184652328491,-0.2151015400886535,0.0878101363778114,0.0,0.0,-0.8138134479522705,-0.1303889751434326
-0.0436666496098041,1.5493260622024536,-0.1256396025419235,0.247688427567482,-0.2108054310083389,0.0859225913882255,0.0,0.0,-0.8589027523994446,0.0981125831604003
-0.0449090003967285,1.5547704696655271,-0.1283916980028152,0.2425583899021148,-0.2066080570220947,0.0839474573731422,0.0,0.0,-0.9081873893737792,-0.4926432371139526
-0.0461797714233398,1.560099959373474,-0.1311405748128891,0.2374283671379089,-0.2025137394666671,0.081886425614357,0.0,0.0,-0.8884705901145935,-0.4265292882919311
-0.0474790558218956,1.5653144121170044,-0.1338859051465988,0.2322984188795089,-0.1985266655683517,0.0797413438558578,0.0,0.0,-0.9104762673377992,-0.6623997688293457
-0.0488547310233116,1.570436716079712,-0.1426871120929718,0.2283287495374679,-0.1933746188879013,0.103040874004364,0.0,0.0,-0.9338927268981934,-0.1322993636131286
-0.0502589233219623,1.575443983078003,-0.1454244554042816,0.2231979519128799,-0.1883379071950912,0.1007338017225265,0.0,0.0,-0.9534923434257508,-0.5915257334709167
-0.0517440810799598,1.5803544521331787,-0.1547771841287613,0.2190200984477996,-0.1820506453514099,0.1257452964782714,0.0,0.0,-0.8890548944473267,-0.4553267359733581
-0.0532577522099018,1.5851503610610962,-0.1575047969818115,0.2138881832361221,-0.1758863478899002,0.1232855096459388,0.0,0.0,-0.874312162399292,-0.5180918574333191
-0.0548480041325092,1.5898504257202148,-0.1663089990615844,0.2097387313842773,-0.1685843616724014,0.1460397690534591,0.0,0.0,-0.8735285401344299,-0.4244576692581177
-0.0564665794372558,1.5944361686706543,-0.1690248996019363,0.2046057432889938,-0.1614124774932861,0.1434374153614044,0.0,0.0,-0.888687014579773,-0.0849156975746154
-0.0581135749816894,1.598907470703125,-0.1717338562011718,0.1994729042053222,-0.1543740630149841,0.1407679319381714,0.0,0.0,-0.9451670050621032,-0.3300819396972656
-0.0597888007760047,1.603264331817627,-0.1744352430105209,0.194340243935585,-0.1474723517894745,0.1380341351032257,0.0,0.0,-0.8851431608200073,-0.3803292512893677
-0.0614922530949115,1.6075067520141602,-0.177128404378891,0.1892078071832656,-0.1407103985548019,0.1352389454841613,0.0,0.0,-0.8731530904769897,-0.0665544867515564
-0.0632240325212478,0.0,-0.1798125952482223,0.1840755492448806,-0.1340911239385604,0.1323853731155395,0.0,0.0,-0.8068576455116272,-0.3921270370483398
-0.06498384475708,1.6156481504440308,-0.1824869960546493,0.17894347012043,-0.1276172995567321,0.129476398229599,0.0,0.0,-0.9127303957939148,-0.2806227207183838
-0.0667717009782791,1.619546890258789,-0.1851507127285003,0.1738116294145584,-0.1212915480136871,0.1265151500701904,0.0,0.0,-0.8481886386871338,-0.7314292788505554
-0.0686579719185829,1.6233365535736084,-0.1966223716735839,0.1690586656332016,-0.1133458018302917,0.1589149534702301,0.0,0.0,-0.8386358618736267,0.0614646673202514
-0.070572093129158,1.627012014389038,-0.1992621123790741,0.1639251857995987,-0.1055528968572616,0.1558584719896316,0.0,0.0,-0.8832343220710754,-0.5722455382347107
-0.0725666061043739,1.6305814981460571,-0.2084898501634597,0.1592561304569244,-0.0965816602110862,0.1794244796037674,0.0,0.0,-0.927558660507202,0.4780400991439819
-0.0745887756347656,1.634036898612976,-0.2111008167266845,0.1541213691234588,-0.0877673551440239,0.1762860715389251,0.0,0.0,-0.8814119100570679,-0.1673665642738342
-0.0766384154558181,1.637378215789795,-0.2136951982975006,0.1489869207143783,-0.0791117325425148,0.1731119304895401,0.0,0.0,-0.6911992430686951,0.0972621440887451
-0.0787153244018554,1.640605092048645,-0.2162715494632721,0.1438528150320053,-0.0706164389848709,0.1699054986238479,0.0,0.0,-0.8598181009292603,-0.0400474071502685
-0.0808194130659103,1.6437180042266846,-0.2188281565904617,0.1387190669775009,-0.0622829161584377,0.1666702181100845,0.0,0.0,-0.8082362413406372,-0.0289112925529479
-0.0829503983259201,1.6467163562774658,-0.2213632613420486,0.1335856318473816,-0.0541124306619167,0.1634095609188079,0.0,0.0,-0.7967343330383301,0.3006342649459839
-0.085108183324337,1.649600625038147,-0.2238749265670776,0.1284525245428085,-0.046106070280075,0.1601270735263824,0.0,0.0,-0.7148777842521667,0.4292590618133545
-0.0872924774885177,0.0,-0.2263610064983368,0.1233197525143623,-0.0382647439837455,0.1568264067173004,0.0,0.0,-0.791259765625,0.1996413469314575
-0.0895029082894325,1.6550253629684448,-0.2288192063570022,0.1181872934103012,-0.0305891968309879,0.153511106967926,0.0,0.0,-0.8238247632980347,-0.2526048421859741
-0.0917393714189529,1.6575660705566406,-0.231246992945671,0.1130551472306251,-0.0230799596756696,0.1501848101615905,0.0,0.0,-0.7999420762062073,0.5213263034820557
-0.0939516052603721,1.659992218017578,-0.2273930609226226,0.1079141870141029,-0.0169885084033012,0.1218288317322731,0.0,0.0,-0.6727508306503296,-0.7907559871673584
-0.0962412804365158,1.6622967720031738,-0.2362967431545257,0.1024883836507797,-0.0097552416846156,0.144665241241455,0.0,0.0,-0.824529230594635,0.0974293947219848
-0.0985559448599815,1.6644866466522217,-0.2386161088943481,0.0973570719361305,-0.0026888302527368,0.1413283348083496,0.0,0.0,-0.8542829155921936,-0.0849053859710693
-0.1008949279785156,1.6665618419647217,-0.2408928126096725,0.0922260731458664,0.0042109484784305,0.1379954665899276,0.0,0.0,-0.8386532068252563,-0.0079302787780761
-0.1032578498125076,1.6685222387313845,-0.243123173713684,0.0870953649282455,0.010944465175271,0.1346704810857772,0.0,0.0,-0.8675410151481628,0.496579647064209
-0.1056444197893142,1.670367956161499,-0.2453033030033111,0.0819649398326873,0.017512334510684,0.1313573271036148,0.0,0.0,-0.7696477770805359,0.4473083019256592
-0.1080538779497146,1.6720986366271973,-0.2474290132522583,0.0768347904086113,0.0239153392612934,0.1280599385499954,0.0,0.0,-0.6758207678794861,0.2969763278961181
-0.1104856505990028,1.6737146377563477,-0.2494959533214569,0.0717048943042755,0.0301544666290283,0.1247823387384414,0.0,0.0,-0.7826883792877197,-0.1519352197647094
-0.1129391640424728,1.675215482711792,-0.2514994740486145,0.0665752589702606,0.0362308993935585,0.1215286031365394,0.0,0.0,-0.7314413785934448,0.4700427055358886
-0.1154136657714843,1.6766016483306885,-0.2534347176551819,0.061445876955986,0.0421460531651973,0.1183029413223266,0.0,0.0,-0.7649213075637817,0.2864205837249756
-0.1179083809256553,1.6778727769851685,-0.2552966475486755,0.0563167296350002,0.0479015298187732,0.1151095405220985,0.0,0.0,-0.718488872051239,0.6198962926864624
-0.1203858405351638,1.679029941558838,-0.2524634003639221,0.051273263990879,0.0525741353631019,0.0934522673487663,0.0,0.0,-0.8293675184249878,0.1784830093383789
-0.1228817924857139,1.6800720691680908,-0.2541629672050476,0.0461453422904014,0.0570909678936004,0.0903365761041641,0.0,0.0,-0.8540036678314209,0.5689746141433716
-0.1253456175327301,1.6809980869293213,-0.2495392113924026,0.0410338416695594,0.0602075271308422,0.062331199645996,0.0,0.0,-0.8347095251083374,0.0100345611572265
-0.1278262138366699,1.6818088293075562,-0.2510549128055572,0.0359070152044296,0.0631730929017067,0.0593112409114837,0.0,0.0,-0.8710238337516785,0.1458431482315063
-0.1303223669528961,1.6825040578842163,-0.252470463514328,0.030780280008912,0.0659903883934021,0.0563462264835834,0.0,0.0,-0.8705247044563293,-0.1752556562423706
-0.1328331977128982,1.6830840110778809,-0.2537806332111358,0.0256536342203617,0.0686624497175216,0.0534409880638122,0.0,0.0,-0.771700382232666,0.3736367225646972
-0.1353574693202972,1.6835486888885498,-0.2549802660942077,0.020527072250843,0.0711924731731414,0.0506005510687828,0.0,0.0,-0.8669041395187378,-0.1472775340080261
-0.137893870472908,1.6838977336883545,-0.2560644745826721,0.0154005801305174,0.0735839679837226,0.0478300563991069,0.0,0.0,-0.9181748628616332,-0.2045114040374755
-0.1404413282871246,1.684131383895874,-0.2570287585258484,0.0102741485461592,0.0758407190442085,0.0451348051428794,0.0,0.0,-0.7202391624450684,0.6660463809967041
-0.142938807606697,1.684253215789795,-0.250374972820282,0.0053793885745108,0.0764636620879173,0.0124586690217256,0.0,0.0,-0.9258921146392822,0.1691585779190063
-0.1454446762800216,1.6842594146728516,-0.2510875165462494,0.0002533824008423,0.0769601836800575,0.0099304169416427,0.0,0.0,-0.916008472442627,0.5955191850662231
-0.1479205191135406,1.6841530799865725,-0.2470219880342483,-0.0047034784220159,0.0764020681381225,-0.0111624570563435,0.0,0.0,-0.8845348954200745,0.2746415138244629
-0.1504019796848297,0.0,-0.2474705725908279,-0.0098295398056507,0.07572703063488,-0.0135004566982388,0.0,0.0,-0.8234094381332397,0.7318142652511597
-0.1528275460004806,1.6835991144180298,-0.2402186691761016,-0.0146331405267119,0.0734203606843948,-0.0461336225271225,0.0,0.0,-0.948335826396942,-0.2228724360466003
-0.1552557945251464,1.6831518411636353,-0.240396186709404,-0.0197597164660692,0.0710075050592422,-0.0482571050524711,0.0,0.0,-0.9693000316619872,0.5643765926361084
-0.157633975148201,0.0,-0.2339541167020797,-0.0244669336825609,0.0671879574656486,-0.0763909667730331,0.0,0.0,-0.8985123038291931,-0.5213804244995117
-0.1600518226623535,1.681928634643555,-0.2388318330049514,-0.0295944884419441,0.0642677769064903,-0.0584033243358135,0.0,0.0,-0.9109348654747008,-0.0700812935829162
-0.1624682396650314,1.6811444759368896,-0.2386021316051483,-0.0347215123474597,0.0612599179148674,-0.060157336294651,0.0,0.0,-0.7823578715324402,-0.1944928765296936
