x_pos,y_pos,x_vel,y_vel,angle,ang_vel,leg_1,leg_2,main_booster,lat_booster
-0.001482582069002,1.403120040893555,-0.1510376781225204,-0.3466649353504181,0.0024868876207619,0.0491105802357196,0.0,0.0,-0.5763620656748021,-0.799836666361454
-0.0029808045364916,1.3948349952697754,-0.1544888615608215,-0.3682372868061065,0.0070961858145892,0.0921953171491622,0.0,0.0,-0.962628222011382,0.6223546059970035
-0.0043767928145825,1.3860416412353516,-0.1434835940599441,-0.3908421099185943,0.0109371664002537,0.0768268108367919,0.0,0.0,0.6297771403460939,0.7462270379825064
-0.005805492401123,1.3774796724319458,-0.1457245200872421,-0.3805517554283142,0.0137654300779104,0.0565704107284545,0.0,0.0,0.7611492138452365,0.9696501525807688
-0.006969928741455,1.3694639205932615,-0.1183601394295692,-0.3562740385532379,0.0156579371541738,0.0378537103533744,0.0,0.0,-0.2997509586989437,-0.96547438747003
-0.0081487651914358,1.3609412908554075,-0.1220365986227989,-0.3788340985774994,0.0197599828243255,0.0820486396551132,0.0,0.0,-0.4105946864757082,0.7950872041373506
-0.009222793392837,1.3519165515899658,-0.1107547730207443,-0.4011466801166534,0.0230771619826555,0.0663499161601066,0.0,0.0,0.2270751050842028,-0.9231067175759288
-0.01020650845021,1.3431131839752195,-0.104387417435646,-0.3913606107234955,0.0290294177830219,0.1190557703375816,0.0,0.0,-0.3039587845128171,0.7989370182040512
-0.0110832210630178,1.3338176012039185,-0.0928610414266586,-0.413249671459198,0.0341565497219562,0.1025520712137222,0.0,0.0,0.8555278579899606,-0.7694103155071607
-0.012003612704575,1.32524311542511,-0.0994946509599685,-0.3812709450721741,0.0415333732962608,0.147550031542778,0.0,0.0,-0.4765869339630626,0.6977899852981866
-0.0128149986267089,1.3161697387695312,-0.0877326056361198,-0.4034613370895386,0.0480530001223087,0.1304046809673309,0.0,0.0,-0.588374204263233,0.7307500815102552
-0.0135156633332371,1.3065961599349976,-0.0757388323545456,-0.4256860315799713,0.0536779686808586,0.1125096306204795,0.0,0.0,-0.7134692627218719,-0.6994662596034342
-0.0142126083374023,1.2965192794799805,-0.0772062018513679,-0.4481414556503296,0.0611120574176311,0.1486951857805252,0.0,0.0,-0.5744208417156518,-0.9790722648982876
-0.0149303432554006,1.2859244346618652,-0.0817438811063766,-0.4713181853294372,0.0709874406456947,0.1975259184837341,0.0,0.0,0.6042524361056072,-0.8454641723416261
-0.0155723569914698,1.2760432958602903,-0.0768306329846382,-0.4398109018802643,0.0835083276033401,0.2504410147666931,0.0,0.0,0.7397813341355262,0.7636566847966733
-0.0160065647214651,1.266142725944519,-0.0554984025657177,-0.4407457411289215,0.0954943150281906,0.2397418469190597,0.0,0.0,-0.1196703099519322,0.658225035931902
-0.0163301471620798,1.2557570934295654,-0.0435161367058754,-0.4623287916183471,0.1065815314650535,0.2217641174793243,0.0,0.0,0.5567489122500133,-0.7290070444484964
-0.0165533069521188,1.245405197143555,-0.0359130874276161,-0.4611139595508575,0.1201184913516044,0.2707635462284088,0.0,0.0,-0.6360457514976219,-0.7360206229860472
-0.0167774204164743,1.2345508337020874,-0.0379418097436428,-0.4837385416030884,0.1355875432491302,0.3094092011451721,0.0,0.0,0.0754248128204186,0.8128789002669061
-0.017000388354063,1.2237441539764404,-0.0368418022990226,-0.4816844165325165,0.1501090228557586,0.2904561161994934,0.0,0.0,-0.9455342506473274,0.789050939153594
-0.0171012878417968,1.2124595642089844,-0.0233843736350536,-0.5029334425926208,0.1634176820516586,0.2661974728107452,0.0,0.0,0.3890497644564681,-0.6245626153441677
-0.017251968383789,1.2012125253677368,-0.0303058214485645,-0.5016149878501892,0.1786963790655136,0.3056015074253082,0.0,0.0,0.6516010120718747,-0.8415635299700261
-0.0173747055232524,1.1902892589569092,-0.0300697535276412,-0.4877203404903412,0.1965936571359634,0.3579778373241424,0.0,0.0,-0.7909750954012016,-0.9791121232694148
-0.0175150875002145,1.1788372993469238,-0.0341717265546321,-0.5117759108543396,0.2169234752655029,0.406632661819458,0.0,0.0,0.6553815370313774,0.8636057922626558
-0.0178349502384662,1.167805790901184,-0.0507390983402729,-0.4931603968143463,0.2359462827444076,0.3804903924465179,0.0,0.0,0.6088540591695197,0.9317311281687216
-0.0183480270206928,1.1572299003601074,-0.0686286687850952,-0.4729148745536804,0.2535650730133056,0.3523760437965393,0.0,0.0,0.390763973345303,0.9536963484643616
-0.0188905708491802,1.1470791101455688,-0.0702678263187408,-0.4539999067783355,0.2699300944805145,0.3272998332977295,0.0,0.0,0.0934126178501244,0.749870391133732
-0.0195700637996196,1.137210726737976,-0.0830085501074791,-0.4414493143558502,0.2853700518608093,0.3088000416755676,0.0,0.0,0.9387908378895476,0.8411733627091046
-0.020555306226015,1.12811541557312,-0.1121561676263809,-0.4069619178771972,0.299423485994339,0.2810695171356201,0.0,0.0,-0.2542091306561918,0.6669865872307884
-0.0214427001774311,1.1185407638549805,-0.1016948968172073,-0.4282557666301727,0.3128304779529571,0.2681396007537842,0.0,0.0,0.6615072944115459,0.7397322534525292
-0.0224700924009084,1.1097264289855957,-0.1148396283388137,-0.3944156467914581,0.3254146575927734,0.2516834139823913,0.0,0.0,0.8796141587956157,-0.8244582845258384
-0.0237601287662982,1.1010394096374512,-0.1431181728839874,-0.3893363773822784,0.3401426076889038,0.2945592999458313,0.0,0.0,-0.502958583497489,0.603402289986809
-0.0249643325805664,1.0918792486190796,-0.1340410560369491,-0.4103956222534179,0.3544369041919708,0.2858861982822418,0.0,0.0,-0.0254811703220272,0.7377778105502073
-0.0260697361081838,1.0822407007217407,-0.1234085112810134,-0.4316054582595825,0.3680156171321869,0.2715736627578735,0.0,0.0,-0.1241940184427499,-0.8501647491590573
-0.0271877292543649,1.0720704793930054,-0.1267865151166916,-0.4559494256973266,0.3839140832424164,0.3179685473442077,0.0,0.0,-0.3336633621030382,-0.9817741103797296
-0.0283288955688476,1.0613672733306885,-0.1314012110233307,-0.4804603159427643,0.4023771584033966,0.3692615628242492,0.0,0.0,-0.0639180157811585,-0.7877580913132399
-0.0294807441532611,1.0501261949539185,-0.1344653069972992,-0.5052174925804138,0.4231456220149994,0.4153694212436676,0.0,0.0,0.431343366485158,-0.9358136725600432
-0.0308910366147756,1.039276361465454,-0.1624615043401718,-0.48882856965065,0.4464645683765411,0.4663788378238678,0.0,0.0,0.5601818772566374,0.9682566258982108
-0.0325710289180278,1.029039740562439,-0.1878367364406585,-0.4614530801773071,0.4682813286781311,0.4363352358341217,0.0,0.0,-0.0862457086201595,-0.9587273453801508
-0.0342687591910362,1.0182610750198364,-0.1916155517101287,-0.4866080582141876,0.4925706386566162,0.485785961151123,0.0,0.0,0.3784635992638823,-0.8936457998563729
-0.0363816246390342,1.0077332258224487,-0.2348987609148025,-0.4766044020652771,0.5191960334777832,0.5325080156326294,0.0,0.0,-0.8195121884346008,0.9881089925765992
-0.0383681282401084,0.9967791438102722,-0.2201628684997558,-0.495260089635849,0.5438299179077148,0.4926781058311462,0.0,0.0,-0.8768752217292786,0.9930846691131592
-0.0402283668518066,0.985391080379486,-0.2055940181016922,-0.5141996741294861,0.5665348172187805,0.4540982842445373,0.0,0.0,-0.8496299386024475,0.9949347972869872
-0.0419665351510047,0.9735786318778992,-0.191424936056137,-0.5326218605041504,0.5872528553009033,0.4143616259098053,0.0,0.0,-0.7620223760604858,0.9960436820983888
-0.0435948371887207,0.961320161819458,-0.1789380609989166,-0.5521105527877808,0.6064632534980774,0.3842087388038635,0.0,0.0,-0.798029363155365,0.9617280960083008
-0.0451079383492469,0.9486250877380372,-0.1657524555921554,-0.5710150599479675,0.6239026188850403,0.3487870991230011,0.0,0.0,-0.5137011408805847,0.9977582693099976
-0.0465044006705284,0.9355021715164183,-0.1523237824440002,-0.5894072651863098,0.6393928527832031,0.3098050951957702,0.0,0.0,-0.2118821740150451,0.9886815547943116
-0.0478100776672363,0.921944797039032,-0.1419911831617355,-0.6082922220230103,0.6535136699676514,0.2824160158634186,0.0,0.0,-0.5883563160896301,0.9937431812286376
-0.0490267761051654,0.9079493880271912,-0.1319024711847305,-0.6273005604743958,0.6662997007369995,0.2557206749916076,0.0,0.0,-0.6400328278541565,0.9784181118011476
-0.0501399040222168,0.8935196399688721,-0.1200917512178421,-0.6459681987762451,0.6773675084114075,0.2213563621044159,0.0,0.0,-0.6135059595108032,0.9932856559753418
-0.0511340126395225,0.8786785006523132,-0.1062463298439979,-0.6632984280586243,0.6860500574111938,0.1736509501934051,0.0,0.0,-0.5296158790588379,0.986029863357544
-0.0520331375300884,0.8634066581726074,-0.095376081764698,-0.6817542910575867,0.6930423378944397,0.1398456841707229,0.0,0.0,-0.6989129781723022,0.985820770263672
-0.0528162941336631,0.8477150797843933,-0.0819603651762008,-0.6994320154190063,0.6977286338806152,0.093725673854351,0.0,0.0,-0.0758829712867736,0.972780704498291
-0.053501509130001,0.8316008448600769,-0.0706384032964706,-0.717380166053772,0.7004586458206177,0.05460175126791,0.0,0.0,-0.6632856726646423,0.9799047708511353
-0.0540693290531635,0.815072238445282,-0.0569507293403148,-0.7346985340118408,0.7006796002388,0.0044189034961164,0.0,0.0,-0.5035291314125061,0.945594310760498
-0.0545451156795024,0.7980968356132507,-0.0465112701058387,-0.7538574934005737,0.6992985606193542,-0.0276202112436294,0.0,0.0,-0.5871436595916748,0.9942235946655272
-0.0549143776297569,0.7807108163833618,-0.0339607633650302,-0.7710525393486023,0.6954749226570129,-0.0764723569154739,0.0,0.0,-0.5885413289070129,0.9876171350479126
-0.0551714897155761,0.7629146575927734,-0.0206922069191932,-0.788169264793396,0.6890409588813782,-0.1286789923906326,0.0,0.0,-0.6039482951164246,0.9725420475006104
-0.0553264617919921,0.7447032332420349,-0.0085787680000066,-0.8056280016899109,0.6802183985710144,-0.1764507591724395,0.0,0.0,-0.7527253031730652,0.9887336492538452
-0.0553928390145301,0.7260581254959106,0.0018546541687101,-0.8241407871246338,0.6694814562797546,-0.2147393226623535,0.0,0.0,-0.610957682132721,0.997018814086914
-0.0553503036499023,0.7069809436798096,0.0147353690117597,-0.8424056768417358,0.6563501358032227,-0.2626278698444366,0.0,0.0,-0.5142771005630493,0.9817187786102296
-0.0552209839224815,0.6874630451202393,0.0250304043292999,-0.8613320589065552,0.6413457989692688,-0.3000870943069458,0.0,0.0,-0.0162785649299621,0.92742919921875
-0.0549838058650493,0.6675187349319458,0.0380512848496437,-0.8794005513191223,0.623799204826355,-0.3509315252304077,0.0,0.0,0.4186568260192871,0.6071027517318726
-0.0549614913761615,0.6477748155593872,0.0179130174219608,-0.8701172471046448,0.6048274636268616,-0.3794349431991577,0.0,0.0,0.8324048519134521,-0.0297300219535827
-0.0551491752266883,0.6280850768089294,-0.0027512272354215,-0.8678503632545471,0.5857111811637878,-0.382326066493988,0.0,0.0,0.5193468332290649,0.5792019367218018
-0.0556677803397178,0.608508825302124,-0.0341498628258705,-0.8623818755149841,0.5648596882820129,-0.4170304238796234,0.0,0.0,0.5375454425811768,0.6724753379821777
-0.0565193183720111,0.589506983757019,-0.0657653659582138,-0.8365166783332825,0.5423454642295837,-0.4502850472927093,0.0,0.0,-0.2396480441093444,0.7629659175872803
-0.0572773925960063,0.5700498223304749,-0.0542895495891571,-0.8563330173492432,0.5177161693572998,-0.4925864338874817,0.0,0.0,0.7534992694854736,0.6985241174697876
-0.0583809837698936,0.5513454079627991,-0.086991086602211,-0.8226771950721741,0.4913466274738312,-0.5273910164833069,0.0,0.0,-0.2362360954284668,0.7281618118286133
-0.0594113357365131,0.5321744680404663,-0.0778543502092361,-0.8433301448822021,0.4633444249629974,-0.5600443482398987,0.0,0.0,0.0973181724548339,0.9147449731826782
-0.0606154426932334,0.513113796710968,-0.0927941799163818,-0.8382489085197449,0.433059960603714,-0.6056901812553406,0.0,0.0,0.5862784385681152,0.7799057960510254
-0.0619585998356342,0.4944323301315307,-0.1044580712914466,-0.8214302659034729,0.4008063673973083,-0.645071804523468,0.0,0.0,0.6324307918548584,0.8911590576171875
-0.0636707320809364,0.4763775765895843,-0.1386182010173797,-0.7936220765113831,0.3660798072814941,-0.6945313811302185,0.0,0.0,0.8965693712234497,0.8339313268661499
-0.0654483810067176,0.4588454961776733,-0.1428373456001281,-0.7707110047340393,0.3293746411800384,-0.7341039180755615,0.0,0.0,0.9408905506134032,0.9499228000640868
-0.0673208236694336,0.4414855241775512,-0.1494638621807098,-0.76343834400177,0.2901956140995025,-0.7835810780525208,0.0,0.0,0.9653692245483398,0.956916570663452
-0.069122314453125,0.4242570400238037,-0.1397062838077545,-0.7582017183303833,0.2487511038780212,-0.828891396522522,0.0,0.0,0.9902167320251464,0.6387708187103271
-0.0709937065839767,0.4071376621723175,-0.1443760693073272,-0.7542055249214172,0.2054089605808258,-0.8668441772460938,0.0,0.0,0.9916670322418212,-0.0660175085067749
-0.0730505958199501,0.3909384906291961,-0.1619710773229599,-0.7144860625267029,0.161498948931694,-0.8782013654708862,0.0,0.0,0.9898890256881714,0.3683499097824096
-0.0751518234610557,0.3757371604442596,-0.1659988909959793,-0.6714143753051758,0.117497444152832,-0.8800309896469116,0.0,0.0,0.8770895004272461,-0.4572346210479736
-0.077471062541008,0.3614179491996765,-0.1864089667797088,-0.6334506273269653,0.0723542273044586,-0.90286523103714,0.0,0.0,0.5333364009857178,0.3277647495269775
-0.0799158066511154,0.3470685482025146,-0.1976708322763443,-0.6361411809921265,0.0260905362665653,-0.9252748489379884,0.0,0.0,0.1606395244598388,-0.3122442364692688
-0.0823311805725097,0.3330772221088409,-0.1942193210124969,-0.621675431728363,-0.0206194370985031,-0.934200882911682,0.0,0.0,-0.7399170398712158,-0.8380519151687622
-0.084809586405754,0.3186122477054596,-0.201928824186325,-0.6441418528556824,-0.0659706369042396,-0.9070254564285278,0.0,0.0,-0.3711106777191162,-0.9680450558662416
-0.0873577147722244,0.3036821484565735,-0.2105613648891449,-0.6660890579223633,-0.1098176017403602,-0.876940131187439,0.0,0.0,0.2481844425201416,-0.9752793312072754
-0.0899228081107139,0.2890805006027221,-0.2137953341007232,-0.6526563763618469,-0.1523297727108001,-0.8502441644668579,0.0,0.0,0.4354853630065918,-0.9887216091156006
-0.0923918709158897,0.2747462689876556,-0.2058803290128708,-0.6417905688285828,-0.1934185177087783,-0.8217762112617493,0.0,0.0,0.6491872072219849,-0.986066997051239
-0.0948378592729568,0.2604389190673828,-0.2052663117647171,-0.6415059566497803,-0.2331292778253555,-0.7942159175872803,0.0,0.0,0.7293026447296143,-0.994311273097992
-0.0971508026123046,0.2462461143732071,-0.1937958896160125,-0.6371777653694153,-0.2713351249694824,-0.7641170024871826,0.0,0.0,0.8151113986968994,-0.9920172691345216
-0.0991919487714767,0.2324344515800476,-0.1685710698366165,-0.6208627223968506,-0.3079160451889038,-0.7316188812255859,0.0,0.0,0.8787610530853271,-0.997201681137085
-0.1010022163391113,0.2187265008687973,-0.1474707573652267,-0.6167455315589905,-0.3428583443164825,-0.6988466382026672,0.0,0.0,0.938378930091858,-0.992381989955902
-0.1025942787528038,0.2058269381523132,-0.1273592859506607,-0.581257164478302,-0.376424491405487,-0.6713234186172485,0.0,0.0,0.9400800466537476,-0.9949635863304138
-0.103893756866455,0.1937098652124405,-0.0998758152127265,-0.5467911958694458,-0.4085272252559662,-0.6420546174049377,0.0,0.0,0.9441564083099364,-0.9996858835220336
-0.104806900024414,0.1821377426385879,-0.0631815567612648,-0.5227404236793518,-0.4389671385288238,-0.6087982654571533,0.0,0.0,0.9391098022460938,-0.9926412105560304
-0.1055180579423904,0.1705523133277893,-0.0448224619030952,-0.5234169363975525,-0.4678186476230621,-0.5770302414894104,0.0,0.0,0.9050813913345336,-0.9992759227752686
-0.1061038970947265,0.1593581289052963,-0.0338601656258106,-0.5061075091362,-0.4953474700450897,-0.5505762100219727,0.0,0.0,0.9235985279083252,-0.9998158812522888
-0.1061919182538986,0.1489859223365783,0.0141513776034116,-0.4694847464561462,-0.521264910697937,-0.5183491706848145,0.0,0.0,0.2859437465667724,-0.9995065331459044
-0.1061589270830154,0.1387711316347122,0.0246604830026626,-0.4623763263225555,-0.5457426309585571,-0.4895548820495605,0.0,0.0,0.6338815689086914,-0.996708869934082
-0.1059155464172363,0.1292484402656555,0.0442564338445663,-0.4314883053302765,-0.568891167640686,-0.4629701673984527,0.0,0.0,0.2214468717575073,-0.9996965527534484
-0.1054123863577842,0.1198897436261177,0.068715400993824,-0.4239506423473358,-0.5905835628509521,-0.433847427368164,0.0,0.0,0.1390444040298462,-0.9999744296073914
-0.1047397628426551,0.1107886135578155,0.0841471329331398,-0.4121898114681244,-0.6107743382453918,-0.4038155674934387,0.0,0.0,0.0713089704513549,-0.9984332919120787
-0.1039246544241905,0.1019169390201568,0.0969046875834465,-0.4016095995903015,-0.6294308304786682,-0.3731302917003631,0.0,0.0,0.4053544998168945,-0.9992241263389589
-0.1029685959219932,0.0931506976485252,0.1096054539084434,-0.3965170979499817,-0.6466183662414551,-0.3437507748603821,0.0,0.0,0.082916259765625,-0.997283935546875
-0.1019359603524208,0.0845136940479278,0.1158364862203598,-0.3902876079082489,-0.6622506380081177,-0.3126451969146728,0.0,0.0,-0.4777669906616211,-0.9992715120315552
-0.1010091751813888,0.0754677131772041,0.1034831255674362,-0.4077343344688415,-0.6758435368537903,-0.2718576788902282,0.0,0.0,-0.1689525842666626,-0.9958181381225586
-0.1001598387956619,0.0659889280796051,0.0947364568710327,-0.4265833795070648,-0.6883150935173035,-0.2494312524795532,0.0,0.0,-0.081994354724884,-0.958953857421875
-0.0997262001037597,0.0587814413011074,0.0427110120654106,-0.3197741210460663,-0.6881200075149536,0.0028557246550917,1.0,0.0,0.5921039581298828,0.1453055143356323
-0.098634049296379,0.0528260096907615,0.0949816480278968,-0.2569570243358612,-0.670346200466156,0.3550462424755096,1.0,0.0,0.9470031261444092,0.1052813529968261
-0.0968970283865928,0.0475098006427288,0.1562193930149078,-0.2272184342145919,-0.6484705805778503,0.4375354647636413,1.0,0.0,0.9645906686782836,0.0190844535827636
-0.0944397896528244,0.0434080213308334,0.2211292088031768,-0.1706760227680206,-0.6161124110221863,0.6504263281822205,1.0,0.0,0.940407395362854,-0.5506320595741272
-0.0915005654096603,0.0401731356978416,0.2579261362552643,-0.1275043040513992,-0.5730994939804077,0.8603640794754028,1.0,0.0,0.8406038284301758,-0.8758319616317749
-0.0881202667951583,0.0376816838979721,0.2997696101665497,-0.0950862541794776,-0.5280657410621643,0.901587963104248,0.0,0.0,0.8256518840789795,-0.7666699290275574
-0.0843087211251258,0.0358317457139492,0.3403504490852356,-0.0671223774552345,-0.4819757342338562,0.921833336353302,0.0,0.0,0.7824218273162842,-0.8883888721466064
-0.0802732482552528,0.0341434590518474,0.3605532348155975,-0.0608338005840778,-0.4345908164978027,0.947734236717224,0.0,0.0,0.8651399612426758,-0.9555212259292604
-0.0761802643537521,0.033079158514738,0.3644105792045593,-0.034221027046442,-0.3862033784389496,0.9677857160568236,0.0,0.0,0.7534453868865967,-0.9449368119239808
-0.0721236243844032,0.0324293486773967,0.3589530885219574,-0.0170351136475801,-0.3368327021598816,0.9874512553215028,0.0,0.0,0.5682995319366455,-0.963511884212494
-0.0680171027779579,0.0321169942617416,0.3619351983070373,-0.0033549920190125,-0.2862470746040344,1.0117510557174685,0.0,0.0,0.2290418148040771,-0.9436803460121156
-0.0638840645551681,0.0319288820028305,0.3626758754253387,0.0007022449863143,-0.2344621568918228,1.0357377529144287,0.0,0.0,0.0383311510086059,-0.9130995273590088
-0.0597122199833393,0.0315879210829734,0.3648157119750976,-0.0077132540754973,-0.1815695017576217,1.05789315700531,0.0,0.0,-0.124809443950653,-0.9203012585639954
-0.0556392669677734,0.0308030694723129,0.3535641431808471,-0.029216906055808,-0.127835988998413,1.074711561203003,0.0,0.0,-0.5381651520729065,-0.8767310380935669
-0.0516730323433876,0.0295760482549667,0.3415268063545227,-0.0507487505674362,-0.0731287226080894,1.0941872596740725,0.0,0.0,-0.5442814230918884,-0.2004842758178711
-0.0477510467171669,0.0278858281672,0.3376048505306244,-0.0733621791005134,-0.0191251393407583,1.080113172531128,0.0,0.0,-0.6309322118759155,0.1875722408294677
