x_pos,y_pos,x_vel,y_vel,angle,ang_vel,leg_1,leg_2,main_booster,lat_booster
-0.0015271187294274,1.4031686782836914,-0.1546918600797653,-0.3445087373256683,0.0017831489676609,0.0351754575967788,0.0,0.0,-0.3098227977752685,0.7200748920440674
-0.0029974938370287,1.3949812650680542,-0.1472434997558593,-0.3638860285282135,0.0019828672520816,0.0039952187798917,0.0,0.0,0.0133067369461059,0.682921290397644
-0.004326915834099,1.3867048025131226,-0.1318724006414413,-0.3678478002548218,0.0009338211384601,-0.0209829304367303,0.0,0.0,-0.3015751838684082,-0.3153499960899353
-0.0056633949279785,1.3779722452163696,-0.1325851082801818,-0.3881124854087829,-0.0001090117802959,-0.0208589155226945,0.0,0.0,0.0371110439300537,0.5213072299957275
-0.0068772314116358,1.3693995475769043,-0.1194580346345901,-0.3810074031352997,-0.0020112039055675,-0.0380474105477333,0.0,0.0,-0.0981097221374511,0.2771153450012207
-0.0081002237275242,1.360371232032776,-0.1203866824507713,-0.4012708067893982,-0.003909190185368,-0.0379632897675037,0.0,0.0,0.2610116004943847,0.3119477033615112
-0.0093490602448582,1.351548194885254,-0.1228818073868751,-0.3921380043029785,-0.00588691374287,-0.0395582243800163,0.0,0.0,0.0465879440307617,0.2502450942993164
-0.0105119701474905,1.3428833484649658,-0.1147482544183731,-0.3851150274276733,-0.007412165403366,-0.0305081401020288,0.0,0.0,-0.5496026873588562,0.8299195766448975
-0.0116229057312011,1.333770990371704,-0.1079132929444313,-0.4050144255161285,-0.010548579506576,-0.0627343356609344,0.0,0.0,0.0080659389495849,0.1740138530731201
-0.0127422334626317,1.3248677253723145,-0.1087662205100059,-0.3957246541976928,-0.0136878937482833,-0.0627920106053352,0.0,0.0,-0.3994635343551636,0.2300686836242675
-0.0138751026242971,1.3155088424682615,-0.110110655426979,-0.4159888923168182,-0.016830550506711,-0.0628586784005165,0.0,0.0,-0.1434407234191894,0.1348922252655029
-0.0150219919160008,1.3056941032409668,-0.1115150824189186,-0.4362460076808929,-0.019977930933237,-0.0629529356956482,0.0,0.0,-0.1189664602279663,0.6381204128265381
-0.0161223411560058,1.295425295829773,-0.1052937135100364,-0.4564623832702636,-0.0246700309216976,-0.0938507542014122,0.0,0.0,-0.3330073356628418,0.2912091016769409
-0.0172377582639455,1.2847009897232056,-0.1067890897393226,-0.4767225682735443,-0.0293695591390132,-0.0939993113279342,0.0,0.0,-0.2833379507064819,0.2974050045013428
-0.0183686260133981,1.2735209465026855,-0.1083199232816696,-0.4969827532768249,-0.0340794511139392,-0.0942063480615615,0.0,0.0,-0.7134143114089966,0.3601841926574707
-0.0195151325315237,1.2618857622146606,-0.1098777502775192,-0.5172430872917175,-0.0388013571500778,-0.0944466441869735,0.0,0.0,-0.0294768214225769,-0.8088260293006897
-0.02072649076581,1.2498071193695068,-0.1176027059555053,-0.5369254946708679,-0.0422973856329917,-0.0699270889163017,0.0,0.0,0.7859370708465576,-0.6864725947380066
-0.0218244548887014,1.237866759300232,-0.1080259308218956,-0.5307337045669556,-0.0440483465790748,-0.0350220687687397,0.0,0.0,-0.8191236853599548,0.0893424749374389
-0.0229385383427143,1.2254705429077148,-0.1096189841628074,-0.5509975552558899,-0.045818991959095,-0.0354161486029624,0.0,0.0,0.2650494575500488,-0.7706636786460876
-0.024179458618164,1.2132766246795654,-0.123746708035469,-0.5419660210609436,-0.0461628288030624,-0.0068774260580539,0.0,0.0,0.6280760765075684,-0.6697352528572083
-0.0253179557621479,1.2017359733581543,-0.1151412725448608,-0.5128768086433411,-0.0448943562805652,0.0253720134496688,0.0,0.0,0.5196934938430786,0.7316977977752686
-0.0263845436275005,1.190340518951416,-0.1064554825425148,-0.5064715147018433,-0.0450863242149353,-0.0038398075848817,0.0,0.0,-0.353276252746582,0.5014442205429077
-0.0274182315915823,1.1784852743148804,-0.1019203439354896,-0.5269430875778198,-0.0465179570019245,-0.0286351442337036,0.0,0.0,-0.7504571676254272,0.5303592681884766
-0.0284201614558696,1.166165113449097,-0.0975247770547866,-0.5476455688476562,-0.0491585843265056,-0.0528171844780445,0.0,0.0,0.2393572330474853,-0.9854594469070436
-0.0296152122318744,1.154130220413208,-0.1187542527914047,-0.5349079370498657,-0.0499028600752353,-0.0148870889097452,0.0,0.0,-0.7082518339157104,0.2821626663208008
-0.0308247562497854,1.1416181325912476,-0.1201595067977905,-0.5561221837997437,-0.0506839677691459,-0.0156223699450492,0.0,0.0,-0.6945177316665649,0.9291003942489624
-0.0319730751216411,1.1286505460739136,-0.112128235399723,-0.5764349699020386,-0.0533638037741184,-0.0535965263843536,0.0,0.0,-0.6556515097618103,-0.4663534164428711
-0.0331336967647075,1.115227222442627,-0.1133042722940445,-0.5966921448707581,-0.0560856238007545,-0.0544364042580127,0.0,0.0,-0.5446021556854248,-0.7691436409950256
-0.0343792922794818,1.1013606786727903,-0.1236398220062255,-0.6163204312324524,-0.0569886155426502,-0.0180598627775907,0.0,0.0,-0.2882237434387207,-0.5397402048110962
-0.0356793403625488,1.0870401859283447,-0.1301625072956085,-0.6364568471908569,-0.0568280853331089,0.0032104006968438,0.0,0.0,-0.644024670124054,-0.3035364151000976
-0.0369884483516216,1.0722641944885254,-0.1310268342494964,-0.656713604927063,-0.0567181631922721,0.0021985548082739,0.0,0.0,-0.3334885835647583,-0.5127846002578735
-0.0383514389395713,1.0570330619812012,-0.1375196129083633,-0.6768858432769775,-0.0555099733173847,0.0241637788712978,0.0,0.0,-0.9810439944267272,-0.0238363146781921
-0.0397211089730262,1.041346549987793,-0.1381285339593887,-0.6971428394317627,-0.0543581992387771,0.0230354219675064,0.0,0.0,-0.238712191581726,0.1409636735916137
-0.0410960204899311,1.025204062461853,-0.1385956704616546,-0.7173997163772583,-0.0532657653093338,0.0218485537916421,0.0,0.0,-0.12625652551651,0.1234798431396484
-0.0424746498465538,1.008606195449829,-0.1389116942882537,-0.7376566529273987,-0.0522356107831001,0.0206031911075115,0.0,0.0,-0.5308593511581421,0.1812963485717773
-0.04385557025671,0.9915522933006288,-0.1390674263238906,-0.7579135298728943,-0.0512706600129604,0.0192992519587278,0.0,0.0,0.0658442974090576,-0.457783579826355
-0.0452388748526573,0.9744841456413268,-0.1391591280698776,-0.758558988571167,-0.0504521466791629,0.0163702927529811,0.0,0.0,0.4713852405548095,-0.4302432537078857
-0.0465529449284076,0.9579731822013856,-0.132319226861,-0.7337872385978699,-0.0495478734374046,0.0180854313075542,0.0,0.0,-0.6537731289863586,-0.6373154520988464
-0.0479174628853797,0.9410178065299988,-0.1386506408452987,-0.7535072565078735,-0.0473653189837932,0.0436508879065513,0.0,0.0,0.2465629577636718,-0.374043345451355
-0.0492339134216308,0.924292266368866,-0.1338735520839691,-0.7432863712310791,-0.045160986483097,0.04408660531044,0.0,0.0,-0.5833755135536194,0.5274182558059692
-0.0505088791251182,0.907113254070282,-0.1287784278392791,-0.7634759545326233,-0.0438989736139774,0.0252403263002634,0.0,0.0,0.2107783555984497,0.1244877576828002
-0.0516675934195518,0.8900474905967712,-0.1174915581941604,-0.7584331035614014,-0.0423011183738708,0.0319571122527122,0.0,0.0,0.0681922435760498,0.3776289224624634
-0.0527438148856163,0.8728258609771729,-0.1094432026147842,-0.7653530836105347,-0.0404980480670928,0.0360614918172359,0.0,0.0,-0.1659742593765258,-0.0149546265602111
-0.0538065917789936,0.8551486134529114,-0.1080085039138794,-0.7856101989746094,-0.0387830957770347,0.0342986620962619,0.0,0.0,0.6433347463607788,0.8255147933959961
-0.0548219680786132,0.8374435901641846,-0.1014411449432373,-0.7868863344192505,-0.0388788729906082,-0.0019154256442561,0.0,0.0,0.7127792835235596,0.2512962818145752
-0.0557581894099712,0.819799542427063,-0.0936491936445236,-0.7841837406158447,-0.0388479270040988,0.0006188362604007,0.0,0.0,-0.1094436049461364,0.6113848686218262
-0.0566205978393554,0.8016932606697083,-0.0848226025700569,-0.8047622442245483,-0.0402531884610652,-0.0281050540506839,0.0,0.0,0.651813268661499,-0.392249584197998
-0.0575386993587017,0.7843875288963318,-0.0897610932588577,-0.7692025899887085,-0.0422771535813808,-0.0404792465269565,0.0,0.0,0.1770858764648437,-0.5354207754135132
-0.0585534088313579,0.7674814462661743,-0.1001928001642227,-0.7514117956161499,-0.0435392260551452,-0.0252417270094156,0.0,0.0,-0.2420788407325744,-0.4791561961174011
-0.0595398917794227,0.7501198649406433,-0.0972677022218704,-0.7716687917709351,-0.0449052080512046,-0.0273194853216409,0.0,0.0,0.7835147380828857,-0.4283519983291626
-0.0603131279349327,0.7332158088684082,-0.0765625908970832,-0.7513116598129272,-0.0456612221896648,-0.0151202082633972,0.0,0.0,0.314208984375,-0.4851216077804565
-0.0610718727111816,0.7167374491691589,-0.0747859477996826,-0.7324089407920837,-0.0467377826571464,-0.0215312670916318,0.0,0.0,0.0659059286117553,-0.1642545461654663
-0.0617105476558208,0.7002280950546265,-0.0629960894584655,-0.7337746024131775,-0.0475990213453769,-0.0172248631715774,0.0,0.0,-0.4505203366279602,-0.4677238464355469
-0.0623103156685829,0.6832630634307861,-0.0589871406555175,-0.7540317177772522,-0.0485733747482299,-0.0194872263818979,0.0,0.0,0.4558916091918945,-0.2642040848731994
-0.0627162903547287,0.6664766073226929,-0.0401128567755222,-0.7460839748382568,-0.049055591225624,-0.0096441628411412,0.0,0.0,-0.4358296990394592,-0.1512539386749267
-0.0630778297781944,0.6492343544960022,-0.0355480387806892,-0.7663409113883972,-0.0496550202369689,-0.0119886128231883,0.0,0.0,0.6699661016464233,-0.5781249403953552
-0.0632955580949783,0.6327444314956665,-0.0224765464663505,-0.7328613996505737,-0.048962365835905,0.0138532314449548,0.0,0.0,-0.0791828632354736,0.3550822734832763
-0.063463307917118,0.6157988905906677,-0.0173528920859098,-0.7531183958053589,-0.048390619456768,0.0114345559850335,0.0,0.0,0.5911338329315186,0.1658867597579956
-0.0634679794311523,0.5995804667472839,-0.0012611311394721,-0.7207962870597839,-0.047608632594347,0.0156397055834531,0.0,0.0,-0.4752479195594787,-0.3090578913688659
-0.0634172409772872,0.5829063057899475,0.004419564269483,-0.7410532832145691,-0.0469508506357669,0.0131556885316967,0.0,0.0,0.2504918575286865,0.7951211929321289
-0.0631881728768348,0.566182017326355,0.0239179227501153,-0.7433351278305054,-0.0479572303593158,-0.0201275907456874,0.0,0.0,0.37477707862854,-0.7388055324554443
-0.0630215629935264,0.5498912930488586,0.0164698753505945,-0.7240275144577026,-0.0477611608803272,0.0039213080890476,0.0,0.0,0.2088496685028076,0.2537078857421875
-0.0626827254891395,0.5337052941322327,0.0333844497799873,-0.7193601727485657,-0.0472752302885055,0.0097186053171753,0.0,0.0,0.4435523748397827,-0.7642998099327087
-0.0622897148132324,0.5178698897361755,0.0373683050274848,-0.7037347555160522,-0.0453619174659252,0.0382661931216716,0.0,0.0,0.1185414791107177,-0.5413954257965088
-0.0618523582816123,0.5019840598106384,0.0408270843327045,-0.705950915813446,-0.0424917191267013,0.0574036464095115,0.0,0.0,0.1441575288772583,-0.1439159512519836
-0.0614117607474327,0.4862615466117859,0.0416989065706729,-0.698715090751648,-0.0401489771902561,0.0468546971678733,0.0,0.0,0.2223099470138549,-0.583274781703949
-0.060899831354618,0.4710409045219421,0.0477441400289535,-0.6763851046562195,-0.0367443300783634,0.0680929347872734,0.0,0.0,-0.4962312579154968,-0.2636206150054931
-0.0603113174438476,0.4553646445274353,0.0555462315678596,-0.696643054485321,-0.0334715694189071,0.0654552429914474,0.0,0.0,-0.1095373630523681,-0.4074981212615967
-0.0596436485648155,0.4392329156398773,0.0635935738682746,-0.7169007658958435,-0.0303309503942728,0.0628122463822364,0.0,0.0,0.796299934387207,-0.0372694134712219
-0.0589809417724609,0.4234218299388885,0.063694804906845,-0.7026662826538086,-0.0277959425002336,0.0507002100348472,0.0,0.0,0.9315245151519777,-0.1926246881484985
-0.0583197586238384,0.4083465337753296,0.0641892701387405,-0.6699793338775635,-0.0258897151798009,0.038124393671751,0.0,0.0,0.7398664951324463,-0.7798749804496765
-0.0575815215706825,0.3938007950782776,0.0703794881701469,-0.6464191675186157,-0.0224936213344335,0.0679219663143158,0.0,0.0,0.4862587451934814,-0.4299603104591369
-0.056853674352169,0.379942774772644,0.0700160562992096,-0.6158746480941772,-0.0197650324553251,0.0545718148350715,0.0,0.0,-0.4280107021331787,0.0311198234558105
-0.0560354217886924,0.3656290769577026,0.0791982263326644,-0.6361320614814758,-0.0171672273427248,0.0519562251865863,0.0,0.0,0.6745889186859131,-0.5267695188522339
-0.0551959984004497,0.3514522314071655,0.0804852470755577,-0.6300485134124756,-0.0137515105307102,0.0683140903711319,0.0,0.0,0.6479518413543701,-0.100611925125122
-0.0541895851492881,0.3373045921325683,0.0969861298799514,-0.6287512183189392,-0.0101509690284729,0.0720108896493911,0.0,0.0,0.5338584184646606,-0.5663442015647888
-0.0531600937247276,0.3231697082519531,0.0983713790774345,-0.6281934976577759,-0.0056287329643964,0.0904447138309478,0.0,0.0,0.8020691871643066,-0.0171577334403991
-0.0520363822579383,0.3098771870136261,0.1079596653580665,-0.590770959854126,-0.0012750084279105,0.0870742350816726,0.0,0.0,0.5864205360412598,0.1302714347839355
-0.0507346168160438,0.2973039150238037,0.1255348175764084,-0.558813750743866,0.0033096009865403,0.0916920378804206,0.0,0.0,-0.2325589656829834,-0.4969930052757263
-0.0493309013545513,0.2842751741409302,0.135853573679924,-0.5790718793869019,0.0077714468352496,0.089236669242382,0.0,0.0,0.8020792007446289,-0.3666620850563049
-0.0479675307869911,0.2713311314582824,0.1326059401035308,-0.5753145217895508,0.0114597138017416,0.0737654417753219,0.0,0.0,0.7962512969970703,-0.2997597455978393
-0.0464648231863975,0.2592213451862335,0.1464447528123855,-0.5382469296455383,0.0152323832735419,0.0754535645246505,0.0,0.0,0.6170423030853271,-0.6258060336112976
-0.0450210571289062,0.2474971562623977,0.1396693736314773,-0.5211285352706909,0.0198841504752635,0.0930352956056594,0.0,0.0,0.5129263401031494,-0.5349021553993225
-0.0435777679085731,0.2362478375434875,0.1387912929058075,-0.5000548958778381,0.0253507308661937,0.109331727027893,0.0,0.0,0.4318796396255493,-0.8261042237281799
-0.0421174056828022,0.2254531979560852,0.1389702409505844,-0.4798943102359772,0.032334066927433,0.1396665722131729,0.0,0.0,-0.1025033593177795,-0.4191042184829712
-0.0405460372567176,0.2142035067081451,0.1501707285642624,-0.5001546740531921,0.0392099507153034,0.1375178545713424,0.0,0.0,0.5614290237426758,-0.4650235772132873
-0.0388527885079383,0.2029847949743271,0.1623606383800506,-0.4988081753253937,0.0460852645337581,0.1375064998865127,0.0,0.0,0.7532612085342407,-0.8776838183403015
-0.0370259284973144,0.1919476091861724,0.1738619357347488,-0.4908361732959747,0.054793544113636,0.1741655617952346,0.0,0.0,0.5066566467285156,-0.5624511241912842
-0.035012912005186,0.1812438070774078,0.191117838025093,-0.4761269688606262,0.0648712068796157,0.2015535086393356,0.0,0.0,0.8202250003814697,-0.8778395056724548
-0.0328121185302734,0.1707392036914825,0.2079091370105743,-0.4674400687217712,0.0769105851650238,0.2407875061035156,0.0,0.0,0.5017824172973633,-0.8563631772994995
-0.0306209567934274,0.1608000844717025,0.2053374350070953,-0.4425047039985657,0.090556614100933,0.272920548915863,0.0,0.0,0.3237090110778808,-0.2104203104972839
-0.0283427238464355,0.1513188034296035,0.2140411138534546,-0.4222822487354278,0.1042321473360061,0.2735108435153961,0.0,0.0,0.7341272830963135,-0.5571072101593018
-0.0259238239377737,0.1424459815025329,0.2267025709152221,-0.3954762518405914,0.1193119883537292,0.3015968799591064,0.0,0.0,0.3363989591598511,0.1621222496032714
-0.0233362205326557,0.1335280984640121,0.2432922571897506,-0.3976554572582245,0.134692907333374,0.3076185584068298,0.0,0.0,0.4771031141281128,-0.0103947520256042
-0.0207365043461322,0.1248246505856514,0.2448287457227707,-0.3882538974285126,0.1497848927974701,0.30184006690979,0.0,0.0,0.3028542995452881,-0.2873116731643677
-0.0180517192929983,0.1166924834251403,0.2531235516071319,-0.3630445599555969,0.1651188731193542,0.3066800236701965,0.0,0.0,0.5303559303283691,-0.2319608926773071
-0.015353774651885,0.1088821738958358,0.2546484768390655,-0.348877489566803,0.1802911609411239,0.3034461736679077,0.0,0.0,0.3206770420074463,-0.636769711971283
-0.0128064155578613,0.10152018815279,0.2386215180158615,-0.3292363286018371,0.1964837163686752,0.3238510489463806,0.0,0.0,0.1656795740127563,-0.4602318406105041
-0.0101726530119776,0.0944481715559959,0.2470833510160446,-0.3165582418441772,0.2129087746143341,0.3285011947154999,0.0,0.0,0.005242109298706,-0.5468706488609314
-0.0075909616425633,0.087571769952774,0.2409478724002838,-0.3081879913806915,0.2303319722414016,0.3484643995761871,0.0,0.0,-0.055055558681488,-0.4409908056259155
-0.0048861503601074,0.0802435502409935,0.2533721327781677,-0.3284685313701629,0.2477142512798309,0.3476454019546509,0.0,0.0,0.3875448703765869,-0.507875382900238
-0.0022208213340491,0.0730470046401023,0.2485860586166381,-0.3229753375053406,0.2660341560840606,0.3663982450962066,0.0,0.0,0.4640505313873291,-0.3571161031723022
0.0003285408020019,0.0661294087767601,0.237566664814949,-0.3107059895992279,0.2838457822799682,0.3562324643135071,0.0,0.0,0.2705212831497192,-0.0612310171127319
0.0027781487442553,0.0592912063002586,0.2282253205776214,-0.307269275188446,0.3010976016521454,0.3450365662574768,0.0,0.0,0.1141074895858764,0.2479451894760131
0.0052766799926757,0.0527269467711448,0.2329062521457672,-0.2953498959541321,0.3186608850955963,0.3512658774852752,0.0,0.0,0.4922404289245605,-0.0395737290382385
0.0078479768708348,0.0462116822600364,0.2400502264499664,-0.2934281229972839,0.3364670574665069,0.356123685836792,0.0,0.0,0.6338440179824829,0.2277489900588989
0.0104302410036325,0.0403840653598308,0.2406323701143264,-0.2632217109203338,0.3549288511276245,0.3692361712455749,0.0,0.0,0.392041802406311,0.3910820484161377
0.0128919603303074,0.0350144244730472,0.2287824898958206,-0.2430567741394043,0.373299092054367,0.367404967546463,0.0,1.0,0.9985346794128418,0.9858627319335938
0.0152387619018554,0.0317227467894554,0.2297689914703369,-0.1485329121351242,0.3756156265735626,0.0420446023344993,0.0,1.0,0.9906167984008788,0.9721229076385498
0.0172387119382619,0.0296429246664047,0.2177180796861648,-0.0879114791750907,0.3568152487277984,-0.3760946094989776,0.0,1.0,0.8267804384231567,-0.7305646538734436
0.0186948776245117,0.0287542194128036,0.1739749759435653,-0.0329306311905384,0.3265544772148132,-0.6060019731521606,0.0,1.0,0.8312410116195679,-0.927657186985016
0.0198332779109478,0.0287258252501487,0.1431574672460556,0.0050433338619768,0.2960987091064453,-0.60918128490448,0.0,1.0,0.2453185319900512,-0.9168949723243712
0.0208998676389455,0.0287131648510694,0.1328867077827453,0.0045344582758843,0.2691197693347931,-0.5396003723144531,0.0,1.0,-0.1564812660217285,-0.6372132897377014
0.0219072345644235,0.0282305814325809,0.1256021857261657,-0.017083516344428,0.2437120527029037,-0.5081741809844971,0.0,0.0,-0.9991628527641296,-0.2293449640274047
0.0230391509830951,0.0273008923977613,0.1382290720939636,-0.0373735018074512,0.2183041721582412,-0.5081776976585388,0.0,0.0,-0.9959909319877625,-0.3922452926635742
0.0242961887270212,0.0259241685271263,0.1508586257696151,-0.0576689317822456,0.1929043382406234,-0.5080167055130005,0.0,0.0,-0.9936776161193848,-0.3763652443885803
0.025678252801299,0.0241004079580307,0.1634814888238906,-0.077965535223484,0.1675164848566055,-0.5077770352363586,0.0,0.0,-0.9430790543556212,-0.3946408629417419
0.0271854400634765,0.0218296870589256,0.1760925352573394,-0.0982630103826522,0.1421444416046142,-0.5074604749679565,0.0,0.0,-0.645686149597168,-0.831719160079956
0.0287703517824411,0.0190939046442508,0.1821384578943252,-0.1195008903741836,0.11858481913805,-0.4711925387382507,0.0,0.0,-0.647727370262146,-0.8280229568481445
0.0304171554744243,0.0159060098230838,0.1867914944887161,-0.1400745511054992,0.0966280251741409,-0.4391354918479919,0.0,0.0,0.3213729858398437,-0.7792002558708191
0.0321611389517784,0.012631569057703,0.1948957741260528,-0.1443314403295517,0.0763251259922981,-0.4060583710670471,0.0,0.0,0.6323080062866211,-0.5700034499168396
