x_pos,y_pos,x_vel,y_vel,angle,ang_vel,leg_1,leg_2,main_booster,lat_booster
-0.0015426635509356,1.4030184745788574,-0.1564595252275467,-0.3511854410171509,0.0019686101004481,0.0388477221131324,0.0,0.0,-0.8334447601945709,0.6190929655226738
-0.0030521391890943,1.3945311307907104,-0.15174300968647,-0.3772184252738952,0.0027531974483281,0.0156940910965204,0.0,0.0,-0.6941193001647297,-0.7196263269237085
-0.0046256063506007,1.3854317665100098,-0.1594739854335785,-0.4044195413589477,0.0048516895622015,0.0419737435877323,0.0,0.0,-0.8621395542732273,0.7564896473198975
-0.006171703338623,1.3757243156433103,-0.1557479202747345,-0.4314488470554352,0.0059639667160809,0.0222479812800884,0.0,0.0,-0.7424528337958272,0.9935224471703716
-0.0076440810225903,1.3654147386550903,-0.1461683958768844,-0.4581985771656036,0.004917221609503,-0.020936980843544,0.0,0.0,0.1053936037164264,-0.6094808305066646
-0.0090845106169581,1.355043649673462,-0.1446175277233123,-0.4609350264072418,0.0054779225029051,0.0112151969224214,0.0,0.0,0.3965919254793737,0.7098264286724592
-0.0105147361755371,1.3447990417480469,-0.1423735320568084,-0.455313116312027,0.0048380051739513,-0.0127996252849698,0.0,0.0,-0.6649658169815513,-0.766303746915989
-0.0120123866945505,1.3339502811431885,-0.1505316793918609,-0.4821714162826538,0.0055938507430255,0.0151182357221841,0.0,0.0,0.3864755935502759,-0.8651519755034636
-0.0136160850524902,1.323557734489441,-0.1631232649087906,-0.4619049727916717,0.0083088763058185,0.054305575788021,0.0,0.0,-0.8770270394717272,-0.9806257623141856
-0.0153202060610055,1.3125643730163574,-0.1753938198089599,-0.4886313080787658,0.0132364379242062,0.0985605791211128,0.0,0.0,0.4051912451172721,-0.609743906353204
-0.0170222278684377,1.301725149154663,-0.1768603473901748,-0.4818244278430938,0.0198214650154113,0.1317125409841537,0.0,0.0,-0.6597817849332823,-0.6189351573033535
-0.0187909118831157,1.2902777194976809,-0.1849176734685897,-0.5088972449302673,0.0277703534811735,0.1589923202991485,0.0,0.0,0.2988822554097736,-0.9468311492236976
-0.020555306226015,1.2790566682815552,-0.1867392063140869,-0.4989281296730041,0.0379616618156433,0.2038451731204986,0.0,0.0,0.583239378811252,0.7090241774509988
-0.022228430956602,1.2677416801452637,-0.1766432523727417,-0.5031430125236511,0.0471902415156364,0.1845884025096893,0.0,0.0,0.3038931510283209,-0.8948301084170298
-0.023900032043457,1.2568106651306152,-0.1786938458681106,-0.4862290918827057,0.0586010441184043,0.2282371968030929,0.0,0.0,-0.3786513662817214,0.8931209958362121
-0.0255133621394634,1.2452718019485474,-0.1710281372070312,-0.5132396817207336,0.0682196617126464,0.1923894584178924,0.0,0.0,0.9733539833645416,0.7982107046760358
-0.0269803050905466,1.234691500663757,-0.1555298268795013,-0.4706549644470215,0.0769693627953529,0.175009936094284,0.0,0.0,-0.6438474696796159,0.7284161001865825
-0.0284014698117971,1.2235080003738403,-0.1494545638561248,-0.4974285066127777,0.0842424929141998,0.1454758793115615,0.0,0.0,-0.3195543679562533,-0.9843394504501948
-0.0299137122929096,1.2117210626602173,-0.1605301648378372,-0.5244128108024597,0.093472421169281,0.1846152991056442,0.0,0.0,0.0491029418328898,-0.6418186065284917
-0.0315937027335166,1.1998509168624878,-0.1788188070058822,-0.5282697081565857,0.1042305305600166,0.215181678533554,0.0,0.0,0.532092723228915,0.9296836530184852
-0.0331664085388183,1.1884559392929075,-0.166713148355484,-0.5071344971656799,0.1136170327663421,0.1877469718456268,0.0,0.0,-0.3339882323442937,0.7746682030842372
-0.0347028747200965,1.176462173461914,-0.161825031042099,-0.5336896181106567,0.121758222579956,0.1628382056951522,0.0,0.0,-0.8573553968133767,-0.9298826311120332
-0.0363226905465126,1.1638524532318115,-0.1719365417957306,-0.561274528503418,0.1316856294870376,0.1985656917095184,0.0,0.0,-0.4243658349393326,-0.8508885274605693
-0.0380269065499305,1.1506177186965942,-0.1822063475847244,-0.5892947912216187,0.1434508562088012,0.2353254109621048,0.0,0.0,-0.9936065718010416,-0.810348312593933
-0.0398360267281532,1.1367650032043457,-0.1950297951698303,-0.617097795009613,0.1575509160757064,0.2820263504981994,0.0,0.0,0.5919494997197705,-0.9303106832815048
-0.0420053489506244,1.123244047164917,-0.2330236881971359,-0.6027148365974426,0.1736484467983245,0.321950614452362,0.0,0.0,0.1534407583082984,0.8606956352965704
-0.0442192070186138,1.109894037246704,-0.2360540330410003,-0.5951158404350281,0.1883588582277298,0.2942084670066833,0.0,0.0,-0.1764303889795873,0.9534281168297216
-0.0464027412235736,1.0959677696228027,-0.2318222820758819,-0.6207144260406494,0.2019058912992477,0.2709410786628723,0.0,0.0,0.2865832227619744,-0.8287875463810461
-0.0489120483398437,1.082277774810791,-0.2662330865859985,-0.6106072664260864,0.2173474431037902,0.3088307976722717,0.0,0.0,0.9082325424506884,-0.7676407818946784
-0.0516536720097065,1.0687801837921145,-0.2912107706069946,-0.6024979948997498,0.2346221357583999,0.3454940915107727,0.0,0.0,0.6415738823589627,-0.6235441824504968
-0.0546463951468467,1.055905818939209,-0.3178865313529968,-0.5752686262130737,0.2535405158996582,0.3783669769763946,0.0,0.0,0.031484859762856,0.6631159042122526
-0.057736586779356,1.0428234338760376,-0.3264964520931244,-0.5845624208450317,0.2714157700538635,0.3575057089328766,0.0,0.0,-0.3829989352404315,0.746362992541925
-0.0608051307499408,1.029167413711548,-0.323323130607605,-0.6100856065750122,0.288325697183609,0.338198721408844,0.0,0.0,-0.1985526392865646,0.7395832770865843
-0.0638483017683029,1.0149257183074951,-0.3197434842586517,-0.636091411113739,0.3042458891868591,0.3184036910533905,0.0,0.0,0.8574943351321525,-0.717629597238999
-0.0671637505292892,1.00107741355896,-0.3486740589141845,-0.619174063205719,0.3220175206661224,0.3554325401782989,0.0,0.0,-0.4894349430035973,0.9401571266670072
-0.0704338103532791,0.9866708517074584,-0.3424838185310364,-0.6438140273094177,0.3381514251232147,0.3226771950721741,0.0,0.0,0.5217072496117456,0.968751884588674
-0.0738210678100586,0.9722759127616882,-0.3525349199771881,-0.6430846452713013,0.3526299297809601,0.2895702123641968,0.0,0.0,-0.1014453865488407,-0.8907053937083649
-0.0772963538765907,0.9572519659996032,-0.3632016777992248,-0.6716675162315369,0.3691587150096893,0.3305765092372894,0.0,0.0,-0.1055413714107567,-0.7160933225425121
-0.0808543190360069,0.9416024088859558,-0.373149424791336,-0.7001266479492188,0.3875933587551117,0.368693083524704,0.0,0.0,-0.2615732860148487,-0.8265928679886718
-0.0844943076372146,0.9253190755844116,-0.3830656707286834,-0.7290270924568176,0.4079979956150055,0.4080926477909088,0.0,0.0,0.5062296847970704,-0.7070523109859406
-0.0885912925004959,0.9093230962753296,-0.4300874769687652,-0.7169635891914368,0.4300132393836975,0.4403049349784851,0.0,0.0,-0.6577890515327454,0.9946627616882324
-0.0926264747977256,0.8927850723266602,-0.4217309951782226,-0.7407256364822388,0.4498821794986725,0.397378146648407,0.0,0.0,-0.7611847519874573,0.9931080341339112
-0.0966003388166427,0.8756963610649109,-0.4135739207267761,-0.7648171782493591,0.4677010476589203,0.3563773334026336,0.0,0.0,-0.6576061844825745,0.973764181137085
-0.1005167961120605,0.8580653071403503,-0.405877411365509,-0.7884767055511475,0.4834873378276825,0.3157259523868561,0.0,0.0,-0.6747841835021973,0.9639064073562622
-0.1043891906738281,0.839871883392334,-0.3999828696250915,-0.8131223320960999,0.4977412819862366,0.2850789725780487,0.0,0.0,-0.7099065780639648,0.9342944622039796
-0.1082104668021202,0.8211247324943542,-0.393201619386673,-0.8372737765312195,0.5102282166481018,0.2497388124465942,0.0,0.0,-0.3234575390815735,0.9104776382446288
-0.1119817718863487,0.8018283247947693,-0.3865766227245331,-0.8611791133880615,0.5209401845932007,0.2142391502857208,0.0,0.0,-0.6148681640625,0.9066531658172609
-0.1157257109880447,0.7819803953170776,-0.3827016949653625,-0.8853251934051514,0.5304096341133118,0.1893888711929321,0.0,0.0,-0.7097983956336975,0.8870218992233276
-0.1194442734122276,0.7615775465965271,-0.3791173100471496,-0.9096583127975464,0.5387315154075623,0.1664389222860336,0.0,0.0,-0.709204912185669,0.8342478275299072
-0.1231256499886512,0.7406178712844849,-0.3741663098335266,-0.9339643716812134,0.5456763505935669,0.1388971805572509,0.0,0.0,-0.6017912030220032,0.7984170913696289
-0.1267576217651367,0.7191145420074463,-0.3676685690879822,-0.9575210809707642,0.5508444309234619,0.103361964225769,0.0,0.0,-0.3531376123428345,0.5922287702560425
-0.13037109375,0.697043776512146,-0.3650887906551361,-0.9824615120887756,0.5551902651786804,0.0869170501828193,0.0,0.0,-0.1250405311584472,0.8015702962875366
-0.1339346915483474,0.6744241118431091,-0.3586509525775909,-1.0062686204910278,0.5578452944755554,0.0531021431088447,0.0,0.0,-0.1844100952148437,0.9029889106750488
-0.1374549865722656,0.6512638330459595,-0.3529037237167358,-1.029714822769165,0.5588687658309937,0.0204689241945743,0.0,0.0,0.0506641864776611,0.8526041507720947
-0.141000360250473,0.6280324459075928,-0.3541161119937897,-1.0323244333267212,0.5583813786506653,-0.0097471494227647,0.0,0.0,0.4975682497024536,0.8920364379882812
-0.1448057144880294,0.6047151684761047,-0.3786748349666595,-1.0355504751205444,0.5562114119529724,-0.043399553745985,0.0,0.0,0.1156338453292846,0.67732834815979
-0.1488020867109298,0.581583559513092,-0.39683398604393,-1.0269192457199097,0.5529643297195435,-0.0649411454796791,0.0,0.0,0.0885002613067627,0.4630798101425171
-0.152963250875473,0.5584869384765625,-0.4139558672904968,-1.025623083114624,0.5504457354545593,-0.0503714457154274,0.0,0.0,0.0395348072052001,0.3190443515777588
-0.1573631316423416,0.5354857444763184,-0.4382657408714294,-1.0215719938278198,0.5484488010406494,-0.0399383194744586,0.0,0.0,-0.5627617239952087,-0.626511812210083
-0.1618184149265289,0.5118421912193298,-0.4453470706939697,-1.0507510900497437,0.5482476353645325,-0.004023206885904,0.0,0.0,-0.5579338073730469,-0.8764610290527344
-0.1663292944431305,0.4875395596027374,-0.4526578783988952,-1.0807584524154663,0.550064206123352,0.0363308303058147,0.0,0.0,-0.7380085587501526,-0.9139271378517152
-0.1709163635969162,0.462571918964386,-0.4624883532524109,-1.1112204790115356,0.554438054561615,0.0874773636460304,0.0,0.0,-0.8659446239471436,-0.8982987999916077
-0.175552561879158,0.4369548857212066,-0.4689279496669769,-1.140746831893921,0.5606268644332886,0.1237756833434104,0.0,0.0,-0.91865473985672,-0.890783965587616
-0.1802466362714767,0.4106823205947876,-0.4765163064002991,-1.1706639528274536,0.5689252614974976,0.1659677773714065,0.0,0.0,-0.955572783946991,-0.8200843930244446
-0.1849914491176605,0.3837509453296661,-0.483260303735733,-1.2007348537445068,0.5792442560195923,0.2063803672790527,0.0,0.0,-0.9753873348236084,-0.8104719519615173
-0.1897985488176345,0.3561549484729767,-0.4914316236972809,-1.231218695640564,0.5919317603111267,0.2537503838539123,0.0,0.0,-0.9899051785469056,-0.5432751774787903
-0.1946392953395843,0.3279280960559845,-0.4958496987819671,-1.259880781173706,0.6060031652450562,0.2814277708530426,0.0,0.0,-0.9881780743598938,-0.3948383331298828
-0.199475958943367,0.2990994453430176,-0.49554443359375,-1.2868404388427734,0.6203359365463257,0.2866551280021667,0.0,0.0,-0.9905890226364136,-0.4320052862167358
-0.2043069899082183,0.2696689367294311,-0.4950761795043945,-1.3138004541397097,0.6349243521690369,0.2917687892913818,0.0,0.0,-0.9800891876220704,-0.2734472751617431
-0.2091310024261474,0.2396367192268371,-0.494443267583847,-1.3407608270645142,0.6497626304626465,0.2967653274536133,0.0,0.0,-0.9554468393325806,-0.2065111398696899
-0.2139464914798736,0.2090028822422027,-0.4936445355415344,-1.367721438407898,0.6648446917533875,0.3016414046287536,0.0,0.0,-0.9318026900291444,0.3418195247650146
-0.2187518179416656,0.1777674555778503,-0.4926791787147522,-1.3946822881698608,0.6801643967628479,0.3063939809799194,0.0,0.0,-0.9454646110534668,0.8090534210205078
-0.2235110253095626,0.1459833532571792,-0.4870019555091858,-1.4186748266220093,0.6943022012710571,0.2827563881874084,0.0,0.0,-0.7693792581558228,0.9153058528900146
-0.2281957119703292,0.1136731728911399,-0.4778479039669037,-1.441271185874939,0.7064014077186584,0.2419836968183517,0.0,0.0,-0.5330594778060913,0.839818000793457
-0.2328155934810638,0.0808148980140686,-0.4701033532619476,-1.4650321006774902,0.7169783711433411,0.2115388810634613,0.0,1.0,0.9921703338623048,0.9993046522140504
-0.2374792546033859,0.0485175959765911,-0.4776626527309418,-1.4495768547058103,0.728374183177948,0.2078647911548614,0.0,1.0,0.992548942565918,0.9991743564605712
-0.2402863949537277,0.0297065116465091,-0.052685260772705,-0.0259939134120941,0.7714725732803345,1.052524209022522,0.0,1.0,0.992548942565918,0.9991743564605712
