x_pos,y_pos,x_vel,y_vel,angle,ang_vel,leg_1,leg_2,main_booster,lat_booster
-0.0015249252319335,1.40294349193573,-0.1544470340013504,-0.3545163869857788,0.0017523427959531,0.0345656350255012,0.0,0.0,-0.7543125045500654,-0.4353248572682809
-0.0030511855147778,1.3943090438842771,-0.1543407142162323,-0.3837545812129974,0.0034452215768396,0.0338612608611583,0.0,0.0,-0.7207199596972289,0.1376244903530626
-0.0045785903930664,1.384993314743042,-0.1544477790594101,-0.4140438437461853,0.005127505864948,0.0336490795016288,0.0,0.0,-0.818736024543762,-0.0457110114590132
-0.0061071394011378,1.374996304512024,-0.1545560806989669,-0.4443139433860779,0.006804980803281,0.0335527807474136,0.0,0.0,0.4277582159354702,-0.1026651484181583
-0.0075291632674634,1.3651649951934814,-0.1444413959980011,-0.4369629025459289,0.0090159596875309,0.044223990291357,0.0,0.0,0.4445239102696263,-0.790106352747096
-0.008884715847671,1.3553646802902222,-0.1395866572856903,-0.4355984926223755,0.0130126420408487,0.0799407362937927,0.0,0.0,-0.3914061790731238,-0.6693160337416799
-0.0102958679199218,1.344882607460022,-0.1465611755847931,-0.4659272730350494,0.0183910261839628,0.1075776070356369,0.0,0.0,0.953199175144875,-0.9659961008452964
-0.0116029735654592,1.3348734378814695,-0.1384593397378921,-0.4449669420719147,0.0260616093873977,0.1534256637096405,0.0,0.0,-0.4039688726144581,0.2227322579834214
-0.0129111288115382,1.3241838216781616,-0.1385923475027084,-0.4752464592456817,0.0337456427514553,0.1536949872970581,0.0,0.0,-0.101387456567094,-0.5401427073946232
-0.0142631530761718,1.3128154277801514,-0.1440750062465667,-0.5054827928543091,0.0425191260874271,0.1754861027002334,0.0,0.0,0.4786402388897828,-0.7667117245637508
-0.0156137468293309,1.30156672000885,-0.1456255614757537,-0.5002691149711609,0.0529806539416313,0.2092498540878296,0.0,0.0,0.0405313264282898,0.4207258561114745
-0.0169387813657522,1.2901403903961182,-0.1432947665452957,-0.5082517266273499,0.0636744797229766,0.2138954699039459,0.0,0.0,-0.1765057935337455,-0.9840306869660744
-0.0183259006589651,1.2780340909957886,-0.1510757207870483,-0.5386285185813904,0.0759224519133567,0.2449816763401031,0.0,0.0,0.9723607970956684,-0.480178568297347
-0.0196642875671386,1.2658923864364624,-0.1466119140386581,-0.5403238534927368,0.0885842218995094,0.2532587945461273,0.0,0.0,0.0280472039252552,0.7766820902409949
-0.020887279883027,1.2538676261901855,-0.1335700154304504,-0.5351355671882629,0.099778726696968,0.2239104211330413,0.0,0.0,0.8102174994709428,0.1833557182495223
-0.0220245365053415,1.241667628288269,-0.1255761533975601,-0.543051540851593,0.1115666553378105,0.2357799559831619,0.0,0.0,0.6720362279935579,0.9720692210334624
-0.0230281837284564,1.2301291227340698,-0.1104892045259475,-0.5136092305183411,0.1216547936201095,0.2017806768417358,0.0,0.0,0.0282471108679089,-0.9583413084662932
-0.0240299217402935,1.218255877494812,-0.1122099533677101,-0.5287249684333801,0.1336501538753509,0.2399286776781082,0.0,0.0,-0.0402276280900064,0.0922790079485972
-0.0250330921262502,1.205703616142273,-0.1123608723282814,-0.5590031743049622,0.1456729471683502,0.2404776066541671,0.0,0.0,-0.5052481409630409,-0.2848185125639236
-0.0260377880185842,1.192472219467163,-0.1125110611319542,-0.5892826318740845,0.15772445499897,0.241051435470581,0.0,0.0,-0.7910341098131453,0.9536233609075416
-0.026954460889101,1.1785898208618164,-0.1014168411493301,-0.6180582046508789,0.1674891710281372,0.1953121125698089,0.0,0.0,-0.560336927122697,-0.5238161701127098
-0.0279121398925781,1.1640148162841797,-0.1065510138869285,-0.6490316987037659,0.1783115416765213,0.2164660394191742,0.0,0.0,-0.0736082423210533,0.3841957211733414
-0.0288713462650775,1.1487603187561035,-0.1066980212926864,-0.6793111562728882,0.1891583204269409,0.2169550955295562,0.0,0.0,-0.0580792338632956,-0.4756204245442156
-0.0298318862915039,1.132826328277588,-0.1068441867828369,-0.7095910906791687,0.200028970837593,0.217432290315628,0.0,0.0,0.7195370298356287,0.997303643461099
-0.0310131069272756,1.1171737909317017,-0.1267275512218475,-0.6968489289283752,0.2087029218673706,0.1734948456287384,0.0,0.0,0.7117841855696334,0.6176495159458748
-0.0324559211730957,1.1018584966659546,-0.1512595266103744,-0.681686520576477,0.2157554924488067,0.1410515010356903,0.0,0.0,0.02711706735423,0.5971452115184158
-0.0339483246207237,1.086544156074524,-0.1550448387861251,-0.6814982295036316,0.2216251343488693,0.1173926964402198,0.0,0.0,0.2999219947322318,0.8176082305537575
-0.0356368049979209,1.0714904069900513,-0.1729138940572738,-0.669670045375824,0.2257387042045593,0.0822713151574134,0.0,0.0,-0.0322311293924624,-0.5536017282837137
-0.0373788848519325,1.0557427406311035,-0.1796187460422516,-0.7007359266281128,0.2312181442975998,0.1095889210700988,0.0,0.0,-0.5844667633496095,-0.4303254675321735
-0.0391222015023231,1.0393145084381104,-0.1797344386577606,-0.731002688407898,0.2367064952850341,0.1097668781876564,0.0,0.0,-0.7714751439748717,0.6798484538214598
-0.0408141128718853,1.0222325325012207,-0.1731995195150375,-0.7598493695259094,0.2407793998718261,0.0814581289887428,0.0,0.0,-0.7066976428031921,0.9978747367858888
-0.0424396507441997,1.0044885873794556,-0.1648392975330352,-0.7889940142631531,0.2431043237447738,0.0464985705912113,0.0,0.0,0.0145777463912963,0.9996368885040284
-0.0441696159541606,0.9867958426475524,-0.1733255535364151,-0.7864001393318176,0.243441954255104,0.0067525180056691,0.0,0.0,-0.1814190745353698,0.998610496520996
-0.0458309166133403,0.9684388041496276,-0.1646858304738998,-0.8156302571296692,0.2419767379760742,-0.0293047130107879,0.0,0.0,0.866204023361206,0.9969244003295898
-0.0475672706961631,0.9504703283309937,-0.1702314615249633,-0.7980429530143738,0.2385153621435165,-0.0692277997732162,0.0,0.0,0.5431478023529053,0.9357352256774902
-0.0493825897574424,0.9328904747962952,-0.1762626022100448,-0.7804778218269348,0.2331639677286148,-0.107027992606163,0.0,0.0,0.1285533905029297,0.992969274520874
-0.0512148849666118,0.9150990843772888,-0.1759631484746933,-0.7896006107330322,0.2257959246635437,-0.1473607271909713,0.0,0.0,-0.1857141256332397,0.9894845485687256
-0.0529689788818359,0.8966627717018127,-0.165998488664627,-0.8179788589477539,0.2162740528583526,-0.1904378235340118,0.0,0.0,-0.41938316822052,0.9887924194335938
-0.0546550750732421,0.8775810599327087,-0.1572933495044708,-0.8464595079421997,0.2048499882221222,-0.2284812927246093,0.0,0.0,0.5412898063659668,0.9936401844024658
-0.0563522353768348,0.8586874008178711,-0.1563698649406433,-0.8379209637641907,0.1914162784814834,-0.2686744630336761,0.0,0.0,-0.8111271262168884,0.9226510524749756
-0.0579933151602745,0.8391401767730713,-0.1491659879684448,-0.8669036030769348,0.1764080971479416,-0.3001636862754822,0.0,0.0,0.3177473545074463,0.8910908699035645
-0.059528924524784,0.819578230381012,-0.136830523610115,-0.8675239682197571,0.1596526354551315,-0.3351094722747803,0.0,0.0,0.0406610965728759,0.3262962102890014
-0.061037540435791,0.7996459007263184,-0.1343062818050384,-0.8841902613639832,0.1431227326393127,-0.3305979073047638,0.0,0.0,0.5034992694854736,0.7520759105682373
-0.062458612024784,0.7797831296920776,-0.1241100654006004,-0.8811543583869934,0.1251961141824722,-0.3585323691368103,0.0,0.0,0.3954074382781982,0.6635026931762695
-0.0638975128531456,0.7596091628074646,-0.1243916898965835,-0.8950999975204468,0.1058084443211555,-0.3877536058425903,0.0,0.0,0.5914368629455566,-0.92373389005661
-0.0653949752449989,0.7392256855964661,-0.1320445835590362,-0.9047722220420836,0.088253878057003,-0.3510911166667938,0.0,0.0,0.9645744562149048,0.1639503240585327
-0.0668689757585525,0.7189688086509705,-0.1299280673265457,-0.8993663191795349,0.0709511488676071,-0.3460549414157867,0.0,0.0,0.959829807281494,-0.5500051379203796
-0.0685998946428299,0.6995006799697876,-0.1561915576457977,-0.864528238773346,0.0542391389608383,-0.334240198135376,0.0,0.0,0.287851333618164,0.1570662260055542
-0.0704693794250488,0.6802671551704407,-0.1694484502077102,-0.8542741537094116,0.0369513370096683,-0.3457561135292053,0.0,0.0,0.8873064517974854,-0.5255846381187439
-0.0724293738603591,0.6612221598625183,-0.1793737411499023,-0.8461108803749084,0.0205298736691474,-0.3284296095371246,0.0,0.0,0.7152549028396606,0.0800126791000366
-0.0742547065019607,0.6423935294151306,-0.166478544473648,-0.8366869688034058,0.0046860170550644,-0.3168773353099823,0.0,0.0,0.8468507528305054,-0.8266058564186096
-0.0762218460440635,0.6241266131401062,-0.1820694804191589,-0.8118734359741211,-0.0097730653360486,-0.2891814410686493,0.0,0.0,-0.89974045753479,-0.538666307926178
-0.0782259926199913,0.6051790118217468,-0.1865253448486328,-0.8422600626945496,-0.0234806984663009,-0.274152934551239,0.0,0.0,-0.5380887985229492,0.1323168277740478
-0.0802321434020996,0.5855531096458435,-0.1865990459918975,-0.8725402355194092,-0.0373204536736011,-0.2767952382564544,0.0,0.0,0.9857311248779296,-0.0123478174209594
-0.0820394530892372,0.5661172270774841,-0.1674233376979828,-0.8642047047615051,-0.0504708588123321,-0.2630081176757812,0.0,0.0,0.9969733953475952,-0.920830011367798
-0.0840199440717697,0.5468666553497314,-0.1862044930458068,-0.8560180068016052,-0.0621790699660778,-0.2341641187667846,0.0,0.0,0.9996767044067384,-0.7689687609672546
-0.0858798995614051,0.5283823013305664,-0.1758475303649902,-0.8219779133796692,-0.072220392525196,-0.2008266001939773,0.0,0.0,0.9927492141723632,0.4161252975463867
-0.0875172615051269,0.5104174613952637,-0.1542105227708816,-0.7989235520362854,-0.0816512405872345,-0.1886167228221893,0.0,0.0,0.981076955795288,-0.805118978023529
-0.0890420898795127,0.4932529628276825,-0.144634336233139,-0.7633146047592163,-0.0894265174865722,-0.1555055975914001,0.0,0.0,0.9635566473007202,-0.0395419597625732
-0.0905758887529373,0.4768160283565521,-0.1449358165264129,-0.7310599684715271,-0.0977931320667266,-0.1673322319984436,0.0,0.0,0.4561469554901123,-0.2756851315498352
-0.092035099864006,0.4601798951625824,-0.1375157684087753,-0.7399564981460571,-0.1061300262808799,-0.1667380481958389,0.0,0.0,0.5968573093414307,-0.4193047285079956
-0.0935210213065147,0.4438905715942383,-0.13956119120121,-0.7246327996253967,-0.115100510418415,-0.1794098168611526,0.0,0.0,0.6278655529022217,-0.7645416259765625
-0.0948776230216026,0.4276663064956665,-0.1282332390546798,-0.7216700911521912,-0.1224876418709755,-0.1477423012256622,0.0,0.0,0.9399157762527466,-0.7391464710235596
-0.0961768180131912,0.4118398427963257,-0.1238445788621902,-0.7039114236831665,-0.1285258680582046,-0.120764710009098,0.0,0.0,0.8582686185836792,-0.6709400415420532
-0.0974640846252441,0.3960072100162506,-0.1238255724310875,-0.7040997743606567,-0.1334064304828643,-0.0976111516356468,0.0,0.0,0.8102197647094727,-0.6456480622291565
-0.0988629311323165,0.3804968297481537,-0.1357045322656631,-0.689732551574707,-0.1375681310892105,-0.0832344070076942,0.0,0.0,0.9214415550231934,0.2110624313354492
-0.1001028046011924,0.3657797873020172,-0.1197130233049392,-0.654491662979126,-0.1418288797140121,-0.0852152928709983,0.0,0.0,0.8513599634170532,-0.4190953969955444
-0.1012075394392013,0.3508495390415191,-0.1064129695296287,-0.6639582514762878,-0.1458839476108551,-0.0811013653874397,0.0,0.0,0.8618037700653076,-0.2529702186584472
-0.1021446213126182,0.336660087108612,-0.0895597040653228,-0.6310547590255737,-0.1500230729579925,-0.0827823355793953,0.0,0.0,0.906862497329712,-0.7654045224189758
-0.1031792610883712,0.3226372897624969,-0.1003534644842147,-0.6235494613647461,-0.1531259417533874,-0.0620576441287994,0.0,0.0,0.8854656219482422,-0.95497465133667
-0.1042874306440353,0.309127539396286,-0.1091929078102111,-0.6006015539169312,-0.154743954539299,-0.0323604270815849,0.0,0.0,0.9682579040527344,-0.3257702589035034
-0.1052473038434982,0.2960277795791626,-0.0943006724119186,-0.5823898911476135,-0.1564315259456634,-0.0337515696883201,0.0,0.0,0.5031828880310059,-0.7725375890731812
-0.1062777489423751,0.2834392786026001,-0.1024553924798965,-0.5595501065254211,-0.1570230275392532,-0.0118298782035708,0.0,0.0,0.4622033834457397,0.0298607349395751
-0.1071662902832031,0.2709123492240906,-0.0883161500096321,-0.5568106770515442,-0.1575611233711242,-0.0107619892805814,0.0,0.0,0.1161816120147705,-0.5354355573654175
-0.1080827713012695,0.2581081390380859,-0.091873362660408,-0.5690509080886841,-0.1573264896869659,0.0046924715861678,0.0,0.0,0.8421177864074707,0.4815009832382202
-0.1088696494698524,0.2451426088809967,-0.0790201649069786,-0.576208770275116,-0.1569959968328476,0.0066097201779484,0.0,0.0,0.911325216293335,0.1318777799606323
-0.1096333488821983,0.2320871204137802,-0.0762789323925972,-0.5802565217018127,-0.1570927947759628,-0.0019360095029696,0.0,0.0,0.9911437034606934,0.2123950719833374
-0.1102596297860145,0.2197697758674621,-0.0622214004397392,-0.5474787950515747,-0.1574975550174713,-0.0080952029675245,0.0,0.0,0.9404346942901612,-0.2664113044738769
-0.1106448173522949,0.208169400691986,-0.0382866486907005,-0.5155991911888123,-0.1577317118644714,-0.0046831420622766,0.0,0.0,0.9863808155059814,0.0165575742721557
-0.1110109314322471,0.1973761171102523,-0.0354872308671474,-0.4798211753368377,-0.1588567346334457,-0.0225005913525819,0.0,0.0,0.7875843048095703,-0.6739628314971924
-0.1115253418684005,0.1864749044179916,-0.0510275736451149,-0.4845384657382965,-0.1592634469270706,-0.0081342402845621,0.0,0.0,0.8039674758911133,-0.0215157270431518
-0.1118613258004188,0.1761612743139267,-0.0331182181835174,-0.4584356546401977,-0.159737691283226,-0.0094849672168493,0.0,0.0,0.8054723739624023,-0.6535617113113403
-0.1122679710388183,0.1661393940448761,-0.0409409441053867,-0.4453884959220886,-0.1594687849283218,0.0053780572488904,0.0,0.0,0.7568264007568359,-0.1917129755020141
-0.1126196831464767,0.1565184146165847,-0.034894909709692,-0.427626758813858,-0.1597441285848617,-0.0055070179514586,0.0,0.0,0.4553135633468628,-0.7100352048873901
-0.1129417419433593,0.1471490710973739,-0.0330587550997734,-0.4163252711296081,-0.1588925272226333,0.0170324482023715,0.0,0.0,0.5547118186950684,-0.3825942277908325
-0.1130979508161544,0.1378907263278961,-0.0165769420564174,-0.4113785922527313,-0.1579382866621017,0.0190847273916006,0.0,0.0,0.7284482717514038,-0.4028117656707763
-0.1131751090288162,0.1284766793251037,-0.0085094273090362,-0.4183172583580017,-0.157147005200386,0.0158259905874729,0.0,0.0,0.8502522706985474,-0.0211864709854125
-0.1130808815360069,0.1190259307622909,0.008433936163783,-0.4199269711971283,-0.1561532467603683,0.0198749173432588,0.0,0.0,0.929163932800293,-0.1726893782615661
-0.1127147674560546,0.109842836856842,0.0350908301770687,-0.4079803228378296,-0.1546431332826614,0.0302025619894266,0.0,0.0,0.895014762878418,-0.6945642828941345
-0.1121649742126464,0.1006173938512802,0.0519400164484977,-0.4097049534320831,-0.1516063660383224,0.0607354864478111,0.0,0.0,0.9868326187133788,0.2326279878616333
-0.1114871054887771,0.0920529216527938,0.0650628209114074,-0.3803685009479522,-0.1488787829875946,0.0545516684651374,0.0,0.0,0.8402080535888672,-0.0240137577056884
-0.1106512993574142,0.0840537175536155,0.0809679925441742,-0.3552581369876861,-0.1462687253952026,0.0522015467286109,0.0,0.0,0.694340705871582,-0.4758534431457519
-0.1095908135175705,0.0763614997267723,0.1031097620725631,-0.3415890336036682,-0.1433437466621399,0.0584999099373817,0.0,0.0,0.9469203948974608,-0.651116669178009
-0.1084023490548133,0.0685371756553649,0.1145538911223411,-0.3473424017429352,-0.139063224196434,0.0856103301048278,0.0,0.0,0.9204277992248536,-0.1702985763549804
-0.1071936637163162,0.0609246343374252,0.1171268969774246,-0.3379921317100525,-0.1353379786014557,0.0745051279664039,0.0,0.0,0.968531847000122,-0.1954176425933838
-0.1057476997375488,0.0541392900049686,0.140659362077713,-0.3012179136276245,-0.1314169764518737,0.0784197449684143,0.0,0.0,0.5996265411376953,-0.6464570164680481
-0.1043058410286903,0.0475078672170639,0.1392733007669448,-0.2943062782287597,-0.1265275329351425,0.0977889075875282,0.0,0.0,0.157996654510498,-0.6831532120704651
-0.1029454246163368,0.0410609804093837,0.130135640501976,-0.2860374748706817,-0.1206582337617874,0.1173861995339393,0.0,0.0,0.8172821998596191,0.0489746332168579
-0.1013987511396408,0.0350598432123661,0.1485781520605087,-0.2662380337715149,-0.1146086230874061,0.1209925785660743,0.0,0.0,0.7030990123748779,-0.827803909778595
-0.0998899489641189,0.0295589547604322,0.1434963196516037,-0.2439371049404144,-0.1072723045945167,0.1467263400554657,0.0,0.0,0.5954103469848633,-0.4099632501602173
-0.0983840972185134,0.0244693383574485,0.1438147574663162,-0.2257361412048339,-0.1005608290433883,0.1342294067144394,0.0,0.0,0.7234485149383545,-0.8828799724578857
-0.0969255417585372,0.0194870084524154,0.1376150101423263,-0.2209036499261856,-0.0923885181546211,0.1634462475776672,0.0,0.0,0.8282294273376465,-0.6736942529678345
-0.0955984145402908,0.0148463584482669,0.1237049549818039,-0.2057199329137802,-0.0834568887948989,0.1786324679851532,0.0,0.0,0.702289342880249,-0.415783941745758
-0.0943816155195236,0.0103519773110747,0.1136276125907898,-0.1993196904659271,-0.0754840075969696,0.1594579219818115,0.0,0.0,0.931011438369751,0.5057746171951294
-0.0929317474365234,0.0064176772721111,0.1377856433391571,-0.174513429403305,-0.0683583617210388,0.1425128728151321,0.0,0.0,0.7865215539932251,-0.8388099074363708
-0.0913547500967979,0.0031044341158121,0.1303410232067108,-0.1462461501359939,-0.0412439070641994,0.5423738360404968,1.0,0.0,0.7076231241226196,0.0340772867202758
-0.0895944610238075,0.0002923703286796,0.1478717029094696,-0.1244409531354904,-0.0134334675967693,0.5562149882316589,1.0,0.0,0.4017167091369629,-0.3830658197402954
-0.0878446549177169,-0.0022024775389581,0.1469061225652694,-0.1108640432357788,0.0142857208847999,0.5543840527534485,1.0,1.0,0.6285717487335205,0.0022155046463012
-0.0861322432756424,-0.0036516927648335,0.1575476378202438,-0.0647504180669784,0.0269503165036439,0.2522192299365997,0.0,1.0,-0.9595670700073242,0.7441345453262329
-0.084593579173088,-0.0052356268279254,0.1624437272548675,-0.0702664107084274,0.0184754841029644,-0.1695151031017303,0.0,1.0,-0.5551406741142273,-0.2133330106735229
-0.0831834822893142,-0.0063406252302229,0.1503601670265197,-0.0490466430783271,0.0093318596482276,-0.1827802956104278,1.0,1.0,0.4044231176376343,-0.9783937931060792
-0.0818895325064659,-0.005987646523863,0.1358654350042343,0.0156185245141386,0.0033389232121407,-0.119353674352169,1.0,1.0,-0.0871351361274719,-0.9808924198150636
-0.080736443400383,-0.0052467845380306,0.1174912303686142,0.0329238064587116,0.0011821129592135,-0.0431368090212345,1.0,1.0,-0.5886251926422119,-0.9941534399986268
-0.079762265086174,-0.0041672135703265,0.0962963327765464,0.0479808337986469,0.0023011872544884,0.0223774500191211,1.0,1.0,-0.8148210048675537,-0.909564197063446
-0.0789720565080642,-0.0028580450452864,0.0770317986607551,0.058183517307043,0.0042584789916872,0.0391357392072677,1.0,1.0,-0.6579226851463318,-0.9918119311332704
-0.0783401504158973,-0.0014543199213221,0.0615993216633796,0.0623869486153125,0.0058206436224281,0.0312334802001714,1.0,1.0,-0.8457127809524536,-0.9728858470916748
-0.0779140442609787,-0.000455787172541,0.0502305850386619,0.0443891882896423,-0.0016969572752714,-0.1503477692604065,1.0,1.0,-0.3334372043609619,-0.9512726068496704
-0.0775186568498611,-9.336709626950324e-05,0.042396180331707,0.0161014553159475,-0.0045207128860056,-0.0564697682857513,1.0,1.0,-0.5314228534698486,-0.8591053485870361
-0.0771974548697471,-9.501219028607012e-05,0.0321209728717803,-7.24357960280031e-05,-0.0045218998566269,-1.8867896869778637e-05,1.0,1.0,-0.6967070698738098,-0.4221328496932983
-0.0769404396414756,-9.758710802998394e-05,0.0257106907665729,-0.0001146189460996,-0.0045236297883093,-2.984421735163778e-05,1.0,1.0,-0.5833826661109924,-0.1621422171592712
