x_pos,y_pos,x_vel,y_vel,angle,ang_vel,leg_1,leg_2,main_booster,lat_booster
-0.0014940261607989,1.40339195728302,-0.1514131724834442,-0.3345829546451568,0.0018058324931189,0.0356244556605815,0.0,0.0,-0.0076663494110107,0.8828762769699097
-0.0028893470298498,1.3956505060195925,-0.1394461095333099,-0.3440675735473633,0.0017237649299204,-0.0016406662762165,0.0,0.0,0.234814167022705,0.4413150548934936
-0.0041682245209813,1.3881291151046753,-0.1283464580774307,-0.334282249212265,0.0021749623119831,0.0090248081833124,0.0,0.0,0.0041568279266357,0.5977716445922852
-0.0054719923064112,1.380828619003296,-0.1295711100101471,-0.3244668245315552,0.0013826992362737,-0.0158464796841144,0.0,0.0,0.0644614696502685,0.6483216285705566
-0.0066273687407374,1.373928189277649,-0.113610602915287,-0.3066867291927337,-0.0005133601371198,-0.0379248447716236,0.0,0.0,-0.4126454591751098,0.3678560256958008
-0.0077851293608546,1.3667951822280884,-0.1139165535569191,-0.3170226514339447,-0.0023549508769065,-0.0368355065584182,0.0,0.0,-0.5245752930641174,-0.3284433484077453
-0.0089519498869776,1.359429955482483,-0.1148738414049148,-0.3273534178733825,-0.00414235657081,-0.035751599818468,0.0,0.0,-0.467695951461792,0.5858856439590454
-0.010076617822051,1.351833462715149,-0.1092554554343223,-0.3376302421092987,-0.0073228059336543,-0.0636147484183311,0.0,0.0,-0.5964712500572205,-0.0592548251152038
-0.0112230302765965,1.34400475025177,-0.111483633518219,-0.3479634523391723,-0.0104485349729657,-0.0625201091170311,0.0,0.0,-0.6503676176071167,0.3323755264282226
-0.012397289276123,1.3359434604644775,-0.1143307313323021,-0.3582966923713684,-0.013520966283977,-0.0614542551338672,0.0,0.0,-0.3493310213088989,0.4694938659667969
-0.0136055946350097,1.3276500701904297,-0.1177791953086853,-0.3686299324035644,-0.0165404640138149,-0.0603953711688518,0.0,0.0,-0.3685681819915771,0.6086380481719971
-0.0148000717163085,1.3191218376159668,-0.1150884479284286,-0.3790932297706604,-0.0208557974547147,-0.0863144993782043,0.0,0.0,-0.701939046382904,0.2825905084609985
-0.0160399433225393,1.31036114692688,-0.1196762174367904,-0.3894271552562713,-0.025119312107563,-0.085278034210205,0.0,0.0,-0.3032042384147644,0.573204755783081
-0.0172802917659282,1.301361083984375,-0.1184936165809631,-0.4001043140888214,-0.0306005757302045,-0.1096354946494102,0.0,0.0,-0.3788759112358093,0.4417991638183594
-0.0185765270143747,1.2921289205551147,-0.1241317838430404,-0.4104393124580383,-0.0360324867069721,-0.1086480617523193,0.0,0.0,-0.4750493764877319,-0.3052179217338562
-0.0199335105717182,1.2826646566390991,-0.1302612125873565,-0.4207744896411896,-0.0414174348115921,-0.1077084094285965,0.0,0.0,-0.4558842778205871,0.0575700998306274
-0.0213560108095407,1.272968292236328,-0.1368559598922729,-0.4311096370220184,-0.0467568300664424,-0.1067973971366882,0.0,0.0,-0.2711995840072632,-0.3783508539199829
-0.0228484161198139,1.2630398273468018,-0.1438908874988556,-0.4414449036121368,-0.0520525053143501,-0.1059231013059616,0.0,0.0,-0.3111436367034912,0.8037756681442261
-0.0243410114198923,1.2528811693191528,-0.142078548669815,-0.4517641961574554,-0.059159331023693,-0.142149344086647,0.0,0.0,0.0628246068954467,0.0858346223831176
-0.0259417537599802,1.2430402040481567,-0.1526941806077957,-0.4376759231090545,-0.0664678588509559,-0.1461836546659469,0.0,0.0,-0.7509104609489441,0.8243329524993896
-0.0275449752807617,1.2329658269882202,-0.1509857177734375,-0.4481890797615051,-0.0757235661149025,-0.1851309686899185,0.0,0.0,-0.3251755237579345,0.9389245510101318
-0.0291579253971576,1.2226464748382568,-0.1500819027423858,-0.4592427015304565,-0.0868485495448112,-0.2225197851657867,0.0,0.0,-0.1705266833305359,0.888527512550354
-0.0307740215212106,1.2120840549468994,-0.1482653766870498,-0.4702611267566681,-0.1000898405909538,-0.264849454164505,0.0,0.0,-0.3813151717185974,0.4690343141555786
-0.0324809066951274,1.201291561126709,-0.1574081182479858,-0.4806105196475982,-0.1132980659604072,-0.2641881108283996,0.0,0.0,-0.4530028104782104,0.3216227293014526
-0.0342815406620502,1.1902687549591064,-0.1668287217617035,-0.4909602403640747,-0.1264763474464416,-0.263589084148407,0.0,0.0,0.162787914276123,0.4123513698577881
-0.0362195968627929,1.1797513961791992,-0.1801336109638214,-0.4686619639396667,-0.1401020139455795,-0.2725129723548889,0.0,0.0,-0.0507037639617919,0.1308916807174682
-0.0382567420601844,1.1690038442611694,-0.1900862157344818,-0.4790078699588775,-0.1537040024995803,-0.2720396518707275,0.0,0.0,0.0460058450698852,0.054949402809143
-0.0403969772160053,1.1588196754455566,-0.2000512182712555,-0.4541255533695221,-0.1676677614450454,-0.2792752385139465,0.0,0.0,-0.3682557344436645,-0.4042909145355224
-0.0426403991878032,1.148405909538269,-0.2104286402463913,-0.464472234249115,-0.1816132366657257,-0.278909295797348,0.0,0.0,-0.4327719211578369,0.4024367332458496
-0.0449889190495014,1.1377618312835691,-0.2209946364164352,-0.4748188257217407,-0.1955429911613464,-0.2785950005054474,0.0,0.0,-0.7734478116035461,-0.577161431312561
-0.0474868789315223,1.1269071102142334,-0.2370992004871368,-0.4841620624065399,-0.2083319425582885,-0.2557791173458099,0.0,0.0,-0.5530416369438171,-0.7423123717308044
-0.0501587875187397,1.1158380508422852,-0.2562037408351898,-0.493546575307846,-0.2194276601076126,-0.2219143360853195,0.0,0.0,-0.1194732189178466,-0.4098907709121704
-0.0529407486319541,1.1045379638671875,-0.2672507166862488,-0.5038872957229614,-0.2305149137973785,-0.2217449247837066,0.0,0.0,-0.5441181063652039,-0.2574604749679565
-0.0558341965079307,1.0930070877075195,-0.2784339487552643,-0.5142279863357544,-0.2415958195924759,-0.2216184139251709,0.0,0.0,-0.6733416318893433,0.6502726078033447
-0.058789063245058,1.0812278985977173,-0.2832797467708587,-0.5255682468414307,-0.2540195286273956,-0.2484733164310455,0.0,0.0,-0.8242394924163818,-0.7152436971664429
-0.0619097724556922,1.0692437887191772,-0.3012846410274505,-0.5345265865325928,-0.2650337815284729,-0.2202848643064499,0.0,0.0,-0.9624590873718262,-0.3484529852867126
-0.0651453956961631,1.0570287704467771,-0.3128147721290588,-0.544867217540741,-0.2760475277900696,-0.2202747166156768,0.0,0.0,-0.8238709568977356,-0.684524416923523
-0.0685446709394455,1.04460871219635,-0.3304761946201324,-0.5538249611854553,-0.285757303237915,-0.1941955834627151,0.0,0.0,-0.266068696975708,0.7946388721466064
-0.0720029845833778,1.0319411754608154,-0.3349475264549255,-0.565173327922821,-0.2969692647457123,-0.2242399454116821,0.0,0.0,0.062199592590332,0.1002392768859863
-0.075447179377079,1.0195953845977783,-0.3336532413959503,-0.5509384870529175,-0.308101624250412,-0.2226463258266449,0.0,0.0,0.0262371301651,0.2738568782806396
-0.0789262801408767,1.007740139961243,-0.3368831276893616,-0.5292767286300659,-0.3195465505123138,-0.2288984805345535,0.0,0.0,-0.8725185394287109,-0.4148555397987366
-0.0825244933366775,0.9956541657447816,-0.3488261997699737,-0.5396181344985962,-0.3309986591339111,-0.2290414273738861,0.0,0.0,-0.9454404711723328,-0.5518574118614197
-0.0862782448530197,0.9833493232727052,-0.3653125464916229,-0.5492197871208191,-0.3415199220180511,-0.2104254066944122,0.0,0.0,-0.1769327521324157,-0.4292407035827636
-0.0901523604989051,0.9708134531974792,-0.3773746788501739,-0.5595596432685852,-0.3520508706569671,-0.2106189280748367,0.0,0.0,-0.660999596118927,0.3764146566390991
-0.0941473022103309,0.9580467343330384,-0.3894887864589691,-0.5698994994163513,-0.3625926375389099,-0.2108352482318878,0.0,0.0,-0.5353345274925232,0.4518613815307617
-0.0982635468244552,0.9450488090515136,-0.4016501307487488,-0.5802393555641174,-0.3731462955474853,-0.2110732048749923,0.0,0.0,0.2208584547042846,-0.031653881072998
-0.1023392677307128,0.9322564601898192,-0.397813618183136,-0.5711231827735901,-0.3835043907165527,-0.2071619480848312,0.0,0.0,-0.4704135060310364,-0.0391760468482971
-0.1065369620919227,0.91923326253891,-0.4100558757781982,-0.5814627408981323,-0.3938764333724975,-0.2074402272701263,0.0,0.0,-0.9120873212814332,0.719641923904419
-0.1108148545026779,0.9059595465660096,-0.4170208871364593,-0.592968225479126,-0.4054144918918609,-0.2307603359222412,0.0,0.0,-0.6005667448043823,0.6561686992645264
-0.1151702851057052,0.8924241662025452,-0.4235959053039551,-0.6050418019294739,-0.4182815849781036,-0.2573416829109192,0.0,0.0,-0.3870028257369995,0.4608595371246338
-0.119648553431034,0.8786584734916687,-0.4359332919120788,-0.6153858304023743,-0.431165337562561,-0.2576751708984375,0.0,0.0,0.2802499532699585,0.3750213384628296
-0.1240517646074295,0.865468442440033,-0.4282980859279632,-0.5899705290794373,-0.4442731142044067,-0.2621556520462036,0.0,0.0,-0.5822593569755554,0.1039034128189086
-0.1285782754421234,0.8520482778549194,-0.4406803548336029,-0.6003150939941406,-0.4573993980884552,-0.2625258266925812,0.0,0.0,0.8118571043014526,-0.1825870871543884
-0.132838636636734,0.8395726084709167,-0.4141449928283691,-0.558433473110199,-0.4705289304256439,-0.2625908553600311,0.0,0.0,0.7459298372268677,-0.4149044752120971
-0.1368487328290939,0.827448308467865,-0.3898212313652038,-0.5426973104476929,-0.4829504191875458,-0.2484300583600998,0.0,0.0,-0.1413479447364807,-0.410963237285614
-0.1409825384616851,0.8150935769081116,-0.4022464752197265,-0.5530403852462769,-0.4953930974006653,-0.2488533705472946,0.0,0.0,0.7284166812896729,-0.6800398230552673
-0.1447945535182953,0.8035758137702942,-0.3716172575950622,-0.5153985023498535,-0.5061840415000916,-0.2158190906047821,0.0,0.0,0.6213958263397217,-0.4022177457809448
-0.1482913941144943,0.7925966382026672,-0.3406716883182525,-0.4913192689418793,-0.5163713693618774,-0.2037470042705536,0.0,0.0,0.2295869588851928,-0.767760694026947
-0.1516043692827224,0.7821900844573975,-0.323805034160614,-0.4653719663619995,-0.524889349937439,-0.1703590303659439,0.0,0.0,0.2903597354888916,-0.6463106274604797
-0.1548326462507248,0.7724408507347107,-0.3164737224578857,-0.4357724189758301,-0.5321539044380188,-0.1452922970056533,0.0,0.0,0.927473783493042,-0.8728781938552856
-0.157970905303955,0.7630137801170349,-0.3091837763786316,-0.4208188056945801,-0.5374827980995178,-0.1065775901079177,0.0,0.0,0.9401566982269288,-0.5961316823959351
-0.1609584838151931,0.7545506358146667,-0.2949182689189911,-0.3776723742485046,-0.5418981909751892,-0.0883074551820755,0.0,0.0,0.9478867053985596,0.2813626527786255
-0.1636310517787933,0.746526300907135,-0.2639999985694885,-0.3579525053501129,-0.5456658601760864,-0.0753536075353622,0.0,0.0,0.9106667041778564,-0.633450984954834
-0.166077047586441,0.7391952276229858,-0.2425449788570404,-0.326659619808197,-0.5480356812477112,-0.0473968461155891,0.0,0.0,0.9854097366333008,-0.3622366786003113
-0.1683881729841232,0.7322412133216858,-0.2290821075439453,-0.3098926246166229,-0.5503886938095093,-0.0470603331923484,0.0,0.0,0.9736967086791992,-0.313046932220459
-0.170580193400383,0.7260738611221313,-0.2165524214506149,-0.2751918435096741,-0.5534527897834778,-0.0612813644111156,0.0,0.0,0.9490700960159302,0.1867358684539795
-0.1723437309265136,0.7209427356719971,-0.1737966686487198,-0.2291118502616882,-0.5564271211624146,-0.0594870075583457,0.0,0.0,0.9798626899719238,-0.4881809949874878
-0.1739623993635177,0.7159478068351746,-0.1596732139587402,-0.2229068875312805,-0.5589742064476013,-0.0509423017501831,0.0,0.0,0.9947999715805054,-0.2561419010162353
-0.1751301735639572,0.712005615234375,-0.1146963462233543,-0.1760829240083694,-0.5613985061645508,-0.0484864227473735,0.0,0.0,0.7240179777145386,-0.5249120593070984
-0.1762821227312088,0.7085725665092468,-0.1138130575418472,-0.1531616300344467,-0.563011884689331,-0.0322681404650211,0.0,0.0,0.6737825870513916,-0.5330061316490173
-0.1773091256618499,0.705892026424408,-0.1020543575286865,-0.1194073259830474,-0.5637672543525696,-0.0151076149195432,0.0,0.0,0.6228258609771729,-0.4597848653793335
-0.1781065911054611,0.7037299871444702,-0.0791884511709213,-0.0963188856840133,-0.564411997795105,-0.0128951640799641,0.0,0.0,0.0393801927566528,-0.9087855815887452
-0.1788791716098785,0.7021515369415283,-0.07840596139431,-0.0696738436818122,-0.5630846619606018,0.0265465043485164,0.0,0.0,-0.1065927147865295,-0.9173399806022644
-0.1798267364501953,0.7003911733627319,-0.0973436310887336,-0.0771548524498939,-0.5600646734237671,0.060399442911148,0.0,0.0,0.2507041692733764,-0.7914297580718994
-0.1808173209428787,0.69884192943573,-0.1030575260519981,-0.0671929568052291,-0.5554167032241821,0.0929597839713096,0.0,0.0,0.0720905065536499,-0.7433410882949829
-0.1818265914916992,0.6973287463188171,-0.1062833219766616,-0.0650482773780822,-0.5491995215415955,0.1243422180414199,0.0,0.0,0.279289960861206,-0.6592578887939453
-0.1828882247209549,0.695976197719574,-0.112691655755043,-0.0574745051562786,-0.5416569709777832,0.1508511900901794,0.0,0.0,0.4022356271743774,-0.607523500919342
-0.1837677061557769,0.6953045725822449,-0.095594897866249,-0.0268068686127662,-0.5328575372695923,0.1759887039661407,0.0,0.0,0.2686499357223511,-0.656805157661438
-0.184430792927742,0.6952037215232849,-0.0752966031432151,-0.0009878688724711,-0.5225836634635925,0.2054769098758697,0.0,0.0,-0.0637154579162597,-0.8249180316925049
-0.1852752715349197,0.694936215877533,-0.0953074395656585,-0.0077690496109426,-0.5102525353431702,0.2466229498386383,0.0,0.0,0.24085533618927,-0.3817174434661865
-0.1862003356218338,0.6948350667953491,-0.1030245199799537,-0.0006243701209314,-0.4984008073806762,0.2370346039533615,0.0,0.0,0.3639059066772461,-0.1445491909980774
-0.1869008988142013,0.695339024066925,-0.0807496905326843,0.0262343846261501,-0.4864249229431152,0.2395178824663162,0.0,0.0,0.3418149948120117,-0.523239016532898
-0.1876138746738433,0.6963236331939697,-0.082838200032711,0.0477748550474643,-0.4735738039016723,0.2570226192474365,0.0,0.0,0.3836336135864258,-0.239821970462799
-0.1882236450910568,0.6978670358657837,-0.0723885595798492,0.0724396035075187,-0.460964947938919,0.2521773278713226,0.0,0.0,-0.1086338758468627,-0.1365478634834289
-0.1889475882053375,0.6991802453994751,-0.0838439390063285,0.0620958171784877,-0.4483859837055206,0.2515793442726135,0.0,0.0,0.1809525489807129,0.1508687734603881
-0.1895482987165451,0.7007843852043152,-0.0718181207776069,0.0750189572572708,-0.435548722743988,0.2567455172538757,0.0,0.0,-0.3806719779968261,-0.0113099217414855
-0.1902609765529632,0.7021583914756775,-0.0830719247460365,0.0646746233105659,-0.4227415919303894,0.2561428844928741,0.0,0.0,0.0503914356231689,-0.0020503401756286
-0.1909259855747223,0.7036162614822388,-0.0785845667123794,0.0683563500642776,-0.4096919596195221,0.2609925270080566,0.0,0.0,0.0553205013275146,0.3068623542785644
-0.1914691925048828,0.7052895426750183,-0.066861942410469,0.0779375880956649,-0.3962382078170776,0.2690749764442444,0.0,0.0,-0.4843596220016479,0.1316995620727539
-0.1921210289001464,0.7067327499389648,-0.0777604728937149,0.067591868340969,-0.3828153014183044,0.2684582769870758,0.0,0.0,0.0792044401168823,0.462134838104248
-0.1927001923322677,0.7086307406425476,-0.070519782602787,0.0876815095543861,-0.3694407045841217,0.26749187707901,0.0,0.0,-0.1444120407104492,0.4580223560333252
-0.1933852136135101,0.7102987170219421,-0.0811413303017616,0.0773358345031738,-0.3560976684093475,0.2668609321117401,0.0,0.0,-0.0640937685966491,0.7976422309875488
-0.1941031515598297,0.7116996645927429,-0.082576185464859,0.0648917108774185,-0.3447588682174682,0.2267759591341018,0.0,0.0,0.1969156265258789,0.5510571002960205
-0.1947290450334549,0.7131351828575134,-0.0724489986896514,0.0661359131336212,-0.3344393074512481,0.2063912451267242,0.0,0.0,0.2700486183166504,0.2312047481536865
-0.1953659951686859,0.7149145603179932,-0.073372483253479,0.0812898799777031,-0.3243396878242492,0.2019924223423004,0.0,0.0,-0.1777389645576477,0.4547394514083862
-0.1961025297641754,0.7164629697799683,-0.0833306685090065,0.0709501057863235,-0.3142738938331604,0.2013167142868042,0.0,0.0,-0.2894951105117798,0.2733392715454101
-0.196936696767807,0.7177801728248596,-0.0930998846888542,0.0606103651225566,-0.3042426109313965,0.2006260156631469,0.0,0.0,-0.2136381864547729,0.4323509931564331
-0.1978666335344314,0.7188665270805359,-0.1026699990034103,0.0502706579864025,-0.2942466139793396,0.199919193983078,0.0,0.0,-0.284616470336914,0.5338308811187744
-0.1988438665866851,0.7197033762931824,-0.1061692982912063,0.0388718880712986,-0.2855262160301208,0.1744079738855362,0.0,0.0,-0.0922032594680786,0.0525918006896972
-0.1999124586582183,0.7203087210655212,-0.1153091639280319,0.0285341180860996,-0.2768429219722748,0.1736657172441482,0.0,0.0,-0.4641506671905517,0.5829868316650391
-0.2010314017534256,0.7206704020500183,-0.1193365678191185,0.0174650214612483,-0.2692136168479919,0.1525863856077194,0.0,0.0,-0.0900387167930603,0.3085223436355591
-0.2022372186183929,0.7208005785942078,-0.1280039250850677,0.0071286680176854,-0.2616234421730041,0.1518037915229797,0.0,0.0,-0.067053735256195,0.1503949165344238
-0.2035274505615234,0.7206990122795105,-0.13641919195652,-0.0032076467759907,-0.2540734708309173,0.1509994268417358,0.0,0.0,-0.0127661228179931,-0.086820900440216
-0.2048994600772857,0.7203659415245056,-0.1445716321468353,-0.0135439215227961,-0.2465648502111435,0.1501725316047668,0.0,0.0,0.2098704576492309,-0.0864831805229187
-0.2061468660831451,0.7205386161804199,-0.13243468105793,0.0089386254549026,-0.2387399524450302,0.156497836112976,0.0,0.0,-0.0698834657669067,-0.1729950904846191
-0.2074705064296722,0.7204795479774475,-0.1400299072265625,-0.0013980052899569,-0.2309587597846985,0.1556240022182464,0.0,0.0,0.0681802034378051,-0.3113974332809448
-0.2086631804704666,0.7208772301673889,-0.1273365020751953,0.0189120844006538,-0.2227886915206909,0.1634012162685394,0.0,0.0,-0.3980774879455566,-0.0661506056785583
-0.2099261730909347,0.7210434675216675,-0.1343336999416351,0.0085749952122569,-0.2146647423505783,0.1624788343906402,0.0,0.0,-0.4429274201393127,-0.3784470558166504
-0.2112563103437423,0.7209782004356384,-0.1410172879695892,-0.0017620327416807,-0.2065881639719009,0.1615319848060608,0.0,0.0,-0.2431942820549011,-0.4448590874671936
-0.2126504480838775,0.720681369304657,-0.1473782658576965,-0.0120989978313446,-0.1985601335763931,0.160560742020607,0.0,0.0,0.1564135551452636,0.2876400947570801
-0.213997408747673,0.7209951281547546,-0.1426047384738922,0.0149780111387372,-0.1906052380800247,0.1590980291366577,0.0,0.0,-0.4739707708358764,-0.2517704963684082
-0.2154016941785812,0.7210772037506104,-0.1482956111431121,0.0046412148512899,-0.182701289653778,0.1580789685249328,0.0,0.0,-0.3504321575164795,-0.0804817080497741
-0.2168598175048828,0.7209277153015137,-0.1536403894424438,-0.0056955069303512,-0.1748494207859039,0.1570369750261306,0.0,0.0,0.253747820854187,0.0754460096359252
-0.2183780670166015,0.7212641835212708,-0.1591809689998626,0.0157975908368825,-0.1674801111221313,0.1473861932754516,0.0,0.0,-0.2773478031158447,0.1341508626937866
-0.2199430912733078,0.7213689088821411,-0.1638150066137313,0.0054615656845271,-0.1601650416851043,0.1463015377521515,0.0,0.0,0.161761999130249,0.2026818990707397
-0.2215030193328857,0.7218326926231384,-0.1631880700588226,0.0213677026331424,-0.1529752165079116,0.1437965780496597,0.0,0.0,0.0006124973297119,0.4473404884338379
-0.2230377197265625,0.7225400805473328,-0.1606872081756591,0.0321667790412902,-0.145768716931343,0.144129991531372,0.0,0.0,0.0225809812545776,0.2184972763061523
-0.2244959324598312,0.7233285307884216,-0.1533662974834442,0.035765528678894,-0.1382451653480529,0.1504711210727691,0.0,0.0,-0.0912905931472778,0.4117165803909302
-0.2259862869977951,0.7238855957984924,-0.1565306931734085,0.0254293866455554,-0.1307790428400039,0.1493223011493683,0.0,0.0,-0.105045199394226,0.460658311843872
-0.2275050580501556,0.7242109179496765,-0.1593230962753296,0.0150933396071195,-0.123370848596096,0.148163840174675,0.0,0.0,0.2568044662475586,0.821707010269165
