x_pos,y_pos,x_vel,y_vel,angle,ang_vel,leg_1,leg_2,main_booster,lat_booster
-0.0015081405872479,1.4034740924835205,-0.1529323309659958,-0.3309397101402282,0.0018890247447416,0.0372722670435905,0.0,0.0,-0.4521406888961792,0.9167845249176024
-0.0029227256309241,1.3958964347839355,-0.1414616554975509,-0.3367876410484314,0.001888861414045,-2.2848928438179428e-06,0.0,0.0,0.235842227935791,0.0899499654769897
-0.0042223930358886,1.388621211051941,-0.1305813193321228,-0.3233413994312286,0.0024956190027296,0.0121366027742624,0.0,0.0,-0.4849768877029419,0.9272770881652832
-0.0054479599930346,1.3811925649642944,-0.1218102723360061,-0.3301602602005005,0.0017562306020408,-0.0147893745452165,0.0,0.0,-0.4918835163116455,0.3784034252166748
-0.0066579817794263,1.3736134767532349,-0.1203810796141624,-0.3368478119373321,0.0011449583107605,-0.0122266206890344,0.0,0.0,-0.4786625504493713,0.7790287733078003
-0.0077773095108568,1.3658829927444458,-0.1095208898186683,-0.343579888343811,-0.0012314461637288,-0.0475325174629688,0.0,0.0,-0.3519192337989807,0.2936164140701294
-0.0088810920715332,1.3580018281936646,-0.1080982312560081,-0.3502695262432098,-0.0034793422091752,-0.0449619553983211,0.0,0.0,0.0064852237701416,0.3614459037780761
-0.0098770139738917,1.3505611419677734,-0.0978810861706733,-0.3307037949562073,-0.0051662321202456,-0.0337411649525165,0.0,0.0,-0.2337435483932495,0.7364354133605957
-0.0108006475493311,1.342977523803711,-0.0893449932336807,-0.3370671272277832,-0.0081551615148782,-0.0597846023738384,0.0,0.0,-0.6404771208763123,-0.1824044585227966
-0.0117091182619333,1.3352434635162354,-0.0879476591944694,-0.3437548875808716,-0.0110156890004873,-0.0572156198322773,0.0,0.0,-0.8799837827682495,-0.0507674813270568
-0.0126023292541503,1.327358961105347,-0.0865627825260162,-0.3504438698291778,-0.0137490006163716,-0.0546715147793293,0.0,0.0,-0.7819464206695557,0.2546024322509765
-0.0134806632995605,1.3193241357803345,-0.0851912572979927,-0.3571337163448334,-0.0163550339639186,-0.0521254241466522,0.0,0.0,-0.8446733951568604,0.4086531400680542
-0.0143442153930664,1.3111387491226196,-0.083834208548069,-0.3638235628604889,-0.0188339874148368,-0.0495836921036243,0.0,0.0,-0.8849515318870544,-0.0202348828315734
-0.0151928905397653,1.302802801132202,-0.0824930146336555,-0.3705134391784668,-0.0211861804127693,-0.0470481589436531,0.0,0.0,-0.8930238485336304,-0.2277019023895263
-0.0160271637141704,1.2943165302276611,-0.0811689123511314,-0.3772033154964447,-0.0234119556844234,-0.044519554823637,0.0,0.0,-0.7918407917022705,0.0497405529022216
-0.016847038641572,1.285679578781128,-0.0798631161451339,-0.3838931322097778,-0.025511709973216,-0.0419990196824073,0.0,0.0,-0.9015297889709472,0.2802333831787109
-0.0176527015864849,1.2768924236297607,-0.0785768032073974,-0.3905829191207886,-0.0274859070777893,-0.0394875928759574,0.0,0.0,-0.9401358366012572,0.5090105533599854
-0.0183948520570993,1.2679481506347656,-0.071087546646595,-0.3975790739059448,-0.0305848531424999,-0.061984609812498,0.0,0.0,-0.9810248613357544,0.6507399082183838
-0.0190634727478027,1.2588571310043335,-0.0623433999717235,-0.4041491746902466,-0.0350585654377937,-0.08948215842247,0.0,0.0,-0.7422440052032471,0.0241544246673584
-0.0197185520082712,1.2496155500411987,-0.0611143112182617,-0.4108405113220215,-0.0394076742231845,-0.0869898349046707,0.0,0.0,-0.914183497428894,-0.834425687789917
-0.0204121582210063,1.2402328252792358,-0.0664097517728805,-0.417089581489563,-0.0423256531357765,-0.0583650469779968,0.0,0.0,-0.9843394160270692,-0.7273625135421753
-0.0211491584777832,1.230699062347412,-0.0723123177886009,-0.4237633943557739,-0.043704554438591,-0.0275803059339523,0.0,0.0,-0.9596951603889464,0.4316250085830688
-0.0218735691159963,1.2210147380828855,-0.0711662918329238,-0.430452823638916,-0.0449622273445129,-0.0251555535942316,0.0,0.0,-0.985349714756012,-0.0357576608657836
-0.0225854869931936,1.2111798524856567,-0.0700470507144928,-0.4371425211429596,-0.0460989587008953,-0.0227367114275693,0.0,0.0,-0.7847861051559448,-0.5313072800636292
-0.0233372692018747,1.201199293136597,-0.0754620283842086,-0.443566620349884,-0.0458095669746398,0.0057884333655238,0.0,0.0,-0.9419088959693908,-0.0537024140357971
-0.0240777973085641,1.1910468339920044,-0.0744683220982551,-0.4512087702751159,-0.0454019792377948,0.0081515992060303,0.0,0.0,-0.9326989054679872,-0.5220828652381897
-0.0248477943241596,1.1807498931884766,-0.0785735994577407,-0.4575954377651214,-0.043844349682331,0.0311524160206317,0.0,0.0,-0.8973375558853149,0.6920397281646729
-0.0255635268986225,1.17030668258667,-0.0721764490008354,-0.4641209840774536,-0.0432474836707115,0.0119376312941312,0.0,0.0,-0.9863792061805724,-0.1291900277137756
-0.0262683872133493,1.1597130298614502,-0.0712065026164054,-0.4708082377910614,-0.0425356067717075,0.0142373638227581,0.0,0.0,-0.941651165485382,-0.2574526071548462
-0.0269627571105957,1.1489688158035278,-0.0702679604291915,-0.4774955213069916,-0.041710115969181,0.0165097657591104,0.0,0.0,-0.968940794467926,-0.2941750288009643
-0.0276468284428119,1.1380741596221924,-0.0693614855408668,-0.4841828346252441,-0.0407725051045417,0.0187523905187845,0.0,0.0,-0.9866375923156738,0.4063475131988525
-0.0283210761845111,1.1270290613174438,-0.0684876516461372,-0.4908701181411743,-0.0397243686020374,0.0209627170115709,0.0,0.0,-0.9745408892631532,0.1323689222335815
-0.0289857871830463,1.1158332824707031,-0.0676469951868057,-0.4975574910640716,-0.03856747969985,0.0231380388140678,0.0,0.0,-0.9631631374359132,0.4046741724014282
-0.0296414382755756,1.104487061500549,-0.0668399557471275,-0.5042449235916138,-0.0373037084937095,0.025275444611907,0.0,0.0,-0.884334146976471,0.6391959190368652
-0.0302362442016601,1.0929886102676392,-0.0595496110618114,-0.5110352635383606,-0.0372408479452133,0.0012572470586746,0.0,0.0,-0.9118350744247437,-0.2694244384765625
-0.03082275390625,1.0813398361206057,-0.0588109381496906,-0.5177226066589355,-0.0370753481984138,0.0033097178675234,0.0,0.0,-0.9698219299316406,-0.5736116766929626
-0.0314485542476177,1.069540023803711,-0.064053751528263,-0.5243934988975525,-0.0356192551553249,0.0291218422353267,0.0,0.0,-0.967028260231018,0.387894868850708
-0.0320666320621967,1.0575898885726929,-0.0633844584226608,-0.5310810804367065,-0.0340654589235782,0.0310758855193853,0.0,0.0,-0.8060275316238403,0.6129063367843628
-0.0326319709420204,1.0454938411712646,-0.0570495054125785,-0.5375953316688538,-0.0335554219782352,0.0102012064307928,0.0,0.0,-0.9174550175666808,0.4379782676696777
-0.0331903472542762,1.0332471132278442,-0.0564499907195568,-0.5442826747894287,-0.0329533219337463,0.0120421554893255,0.0,0.0,-0.934747278690338,-0.2606508135795593
-0.0337422378361225,1.0208500623703003,-0.0558853335678577,-0.5509701371192932,-0.0322622805833816,0.0138206481933593,0.0,0.0,-0.9658223390579224,0.4491503238677978
-0.0342878326773643,1.0083023309707642,-0.0553554110229015,-0.5576575994491577,-0.0314856544137001,0.0155324712395668,0.0,0.0,-0.9514042735099792,0.6071960926055908
-0.0347721092402935,0.9955947995185852,-0.0478754714131355,-0.5647901892662048,-0.03203035145998,-0.0108941197395324,0.0,0.0,-0.9322246313095092,0.1226788759231567
-0.0352509506046772,0.9827367663383484,-0.0474142991006374,-0.5714775919914246,-0.0324967727065086,-0.0093285152688622,0.0,0.0,-0.9414307475090028,-0.2526618242263794
-0.0357248298823833,0.9697282910346984,-0.0469870083034038,-0.5781649947166443,-0.0328889116644859,-0.0078427148982882,0.0,0.0,-0.9508939385414124,-0.3843494653701782
-0.0361940376460552,0.9565693140029908,-0.0465931594371795,-0.5848524570465088,-0.0332109741866588,-0.0064413100481033,0.0,0.0,-0.8905719518661499,-0.5650905966758728
-0.0366991981863975,0.943258821964264,-0.0512787923216819,-0.591565728187561,-0.0324576571583747,0.0150662679225206,0.0,0.0,-0.9506108164787292,-0.0768656730651855
-0.0372005477547645,0.9297977089881896,-0.0509502105414867,-0.5982532501220703,-0.0316433981060981,0.0162850264459848,0.0,0.0,-0.8124790787696838,0.4507567882537842
-0.0376981720328331,0.9161860942840576,-0.0506533160805702,-0.60494065284729,-0.0307731106877326,0.0174055993556976,0.0,0.0,-0.9797778129577636,0.050549030303955
-0.0381927490234375,0.9024240374565125,-0.0503873601555824,-0.6116282343864441,-0.0298519525676965,0.0184234231710433,0.0,0.0,-0.9448974132537842,0.1086336374282836
-0.0386844649910926,0.8885114192962646,-0.0501515567302703,-0.6183158159255981,-0.0288852397352457,0.0193341206759214,0.0,0.0,-0.88765949010849,-0.1590736508369445
-0.039173699915409,0.8744483590126038,-0.0499450378119945,-0.625003457069397,-0.0278785713016986,0.0201334543526172,0.0,0.0,-0.8832616806030273,0.2000921964645385
-0.0396608337759971,0.8602349162101746,-0.0497668758034706,-0.631691038608551,-0.0268377047032117,0.020817456766963,0.0,0.0,-0.8333905339241028,-0.4369492530822754
-0.0401461608707904,0.8458710312843323,-0.0496160723268985,-0.6383786797523499,-0.0257685761898756,0.0213823653757572,0.0,0.0,-0.966864287853241,0.5761387348175049
-0.0405732169747352,0.831352174282074,-0.0423612259328365,-0.6452853679656982,-0.0261069629341363,-0.0067677414044737,0.0,0.0,-0.7101138234138489,-0.0225169658660888
-0.0409990325570106,0.8166829943656921,-0.0422619357705116,-0.6519728899002075,-0.0264295153319835,-0.0064509650692343,0.0,0.0,-0.8398506045341492,-0.7842087149620056
-0.0414763465523719,0.8018724918365479,-0.0487425401806831,-0.6582242846488953,-0.0254258252680301,0.0200739912688732,0.0,0.0,-0.7652824521064758,-0.7676562070846558
-0.0419998168945312,0.7869164943695068,-0.0545583255589008,-0.6646738648414612,-0.023242101073265,0.0436743311583995,0.0,0.0,-0.89955073595047,-0.3252238035202026
-0.0425230041146278,0.7718101739883423,-0.0545275285840034,-0.6713619232177734,-0.0210620779544115,0.0436005294322967,0.0,0.0,-0.8488001227378845,-0.3869881629943847
-0.0430462844669818,0.7565534710884094,-0.0545170009136199,-0.6780499219894409,-0.0188923887908458,0.0433935560286045,0.0,0.0,-0.9062493443489076,-0.4071063995361328
-0.0435696616768837,0.7411462664604187,-0.0545254237949848,-0.6847379207611084,-0.0167397614568471,0.0430528484284877,0.0,0.0,-0.7465004324913025,0.3229644298553467
-0.0440936088562011,0.7255886197090149,-0.0545514114201068,-0.6914259195327759,-0.0146108288317918,0.0425784215331077,0.0,0.0,-0.5621355175971985,0.7362202405929565
-0.0445481315255165,0.7098773121833801,-0.0457864739000797,-0.6982824206352234,-0.0142767895013093,0.0066808313131332,0.0,0.0,-0.6070809960365295,-0.0215475559234619
-0.0450035110116004,0.694015383720398,-0.0458433181047439,-0.7049700021743774,-0.0139797339215874,0.0059411088004708,0.0,0.0,-0.5903327465057373,-0.1824718117713928
-0.0454600341618061,0.6780030727386475,-0.0459133982658386,-0.7116576433181763,-0.0137261999770998,0.0050709596835076,0.0,0.0,-0.5804907083511353,0.4108939170837402
-0.0459178909659385,0.6618401408195496,-0.0459952056407928,-0.7183452844619751,-0.013522570952773,0.0040725083090364,0.0,0.0,-0.3996108770370483,0.2183512449264526
-0.0463773719966411,0.6455268859863281,-0.0460872054100036,-0.7250329256057739,-0.0133751491084694,0.002948397072032,0.0,0.0,0.1230612993240356,0.3386985063552856
-0.0467799194157123,0.6293602585792542,-0.0406033769249916,-0.7185164093971252,-0.0130319455638527,0.006863766349852,0.0,0.0,-0.4023038744926452,0.6076171398162842
-0.0471339225769043,0.6130491495132446,-0.0344011187553405,-0.7249463200569153,-0.0140193309634923,-0.0197476185858249,0.0,0.0,0.1988227367401123,-0.0432849526405334
-0.04755325242877,0.5971043109893799,-0.0405397340655326,-0.7086770534515381,-0.015396662056446,-0.0275468118488788,0.0,0.0,-0.0891035199165344,0.6333160400390625
-0.0479321479797363,0.581010639667511,-0.0353248491883277,-0.7153021097183228,-0.0179209224879741,-0.0504850670695304,0.0,0.0,-0.7208893299102783,-0.8336195945739746
-0.0483756065368652,0.5647698044776917,-0.0432952493429183,-0.7218269109725952,-0.01895697042346,-0.0207208581268787,0.0,0.0,-0.1577675342559814,0.0633376836776733
-0.0488210693001747,0.5483785271644592,-0.043415043503046,-0.7285148501396179,-0.020083112642169,-0.022522572427988,0.0,0.0,0.9177968502044678,0.3591300249099731
-0.0491700172424316,0.5328395962715149,-0.0340573005378246,-0.6906319856643677,-0.020909696817398,-0.016531728208065,0.0,0.0,0.8739848136901855,0.9251962900161744
-0.0494811050593853,0.5178072452545166,-0.0282280147075653,-0.668143630027771,-0.0237504132091999,-0.0568145513534545,0.0,0.0,-0.914919137954712,0.045791745185852
-0.0497942939400672,0.5026246905326843,-0.0283394996076822,-0.6748321056365967,-0.0266951937228441,-0.0588958039879798,0.0,0.0,-0.7043460607528687,0.0224428176879882
-0.0501097664237022,0.4872917234897613,-0.028444830328226,-0.6815207004547119,-0.0297482460737228,-0.0610609352588653,0.0,0.0,-0.1892531514167785,0.374221920967102
-0.050427246838808,0.4718085825443268,-0.0285423155874013,-0.6882094740867615,-0.0329135172069072,-0.0633054226636886,0.0,0.0,0.7235784530639648,-0.4037315249443054
-0.050635240972042,0.457446813583374,-0.0178722701966762,-0.6383670568466187,-0.0358085371553897,-0.0579006597399711,0.0,0.0,-0.0264557600021362,-0.4353008866310119
-0.0508452430367469,0.4429347813129425,-0.0179489403963089,-0.6450557708740234,-0.0388230755925178,-0.0602905079722404,0.0,0.0,0.6496577262878418,-0.1643105745315551
-0.0511734001338481,0.4287757277488708,-0.029032576829195,-0.6293938755989075,-0.0425580590963363,-0.0746997147798538,0.0,0.0,0.5877758264541626,0.5411508083343506
-0.0513863563537597,0.4156045019626617,-0.0164129231125116,-0.5855351686477661,-0.0473877154290676,-0.0965932235121727,0.0,0.0,0.0089858770370483,-0.9341608285903932
-0.0517324432730674,0.4028201699256897,-0.0314956530928611,-0.5682950615882874,-0.050461109727621,-0.0614678375422954,0.0,0.0,-0.3456206321716308,-0.2180807590484619
-0.05207996442914,0.3898855447769165,-0.0315102636814117,-0.5749841332435608,-0.0536660738289356,-0.064099483191967,0.0,0.0,-0.7354527711868286,-0.0726960301399231
-0.0524288192391395,0.3768007457256317,-0.0315051339566707,-0.581673264503479,-0.0570051856338977,-0.0667823776602745,0.0,0.0,0.154239535331726,-0.0280219912528991
-0.0526947975158691,0.3641691207885742,-0.0233642943203449,-0.5615292191505432,-0.0601990446448326,-0.0638773590326309,0.0,0.0,0.2555989027023315,-0.1487649083137512
-0.0529279708862304,0.3517752289772033,-0.0200348775833845,-0.5509755611419678,-0.0634483322501182,-0.0649858862161636,0.0,0.0,0.4832692146301269,-0.8228166699409485
-0.0531110763549804,0.3397635221481323,-0.016668003052473,-0.5339248180389404,-0.0650690272450447,-0.032413937151432,0.0,0.0,0.2211569547653198,0.1856080293655395
-0.053158663213253,0.3282226324081421,-0.0034781508147716,-0.512983500957489,-0.0663295462727546,-0.0252103507518768,0.0,0.0,0.4074699878692627,-0.4148618578910827
-0.0530655868351459,0.3170225322246551,0.0101729473099112,-0.4978225529193878,-0.067185454070568,-0.0171179138123989,0.0,0.0,0.3755145072937011,-0.6528817415237427
-0.0529869087040424,0.3066186308860779,0.0075755291618406,-0.462382823228836,-0.0668965280055999,0.0057784500531852,0.0,0.0,-0.3464491367340088,0.0835763216018676
-0.0529078468680381,0.2960643768310547,0.0077644563280045,-0.4690712988376617,-0.0667556598782539,0.0028172496240586,0.0,0.0,-0.2647863626480102,-0.776140570640564
-0.0528765693306922,0.2853676080703735,0.0018995202844962,-0.475358784198761,-0.0655381008982658,0.0243512205779552,0.0,0.0,-0.1463048458099365,-0.1167036890983581
-0.0528442375361919,0.2745204567909241,0.0021546809002757,-0.4820473492145538,-0.0644715577363967,0.021331038326025,0.0,0.0,0.264349102973938,-0.1289092302322387
-0.0528255477547645,0.264110267162323,0.0011322449427098,-0.4626446366310119,-0.0637433901429176,0.0145632103085517,0.0,0.0,-0.1717742085456848,0.1894150972366333
-0.0528051368892192,0.253549724817276,0.001459150807932,-0.4693331718444824,-0.0631688460707664,0.0114908665418624,0.0,0.0,0.0721851587295532,-0.4968717098236084
-0.052774429321289,0.2433931678533554,0.0027172812260687,-0.4513866603374481,-0.062819130718708,0.0069943666458129,0.0,0.0,0.1120673418045044,-0.3341823816299438
-0.0527912154793739,0.233895793557167,-0.0014835922047495,-0.4221139848232269,-0.0630128607153892,-0.0038744446355849,0.0,0.0,-0.0296759009361267,0.3399760723114013
-0.052805233746767,0.2242480665445327,-0.0010397942969575,-0.428802490234375,-0.0633635818958282,-0.0070143616758286,0.0,0.0,0.0072546005249023,0.0984292030334472
-0.0528194420039653,0.2151378542184829,-0.0007616257062181,-0.40492644906044,-0.0640233233571052,-0.0131950108334422,0.0,0.0,-0.3545513153076172,-0.3626258373260498
-0.052830122411251,0.2058772891759872,-0.000234512190218,-0.4116149842739105,-0.0648420229554176,-0.0163740292191505,0.0,0.0,-0.1028723716735839,-0.923000991344452
-0.0529127120971679,0.1964707523584365,-0.0092009613290429,-0.4180277287960052,-0.0639079958200454,0.0186803229153156,0.0,0.0,-0.2091584801673889,0.3658955097198486
-0.052990723401308,0.1869139224290847,-0.0085869394242763,-0.4247162938117981,-0.0631347000598907,0.0154660586267709,0.0,0.0,0.2637370824813843,0.0375120639801025
-0.0531534180045127,0.1778173744678497,-0.0163484588265419,-0.4042883515357971,-0.063055396080017,0.0015862189466133,0.0,0.0,-0.4645876884460449,-0.2201825976371765
-0.0533106811344623,0.1685704737901687,-0.0156446136534214,-0.4109768569469452,-0.0631383806467056,-0.001659877016209,0.0,0.0,-0.1077348589897155,-0.3119622468948364
-0.0534621253609657,0.159173235297203,-0.0148950042203068,-0.4176653623580932,-0.0633844211697578,-0.0049207541160285,0.0,0.0,-0.1711499691009521,-0.382992148399353
-0.0536071769893169,0.1496257185935974,-0.0140991825610399,-0.4243538677692413,-0.0637942180037498,-0.0081956889480352,0.0,0.0,0.0629913806915283,-0.0894568562507629
-0.0537283904850482,0.1406765729188919,-0.0114722643047571,-0.3977640271186828,-0.0644365474581718,-0.0128465890884399,0.0,0.0,-0.5031388998031616,-0.6417802572250366
-0.0538806915283203,0.1315883994102478,-0.0154036432504653,-0.4039134085178375,-0.064267374575138,0.0033832627814263,0.0,0.0,0.5004541873931885,-0.030420184135437
-0.0539223663508892,0.1231311410665512,-0.0044944416731595,-0.375864028930664,-0.0639433860778808,0.0064797177910804,0.0,0.0,-0.075204849243164,-0.4307042360305786
-0.0539558418095111,0.1145234704017639,-0.0035112560726702,-0.3825525939464569,-0.0637856647372245,0.0031547620892524,0.0,0.0,0.5854203701019287,-0.4739682674407959
-0.0538744926452636,0.1068913340568542,0.0078763822093606,-0.3391949832439422,-0.063525453209877,0.0052038868889212,0.0,0.0,-0.2077659964561462,-0.8387576341629028
-0.0538415908813476,0.0991101339459419,0.0017362991347908,-0.3457638025283813,-0.061987318098545,0.0307626016438007,0.0,0.0,0.2396451234817505,-0.4413741827011108
-0.0538619048893451,0.0918817594647407,-0.0029954733327031,-0.3212217092514038,-0.0610416010022163,0.0189145132899284,0.0,0.0,-0.1624802947044372,-0.5409069061279297
-0.0539241805672645,0.0845064744353294,-0.008334987796843,-0.3277084231376648,-0.0589583665132522,0.0416648611426353,0.0,0.0,0.4150819778442383,0.509413480758667
-0.053927231580019,0.0777016729116439,-0.0011597536504268,-0.3023994565010071,-0.0581069774925708,0.0170279126614332,0.0,0.0,-0.0972506999969482,-0.1217402219772338
-0.0539193153381347,0.0707466006278991,0.0001013426226563,-0.3090880215167999,-0.0574247539043426,0.0136443544179201,0.0,0.0,0.1354601383209228,-0.0484808087348938
-0.0537961944937706,0.0640035271644592,0.0113672697916626,-0.2996550500392914,-0.0564969442784786,0.0185562893748283,0.0,0.0,0.3276081085205078,0.0905762910842895
-0.0535521507263183,0.0579264275729656,0.0232750438153743,-0.2700523138046264,-0.0553768128156662,0.0224026273936033,0.0,0.0,-0.2907647490501404,0.0270633697509765
-0.0532958023250103,0.0516989789903163,0.0246684066951274,-0.2767408490180969,-0.0544270016252994,0.0189964734017848,0.0,0.0,0.0295512676239013,0.8739686012268066
