x_pos,y_pos,x_vel,y_vel,angle,ang_vel,leg_1,leg_2,main_booster,lat_booster
-0.0015243530506268,1.4034085273742676,-0.1546436995267868,-0.3338519632816314,0.0019837487488985,0.0391470603644847,0.0,0.0,-0.3093070983886719,0.6624717712402344
-0.0029932023026049,1.3957009315490725,-0.1476077884435653,-0.3425599932670593,0.0027051838114857,0.0144310127943754,0.0,0.0,0.3101582527160644,0.7000433206558228
-0.0042906762100756,1.3882529735565186,-0.1295035183429718,-0.3310193121433258,0.002453981898725,-0.00502451043576,0.0,0.0,-0.0771355628967285,0.6749467849731445
-0.005546951200813,1.380586862564087,-0.1244951486587524,-0.3407173454761505,0.0013399691088125,-0.0222822166979312,0.0,0.0,-0.2428893446922302,-0.4231579303741455
-0.0068046571686863,1.3727047443389893,-0.1248523741960525,-0.35031658411026,0.0004347059875726,-0.0181070249527692,0.0,0.0,-0.0088059306144714,0.6521174907684326
-0.008001041598618,1.3646057844161987,-0.117334708571434,-0.3599576354026794,-0.0018468440975993,-0.045635387301445,0.0,0.0,-0.6237655282020569,0.2323741912841797
-0.0091993333771824,1.3562908172607422,-0.1177353858947753,-0.3695593476295471,-0.0039202296175062,-0.0414715334773063,0.0,0.0,-0.144314169883728,-0.3620858192443847
-0.0103999134153127,1.34775972366333,-0.1181602850556373,-0.3791610300540924,-0.0057871881872415,-0.0373426117002964,0.0,0.0,-0.4020315408706665,0.1676446199417114
-0.011602783575654,1.339012861251831,-0.1186094284057617,-0.3887627422809601,-0.0074481298215687,-0.0332221984863281,0.0,0.0,-0.7862395644187927,0.8345489501953125
-0.0127426143735647,1.3300544023513794,-0.110843226313591,-0.3981740772724151,-0.0105549404397606,-0.0621421560645103,0.0,0.0,-0.5590755939483643,0.4084798097610473
-0.0138852121308445,1.3208798170089722,-0.1113339439034462,-0.4077762365341186,-0.0134566230699419,-0.0580387003719806,0.0,0.0,-0.3704309463500976,0.7946507930755615
-0.0149610517546534,1.3114864826202393,-0.1030717343091964,-0.4175297319889068,-0.0179150681942701,-0.0891769528388977,0.0,0.0,-0.3184956908226013,-0.3237090110778808
-0.0160401351749897,1.30187726020813,-0.103603184223175,-0.42713263630867,-0.022170228883624,-0.0851111933588981,0.0,0.0,-0.7948165535926819,0.4191782474517822
-0.0171226505190134,1.292052149772644,-0.104157269001007,-0.4367354810237884,-0.0262245498597621,-0.0810934454202652,0.0,0.0,0.1703283786773681,0.6167483329772949
-0.0180335994809865,1.282886981964111,-0.0861455202102661,-0.4074340164661407,-0.0311174429953098,-0.0978666990995407,0.0,0.0,-0.9577161073684692,-0.3540165424346924
-0.0189483650028705,1.273505926132202,-0.0867402255535125,-0.4170443415641784,-0.035811647772789,-0.0938921049237251,0.0,0.0,-0.9702295064926147,0.8194246292114258
-0.0197877883911132,1.2639145851135254,-0.0773696079850196,-0.4264582395553589,-0.0423064678907394,-0.1299084573984146,0.0,0.0,-0.5630030035972595,-0.2521231174468994
-0.0206314083188772,1.2541073560714722,-0.0779994502663612,-0.4360632300376892,-0.0486052855849266,-0.1259877681732177,0.0,0.0,-0.989355742931366,-0.7571268677711487
-0.021529484540224,1.2440952062606812,-0.0849123150110244,-0.4451469182968139,-0.0534484535455703,-0.0968721210956573,0.0,0.0,-0.9100608825683594,-0.2627038359642029
-0.0224323272705078,1.2338674068450928,-0.0855853930115699,-0.4547504782676697,-0.0581014864146709,-0.0930688828229904,0.0,0.0,-0.9217683672904968,-0.7579208612442017
-0.023387050256133,1.223433017730713,-0.0921686068177223,-0.4638788104057312,-0.0613771267235279,-0.0655190721154213,0.0,0.0,-0.8797979354858398,-0.6013794541358948
-0.0243937484920024,1.2127834558486938,-0.0987323373556137,-0.4733937084674835,-0.0632959753274917,-0.038380242884159,0.0,0.0,-0.7798041105270386,-0.2095298171043396
-0.0254059787839651,1.2019177675247192,-0.0994651913642883,-0.4829951822757721,-0.065032884478569,-0.0347410961985588,0.0,0.0,-0.8504793047904968,-0.133262038230896
-0.0264239311218261,1.1908358335494995,-0.1002142578363418,-0.4925968050956726,-0.0665905848145484,-0.031156787648797,0.0,0.0,-0.2844212055206299,-0.6088712215423584
-0.027506923303008,1.1795454025268557,-0.1084239333868026,-0.5017922520637512,-0.0664746239781379,0.002319567836821,0.0,0.0,-0.6975938677787781,-0.1989808082580566
-0.028597068041563,1.1680173873901367,-0.1093018427491188,-0.5123449563980103,-0.0661875307559967,0.0057418355718255,0.0,0.0,-0.2593736052513122,-0.2688418626785278
-0.0296935085207223,1.1562731266021729,-0.110097661614418,-0.5219439268112183,-0.0657332018017768,0.0090862726792693,0.0,0.0,-0.6432709097862244,0.6344985961914062
-0.0307567603886127,1.1443156003952026,-0.1059542149305343,-0.5314666032791138,-0.0661037415266037,-0.0074107111431658,0.0,0.0,-0.5638824701309204,-0.1668184399604797
-0.0318266861140728,1.1321418285369873,-0.1067736148834228,-0.541065514087677,-0.0663164928555488,-0.0042551085352897,0.0,0.0,-0.1836485266685485,-0.705490231513977
-0.032961081713438,1.1197551488876345,-0.1148486882448196,-0.5504621267318726,-0.0649239420890808,0.0278510488569736,0.0,0.0,-0.872937798500061,0.2686324119567871
-0.034102439880371,1.107152223587036,-0.115688107907772,-0.5600613951683044,-0.0633845999836921,0.0307866986840963,0.0,0.0,-0.9161945581436156,0.2888095378875732
-0.0352508537471294,1.094333291053772,-0.1165361627936363,-0.5696606040000916,-0.0617046058177948,0.0335999205708503,0.0,0.0,-0.7834407687187195,0.5223358869552612
-0.0363705642521381,1.081299901008606,-0.112904667854309,-0.5792264342308044,-0.0607866197824478,0.0183595810085535,0.0,0.0,-0.7382495999336243,-0.0980825424194336
-0.0374976173043251,1.0680503845214844,-0.1137671694159507,-0.5888256430625916,-0.0597415193915367,0.0209020711481571,0.0,0.0,-0.8583059310913086,-0.2483982443809509
-0.0386322028934955,1.0545847415924072,-0.1146354302763938,-0.5984249711036682,-0.0585766993463039,0.0232962556183338,0.0,0.0,-0.9881569743156432,0.6707485914230347
-0.0397195816040039,1.0409033298492432,-0.1086390390992164,-0.608069121837616,-0.0586743280291557,-0.0019527582917362,0.0,0.0,-0.9161542057991028,-0.6526551246643066
-0.0408686622977256,1.0270071029663086,-0.1162801012396812,-0.6175523400306702,-0.057313498109579,0.0272164493799209,0.0,0.0,-0.8354015350341797,0.2135888338088989
-0.0420255661010742,1.0128949880599976,-0.1171597018837928,-0.6271519064903259,-0.0558577664196491,0.0291148275136947,0.0,0.0,-0.965057373046875,-0.6333391070365906
-0.0432433113455772,0.9985784292221068,-0.1247041001915931,-0.6361899971961975,-0.0529719963669776,0.0577154569327831,0.0,0.0,-0.7487240433692932,0.1952013969421386
-0.0444692596793174,0.9840458631515504,-0.1255862116813659,-0.645790159702301,-0.0500097684562206,0.0592443831264972,0.0,0.0,-0.9283068776130676,0.8487718105316162
-0.0456478111445903,0.9693002700805664,-0.1195189505815506,-0.655303955078125,-0.048369076102972,0.0328137427568435,0.0,0.0,-0.8113246560096741,0.7799160480499268
-0.0467604622244834,0.9543315768241882,-0.1110841408371925,-0.6652829051017761,-0.0485419407486915,-0.0034572046715766,0.0,0.0,-0.8689731955528259,-0.3159106373786926
-0.0478813163936138,0.9391466975212096,-0.1119619756937027,-0.6748824715614319,-0.0486683510243892,-0.0025281617417931,0.0,0.0,-0.8944619297981262,-0.5453770756721497
-0.0490466132760047,0.9237474799156188,-0.1173568740487098,-0.6843850612640381,-0.0478527098894119,0.0163128282874822,0.0,0.0,-0.0710373520851135,0.2055010795593261
-0.0502203926444053,0.9081323146820068,-0.118226483464241,-0.693984866142273,-0.047011598944664,0.0168220549821853,0.0,0.0,-0.5461965799331665,-0.4384595155715942
-0.0514026656746864,0.8923011422157288,-0.1190903335809707,-0.7035846710205078,-0.0461556613445282,0.0171186439692974,0.0,0.0,-0.7155893445014954,-0.4898369312286377
-0.0525934211909771,0.8762539625167847,-0.1199472993612289,-0.7131844758987427,-0.0452955476939678,0.0172023400664329,0.0,0.0,-0.4888747930526733,0.1023471355438232
-0.0537926666438579,0.8599907755851746,-0.120796225965023,-0.7227843999862671,-0.0444418564438819,0.0170739833265543,0.0,0.0,-0.7739893794059753,-0.3420860767364502
-0.0550005920231342,0.8435115218162537,-0.1216359585523605,-0.7323843836784363,-0.0436050742864608,0.0167356170713901,0.0,0.0,-0.8357458710670471,0.1724402904510498
-0.0562170036137104,0.8268163204193115,-0.1224653348326683,-0.7419843077659607,-0.0427955500781536,0.0161902755498886,0.0,0.0,-0.5635581016540527,-0.493093729019165
-0.0574419982731342,0.8099051117897034,-0.1232831627130508,-0.7515843510627747,-0.0420234464108943,0.0154420863837003,0.0,0.0,-0.3546400666236877,-0.3086247444152832
-0.0586755760014057,0.7927780151367188,-0.124088242650032,-0.7611843943595886,-0.0412986353039741,0.0144960191100835,0.0,0.0,0.0741969347000122,0.1941444873809814
-0.0598346702754497,0.7758638262748718,-0.1169158965349197,-0.7517170310020447,-0.0403019562363624,0.019933495670557,0.0,0.0,0.0053462982177734,-0.0247290134429931
-0.0609806068241596,0.759460985660553,-0.1155491843819618,-0.7289882302284241,-0.0393625125288963,0.018788918852806,0.0,0.0,-0.7784085869789124,0.0399477481842041
-0.0621350295841693,0.7428421378135681,-0.1163085475564003,-0.7385883331298828,-0.0384981743991375,0.0172864645719528,0.0,0.0,-0.271739661693573,0.2917313575744629
-0.063297651708126,0.7260074615478516,-0.1170501336455345,-0.7481884360313416,-0.0377175286412239,0.0156128359958529,0.0,0.0,-0.3159908652305603,0.7817511558532715
-0.0643966645002365,0.7089600563049316,-0.1087863221764564,-0.7576949596405029,-0.0388257466256618,-0.0221641603857278,0.0,0.0,0.4851261377334595,-0.4383412599563598
-0.0653563514351844,0.6925980448722839,-0.0953176543116569,-0.727213978767395,-0.0394597426056861,-0.0126799866557121,0.0,0.0,-0.1095087528228759,-0.0154573321342468
-0.0663237571716308,0.6760202646255493,-0.0959978029131889,-0.7368142604827881,-0.0402007475495338,-0.0148201044648885,0.0,0.0,-0.1491841673851013,0.7014434337615967
-0.0672503486275672,0.6592296361923218,-0.0905588790774345,-0.7463055849075317,-0.0422738566994667,-0.0414621345698833,0.0,0.0,0.2202118635177612,0.3588905334472656
-0.0681351646780967,0.6426306962966919,-0.0864338353276252,-0.7377907037734985,-0.044292613863945,-0.0403753630816936,0.0,0.0,0.0959163904190063,-0.5399797558784485
-0.0691227912902832,0.6265236735343933,-0.0975520461797714,-0.7159067988395691,-0.0454922318458557,-0.0239925049245357,0.0,0.0,-0.2254112958908081,0.7597968578338623
-0.0700452774763107,0.6101938486099243,-0.0890537872910499,-0.7258681058883667,-0.0486465319991111,-0.0630858764052391,0.0,0.0,0.1829674243927002,-0.3060469627380371
-0.0709363967180252,0.594304621219635,-0.0858613774180412,-0.7062971591949463,-0.0518608167767524,-0.0642857179045677,0.0,0.0,0.0419870615005493,0.1781880855560302
-0.0718160644173622,0.5785779356956482,-0.0845995843410492,-0.699083149433136,-0.0551953986287117,-0.0666916444897651,0.0,0.0,-0.1610385775566101,-0.2532366514205932
-0.0727022141218185,0.5626355409622192,-0.0850866958498954,-0.708684504032135,-0.0586778335273265,-0.0696489140391349,0.0,0.0,0.2365230321884155,-0.0952693223953247
-0.0735406875610351,0.5474351644515991,-0.0802530720829963,-0.6757183074951172,-0.0622383244335651,-0.0712098032236099,0.0,0.0,-0.3892633318901062,-0.3569867610931396
-0.0743849724531173,0.5320190191268921,-0.0806716158986091,-0.6853200197219849,-0.0659552738070488,-0.0743390545248985,0.0,0.0,-0.4473042488098144,0.28632652759552
-0.0752346962690353,0.5163872838020325,-0.0810536295175552,-0.6949218511581421,-0.0698325559496879,-0.0775456801056861,0.0,0.0,0.8622924089431763,0.2958875894546509
-0.0761580467224121,0.5013494491577148,-0.0877590849995613,-0.668569028377533,-0.0743645280599594,-0.0906394273042678,0.0,0.0,0.4638742208480835,-0.1714308261871338
-0.077122688293457,0.4870025515556335,-0.0913378223776817,-0.6379006505012512,-0.0794402137398719,-0.1015137434005737,0.0,0.0,0.3411401510238647,-0.4451841711997986
-0.0780266746878624,0.4731927514076233,-0.0852179750800132,-0.614055871963501,-0.0845708400011062,-0.1026125997304916,0.0,0.0,-0.3766900300979614,-0.3790127038955688
-0.0789345726370811,0.4591674506664276,-0.0854392573237419,-0.6236591935157776,-0.0898748263716697,-0.1060796752572059,0.0,0.0,-0.3973399996757507,0.3854734897613525
-0.0798460990190506,0.444926768541336,-0.0856168419122695,-0.6332626342773438,-0.0953548848628997,-0.1096012219786644,0.0,0.0,0.7324388027191162,-0.3541593551635742
-0.0807568579912185,0.4310880899429321,-0.0851980671286583,-0.6154367327690125,-0.1011771485209465,-0.116445243358612,0.0,0.0,0.7444939613342285,0.0535351037979126
-0.0815640464425087,0.4175354838371277,-0.0750075057148933,-0.6027363538742065,-0.1068482622504234,-0.1134223937988281,0.0,0.0,0.9371845722198486,-0.1523585319519043
-0.0823678001761436,0.404367059469223,-0.0743120834231376,-0.5857080221176147,-0.1128740087151527,-0.1205149665474891,0.0,0.0,0.4904676675796509,0.1811307668685913
-0.0831002220511436,0.3920512795448303,-0.0669551640748977,-0.5478572249412537,-0.1191200241446495,-0.1249201893806457,0.0,0.0,-0.6662919521331787,-0.7661228179931641
-0.0838853865861892,0.3795371651649475,-0.0733854323625564,-0.5566019415855408,-0.1242241263389587,-0.1020818948745727,0.0,0.0,-0.6629871726036072,-0.9498893022537231
-0.0847589522600174,0.3668335676193237,-0.0843012258410453,-0.5648605227470398,-0.127263069152832,-0.0607792660593986,0.0,0.0,0.4427200555801391,-0.1419184207916259
-0.085708238184452,0.3543663024902344,-0.0911500006914138,-0.5544251799583435,-0.1310153901576995,-0.0750465020537376,0.0,0.0,0.251642107963562,0.6967569589614868
-0.0864897742867469,0.3425630331039428,-0.072849340736866,-0.5250683426856995,-0.1363008171319961,-0.1057086214423179,0.0,0.0,-0.176689326763153,-0.9715123772621156
-0.0873595252633094,0.3305625319480896,-0.0837507545948028,-0.5336553454399109,-0.1395121812820434,-0.064227320253849,0.0,0.0,0.5580248832702637,0.3036466836929321
-0.0881903618574142,0.3193067610263824,-0.0794204622507095,-0.5006018877029419,-0.1431578546762466,-0.0729137510061264,0.0,0.0,-0.7312828302383423,-0.754663348197937
-0.0890790969133377,0.3078522980213165,-0.0865768119692802,-0.5093087553977966,-0.1454593539237976,-0.0460297986865043,0.0,0.0,-0.835166335105896,0.1456612348556518
-0.0899657234549522,0.2961823940277099,-0.0861511677503585,-0.5189114212989807,-0.1479585021734237,-0.0499827191233634,0.0,0.0,0.2460204362869262,-0.6050338745117188
-0.0908397659659385,0.2846802473068237,-0.0859472975134849,,-0.1494144797325134,-0.0291197840124368,0.0,0.0,-0.7707754373550415,-0.4770717620849609
-0.0917104706168174,0.2729624211788177,-0.0854148566722869,-0.5209563374519348,-0.1510703265666961,-0.0331165455281734,0.0,0.0,-0.447351336479187,-0.7617738246917725
-0.0926223769783973,0.2610391676425934,-0.0904829651117324,-0.5299944281578064,-0.1517755687236786,-0.0141048831865191,0.0,0.0,0.5667681694030762,-0.0664728283882141
-0.0933426842093467,0.2494248449802398,-0.0717331022024154,-0.516219437122345,-0.1520710587501526,-0.0059099565260112,0.0,0.0,0.287682294845581,-0.8161529898643494
-0.0940374359488487,0.2384848743677139,-0.0706142634153366,-0.4861067831516266,-0.150938332080841,0.0226544626057147,0.0,0.0,-0.3217140436172485,-0.266141414642334
-0.0947269424796104,0.2273292392492294,-0.0698726698756218,-0.4957092404365539,-0.1500090211629867,0.0185862872749567,0.0,0.0,0.5570123195648193,-0.4878674149513244
-0.0952003449201583,0.2168641835451126,-0.0486218556761741,-0.4649862647056579,-0.1487410068511963,0.0253605991601943,0.0,0.0,0.2044289112091064,-0.7514863014221191
-0.0956092849373817,0.206523522734642,-0.0435439758002758,-0.4593250155448913,-0.1460906118154525,0.0530075803399086,0.0,0.0,0.3101716041564941,0.1425330638885498
-0.0959937125444412,0.1965755969285965,-0.0407030209898948,-0.4419070780277252,-0.1438385099172592,0.0450424477458,0.0,0.0,-0.0996524691581726,-0.6410639882087708
-0.0964132323861122,0.186429277062416,-0.045107077807188,-0.4506497979164123,-0.140686959028244,0.0630306452512741,0.0,0.0,0.0546299219131469,-0.1033980250358581
-0.096788689494133,0.1766100227832794,-0.0404320172965526,-0.4361394047737121,-0.1378108561038971,0.0575219094753265,0.0,0.0,0.1421922445297241,0.219738483428955
-0.0971655845642089,0.1674101203680038,-0.0399679914116859,-0.4086745381355285,-0.1355397850275039,0.0454213507473468,0.0,0.0,-0.467558741569519,-0.2768465280532837
-0.0975337997078895,0.1579946428537368,-0.0388951785862445,-0.4182771444320678,-0.1334761530160904,0.0412726216018199,0.0,0.0,-0.3559163212776184,0.8638371229171753
-0.0978306755423545,0.1483573466539383,-0.0299783442169427,-0.4282975196838379,-0.1331898272037506,0.0057271784171462,0.0,0.0,0.2920781373977661,-0.7311673760414124
-0.098169133067131,0.1394062787294387,-0.0352951064705848,-0.3976969122886657,-0.1317470669746399,0.028855001553893,0.0,0.0,-0.2685474157333374,-0.4018241167068481
-0.0984977707266807,0.1302395612001419,-0.0341001413762569,-0.4072991907596588,-0.1305126845836639,0.0246874932199716,0.0,0.0,0.63818359375,0.0654183626174926
-0.0988532081246376,0.1217667907476425,-0.036036878824234,-0.3765281140804291,-0.1300220638513565,0.0098124556243419,0.0,0.0,0.3264422416687011,-0.4402647018432617
-0.0992632880806922,0.1137271746993064,-0.0407327637076377,-0.3573381006717682,-0.1302990913391113,-0.0055404286831617,0.0,0.0,-0.185190200805664,-0.4559124708175659
-0.0996624007821083,0.1054720506072044,-0.0394293926656246,-0.3669402003288269,-0.1307849735021591,-0.0097176264971494,0.0,0.0,0.6753180027008057,0.5763955116271973
-0.0998905152082443,0.0975307077169418,-0.0211237873882055,-0.3530976176261902,-0.1324630379676818,-0.0335613712668418,0.0,0.0,0.7464194297790527,-0.8596969246864319
-0.0998990982770919,0.0905592516064643,-0.0009806345915421,-0.3098291158676147,-0.1323339492082595,0.0025816394481807,0.0,0.0,0.5118577480316162,-0.3730936050415039
-0.0998227149248123,0.084432229399681,0.00781159568578,-0.272327572107315,-0.1325106620788574,-0.003534221323207,0.0,0.0,0.2615998983383178,-0.6438534259796143
-0.0995778068900108,0.0790532901883125,0.0233852379024028,-0.2389661222696304,-0.1314072161912918,0.0220691636204719,0.0,0.0,-0.4448443055152893,-0.2101808190345764
-0.0993204116821289,0.0734587013721466,0.0248386077582836,-0.2485683411359787,-0.1305124014616012,0.0178964063525199,0.0,0.0,-0.3967132568359375,-0.1995906829833984
-0.0990502387285232,0.0676485374569892,0.0263176020234823,-0.2581705152988434,-0.129826009273529,0.0137277292087674,0.0,0.0,-0.2008938193321228,-0.1165187358856201
-0.0987672805786132,0.0616227239370346,0.0278208255767822,-0.2677726149559021,-0.1293478161096573,0.0095637664198875,0.0,0.0,0.5222593545913696,0.2869729995727539
-0.0983428955078125,0.0559952370822429,0.0418143831193447,-0.2500559091567993,-0.1287340968847274,0.0122747793793678,0.0,0.0,0.1896206140518188,-0.1324708461761474
-0.0979354828596115,0.0508313737809658,0.0407539494335651,-0.2295043915510177,-0.1287352740764618,-2.34685812756652e-05,0.0,0.0,0.3827396631240845,0.2138595581054687
-0.0975655540823936,0.046113546937704,0.0376990512013435,-0.2097461372613906,-0.129440501332283,-0.0141044501215219,0.0,0.0,0.3855595588684082,-0.165122389793396
-0.097138687968254,0.0418866723775863,0.0436831079423427,-0.1879460960626602,-0.1304358839988708,-0.0199069362133741,0.0,0.0,0.1221723556518554,-0.0099185109138488
-0.0966332405805587,0.0379796586930751,0.0516689606010913,-0.1737438887357711,-0.1315556317567825,-0.0223949644714593,0.0,0.0,-0.1136056780815124,-0.1842172145843505
-0.0961135849356651,0.0338569991290569,0.053290955722332,-0.183346077799797,-0.1328807175159454,-0.0265015177428722,0.0,0.0,0.3448634147644043,0.07638680934906
-0.095427319407463,0.0303305014967918,0.0698006302118301,-0.1568366736173629,-0.1340434402227401,-0.0232541617006063,0.0,0.0,0.4737485647201538,-0.3967229127883911
-0.0946082100272178,0.0276535842567682,0.0831833183765411,-0.1190898045897483,-0.1353066265583038,-0.025264048948884,0.0,0.0,-0.4261832237243652,-0.6839529275894165
