x_pos,y_pos,x_vel,y_vel,angle,ang_vel,leg_1,leg_2,main_booster,lat_booster
-0.00164794921875,1.4029219150543213,-0.1668941676616668,-0.3554761111736297,0.0018775085918605,0.0370444133877754,0.0,0.0,0.2380820506932497,-0.8804339195245601
-0.0034469603560864,1.3947585821151731,-0.1835844367742538,-0.3628249168395996,0.0055158934555947,0.0727755948901176,0.0,0.0,0.7511427515502258,0.7825808810963251
-0.0051584243774414,1.386530518531799,-0.1736449748277664,-0.3657008707523346,0.0079795802012085,0.0492782779037952,0.0,0.0,0.1380917042051037,0.7231522479364353
-0.0070366859436035,1.3781132698059082,-0.1887954771518707,-0.374104768037796,0.0089459624141454,0.0193293653428554,0.0,0.0,-0.4748791441967832,0.9448027067707656
-0.0089528085663914,1.368997573852539,-0.1903464049100875,-0.4051332175731659,0.0076952129602432,-0.0250172857195138,0.0,0.0,-0.6303428707454881,0.7640446340690408
-0.0109236715361475,1.3591792583465576,-0.1940135657787323,-0.4363581240177154,0.0046472591347992,-0.0609648898243904,0.0,0.0,0.9435674066831918,-0.6354058531752644
-0.0131053924560546,1.3496768474578855,-0.2163434475660324,-0.4223227798938751,0.0028423694893717,-0.0361011289060115,0.0,0.0,-0.2068873161486368,-0.992781883338556
-0.0154755590483546,1.3394744396209717,-0.236760213971138,-0.4534426033496856,0.0025864993222057,-0.0051178061403334,0.0,0.0,0.4869516589003422,-0.6303034915472695
-0.0180394165217876,1.3297057151794434,-0.2574341893196106,-0.4341621696949005,0.0036281212233006,0.0208344999700784,0.0,0.0,0.2013561413849458,-0.7528600561452088
-0.0207956321537494,1.3200311660766602,-0.2782727777957916,-0.4299936294555664,0.0062420661561191,0.052283626049757,0.0,0.0,0.775468065418816,0.9782514615594722
-0.0235061645507812,1.3106145858764648,-0.2719866335391998,-0.4185194075107574,0.0071665849536657,0.0184920839965343,0.0,0.0,-0.8915685015588652,0.7984901614507989
-0.0262775421142578,1.3004945516586304,-0.2763845026493072,-0.4497810900211334,0.0064164455980062,-0.0150040071457624,0.0,0.0,0.4983804726244494,-0.9476580181802522
-0.0291249267756938,1.2906289100646973,-0.2861348688602447,-0.4384795427322387,0.007795691024512,0.0275875329971313,0.0,0.0,0.3895412483225708,0.8281935890789536
-0.0319755561649799,1.280502438545227,-0.2849830090999603,-0.4500670731067657,0.0077192988246679,-0.0015281166415661,0.0,0.0,0.9754758259842132,-0.6701816632522639
-0.034837532788515,1.271160364151001,-0.2880635857582092,-0.4152141809463501,0.0095630763098597,0.0368789210915565,0.0,0.0,-0.8385187583831755,0.695989232703945
-0.0377667434513568,1.261108160018921,-0.2932468354701996,-0.4467616379261017,0.0098839569836854,0.0064182030037045,0.0,0.0,-0.5779284006120899,0.8008558182940128
-0.0407506003975868,1.250364065170288,-0.2968538701534271,-0.4775030016899109,0.0083670392632484,-0.0303410049527883,0.0,0.0,0.7176208050236319,-0.6403895181043372
-0.0437605865299701,1.2394976615905762,-0.3012661337852478,-0.4829511940479278,0.0086332950741052,0.005325449630618,0.0,0.0,-0.4258696477344477,-0.9497139560117308
-0.046965979039669,1.227936863899231,-0.3225357830524444,-0.5138288736343384,0.0105997482314705,0.0393327176570892,0.0,0.0,0.3952780865293106,-0.8898632028765523
-0.0504570007324218,1.2163877487182615,-0.3529146909713745,-0.5133248567581177,0.0143740298226475,0.0754923745989799,0.0,0.0,-0.3880313133840127,0.7005407983912205
-0.0540135391056537,1.2041425704956057,-0.3578986525535583,-0.5442492961883545,0.016586223617196,0.0442478843033313,0.0,0.0,-0.6271032003473649,-0.7667150335934684
-0.0577622428536415,1.191189527511597,-0.3787409961223602,-0.5757483839988708,0.0204203091561794,0.0766885131597518,0.0,0.0,0.4785103443688274,-0.6488103638075644
-0.0615776069462299,1.1782660484313965,-0.3871109187602997,-0.5744568109512329,0.0259335599839687,0.1102745682001113,0.0,0.0,0.5463877125293801,-0.9907298956683191
-0.0655369758605957,1.1650676727294922,-0.4037052690982818,-0.586751401424408,0.0336213335394859,0.1537690609693527,0.0,0.0,-0.7862932677534002,-0.8671223500620093
-0.0697138756513595,1.1511657238006592,-0.4277403354644775,-0.6181154847145081,0.0435694009065628,0.1989787817001342,0.0,0.0,0.5731088159485425,0.9093082184277722
-0.0741360634565353,1.1375449895858765,-0.4503827691078186,-0.6056219935417175,0.0516343526542186,0.1612988859415054,0.0,0.0,0.9240337015029628,0.7780128140262039
-0.0786680206656456,1.1244999170303345,-0.4599301815032959,-0.580028772354126,0.058291457593441,0.1331421285867691,0.0,0.0,-0.3895668131100729,0.6404096756971549
-0.0832927674055099,1.1107629537582395,-0.4683240950107574,-0.6107685565948486,0.0640785098075866,0.1157410144805908,0.0,0.0,0.9373429864338598,-0.6148737762456563
-0.0883195847272872,1.0976685285568235,-0.5094484090805054,-0.5822803974151611,0.0707735270261764,0.1339001357555389,0.0,0.0,-0.2016080890306815,0.8027922473782361
-0.0934168845415115,1.08387553691864,-0.5150587558746338,-0.613280177116394,0.0760524272918701,0.1055778414011001,0.0,0.0,-0.2309507841568896,-0.9550016619872448
-0.0987192168831825,1.069383144378662,-0.5375486612319946,-0.6444953083992004,0.0832946896553039,0.1448452025651931,0.0,0.0,-0.3523384408240577,-0.6243844246963202
-0.1042080894112587,1.0541787147521973,-0.5577511787414551,-0.6762741804122925,0.0920634344220161,0.1753749549388885,0.0,0.0,-0.4223187413175837,-0.6993418513479674
-0.1098912209272384,1.0382709503173828,-0.5788681507110596,-0.7076987028121948,0.1025325730443,0.2093829661607742,0.0,0.0,-0.2393505009416079,-0.8650394262883516
-0.1157798767089843,1.0216429233551023,-0.6014426350593567,-0.7399285435676575,0.1150263547897338,0.2498755902051925,0.0,0.0,0.3247368717558887,-0.9139125171788444
-0.1219137161970138,1.005056619644165,-0.627903401851654,-0.7383558750152588,0.1294642835855484,0.2887589335441589,0.0,0.0,-0.6532467128838464,0.778174226076364
-0.1281153708696365,0.9877883791923524,-0.6331539154052734,-0.7686559557914734,0.1424042284488678,0.2587988972663879,0.0,0.0,-0.1960155714475882,0.6206113845650277
-0.1343998908996582,0.9698265790939332,-0.6403381824493408,-0.7994771599769592,0.1542604863643646,0.2371255159378051,0.0,0.0,-0.1993050426507965,0.6755064018111419
-0.1407582312822342,0.9511825442314148,-0.6463416814804077,-0.8297548890113831,0.1647731363773346,0.2102527320384979,0.0,0.0,0.3618770364377368,-0.7613890798306022
-0.1474553048610687,0.9328500032424928,-0.6817643642425537,-0.8161597847938538,0.1768461167812347,0.2414595782756805,0.0,0.0,0.0311595088089429,-0.9006764389914246
-0.1543970108032226,0.9143654704093932,-0.7080717086791992,-0.8232507705688477,0.190806046128273,0.2791986465454101,0.0,0.0,-0.9775083255367916,-0.7319743839775313
-0.1615340262651443,0.8951681852340698,-0.7293702363967896,-0.8553048372268677,0.2065706700086593,0.3152925372123718,0.0,0.0,-0.4874731302261352,0.9827404022216796
-0.1687065064907074,0.8752979636192322,-0.7305749654769897,-0.8850387930870056,0.2200282216072082,0.2691514194011688,0.0,0.0,-0.3885860443115234,0.8393497467041016
-0.1759288758039474,0.854743480682373,-0.7336653470993042,-0.9152726531028748,0.2315956503152847,0.2313488721847534,0.0,0.0,0.1686238050460815,0.9330565929412842
-0.1832106560468673,0.8340860605239868,-0.7377884387969971,-0.9196523427963256,0.2413563579320907,0.1952140182256698,0.0,0.0,0.0490357875823974,0.9448997974395752
-0.1906176507472992,0.8130043148994446,-0.748478353023529,-0.9382612109184264,0.2492793053388595,0.1584589928388595,0.0,0.0,0.1471343040466308,0.937593936920166
-0.1980959922075271,0.79159015417099,-0.7538019418716431,-0.952764630317688,0.2553621232509613,0.1216563358902931,0.0,0.0,0.4901825189590454,0.9703125953674316
-0.2056632936000824,0.7701067328453064,-0.7608674764633179,-0.9555490016937256,0.2595781981945038,0.0843221545219421,0.0,0.0,0.6694302558898926,0.982774257659912
-0.2136195600032806,0.7491329908370972,-0.7976713180541992,-0.9325288534164428,0.261668711900711,0.0418097786605358,0.0,0.0,0.6406729221343994,0.938361883163452
-0.221972182393074,0.7285701036453247,-0.8352705240249634,-0.9139072895050048,0.2616794109344482,0.0002142151788575,0.0,0.0,0.433572769165039,0.9430215358734132
-0.2305066585540771,0.7079622745513916,-0.8515828847885132,-0.9155694246292114,0.2597752511501312,-0.0380835309624671,0.0,0.0,0.816455602645874,0.97316312789917
-0.2390766590833664,0.6876593232154846,-0.8534625172615051,-0.9017285704612732,0.2561626732349396,-0.0722513645887374,0.0,0.0,0.6622684001922607,0.8920166492462158
-0.2479473650455474,0.667737603187561,-0.8816485404968262,-0.8844740390777588,0.2506357729434967,-0.110537901520729,0.0,0.0,0.3746762275695801,0.8576445579528809
-0.2568593919277191,0.6477102637290955,-0.8841673731803894,-0.8889173269271851,0.2434667944908142,-0.1433794796466827,0.0,0.0,0.7188370227813721,-0.0643911361694336
-0.2660829424858093,0.6281902194023132,-0.9152844548225404,-0.8663988709449768,0.2362842708826065,-0.1436503231525421,0.0,0.0,0.5989465713500977,0.1817972660064697
-0.2753898203372955,0.6087071895599365,-0.9242253303527832,-0.864896833896637,0.2297298461198806,-0.1310884803533554,0.0,0.0,0.4766616821289062,-0.2498066425323486
-0.284987211227417,0.589107871055603,-0.9528285264968872,-0.8700197339057922,0.2227311134338379,-0.1399745643138885,0.0,0.0,0.8894872665405273,-0.9155628085136414
-0.294851541519165,0.5701634287834167,-0.9814783930778505,-0.8412368893623352,0.2177195698022842,-0.100230798125267,0.0,0.0,0.5467463731765747,-0.787138819694519
-0.3048811852931976,0.5514706373214722,-0.9997369647026062,-0.8303159475326538,0.214454174041748,-0.0653080493211746,0.0,0.0,0.5922658443450928,-0.928445279598236
-0.3151794970035553,0.5332499742507935,-1.0284563302993774,-0.8096075654029846,0.213069811463356,-0.0276872515678405,0.0,0.0,0.4419190883636474,-0.1185736060142517
-0.3257916569709778,0.5153109431266785,-1.0594513416290283,-0.7970362901687622,0.2112855911254882,-0.0356844440102577,0.0,0.0,0.2972613573074341,-0.6356697678565979
-0.3365713953971863,0.4970884323120117,-1.07745361328125,-0.8098168969154358,0.2107579112052917,-0.0105535350739955,0.0,0.0,-0.162174105644226,-0.7291154265403748
-0.3475169539451599,0.4781455993652344,-1.0956122875213623,-0.8420523405075073,0.2118234783411026,0.0213113091886043,0.0,0.0,0.0856120586395263,-0.5024569630622864
-0.3585825562477112,0.4590127468109131,-1.1086543798446655,-0.8506518006324768,0.2139426916837692,0.0423843190073967,0.0,0.0,0.0674628019332885,-0.4278795123100281
-0.3698121011257171,0.4397623538970947,-1.1249877214431765,-0.8558679819107056,0.2159946709871292,0.041039615869522,0.0,0.0,-0.3319504261016845,-0.6155473589897156
-0.3811801075935364,0.4197892546653747,-1.1398942470550537,-0.888149619102478,0.2191237211227417,0.0625813007354736,0.0,0.0,-0.3961597681045532,-0.7448564171791077
-0.3927069306373596,0.3990906774997711,-1.1574044227600098,-0.9206457138061525,0.2238996922969818,0.0955192968249321,0.0,0.0,-0.4050709009170532,-0.7531850337982178
-0.4043778479099273,0.3776788711547851,-1.1730762720108032,-0.9525554776191713,0.2299596220254898,0.1211985349655151,0.0,0.0,-0.4509450793266296,-0.8282490372657776
-0.4161861836910248,0.3555357456207275,-1.1880531311035156,-0.985286831855774,0.237285703420639,0.1465220004320144,0.0,0.0,-0.464269757270813,-0.8068238496780396
-0.4281361997127533,0.3326778411865234,-1.2035348415374756,-1.0173074007034302,0.2459634244441986,0.1735544800758361,0.0,0.0,-0.3155083656311035,-0.7690982222557068
-0.4402316212654114,0.3090889751911163,-1.21962308883667,-1.0501118898391724,0.2562332451343536,0.2053965777158737,0.0,0.0,-0.7297112941741943,-0.7998703718185425
-0.4524728655815124,0.2847740650177002,-1.2357800006866455,-1.0827432870864868,0.2681460082530975,0.2382553368806839,0.0,0.0,-0.0485435128211975,-0.5882509350776672
-0.4648284316062927,0.2597414255142212,-1.2480478286743164,-1.1149057149887085,0.2809587121009826,0.2562538981437683,0.0,0.0,-0.618864119052887,-0.4033735990524292
-0.4772523045539856,0.2340073734521865,-1.2545993328094482,-1.1461373567581177,0.2935304641723633,0.2514353394508362,0.0,0.0,-0.4922783374786377,-0.2767696976661682
-0.4897409975528717,0.207571730017662,-1.260793924331665,-1.1773678064346311,0.3058502376079559,0.2463953047990799,0.0,1.0,-0.5949609875679016,0.9998332262039183
-0.5001590847969055,0.1847232431173324,-1.0366145372390747,-1.0148316621780396,0.3111143112182617,0.1184454932808876,0.0,1.0,0.8034121990203857,0.9999306201934814
-0.5110012292861938,0.1621652245521545,-1.0668253898620603,-0.9991014003753662,0.2941239774227142,-0.3386320471763611,0.0,0.0,0.8428523540496826,-0.8160348534584045
-0.5174006819725037,0.1578653156757354,-0.4422969818115234,-0.0960783958435058,0.1574543863534927,-2.869179964065552,0.0,1.0,0.8428523540496826,-0.8160348534584045
