x_pos,y_pos,x_vel,y_vel,angle,ang_vel,leg_1,leg_2,main_booster,lat_booster
-0.0015603065257892,1.4030736684799194,-0.1578344106674194,-0.3487290143966675,0.0016113539459183,0.031774628907442,0.0,0.0,-0.2798451916448352,-0.4904370136126881
-0.0031629563309252,1.3946995735168457,-0.1616632789373397,-0.3721799254417419,0.0029927946161478,0.0276321619749069,0.0,0.0,0.794966820715101,-0.8686976766327843
-0.0047223092988133,1.3864269256591797,-0.1591920554637909,-0.3676867187023163,0.0062163928523659,0.0644781664013862,0.0,0.0,-0.2039228207320444,0.6885901871600514
-0.0062904357910156,1.3776013851165771,-0.1587725728750229,-0.392251968383789,0.0081497738137841,0.0386708155274391,0.0,0.0,-0.666233237191989,0.8667141561815526
-0.0078330989927053,1.3682290315628052,-0.1539091169834137,-0.4165509343147278,0.0078046121634542,-0.0069040255621075,0.0,0.0,0.2021445515713127,0.2186752931748378
-0.0093406680971384,1.3588998317718506,-0.1506889164447784,-0.4146352410316467,0.0077371522784233,-0.0013492363505065,0.0,0.0,-0.7015242559534134,0.0324090740034564
-0.0109146116301417,1.3490196466445925,-0.1571201533079147,-0.4391186535358429,0.0074665341526269,-0.0054128454066812,0.0,0.0,0.6349704237543714,0.2953036956213746
-0.0124160768464207,1.3395507335662842,-0.1503890305757522,-0.4208423197269439,0.0076967114582657,0.0046039000153541,0.0,0.0,0.4873997112778798,0.9726461857639808
-0.0139343263581395,1.330672025680542,-0.1498800963163375,-0.3945916891098022,0.0057810065336525,-0.0383175238966941,0.0,0.0,-0.5004095955149879,-0.4231693167863293
-0.0155314449220895,1.3212426900863647,-0.1575639098882675,-0.419075459241867,0.0036603717599064,-0.0424167737364769,0.0,0.0,-0.2477092460917436,0.0558367602388663
-0.0172113422304391,1.311262845993042,-0.1656313240528106,-0.4435503780841827,0.001332402927801,-0.0465639717876911,0.0,0.0,-0.7918856511721712,-0.8098339924311472
-0.0190340038388967,1.3007304668426514,-0.1811312437057495,-0.4681100845336914,0.0002138880518032,-0.0223726294934749,0.0,0.0,0.9353390573352174,-0.0037516456236618
-0.020794104784727,1.290876388549805,-0.1753928363323211,-0.4379609227180481,-0.0003918699512723,-0.0121162924915552,0.0,0.0,-0.3198023905602651,-0.3457039427610767
-0.0226473808288574,1.2804713249206543,-0.1845026910305023,-0.4624496400356293,-0.0012061797315254,-0.0162879042327404,0.0,0.0,0.0547097782019976,-0.2145057390329872
-0.0245062820613384,1.270304799079895,-0.1852783262729644,-0.451844722032547,-0.00180424307473,-0.0119624063372612,0.0,0.0,0.0860681233605356,-0.3627116129207527
-0.0263917930424213,1.259880304336548,-0.1880882978439331,-0.4633105993270874,-0.0022719171829521,-0.0093543101102113,0.0,0.0,-0.4124667216719075,0.2273133760919897
-0.0283793453127145,1.248905062675476,-0.1980719566345214,-0.487788587808609,-0.0029477085918188,-0.0135169029235839,0.0,0.0,-0.6551299763863905,-0.6064852900358533
-0.0305079463869333,1.2373740673065186,-0.2128999680280685,-0.5124862790107727,-0.0029116857331246,0.0007206707377918,0.0,0.0,-0.4743803914754219,0.1757291971285821
-0.0327435508370399,1.225292444229126,-0.2233820408582687,-0.5369651317596436,-0.0030832942575216,-0.0034325984306633,0.0,0.0,0.4747670482246993,-0.5112977462956813
-0.0352044105529785,1.2134180068969729,-0.2465361058712005,-0.5277482271194458,-0.0026466781273484,0.0087336022406816,0.0,0.0,-0.1936841395415047,-0.6374205897553616
-0.03781633451581,0.0,-0.262433111667633,-0.5520171523094177,-0.0014182901941239,0.0245701670646667,0.0,0.0,0.3709851512430628,-0.6760834720793133
-0.0405835136771202,1.1885735988616943,-0.2791420817375183,-0.5521799921989441,0.0009665316320024,0.047700922936201,0.0,0.0,0.6548398743708013,0.9724936205469158
-0.043242834508419,1.1764156818389893,-0.2663733661174774,-0.540350079536438,0.001401454443112,0.0086993398144841,0.0,0.0,-0.5425188245665644,0.0752566803351636
-0.0460188873112201,1.16370689868927,-0.2778339385986328,-0.5648333430290222,0.0016331868246197,0.004635093268007,0.0,0.0,-0.2220506790776673,-0.0250728513974483
-0.0489130020141601,1.1504473686218262,-0.2894506752490997,-0.5893105864524841,0.0016616644570603,0.0005696113803423,0.0,0.0,0.4048734327534273,-0.2451227598272345
-0.0520518310368061,1.1375133991241455,-0.3131201565265655,-0.5748423337936401,0.0009146701777353,-0.0149398948997259,0.0,0.0,-0.1477124331669532,-0.2232062454490635
-0.0553115829825401,1.1240286827087402,-0.3250156044960022,-0.5993192791938782,-3.450298390816897e-05,-0.0189835131168365,0.0,0.0,-0.4179005505540791,0.966581329055778
-0.0586337074637413,1.1100032329559326,-0.3295201957225799,-0.623350203037262,-0.0026909322477877,-0.0531286895275116,0.0,0.0,-0.5950297029453733,-0.0635176569896455
-0.0620792396366596,1.0954272747039795,-0.3416553139686584,-0.647827684879303,-0.0055495644919574,-0.057172805070877,0.0,0.0,-0.7581429093234331,-0.9069950265526396
-0.0657234191894531,1.0802979469299316,-0.3632177710533142,-0.6724226474761963,-0.0067440248094499,-0.0238891746848821,0.0,0.0,0.6034913748993733,-0.0447752638013926
-0.0694694519042968,1.0658502578735352,-0.373270034790039,-0.6421283483505249,-0.0080567011609673,-0.02625348046422,0.0,0.0,-0.738386869430542,0.9499220848083496
-0.0732764229178428,1.0508453845977783,-0.3774898648262024,-0.6668959856033325,-0.0112166982144117,-0.0631999596953392,0.0,0.0,-0.968373715877533,0.9289038181304932
-0.0771470069885253,1.0352981090545654,-0.3820388913154602,-0.6910455822944641,-0.0161724854260683,-0.0991160720586776,0.0,0.0,-0.9835606217384338,0.8921902179718018
-0.0810824409127235,1.019190788269043,-0.3867186605930328,-0.7159702777862549,-0.0229173805564641,-0.1348975002765655,0.0,0.0,-0.938232719898224,0.9665491580963136
-0.0850681290030479,1.002532958984375,-0.3895239233970642,-0.7405123114585876,-0.0318384021520614,-0.1784205436706543,0.0,0.0,-0.9238773584365844,0.9640142917633056
-0.0891042724251747,0.9853293299674988,-0.3923802673816681,-0.7648847103118896,-0.0429360568523407,-0.2219530642032623,0.0,0.0,-0.9616685509681702,0.9564001560211182
-0.0931981056928634,0.9675673842430116,-0.3961082398891449,-0.7898498773574829,-0.0560562685132026,-0.2624042928218841,0.0,0.0,-0.9616819620132446,0.965612530708313
-0.0973408669233322,0.9492580890655518,-0.3987466394901275,-0.8143928647041321,-0.0714201033115387,-0.3072768449783325,0.0,0.0,-0.3953545093536377,0.9437508583068848
-0.1015443801879882,0.9304048418998718,-0.4028564095497131,-0.8388423919677734,-0.0887394621968269,-0.3463876247406006,0.0,0.0,0.842613935470581,0.940967321395874
-0.105709932744503,0.9120053052902222,-0.3970466256141662,-0.8190291523933411,-0.1080773919820785,-0.3867589235305786,0.0,0.0,0.8131012916564941,0.8214244842529297
-0.109977439045906,0.8943520784378052,-0.4051975607872009,-0.786279559135437,-0.1295043379068374,-0.4285388886928558,0.0,0.0,0.5105855464935303,0.8655455112457275
-0.1141213402152061,0.8768274188041687,-0.391124814748764,-0.7810583114624023,-0.1526948362588882,-0.4638100266456604,0.0,0.0,0.936427354812622,0.8954050540924072
-0.1181483268737793,0.8592504858970642,-0.3777660727500915,-0.7839449048042297,-0.1776459515094757,-0.4990227818489074,0.0,0.0,0.9381365776062012,-0.0560293197631835
-0.1220830902457237,0.8420161008834839,-0.3689828515052795,-0.7690926790237427,-0.2022598385810852,-0.4922776222229004,0.0,0.0,0.874457836151123,-0.3306284546852112
-0.1261279135942459,0.8247444033622742,-0.3797110915184021,-0.7712135314941406,-0.2272888422012329,-0.5005801916122437,0.0,0.0,0.9090359210968018,-0.7855523228645325
-0.1302235573530197,0.8074881434440613,-0.3863861262798309,-0.7706912159919739,-0.2508184611797333,-0.4705923497676849,0.0,0.0,0.8082637786865234,-0.2210700511932373
-0.1342654228210449,0.790374755859375,-0.3812687993049621,-0.7646828889846802,-0.2742418050765991,-0.4684669971466064,0.0,0.0,0.8985285758972168,-0.7719191908836365
-0.1383728086948394,0.7741913795471191,-0.3889914155006408,-0.7235009670257568,-0.296600878238678,-0.4471819996833801,0.0,0.0,0.6974990367889404,-0.6470878720283508
-0.1425649672746658,0.7587182521820068,-0.3983702063560486,-0.6920919418334961,-0.3181824088096618,-0.4316307008266449,0.0,0.0,0.1409569978713989,-0.5133234262466431
-0.1468341797590255,0.7432264089584351,-0.4069975316524505,-0.6930406093597412,-0.3389529883861542,-0.4154116511344909,0.0,0.0,0.4153345823287964,-0.4958335161209106
-0.1509580612182617,0.727820634841919,-0.3929478824138641,-0.6893962621688843,-0.3593593835830688,-0.4081285893917084,0.0,0.0,0.6285315752029419,-0.8121601343154907
-0.1550770699977874,0.7129616141319275,-0.3939012289047241,-0.6650264859199524,-0.3783991932868957,-0.3807964622974396,0.0,0.0,0.0980329513549804,-0.6188370585441589
-0.1591907441616058,0.6979474425315857,-0.3945991396903991,-0.6718421578407288,-0.3962686955928802,-0.3573907315731048,0.0,0.0,0.5199620723724365,-0.3838036656379699
-0.1631519347429275,0.6834012866020203,-0.37930828332901,-0.6512895226478577,-0.4143300652503967,-0.3612270057201385,0.0,0.0,0.9012241363525392,-0.941987693309784
-0.1669159829616546,0.6690062880516052,-0.3616078495979309,-0.6441982984542847,-0.430338591337204,-0.3201702833175659,0.0,0.0,0.8006730079650879,-0.8566849827766418
-0.1707661598920822,0.6548751592636108,-0.3715838491916656,-0.6322358250617981,-0.4449752569198608,-0.2927339673042297,0.0,0.0,0.965402603149414,-0.8594352602958679
-0.174290269613266,0.6414517760276794,-0.3407410979270935,-0.6003574728965759,-0.457776814699173,-0.2560313045978546,0.0,0.0,0.8891210556030273,-0.8625490665435791
-0.1775118857622146,0.6284512877464294,-0.3123008608818054,-0.5810803771018982,-0.4686593115329742,-0.2176496684551239,0.0,0.0,0.9383265972137452,-0.7501681447029114
-0.1803970336914062,0.616177499294281,-0.2801180183887481,-0.5483633875846863,-0.4779541194438934,-0.185896560549736,0.0,0.0,0.9465516805648804,-0.7567311525344849
-0.1831274926662445,0.6047018766403198,-0.2657561302185058,-0.5125680565834045,-0.486070305109024,-0.1623240113258361,0.0,0.0,0.8059127330780029,-0.9119002223014832
-0.1858141869306564,0.5932137966156006,-0.2630130648612976,-0.5125871300697327,-0.4923902750015259,-0.1264002174139022,0.0,0.0,0.9185340404510498,-0.8534890413284302
-0.1884200125932693,0.5823948979377747,-0.2561671137809753,-0.4824328422546386,-0.4973507821559906,-0.0992099791765213,0.0,0.0,0.8499050140380859,-0.9061388969421388
-0.1908128708600998,0.5717293620109558,-0.2366097420454025,-0.4749957323074341,-0.5003613829612732,-0.0602118149399757,0.0,0.0,0.7415817975997925,-0.8391408920288086
-0.193063348531723,0.5613933801651001,-0.2238087952136993,-0.4598314464092254,-0.5017583966255188,-0.0279398020356893,0.0,0.0,0.9689896106719972,-0.8117129802703857
-0.1952672898769378,0.5511693358421326,-0.2204983234405517,-0.4543589055538177,-0.5016341209411621,0.00248603685759,0.0,0.0,0.923875093460083,-0.8082904815673828
-0.1974675208330154,0.541460394859314,-0.2211893796920776,-0.4310862123966217,-0.5003219842910767,0.0262431409209966,0.0,0.0,0.9378976821899414,-0.5128499269485474
-0.199330136179924,0.5325379967689514,-0.1882953941822052,-0.3958142399787903,-0.4980421960353851,0.0455965623259544,0.0,0.0,0.959031105041504,-0.4786632061004638
-0.2010757029056549,0.5234534740447998,-0.1768072247505188,-0.4029447436332702,-0.4955120682716369,0.0506025962531566,0.0,0.0,0.9119791984558104,-0.6416106224060059
-0.2024973928928375,0.5151414275169373,-0.1455432176589965,-0.3682122230529785,-0.4917330741882324,0.0755797177553176,0.0,0.0,0.9649347066879272,-0.5131697058677673
-0.2039271295070648,0.5071346163749695,-0.1468258649110794,-0.3544861376285553,-0.4874226152896881,0.0862098410725593,0.0,0.0,0.9524586200714112,-0.3822646141052246
-0.2052112519741058,0.4997153580188751,-0.1316514313220977,-0.3286087214946747,-0.4838092625141144,0.0722671225666999,0.0,0.0,0.9797735214233398,-0.804250955581665
-0.2063011676073074,0.4927542209625244,-0.113660380244255,-0.3077596426010132,-0.4786120951175689,0.1039434671401977,0.0,0.0,0.7804079055786133,-0.4535707831382751
-0.2072279453277588,0.486551433801651,-0.0966002643108367,-0.2743282616138458,-0.474248319864273,0.0872751921415329,0.0,0.0,0.9815435409545898,-0.3823481798171997
-0.2078923285007476,0.4806631803512573,-0.0705753862857818,-0.2602936327457428,-0.4696660339832306,0.0916455537080764,0.0,0.0,0.9461581707000732,-0.7448736429214478
-0.2085723429918289,0.4749054312705993,-0.0732920914888382,-0.254121333360672,-0.4638137519359588,0.1170457750558853,0.0,0.0,0.9811198711395264,-0.2986538410186767
-0.2091365754604339,0.4690666496753692,-0.0619073398411273,-0.2576850354671478,-0.4577683210372925,0.1209085136651992,0.0,0.0,0.8857450485229492,-0.8253582119941711
-0.2097564190626144,0.4632617235183716,-0.068818874657154,-0.2557738721370697,-0.450266033411026,0.1500453948974609,0.0,0.0,0.9175169467926024,-0.6248787641525269
-0.2101578265428543,0.4581948518753052,-0.0480080619454383,-0.2226833999156952,-0.441655695438385,0.1722069829702377,0.0,0.0,0.8438208103179932,-0.887370228767395
-0.2102710306644439,0.4538032412528991,-0.0209217499941587,-0.1921922266483307,-0.4311903119087219,0.2093070745468139,0.0,0.0,0.1792519092559814,-0.7594927549362183
-0.2104041576385498,0.449759691953659,-0.0242068450897932,-0.176419511437416,-0.4193810820579529,0.2361838072538375,0.0,0.0,0.6063410043716431,-0.744436502456665
-0.2107163369655609,0.4457224905490875,-0.0432090237736702,-0.1759205907583236,-0.4064533114433288,0.2585557103157043,0.0,0.0,-0.009920597076416,0.0568737983703613
-0.2111561298370361,0.441137433052063,-0.0558879002928733,-0.2004155963659286,-0.3936874866485595,0.2553171217441559,0.0,0.0,0.7505156993865967,-0.6363725662231445
-0.2116418331861496,0.4369446039199829,-0.0613732859492301,-0.182864099740982,-0.3800394237041473,0.2729614973068237,0.0,0.0,0.1543667316436767,-0.444638729095459
-0.2121134251356125,0.4328850209712982,-0.0597139485180377,-0.1771370768547058,-0.3667202293872833,0.266383409500122,0.0,0.0,0.4303374290466308,-0.6636594533920288
-0.2125513106584549,0.4291628897190094,-0.0575539954006671,-0.1619722694158554,-0.3521992266178131,0.2904200553894043,0.0,0.0,0.2105940580368042,-0.5894498229026794
-0.2129431217908859,0.4254812598228454,-0.0541597791016101,-0.1600378304719925,-0.3364885449409485,0.314213752746582,0.0,0.0,0.2844552993774414,-0.1702849864959716
-0.2133523523807525,0.4216203093528747,-0.0559364482760429,-0.1681779325008392,-0.3208259642124176,0.3132518231868744,0.0,0.0,0.2081282138824463,0.0822176933288574
-0.2137258052825927,0.4175992906093597,-0.05261692404747,-0.1754096001386642,-0.3049758374691009,0.3170025646686554,0.0,0.0,-0.3963390588760376,0.366464614868164
-0.2142193764448166,0.4130312204360962,-0.0645882934331893,-0.199909433722496,-0.2892443239688873,0.3146301805973053,0.0,0.0,-0.0789719820022583,0.5683592557907104
-0.2147796154022216,0.4078879058361053,-0.0698334574699401,-0.2259168624877929,-0.2750495076179504,0.2838965654373169,0.0,0.0,-0.286312460899353,0.1798338890075683
-0.2154570072889328,0.4021967649459839,-0.0815031230449676,-0.2504122257232666,-0.2609565258026123,0.2818588018417358,0.0,0.0,-0.2533551454544067,0.1980233192443847
-0.216249793767929,0.3959577977657318,-0.0930017679929733,-0.2749070823192596,-0.2469563782215118,0.2800028920173645,0.0,0.0,0.0763609409332275,0.5922799110412598
-0.2169160395860672,0.3897545933723449,-0.0792685970664024,-0.2736294865608215,-0.2341061532497406,0.2570046186447143,0.0,0.0,0.3792376518249511,0.5372875928878784
-0.2175013571977615,0.3833484053611755,-0.0702734738588333,-0.2828981578350067,-0.2222093343734741,0.2379362881183624,0.0,0.0,-0.2544211745262146,0.4951438903808594
-0.2181958705186844,0.3763935565948486,-0.0811588913202285,-0.3073877096176147,-0.2103749811649322,0.2366873919963836,0.0,0.0,0.435394287109375,0.7359522581100464
-0.2187025099992752,0.3699540197849273,-0.0610173344612121,-0.2847598493099212,-0.1999339610338211,0.2088205367326736,0.0,0.0,-0.2408879399299621,0.7672340869903564
-0.2192560732364654,0.3629475235939026,-0.0642225593328476,-0.3102278709411621,-0.1910150051116943,0.1783789992332458,0.0,0.0,0.0972075462341308,0.9701632261276244
-0.2198307067155838,0.3561842143535614,-0.064403049647808,-0.2997156977653503,-0.1840456277132034,0.1393874436616897,0.0,0.0,0.7130788564682007,0.7450906038284302
-0.2202154695987701,0.349898099899292,-0.0441163554787635,-0.2786910831928253,-0.1783832013607025,0.1132485046982765,0.0,0.0,0.0058761835098266,0.842626690864563
-0.2205853015184402,0.343734472990036,-0.0409452356398105,-0.2734688222408294,-0.1744106262922287,0.0794515907764434,0.0,0.0,0.5167852640151978,0.131725788116455
-0.2210014313459396,0.3380555510520935,-0.0452376939356327,-0.251974880695343,-0.1707802563905716,0.0726069584488868,0.0,0.0,0.6766164302825928,0.3617410659790039
-0.2214434146881103,0.332579493522644,-0.0477259829640388,-0.2429800331592559,-0.1672449558973312,0.0707064494490623,0.0,0.0,-0.0278940200805664,0.1307344436645507
-0.2219679355621338,0.3265527486801147,-0.0560182929039001,-0.2674574255943298,-0.1636752188205719,0.0713948607444763,0.0,0.0,0.7571351528167725,0.7202003002166748
-0.2225956469774246,0.320826768875122,-0.0645617917180061,-0.2542921602725982,-0.1618815213441848,0.0358738526701927,0.0,0.0,0.3025990724563598,0.8826613426208496
-0.223041146993637,0.3153538405895233,-0.0447164662182331,-0.2432243674993515,-0.1617173850536346,0.0032828138209879,0.0,0.0,0.8308694362640381,-0.3115936517715454
-0.2234217226505279,0.3099188804626465,-0.0386062487959861,-0.2414920926094055,-0.1611672639846801,0.0110023496672511,0.0,0.0,0.5736045837402344,0.2719807624816894
-0.223611831665039,0.304975688457489,-0.0202823467552661,-0.2195608019828796,-0.1598948389291763,0.0254483632743358,0.0,0.0,-0.1047558784484863,-0.1306163072586059
-0.2238587439060211,0.2994815111160278,-0.0260572172701358,-0.244036465883255,-0.1585277467966079,0.0273416545242071,0.0,0.0,0.8987644910812378,0.2708210945129394
-0.2238394320011139,0.2948523163795471,-0.0003012638189829,-0.2055075019598007,-0.1562967449426651,0.0446201339364051,0.0,0.0,0.0115251541137695,-0.2180193066596985
-0.2237632274627685,0.290187120437622,0.005052919499576,-0.2070757895708084,-0.1537339836359024,0.0512551069259643,0.0,0.0,0.0904971361160278,0.0389010906219482
-0.2236472070217132,0.2857709228992462,0.008930311538279,-0.1960013210773468,-0.1510679274797439,0.0533211641013622,0.0,0.0,0.7466508150100708,0.3189758062362671
-0.2233738005161285,0.2820240557193756,0.0242405347526073,-0.1662143915891647,-0.1479709893465042,0.0619386956095695,0.0,0.0,0.0650637149810791,-0.3787919282913208
-0.2230298072099685,0.2781533896923065,0.0309100486338138,-0.1716879904270172,-0.1444913297891616,0.0695932582020759,0.0,0.0,0.0477385520935058,-0.2105118036270141
-0.2227235287427902,0.2743306159973144,0.0273510012775659,-0.1695858687162399,-0.1412204056978225,0.0654183700680732,0.0,0.0,0.2976876497268677,-0.1541000008583068
-0.2224703729152679,0.2705787420272827,0.022346219047904,-0.166473388671875,-0.1382589936256408,0.0592283830046653,0.0,0.0,0.3762574195861816,-0.473849892616272
-0.2221732139587402,0.266977310180664,0.0266581568866968,-0.1597846150398254,-0.1352175921201706,0.0608279183506965,0.0,0.0,0.1699522733688354,-0.7627798914909363
-0.2218600809574127,0.2633930146694183,0.0265437699854373,-0.15887451171875,-0.130465030670166,0.0950510799884796,0.0,0.0,-0.2997593879699707,-0.2781041264533996
-0.2215354889631271,0.2592580318450928,0.0275101661682128,-0.1833513379096985,-0.1255392283201217,0.0985159426927566,0.0,0.0,-0.7188934087753296,-0.3255021572113037
-0.2211923152208328,0.2545723915100097,0.0291876830160617,-0.2078282982110977,-0.1204359754920005,0.1020651087164878,0.0,0.0,-0.3920583724975586,0.7325468063354492
-0.2207629680633545,0.2493321448564529,0.0391455143690109,-0.2326019704341888,-0.1166717633605003,0.0752841979265213,0.0,0.0,-0.4052416682243347,0.5432537794113159
