x_pos,y_pos,x_vel,y_vel,angle,ang_vel,leg_1,leg_2,main_booster,lat_booster
-0.001524829887785,1.4033856391906738,-0.1544966548681259,-0.3348609805107116,0.0018042129231616,0.0355927124619483,0.0,0.0,-0.7553724196263314,-0.2003097815605563
-0.0030510902870446,1.395635724067688,-0.1544258743524551,-0.344444066286087,0.0035866575781255,0.0356531590223312,0.0,0.0,-0.0713924977261928,-0.7682942052358359
-0.0046257018111646,1.3876409530639648,-0.1604732722043991,-0.3553404808044433,0.0065683098509907,0.0596386790275573,0.0,0.0,0.1739586693180546,-0.9711740004952644
-0.0063800811767578,1.3799350261688232,-0.1803811341524124,-0.3425135612487793,0.0114522436633706,0.0976876467466354,0.0,0.0,0.2685337737626838,0.1861126805107195
-0.0080428123474121,1.3727433681488037,-0.1716859638690948,-0.3196804821491241,0.016810892149806,0.1071829795837402,0.0,0.0,0.2762323550561025,0.6986770200856799
-0.0095407487824559,1.365945816040039,-0.1539952158927917,-0.3021685183048248,0.0209727250039577,0.0832441076636314,0.0,0.0,0.7131274191650212,-0.2535735870934247
-0.0110763553529977,1.3598068952560425,-0.1576310694217682,-0.2729024887084961,0.0250095874071121,0.0807447060942649,0.0,0.0,0.3596904881458795,-0.6344169222966729
-0.0125415800139307,1.354232907295227,-0.1521275639533996,-0.2478349655866623,0.0305565763264894,0.1109497174620628,0.0,0.0,-0.3698973695637808,0.7781576180624652
-0.0139487264677882,1.3484315872192385,-0.1447706818580627,-0.2579217851161957,0.034562561661005,0.0801272243261337,0.0,0.0,-0.513288195287497,0.9120450731293734
-0.0152861597016453,1.342401146888733,-0.135938823223114,-0.2680704891681671,0.036728773266077,0.0433281771838665,0.0,0.0,0.2028205335594071,0.1386836286695495
-0.0165786743164062,1.3367842435836792,-0.1317003667354583,-0.2497015446424484,0.0391513630747795,0.0484564006328582,0.0,0.0,0.3029526548399261,0.7861508009200737
-0.0177644733339548,1.3315587043762207,-0.1194863766431808,-0.2322726249694824,0.0400477461516857,0.0179296284914016,0.0,0.0,-0.420037822438837,-0.4382216266243551
-0.0189521797001361,1.3260942697525024,-0.1196266412734985,-0.2428859025239944,0.0408904291689395,0.0168551690876483,0.0,0.0,0.552033361117036,-0.5164360314774613
-0.020126724615693,1.3208880424499512,-0.1194646507501602,-0.2314394414424896,0.0428864583373069,0.0399242416024208,0.0,0.0,0.2279187872148298,-0.95525550945738
-0.0212828628718853,1.31637442111969,-0.1195194348692894,-0.2007272392511367,0.0467599928379058,0.077477715909481,0.0,0.0,-0.5798571923125497,0.1305899338805379
-0.0224411003291606,1.3116217851638794,-0.1196668893098831,-0.2113448232412338,0.0505607463419437,0.0760216042399406,0.0,0.0,0.214971250865958,0.7151127829839242
-0.0234631542116403,1.3075945377349854,-0.1046887189149856,-0.1790793389081955,0.0530143976211547,0.0490773394703865,0.0,0.0,0.1848837866387587,-0.6105692371696891
-0.0244362838566303,1.303730845451355,-0.101129375398159,-0.1718584150075912,0.0567926354706287,0.0755717605352401,0.0,0.0,-0.571771881721598,0.6264671807404081
-0.0253545753657817,1.2996392250061035,-0.0941009446978569,-0.1819348931312561,0.0590365789830684,0.0448830127716064,0.0,0.0,-0.4332878971281719,-0.1287757030560586
-0.0262752529233694,0.0,-0.0942410752177238,-0.1925445944070816,0.061190903186798,0.0430904254317283,0.0,0.0,-0.900242615191557,0.5442913070062538
-0.0271464344114065,1.2907484769821167,-0.0878698900341987,-0.202712744474411,0.0619380921125412,0.0149453477934002,0.0,0.0,-0.8666455746936075,-0.8797019031380993
-0.0280877109616994,1.2859381437301636,-0.0965227857232093,-0.2138975411653518,0.0643044933676719,0.0473322868347168,0.0,0.0,0.0278591657859608,0.1518899572097442
-0.0289726257324218,1.2814037799835205,-0.0911578461527824,-0.201643094420433,0.0669438317418098,0.0527916066348552,0.0,0.0,-0.0226124835154459,0.0262272804450229
-0.0298599246889352,1.2766306400299072,-0.0912968292832374,-0.2122586220502853,0.0694784224033355,0.0506964102387428,0.0,0.0,-0.560027892097813,-0.2227329030683316
-0.0307497978210449,1.2716187238693235,-0.0914354547858238,-0.2228685319423675,0.0719055384397506,0.0485467761754989,0.0,0.0,-0.4280499722680317,0.4481681547794691
-0.0316411033272743,1.2663465738296509,-0.0914698094129562,-0.2344311028718948,0.0742226243019104,0.0463418290019035,0.0,0.0,-0.5576949091788768,0.6825853234003422
-0.03248081356287,1.2608458995819092,-0.0848190039396286,-0.2445137500762939,0.0750582218170166,0.0167115833610296,0.0,0.0,0.5140690470058693,-0.9710535581286625
-0.0335929878056049,1.2562237977981567,-0.1137526258826255,-0.2055528312921524,0.0775757804512977,0.0503511801362037,0.0,0.0,-0.5340245978012903,0.667114253999985
-0.0346666350960731,1.251373291015625,-0.1087373495101928,-0.2156493365764618,0.0789342671632766,0.0271697230637073,0.0,0.0,-0.3104272946673174,-0.9375776439676506
-0.0358191505074501,1.2462714910507202,-0.1184530705213546,-0.2269207388162613,0.0821076855063438,0.0634685233235359,0.0,0.0,-0.1158453872005544,-0.2434450467438906
-0.036974050104618,1.2409309148788452,-0.1185823306441307,-0.2375297397375106,0.0851607471704483,0.0610615015029907,0.0,0.0,-0.987704873085022,0.97236967086792
-0.0380645766854286,1.2353545427322388,-0.1103013306856155,-0.2479130923748016,0.0864065662026405,0.0249162595719099,0.0,0.0,-0.9892516136169434,0.9832143783569336
-0.0390912070870399,1.2295572757720947,-0.1020891070365905,-0.2576276659965515,0.0858356356620788,-0.0114187952131032,0.0,0.0,-0.8946219086647034,0.9696907997131348
-0.040051557123661,1.2235209941864014,-0.0935892090201377,-0.2681338489055633,0.0834151804447174,-0.0484095551073551,0.0,0.0,-0.9198156595230104,0.9305630922317504
-0.0409391410648822,1.217257738113403,-0.0842704623937606,-0.2781293988227844,0.0789641961455345,-0.0890194475650787,0.0,0.0,-0.6371844410896301,0.8467594385147095
-0.0417610183358192,1.2107703685760498,-0.0757955089211463,-0.288002461194992,0.0726468190550804,-0.1263477057218551,0.0,0.0,-0.5536298155784607,0.7255373001098633
-0.0425304397940635,1.2040472030639648,-0.0690319314599037,-0.2984452247619629,0.0648205503821373,-0.156525582075119,0.0,0.0,-0.5520151257514954,0.779882550239563
-0.0432373061776161,1.1970986127853394,-0.0609673336148262,-0.3084367513656616,0.0552131831645965,-0.1921472251415252,0.0,0.0,-0.8800413608551025,-0.152362585067749
-0.0439467430114746,1.1899124383926392,-0.0610929429531097,-0.3190528452396393,0.0454760789871215,-0.1947422325611114,0.0,0.0,-0.964935302734375,0.6130983829498291
-0.0446081161499023,1.1824930906295776,-0.0548534169793129,-0.3294414281845093,0.0343311987817287,-0.2228974550962448,0.0,0.0,-0.9524012207984924,-0.2483307123184204
-0.0452720634639263,1.1748368740081787,-0.0549781620502471,-0.3400605022907257,0.0230551436543464,-0.2255211621522903,0.0,0.0,-0.9274292588233948,0.3863601684570312
-0.0459386818110942,1.1669435501098633,-0.0551025494933128,-0.3506799340248108,0.0116472709923982,-0.2281575500965118,0.0,0.0,-0.9434349536895752,0.1295825242996215
-0.0466078743338584,1.158813238143921,-0.0552265830338001,-0.3612997233867645,0.0001069991558324,-0.2308055162429809,0.0,0.0,-0.9867053627967834,-0.6691408753395081
-0.0473238937556743,1.150444507598877,-0.0608987733721733,-0.3719812631607055,-0.0104550225660204,-0.2112403362989425,0.0,0.0,-0.85841965675354,-0.5138425230979919
-0.0480858795344829,1.141832947731018,-0.0664723813533783,-0.3828326165676117,-0.0200599413365125,-0.1920982450246811,0.0,0.0,-0.9885406494140624,0.6614890098571777
-0.0487941727042198,1.1329758167266846,-0.0595359317958354,-0.393843799829483,-0.0312151424586772,-0.2231041938066482,0.0,0.0,-0.8905061483383179,-0.4407622814178467
-0.0495051369071006,1.1238818168640137,-0.0596580877900123,-0.4044635891914367,-0.0425045974552631,-0.2257893979549408,0.0,0.0,-0.9891454577445984,-0.3147308826446533
-0.0502184852957725,1.1145507097244265,-0.0597796738147735,-0.4150837659835815,-0.0539287067949771,-0.2284819334745407,0.0,0.0,-0.9944445490837096,-0.8754053711891174
-0.0510185249149799,1.1049970388412476,-0.0704648494720459,-0.4249802231788635,-0.0633603930473327,-0.1886341124773025,0.0,0.0,-0.9738242030143738,-0.7487173676490784
-0.0518824569880962,1.0952093601226809,-0.0782740786671638,-0.4353684484958648,-0.0713851302862167,-0.1604946553707122,0.0,0.0,-0.9567664265632628,0.6219213008880615
-0.052687931805849,1.0851775407791138,-0.0707664638757705,-0.4463546574115753,-0.0810788720846176,-0.1938751339912414,0.0,0.0,-0.9747887253761292,-0.9069584608078004
-0.0535740852355957,1.0749236345291138,-0.0806866288185119,-0.4561716616153717,-0.0889273583889007,-0.156969666481018,0.0,0.0,-0.6588407158851624,-0.9353684186935424
-0.0545233711600303,1.0644350051879885,-0.0884060114622116,-0.4665674567222595,-0.0953880921006202,-0.1292145252227783,0.0,0.0,-0.9866161942481996,-0.2763838768005371
-0.0554750449955463,1.05370831489563,-0.0885215476155281,-0.4771809875965118,-0.1019850671291351,-0.1319397687911987,0.0,0.0,-0.9430065155029296,-0.7638490796089172
-0.0564746856689453,1.0427476167678833,-0.0943337529897689,-0.4875346720218658,-0.1075733378529548,-0.1117656230926513,0.0,0.0,-0.3694664239883423,-0.6305573582649231
-0.0575345046818256,1.03155517578125,-0.101679541170597,-0.4977523684501648,-0.1118420660495758,-0.08537457883358,0.0,0.0,-0.985243320465088,-0.774128258228302
-0.0586475357413291,1.0201404094696045,-0.1081843227148056,-0.5075671076774597,-0.1149414107203483,-0.0619869530200958,0.0,0.0,-0.8334009647369385,-0.0738468170166015
-0.0597630515694618,1.008487105369568,-0.1082936972379684,-0.5181782245635986,-0.1181776076555252,-0.0647238940000534,0.0,0.0,-0.8968585729598999,-0.0673050880432128
-0.0608809478580951,0.9965954422950744,-0.1084013134241104,-0.5287894606590271,-0.1215507313609123,-0.0674627572298049,0.0,0.0,-0.7504404187202454,-0.1549948453903198
-0.0620013251900672,0.9844655394554138,-0.1085070371627807,-0.5394007563591003,-0.125060886144638,-0.0702034085988998,0.0,0.0,-0.9955053329467772,0.0900465250015258
-0.0631241798400878,0.9720973372459412,-0.1086107343435287,-0.5500122308731079,-0.128708153963089,-0.0729453638195991,0.0,0.0,-0.9984501004219056,-0.1817655563354492
-0.0642492324113845,0.959490954875946,-0.1087122336030006,-0.560623824596405,-0.1324925720691681,-0.0756882429122924,0.0,0.0,-0.771231472492218,0.0179742574691772
-0.0653767585754394,0.9466461539268494,-0.1088113933801651,-0.5712354779243469,-0.1364141553640365,-0.0784318074584007,0.0,0.0,-0.9684045910835266,-0.702645480632782
-0.0665593147277832,0.9335748553276062,-0.115540824830532,-0.5811935067176819,-0.1391233652830124,-0.0541839897632598,0.0,0.0,-0.9949721097946168,-0.635174036026001
-0.0677937492728233,0.9202709197998048,-0.1218433156609535,-0.5914361476898193,-0.1407191306352615,-0.0319153219461441,0.0,0.0,-0.987747073173523,0.6266646385192871
-0.0689914673566818,0.9067206978797911,-0.1170354336500167,-0.6024935245513916,-0.1434471011161804,-0.0545590110123157,0.0,0.0,-0.8720031380653381,0.4258425235748291
-0.0701913833618164,0.892932116985321,-0.1171231642365455,-0.6131047606468201,-0.1463121920824051,-0.0573022365570068,0.0,0.0,-0.937523365020752,-0.5948328375816345
-0.0714344978332519,0.8789071440696716,-0.1223235875368118,-0.6235325932502747,-0.1482907831668853,-0.0395720638334751,0.0,0.0,-0.9537233114242554,-0.8812053203582764
-0.0727444663643837,0.8646683692932129,-0.1305708289146423,-0.6328720450401306,-0.1487178355455398,-0.0085406014695763,0.0,0.0,-0.9333875179290771,-0.521212637424469
-0.0741039291024208,0.8501996397972107,-0.1365889608860016,-0.6429914832115173,-0.1480777114629745,0.0128026707097888,0.0,0.0,-0.8874404430389404,-0.4454454779624939
-0.0754654854536056,0.8354923725128174,-0.1366619318723678,-0.6536022424697876,-0.1475744843482971,0.0100649259984493,0.0,0.0,-0.853413462638855,-0.848270058631897
-0.0768918991088867,0.8205625414848328,-0.144621804356575,-0.6633591055870056,-0.145597442984581,0.0395408533513546,0.0,0.0,-0.916469156742096,-0.7397011518478394
-0.0783896446228027,0.8054178953170776,-0.1534292995929718,-0.6727436184883118,-0.1419572830200195,0.0728028267621994,0.0,0.0,-0.9119438529014589,-0.0404227972030639
-0.079889491200447,0.7900350093841553,-0.1534892171621322,-0.6833552718162537,-0.1384536325931549,0.0700726360082626,0.0,0.0,-0.7304673194885254,0.133213996887207
-0.0813910514116287,0.7744137048721313,-0.1535442620515823,-0.6939668655395508,-0.1350863575935363,0.0673458725214004,0.0,0.0,-0.887385368347168,0.4135076999664306
-0.0828946083784103,0.7585541605949402,-0.1535942256450653,-0.7045783400535583,-0.1318551898002624,0.0646229311823844,0.0,0.0,-0.9180058836936952,-0.133425235748291
-0.0843998938798904,0.7424561977386475,-0.1536389291286468,-0.7151896953582764,-0.1287599802017212,0.061904352158308,0.0,0.0,-0.7416597604751587,-0.1157602667808532
-0.0859068855643272,0.7261199355125427,-0.1536781638860702,-0.7258009314537048,-0.1258004605770111,0.0591905191540718,0.0,0.0,-0.8495846390724182,0.6322270631790161
-0.0873588547110557,0.7095410227775574,-0.1466024518013,-0.7367287278175354,-0.1244037970900535,0.0279331319034099,0.0,0.0,-0.7635818719863892,0.3832498788833618
-0.0888124480843544,0.6927234530448914,-0.1466302424669265,-0.7473393082618713,-0.1231422647833824,0.0252306573092937,0.0,0.0,-0.3583624362945556,0.204132080078125
-0.0902676582336425,0.6756674647331238,-0.1466522067785263,-0.7579498291015625,-0.1220155358314514,0.0225347504019737,0.0,0.0,-0.1810467839241027,-0.0867595672607421
-0.0917243957519531,0.6583731770515442,-0.1466682255268097,-0.7685603499412537,-0.1210232451558113,0.0198461301624774,0.0,0.0,0.6096712350845337,0.5884444713592529
-0.093174360692501,0.641685962677002,-0.1444232761859893,-0.74169921875,-0.1215987354516983,-0.0115098198875784,0.0,0.0,0.3605537414550781,-0.1005353331565857
-0.0946028679609298,0.6255995631217957,-0.1419256031513214,-0.7150238752365112,-0.1225166693329811,-0.0183586347848176,0.0,0.0,-0.7852423787117004,0.0347847938537597
-0.0960327163338661,0.6092748045921326,-0.1419233977794647,-0.7256343364715576,-0.1235676929354667,-0.0210206117480993,0.0,0.0,0.6961686611175537,0.1401064395904541
-0.0973012894392013,0.5935841798782349,-0.1260833442211151,-0.6974291205406189,-0.12433722615242,-0.0153907807543873,0.0,0.0,-0.0381383299827575,-0.2471476793289184
-0.0985710173845291,0.5776548981666565,-0.1260689795017242,-0.7080395817756653,-0.1252387464046478,-0.0180304404348135,0.0,0.0,0.5151104927062988,0.268970251083374
-0.0997114181518554,0.5620208382606506,-0.1133898869156837,-0.6949015259742737,-0.125878095626831,-0.0127871306613087,0.0,0.0,0.7992236614227295,-0.0121522545814514
-0.1006156951189041,0.5470436215400696,-0.0904029756784439,-0.6656591892242432,-0.1259069740772247,-0.0005776848993264,0.0,0.0,0.4055553674697876,-0.2237833738327026
-0.1013610810041427,0.5323048233985901,-0.0749418288469314,-0.6550244092941284,-0.1255171746015548,0.0077963331714272,0.0,0.0,0.1696735620498657,-0.1927745342254638
-0.1020449623465538,0.5181198120117188,-0.0686232447624206,-0.630423367023468,-0.1252749860286712,0.0048438063822686,0.0,0.0,-0.8213133811950684,-0.6873618364334106
-0.102780245244503,0.5037112236022949,-0.0749608054757118,-0.6402643918991089,-0.1238566786050796,0.0283663272857666,0.0,0.0,-0.1439396739006042,-0.1198974847793579
-0.1035163849592208,0.4890640676021576,-0.0749120116233825,-0.6508749127388,-0.1225654929876327,0.0258240103721618,0.0,0.0,0.7372767925262451,-0.5279757976531982
-0.1041409522294998,0.4746709764003753,-0.065004862844944,-0.6394863128662109,-0.1200347170233726,0.050615519285202,0.0,0.0,0.6032760143280029,-0.0469090342521667
-0.1047576889395713,0.4607844948768616,-0.0638519376516342,-0.6170011758804321,-0.1178647130727768,0.0434004701673984,0.0,0.0,0.4145058393478393,-0.5890057682991028
-0.1052552238106727,0.4477613270282745,-0.0531773567199707,-0.5785443186759949,-0.1144698709249496,0.0678968876600265,0.0,0.0,-0.8489101529121399,0.5998520851135254
-0.1057081222534179,0.4344916939735412,-0.0474216863512992,-0.5896007418632507,-0.1123479157686233,0.042438980191946,0.0,0.0,-0.132939875125885,-0.5489470362663269
-0.106213092803955,0.4209973812103271,-0.0538474805653095,-0.5994982123374939,-0.1090230941772461,0.0664963498711586,0.0,0.0,0.711592435836792,0.6728849411010742
-0.1064894646406173,0.408321350812912,-0.0297308601438999,-0.5632264018058777,-0.1069351434707641,0.0417588017880916,0.0,0.0,-0.0731525421142578,0.4773473739624023
-0.1067661270499229,0.3954069018363952,-0.0296497531235218,-0.5738369226455688,-0.1049644351005554,0.0394143015146255,0.0,0.0,0.4821035861968994,-0.2983976006507873
-0.1070465072989463,0.3832675814628601,-0.0295597277581691,-0.5394176244735718,-0.1034523546695709,0.0302414037287235,0.0,0.0,-0.2715896368026733,0.9320580959320068
-0.1072570830583572,0.3708757758140564,-0.0206664837896823,-0.550775945186615,-0.103836603462696,-0.0076850885525345,0.0,0.0,0.1727457046508789,-0.1191704273223877
-0.1075058951973915,0.3588950932025909,-0.0239992141723632,-0.5325340628623962,-0.1047149449586868,-0.0175666771829128,0.0,0.0,0.7372409105300903,-0.4604248404502868
-0.1078547462821006,0.3475223779678345,-0.0331451371312141,-0.505578875541687,-0.1064337715506553,-0.0343768112361431,0.0,0.0,-0.8599553108215332,0.7256393432617188
-0.1081361770629882,0.3359047174453735,-0.0245916936546564,-0.5165995359420776,-0.1099588423967361,-0.0705016255378723,0.0,0.0,-0.2075866460800171,-0.6058496832847595
-0.1084608063101768,0.3240504264831543,-0.0299006253480911,-0.5270491242408752,-0.1125037744641304,-0.050898689776659,0.0,0.0,-0.2309269309043884,-0.877634584903717
-0.1088373214006424,0.3119731843471527,-0.0363210178911685,-0.5368633270263672,-0.1138170212507247,-0.0262648966163396,0.0,0.0,0.5429472923278809,-0.8491358160972595
-0.109221264719963,0.3007600307464599,-0.0386484898626804,-0.4983415901660919,-0.1135647520422935,0.0050453855656087,0.0,0.0,-0.5870180130004883,0.7882063388824463
-0.1095276847481727,0.2893043756484985,-0.0288529302924871,-0.5092788934707642,-0.1153478771448135,-0.0356625691056251,0.0,0.0,0.0187937021255493,0.2193250656127929
-0.1097460761666297,0.2781346440315246,-0.0201747957617044,-0.4965635538101196,-0.1170035451650619,-0.0331132411956787,0.0,0.0,0.1683639287948608,-0.8117128610610962
-0.1099657043814659,0.2676068544387817,-0.0218427702784538,-0.4679123759269714,-0.1171265020966529,-0.0024590571410954,0.0,0.0,-0.2007659673690796,-0.8733139634132385
-0.1102460846304893,0.2568590044975281,-0.0294159855693578,-0.4775753319263458,-0.1157613396644592,0.0273034013807773,0.0,0.0,-0.2200831174850464,-0.3628014326095581
-0.1105261817574501,0.2458726018667221,-0.0293024368584156,-0.4881852567195892,-0.1144742891192436,0.0257408767938613,0.0,0.0,0.277503490447998,-0.1673250794410705
-0.110845185816288,0.2353762239217758,-0.032680794596672,-0.4664438366889953,-0.1136984825134277,0.0155162569135427,0.0,0.0,0.2381832599639892,-0.553165853023529
-0.111268326640129,0.2252402603626251,-0.0439288839697837,-0.4503673613071441,-0.1120984032750129,0.032001607120037,0.0,0.0,-0.820360541343689,0.8455482721328735
-0.1116270050406456,0.2148543149232864,-0.0357700064778327,-0.4616025686264038,-0.1121894642710685,-0.0018213043222203,0.0,0.0,-0.3873249292373657,0.2076244354248047
-0.1119850128889083,0.2042298465967178,-0.0356524586677551,-0.4722121357917785,-0.1123397871851921,-0.0030064349994063,0.0,0.0,0.6143966913223267,-0.5708150863647461
-0.1122117042541503,0.1938697248697281,-0.0239569824188947,-0.4603514075279236,-0.1110641509294509,0.0255127195268869,0.0,0.0,0.3750665187835693,0.6864826679229736
-0.1122310608625412,0.1840985417366027,-0.0019499644404277,-0.434276133775711,-0.1110520884394645,0.0002415310591459,0.0,0.0,-0.1298052072525024,-0.3256233334541321
-0.1122496575117111,0.1740886718034744,-0.0018308010185137,-0.4448855519294739,-0.1110832691192627,-0.0006236601038835,0.0,0.0,0.647252082824707,-0.0118080377578735
