x_pos,y_pos,x_vel,y_vel,angle,ang_vel,leg_1,leg_2,main_booster,lat_booster
-0.0015620231861248,1.4032052755355835,-0.1581126451492309,-0.3428804576396942,0.001705148955807,0.0336315184831619,0.0,0.0,-0.5019059153505607,-0.6139914815890899
-0.0032071112655103,1.3950914144515991,-0.1671969592571258,-0.3606220185756683,0.0043717292137444,0.0533373430371284,0.0,0.0,0.8220342125286006,-0.8794798612280553
-0.0047992705367505,1.3872206211090088,-0.1638773381710052,-0.3498361706733703,0.0089820902794599,0.0922156274318695,0.0,0.0,-0.8258319123366251,-0.800803451205704
-0.0065054893493652,1.378927230834961,-0.1770655065774917,-0.3686490654945373,0.0153583893552422,0.1275374591350555,0.0,0.0,-0.6806958817989281,-0.6739767520178352
-0.0082919122651219,1.3702166080474854,-0.1860143542289734,-0.3872387111186981,0.0226408671587705,0.1456631124019622,0.0,0.0,-0.7460948364453122,-0.6017218689228419
-0.0101534845307469,1.361085295677185,-0.1942983418703079,-0.4059799015522003,0.0306895077228546,0.1609875410795211,0.0,0.0,-0.1479342906258784,-0.8031383601201606
-0.0121191022917628,1.3515326976776123,-0.2061942517757415,-0.4247825443744659,0.0402217656373977,0.1906628608703613,0.0,0.0,0.2540076606201498,-0.6881145412730927
-0.01407031994313,1.3423045873641968,-0.2061464786529541,-0.4104663133621216,0.0511417053639888,0.2184188067913055,0.0,0.0,0.481637814152215,0.9828343654097992
-0.016033362597227,1.3337981700897217,-0.2051681727170944,-0.3783821761608124,0.0599096193909645,0.1753744781017303,0.0,0.0,-0.3234313958232278,0.9942917933423951
-0.017956543713808,1.3248865604400637,-0.1989816725254058,-0.396356850862503,0.0665090456604957,0.1320003122091293,0.0,0.0,-0.2444103724438255,0.9856819922958592
-0.0198288913816213,1.3155654668807983,-0.1914174258708953,-0.4144607782363891,0.0706641972064971,0.0831105858087539,0.0,0.0,0.3701699639593558,-0.6624061359081745
-0.0217566490173339,1.306480884552002,-0.1981980949640274,-0.404027909040451,0.0760388448834419,0.1075024828314781,0.0,0.0,-0.912038446288433,-0.8422997215198326
-0.0237735752016305,1.2969754934310913,-0.2081925421953201,-0.4228047728538513,0.0824925750494003,0.1290864050388336,0.0,0.0,-0.355148917216801,-0.6021250302923377
-0.0258686058223247,1.2870405912399292,-0.216838389635086,-0.4419731795787811,0.0897675305604934,0.1455123126506805,0.0,0.0,-0.1705951865548094,0.6444014397492662
-0.027937889099121,1.2767019271850586,-0.212411880493164,-0.4598409831523895,0.095210775732994,0.1088750138878822,0.0,0.0,0.5855361235092658,-0.9780347566698088
-0.0300273895263671,1.266364574432373,-0.2162766456604004,-0.4599155485630035,0.1024875938892364,0.145549789071083,0.0,0.0,-0.9013567117495596,0.6203286962181714
-0.0320929512381553,1.255624532699585,-0.2120811939239502,-0.4777179658412933,0.1079773679375648,0.1098056435585022,0.0,0.0,-0.486214979242827,0.7640430764748154
-0.0341187492012977,1.2444710731506348,-0.2059309184551239,-0.4959624111652374,0.1113158464431762,0.0667753666639328,0.0,0.0,-0.1526049346812181,0.8839715178483567
-0.0360986702144146,1.232919692993164,-0.1990126073360443,-0.5134698152542114,0.1123249679803848,0.0201845653355121,0.0,0.0,0.6408360560748434,-0.7410339927806093
-0.0383206382393837,1.2217614650726318,-0.2242231667041778,-0.49606853723526,0.1143453195691108,0.0404103621840477,0.0,0.0,-0.7510529159262149,0.7915615025615457
-0.0405005440115928,1.21020245552063,-0.2178013026714325,-0.5137246251106262,0.114154152572155,-0.0038235001266002,0.0,0.0,0.6893216552717363,0.7709597829505552
-0.0426900871098041,1.198906183242798,-0.2169411182403564,-0.501897394657135,0.1121514588594436,-0.0400576591491699,0.0,0.0,0.8807758883321635,0.6498319462572975
-0.0447711944580078,1.1881487369537354,-0.2048978060483932,-0.4778719842433929,0.108952097594738,-0.0639930814504623,0.0,0.0,0.4250940452830143,-0.6223035442176281
-0.0468948371708393,1.1773689985275269,-0.2102110683917999,-0.4789447486400604,0.1068162769079208,-0.0427198000252246,0.0,0.0,-0.6332302176747717,0.7323672646151816
-0.0490039810538291,1.166178822517395,-0.2073299884796142,-0.497087299823761,0.1032410562038421,-0.0715106204152107,0.0,0.0,-0.8334080802466151,-0.7576070314633054
-0.0512147918343544,1.1545403003692627,-0.2190275937318802,-0.5171266198158264,0.1012135818600654,-0.0405493341386318,0.0,0.0,-0.3373733080651211,-0.8238987331368204
-0.0535179153084754,1.1424777507781982,-0.2295791804790496,-0.5360727310180664,0.1004828363656997,-0.0146148186177015,0.0,0.0,0.9325357822189068,-0.7456729559101943
-0.0561685562133789,1.131410002708435,-0.2650917172431946,-0.4918998777866363,0.1005122363567352,0.0005879335803911,0.0,0.0,-0.2980180376664787,-0.8871860917176966
-0.0589301101863384,1.1199171543121338,-0.2780058681964874,-0.510918378829956,0.1023466363549232,0.0366880297660827,0.0,0.0,0.7221078147009157,-0.7583841896473307
-0.0618512146174907,1.1087473630905151,-0.2950829565525055,-0.4966384470462799,0.1052962020039558,0.0589911863207817,0.0,0.0,-0.87180518126696,0.8275665507911282
-0.0647289305925369,1.0971779823303225,-0.2886683940887451,-0.514258086681366,0.1061860620975494,0.0177972614765167,0.0,0.0,0.2424200338081996,-0.9868112317112968
-0.0678087249398231,1.0856515169143677,-0.310478150844574,-0.5124667882919312,0.1086708530783653,0.0496956147253513,0.0,0.0,0.0607738483999571,0.6740687261544497
-0.0709719657897949,1.0744781494140625,-0.3170533776283264,-0.4966497719287872,0.1093842014670372,0.0142672210931777,0.0,0.0,-0.6674603156968151,0.9405871319120156
-0.0740875229239463,1.06288743019104,-0.3102090954780578,-0.5150444507598877,0.1080555617809295,-0.0265729390084743,0.0,0.0,-0.1746419258047267,0.8267484500516102
-0.0771536827087402,1.0508897304534912,-0.3032029867172241,-0.5329872369766235,0.1046608388423919,-0.0678944587707519,0.0,0.0,-0.3138014138646245,-0.807457956588859
-0.0802978500723838,1.0384689569473269,-0.3121811747550964,-0.5518872737884521,0.1024497896432876,-0.0442210473120212,0.0,0.0,0.7913618547270795,0.8091485082177388
-0.0834737792611122,1.0263659954071045,-0.3132901787757873,-0.5376178026199341,0.0981860011816024,-0.0852756053209304,0.0,0.0,-0.5757911144550742,0.7807887204408228
-0.0865971595048904,1.013859510421753,-0.3059898912906647,-0.5554398894309998,0.091882050037384,-0.1260790824890136,0.0,0.0,-0.1351328035996173,0.7713398327203947
-0.0896752327680587,1.0009504556655884,-0.2996006608009338,-0.5732513666152954,0.0837519019842147,-0.1626027971506118,0.0,0.0,-0.740844800835923,0.6946201607583402
-0.0927049666643142,0.9876311421394348,-0.292915940284729,-0.5914404988288879,0.0737828835844993,-0.1993804723024368,0.0,0.0,0.0298303990638018,-0.9601451266882888
-0.0959338173270225,0.9746103286743164,-0.3143731951713562,-0.5783112049102783,0.065361775457859,-0.1684217303991317,0.0,0.0,-0.996185541152954,0.9956786632537842
-0.0990732163190841,0.9611782431602478,-0.3026092648506164,-0.5965243577957153,0.0541566610336303,-0.2241025418043136,0.0,0.0,-0.9991222620010376,0.9687230587005616
-0.1021267920732498,0.9473254680633544,-0.2913591563701629,-0.6152335405349731,0.0403157286345958,-0.2768186032772064,0.0,0.0,-0.9934229850769044,0.9587373733520508
-0.1050938591361045,0.9330596923828124,-0.2800238728523254,-0.6336656212806702,0.0238515026867389,-0.3292847275733948,0.0,0.0,-0.9879721403121948,0.7160913944244385
-0.1080075278878212,0.9183720946311952,-0.2729391455650329,-0.6525875926017761,0.0056555368937551,-0.3639196157455444,0.0,0.0,-0.9799960255622864,0.8000576496124268
-0.1108508110046386,0.9032628536224364,-0.263750284910202,-0.6715737581253052,-0.0146595202386379,-0.4063015580177307,0.0,0.0,-0.9344483017921448,0.8019466400146484
-0.1136199980974197,0.8877348303794861,-0.2541581392288208,-0.6905179619789124,-0.0371404588222503,-0.4496187567710876,0.0,0.0,-0.8697428107261658,0.1634379625320434
-0.116383172571659,0.8717944622039795,-0.2531405389308929,-0.709189772605896,-0.0600327923893928,-0.4578471779823303,0.0,0.0,-0.4840894341468811,0.7614337205886841
-0.1190908402204513,0.8554454445838928,-0.2460236251354217,-0.7278016805648804,-0.0845190733671188,-0.4897257387638092,0.0,0.0,-0.3746253252029419,-0.6167365312576294
-0.121838666498661,0.8386898636817932,-0.2509606480598449,-0.74620521068573,-0.1081496179103851,-0.4726108908653259,0.0,0.0,0.1860033273696899,-0.8688825964927673
-0.1244798675179481,0.8221256732940674,-0.2417421042919159,-0.7379583716392517,-0.1304014027118683,-0.4450353980064392,0.0,0.0,0.0521639585494995,-0.9331174492836
-0.1271621733903885,0.8058759570121765,-0.2473688125610351,-0.7241631150245667,-0.1511975973844528,-0.4159243106842041,0.0,0.0,0.5318214893341064,-0.8510413765907288
-0.1297215521335601,0.7898092865943909,-0.2365714013576507,-0.7161504030227661,-0.1705557256937027,-0.3871626853942871,0.0,0.0,0.5664570331573486,-0.992214024066925
-0.1322079598903656,0.7744752168655396,-0.2309129685163498,-0.6836487650871277,-0.1883401721715927,-0.3556888699531555,0.0,0.0,-0.3792320489883423,-0.958689272403717
-0.1347318589687347,0.7587394118309021,-0.2357429563999176,-0.7015732526779175,-0.2051039487123489,-0.3352756202220917,0.0,0.0,0.3978307247161865,-0.9948794841766356
-0.1373232901096344,0.7432226538658142,-0.2440250217914581,-0.6918033361434937,-0.2203537970781326,-0.304996907711029,0.0,0.0,0.5339858531951904,-0.7362958192825317
-0.1396925896406173,0.7283679842948914,-0.2230925112962722,-0.662338137626648,-0.2343711107969284,-0.2803463041782379,0.0,0.0,-0.5125157833099365,-0.9713435173034668
-0.1420954763889312,0.7131221294403076,-0.2275611609220504,-0.6796687841415405,-0.2473037987947464,-0.2586541175842285,0.0,0.0,0.1312943696975708,-0.8693508505821228
-0.1443428099155426,0.6982923150062561,-0.2133777141571045,-0.6610537171363831,-0.2588837146759033,-0.2315981388092041,0.0,0.0,-0.7991072535514832,-0.9842239022254944
-0.1466473639011383,0.6830882430076599,-0.2209068834781646,-0.6774532794952393,-0.2686436176300049,-0.1951979547739029,0.0,0.0,0.4570868015289306,-0.8015167117118835
-0.148851677775383,0.6679382920265198,-0.2121394872665405,-0.6748778223991394,-0.2771469354629516,-0.1700662225484848,0.0,0.0,0.9202818870544434,-0.9559280872344972
-0.1510005891323089,0.653636634349823,-0.2078683823347091,-0.6369855403900146,-0.2843551933765411,-0.1441654413938522,0.0,0.0,0.4071038961410522,-0.9472692608833312
-0.1529531478881836,0.6395303606987,-0.1897896528244018,-0.628021240234375,-0.2899831235408783,-0.1125585585832595,0.0,0.0,0.8765618801116943,-0.9146804213523864
-0.1547169685363769,0.6260271668434143,-0.1723522245883941,-0.6009509563446045,-0.2941330969333648,-0.0830000564455986,0.0,0.0,0.799940824508667,-0.9845085740089417
-0.156389519572258,0.6127560138702393,-0.1647710502147674,-0.5903287529945374,-0.2967086732387543,-0.0515113584697246,0.0,0.0,0.8355910778045654,-0.9820908904075624
-0.1580588370561599,0.6001113057136536,-0.1657334417104721,-0.562233030796051,-0.2979452311992645,-0.0247310698032379,0.0,0.0,0.9029991626739502,-0.9702297449111938
-0.1594505310058593,0.5884949564933777,-0.1395101845264434,-0.5162124633789062,-0.2975859344005584,0.0071859778836369,0.0,0.0,0.917280912399292,-0.9476986527442932
-0.1606819182634353,0.5769234895706177,-0.1250983029603958,-0.513887345790863,-0.2955655753612518,0.0404067821800708,0.0,0.0,0.9802132844924928,-0.8973275423049927
-0.1616124212741851,0.5664281845092773,-0.0964352488517761,-0.4657760262489319,-0.2920748889446258,0.0698137432336807,0.0,0.0,0.869915246963501,-0.9482547640800476
-0.1625391989946365,0.5563645958900452,-0.0973258316516876,-0.4463482499122619,-0.2872848808765411,0.0958002582192421,0.0,0.0,0.966062068939209,-0.891577422618866
-0.1633836776018142,0.5471273064613342,-0.090223304927349,-0.409417450428009,-0.2813414931297302,0.1188679710030555,0.0,0.0,0.6666604280471802,-0.6589173078536987
-0.164034754037857,0.5383865833282471,-0.0718584135174751,-0.3871945738792419,-0.274415373802185,0.1385215818881988,0.0,0.0,-0.3230184316635132,-0.7036579847335815
-0.1647123396396637,0.5292638540267944,-0.075796864926815,-0.4039665162563324,-0.266180157661438,0.1647040992975235,0.0,0.0,0.0857009887695312,-0.0381591320037841
-0.1652061492204666,0.5202544331550598,-0.057235449552536,-0.3990089297294616,-0.2581504881381988,0.1605940908193588,0.0,0.0,-0.7135187387466431,0.0650874376296997
-0.1656621992588043,0.5108281970024109,-0.0530514828860759,-0.4176516234874725,-0.2505484223365783,0.152041420340538,0.0,0.0,-0.4006621837615967,-0.0564562678337097
-0.1660799980163574,0.5009849667549133,-0.0488246157765388,-0.4362935125827789,-0.2433725893497467,0.1435164511203766,0.0,0.0,-0.745314359664917,-0.587693989276886
-0.1665074378252029,0.4907366037368774,-0.0506147630512714,-0.4542005658149719,-0.235377550125122,0.1599008291959762,0.0,0.0,-0.6417722105979919,0.69710373878479
-0.1668421775102615,0.4800581932067871,-0.039574772119522,-0.4736315011978149,-0.229186937212944,0.123812198638916,0.0,0.0,0.1481163501739502,-0.3414444923400879
-0.1669546067714691,0.4697716236114502,-0.0171942487359046,-0.4562688171863556,-0.223159983754158,0.1205389276146888,0.0,0.0,-0.116424024105072,0.231229543685913
-0.1670273840427398,0.4590675234794616,-0.0128269959241151,-0.4749078750610351,-0.2175517082214355,0.1121657863259315,0.0,0.0,0.1692245006561279,0.3585520982742309
-0.1670990884304046,0.4483188688755035,-0.0118931178003549,-0.4770314991474151,-0.2127831429243087,0.0953712910413742,0.0,0.0,-0.7428022623062134,0.0933177471160888
-0.1671306639909744,0.4371525049209595,-0.0074713723734021,-0.4956689178943634,-0.2084279954433441,0.0871028155088424,0.0,0.0,0.517580509185791,0.3603273630142212
-0.1671034842729568,0.4263729751110077,-0.0007647524471394,-0.4786025285720825,-0.2049137949943542,0.0702839419245719,0.0,0.0,0.2937140464782715,0.0130870342254638
-0.1669695824384689,0.4159681499004364,0.0104988757520914,-0.4620396792888641,-0.2020052522420883,0.0581710711121559,0.0,0.0,-0.2000033259391784,-0.6335763335227966
-0.166844367980957,0.4051640033721924,0.0087422607466578,-0.479676216840744,-0.1981992274522781,0.0761204808950424,0.0,0.0,0.8302607536315918,0.0048297643661499
-0.1664563119411468,0.3948611617088318,0.0349681302905082,-0.4573937952518463,-0.1943458467721939,0.0770676806569099,0.0,0.0,0.2896898984909057,0.2988326549530029
-0.1659572571516037,0.3845283687114715,0.0463820546865463,-0.4587783217430115,-0.1908019185066223,0.0708785727620124,0.0,0.0,-0.2493061423301696,-0.4265291094779968
-0.1654167175292968,0.3737775683403015,0.0509194619953632,-0.4774138331413269,-0.1876482367515564,0.0630736425518989,0.0,0.0,0.3474501371383667,-0.6375480890274048
-0.1646670401096344,0.3632720410823822,0.0706938281655311,-0.4663800597190857,-0.1833578795194625,0.0858070999383926,0.0,0.0,0.2324267625808715,-0.0515243411064147
-0.1637195646762848,0.35275399684906,0.0903679281473159,-0.4669360220432281,-0.1789659410715103,0.0878388285636901,0.0,0.0,0.0039666891098022,-0.6498392224311829
-0.1627024710178375,0.3425111770629883,0.0963931307196617,-0.4546035826206207,-0.1736449003219604,0.1064207181334495,0.0,0.0,-0.8549399971961975,-0.5122604966163635
-0.1616806089878082,0.3318642973899841,0.0962688773870468,-0.4725135862827301,-0.1677141338586807,0.118615448474884,0.0,0.0,-0.479264497756958,0.0360344648361206
-0.1606163084506988,0.3207995891571045,0.1008624583482742,-0.4911498129367828,-0.1621426939964294,0.1114287003874778,0.0,0.0,0.4671065807342529,-0.0484358072280883
-0.1593742370605468,0.3097242712974548,0.118569016456604,-0.4916324913501739,-0.1565085500478744,0.1126831993460655,0.0,0.0,0.2256538867950439,-0.5384492874145508
-0.1581149101257324,0.2988091707229614,0.1196387261152267,-0.4844676852226257,-0.1502270102500915,0.1256307661533355,0.0,0.0,0.2229304313659668,-0.0185922980308532
-0.1566553115844726,0.2884092330932617,0.1397179216146469,-0.4616028070449829,-0.143989622592926,0.1247474923729896,0.0,0.0,-0.6314554810523987,-0.5146281719207764
-0.1551944762468338,0.2776001989841461,0.1390828788280487,-0.4797383844852447,-0.1370076835155487,0.1396391689777374,0.0,0.0,0.0860457420349121,-0.0520371794700622
-0.1536999642848968,0.2671670615673065,0.1431276649236679,-0.4631290137767792,-0.1307176202535629,0.1258012354373932,0.0,0.0,-0.5355804562568665,-0.7531711459159851
-0.1522124260663986,0.2563296556472778,0.1414452642202377,-0.4810405075550079,-0.1234409809112548,0.1455328613519668,0.0,0.0,0.0408649444580078,0.1398125886917114
-0.1506566107273101,0.2457840591669082,0.1487076878547668,-0.4681402742862701,-0.1166103780269622,0.1366121470928192,0.0,0.0,0.1578621864318847,0.0378762483596801
-0.1490537673234939,0.2356122583150863,0.1539597362279892,-0.4515991806983948,-0.1103250011801719,0.1257075518369674,0.0,0.0,0.329512357711792,-0.1618685126304626
-0.1473829299211502,0.2256229221820831,0.161111980676651,-0.4435403048992157,-0.1043954566121101,0.1185910329222679,0.0,0.0,0.0007202625274658,-0.1290262341499328
-0.145700454711914,0.2157697826623916,0.1628463864326477,-0.4375529587268829,-0.0990413501858711,0.107082225382328,0.0,0.0,0.2639236450195312,-0.3678817749023437
-0.1440489739179611,0.2061131745576858,0.1605269163846969,-0.4288810789585113,-0.0944527685642242,0.091771475970745,0.0,0.0,0.266537070274353,-0.4030786752700805
-0.1422204077243805,0.1968492567539215,0.1780651956796646,-0.4114369750022888,-0.0897053033113479,0.0949493497610092,0.0,0.0,-0.0831431150436401,-0.7073172926902771
-0.1403979361057281,0.1871674209833145,0.1763799786567688,-0.4299655258655548,-0.0838934108614921,0.1162377819418907,0.0,0.0,0.2768688201904297,-0.5229129791259766
-0.1384008377790451,0.1779423356056213,0.1926973611116409,-0.4096243679523468,-0.0769525095820427,0.138818010687828,0.0,0.0,-0.0159128308296203,-0.8831744194030762
-0.1364311277866363,0.1683148443698883,0.1882883161306381,-0.4274657070636749,-0.0683466121554374,0.172117531299591,0.0,0.0,0.3550434112548828,-0.4092069864273071
-0.1342516839504242,0.1593061238527298,0.2088313847780227,-0.3999951779842376,-0.0593429021537303,0.1800744086503982,0.0,0.0,0.4419057369232178,-0.7008457779884338
-0.1319791823625564,0.1506355851888656,0.2167241126298904,-0.384974330663681,-0.0489363633096218,0.2081306874752044,0.0,0.0,0.0515022277832031,-0.7660107612609863
-0.1297016143798828,0.1423386186361313,0.215785264968872,-0.3684048056602478,-0.0371101014316082,0.2365251779556274,0.0,0.0,-0.196239948272705,-0.5914468765258789
-0.1274207085371017,0.133632093667984,0.215132787823677,-0.3866832554340362,-0.0243069380521774,0.2560634016990661,0.0,0.0,0.5066077709197998,-0.360039472579956
-0.1250105798244476,0.1251329928636551,0.2277580201625824,-0.3775740265846252,-0.0112243052572011,0.2616526484489441,0.0,0.0,0.4870915412902832,-0.4526946544647217
-0.1226587295532226,0.1170535385608673,0.2224914282560348,-0.3590378165245056,0.0013103396631777,0.2506930232048034,0.0,0.0,0.3236017227172851,-0.6253558993339539
-0.1204244643449783,0.1091738566756248,0.209696888923645,-0.3502742350101471,0.0148610211908817,0.271013468503952,0.0,0.0,0.4851545095443725,0.8774728775024414
-0.118104264140129,0.1016377806663513,0.2200870513916015,-0.3350959122180938,0.0266443900763988,0.235667273402214,0.0,0.0,0.1941406726837158,-0.4597567319869995
-0.1157295256853103,0.0942632779479026,0.2254261523485183,-0.3280086517333984,0.0385411977767944,0.237936183810234,0.0,0.0,0.4539964199066162,-0.2279515862464904
-0.1132060065865516,0.0869527161121368,0.2397220134735107,-0.3252851665019989,0.0510177202522754,0.249530553817749,0.0,0.0,0.7423467636108398,-0.2932941913604736
-0.1105704307556152,0.080313354730606,0.2503891289234161,-0.2955820858478546,0.0640389025211334,0.2604235708713531,0.0,0.0,0.7393975257873535,-0.1890413761138916
-0.1079165488481521,0.0745310187339782,0.2520135343074798,-0.2576176226139068,0.0772720575332641,0.2646630406379699,0.0,0.0,0.4776346683502197,-0.598281979560852
-0.1052228957414627,0.0687446668744087,0.2545440793037414,-0.2580046057701111,0.0919461846351623,0.2934826016426086,0.0,0.0,0.8790643215179443,-0.3140770196914673
