x_pos,y_pos,x_vel,y_vel,angle,ang_vel,leg_1,leg_2,main_booster,lat_booster
-0.0014910697937011,1.4031062126159668,-0.1514676958322525,-0.347287654876709,0.0021182869095355,0.0418114215135574,0.0,0.0,-0.2098346948623657,0.834571123123169
-0.0028836249839514,1.394793152809143,-0.1399068385362625,-0.3694653809070587,0.0027604363858699,0.012844854965806,0.0,0.0,-0.2472831010818481,0.5182621479034424
-0.0042045591399073,1.3859577178955078,-0.131852239370346,-0.392682284116745,0.0025217067450284,-0.0047747576609253,0.0,0.0,-0.4744867086410522,0.0493383407592773
-0.005509281065315,1.3766039609909058,-0.1306072026491165,-0.4157232642173767,0.0026562961284071,0.0026920023374259,0.0,0.0,0.15547776222229,0.7887781858444214
-0.0066392896696925,1.3674190044403076,-0.1120332330465316,-0.408214122056961,0.0017040336970239,-0.0190471075475215,0.0,0.0,-0.440016508102417,0.4210346937179565
-0.0077646253630518,1.357715725898743,-0.1119471788406372,-0.4312571585178375,0.0011306366650387,-0.0114691220223903,0.0,0.0,0.2571108341217041,0.4656333923339844
-0.0089086536318063,1.3481532335281372,-0.1141300648450851,-0.424999326467514,0.0008558735135011,-0.0054956576786935,0.0,0.0,0.3033137321472168,0.5147736072540283
-0.0098916050046682,1.3388395309448242,-0.0976888090372085,-0.4139403998851776,0.0002548037737142,-0.0120224244892597,0.0,0.0,-0.8453365564346313,0.6748471260070801
-0.0108351707458496,1.329014778137207,-0.0928068906068801,-0.4366543889045715,-0.0012697071069851,-0.0304932333528995,0.0,0.0,0.1436829566955566,-0.3108633756637573
-0.0117967603728175,1.3194260597229004,-0.0950068980455398,-0.4261665642261505,-0.0024072476662695,-0.0227529685944318,0.0,0.0,-0.3934526443481445,0.1470659971237182
-0.0127820018678903,1.309318780899048,-0.0977721214294433,-0.4492099583148956,-0.0031533599831163,-0.0149234905838966,0.0,0.0,0.283889889717102,0.7567192316055298
-0.0136734005063772,1.2993069887161257,-0.0873510316014289,-0.4449754059314728,-0.0049208519048988,-0.0353530906140804,0.0,0.0,-0.8705773949623108,0.0344277620315551
-0.0145989414304494,1.2887766361236572,-0.0911674574017524,-0.468018114566803,-0.0062910206615924,-0.0274062249809503,0.0,0.0,-0.4245273470878601,0.4344487190246582
-0.0155635830014944,1.2777280807495115,-0.0954832807183265,-0.491053968667984,-0.0072624003514647,-0.0194293037056922,0.0,0.0,-0.3946223258972168,0.7537517547607422
-0.0164987556636333,1.2661681175231934,-0.0910678282380104,-0.513789176940918,-0.0096771940588951,-0.0483004115521907,0.0,0.0,0.8094073534011841,-0.853946328163147
-0.0174141880124807,1.2545671463012695,-0.0914820581674575,-0.5155991911888123,-0.0097372224554419,-0.0012006750330328,0.0,0.0,-0.435827374458313,0.9043185710906982
-0.018294621258974,1.2424569129943848,-0.086153857409954,-0.5382455587387085,-0.0115981688722968,-0.0372221805155277,0.0,0.0,-0.7047005891799927,-0.7999233603477478
-0.0192799568176269,1.229822278022766,-0.0982902124524116,-0.5615370273590088,-0.0118383718654513,-0.0048044295981526,0.0,0.0,0.6919760704040527,0.6084150075912476
-0.0201606750488281,1.2179054021835327,-0.087302342057228,-0.5296465158462524,-0.012608247809112,-0.0153989102691411,0.0,0.0,-0.4501596093177795,-0.2401982545852661
-0.0211056713014841,1.2054699659347534,-0.0941266044974327,-0.5526936650276184,-0.012968054972589,-0.0071968794800341,0.0,0.0,-0.1139986515045166,-0.3094366788864136
-0.0221179965883493,1.1925160884857178,-0.1012867093086242,-0.5757275819778442,-0.0129173565655946,0.0010137277422472,0.0,0.0,0.5143764019012451,0.3408757448196411
-0.0231849662959575,1.1796518564224243,-0.1072113513946533,-0.5717383027076721,-0.0124053405597805,0.0102411182597279,0.0,0.0,0.2987287044525146,0.5837582349777222
-0.0241619106382131,1.1669073104858398,-0.0976812615990638,-0.5664230585098267,-0.0124172242358326,-0.0002381111989961,0.0,0.0,-0.1847927570343017,0.0534049272537231
-0.025214958935976,1.15364408493042,-0.1057116985321044,-0.5894631743431091,-0.0120166977867484,0.008011246100068,0.0,0.0,-0.2102928757667541,0.4783015251159668
-0.0263466835021972,1.1398627758026123,-0.1139914989471435,-0.6124996542930603,-0.0112040201202034,0.0162548180669546,0.0,0.0,-0.7775654196739197,0.3489080667495727
-0.027559470385313,1.1255415678024292,-0.1225167512893676,-0.6364908218383789,-0.0099792974069714,0.0244945790618658,0.0,0.0,-0.4646703004837036,-0.5534663200378418
-0.0288987159729003,1.1107062101364136,-0.1366925537586212,-0.6593363881111145,-0.007249956484884,0.0545869246125221,0.0,0.0,-0.963540494441986,0.4465731382369995
-0.0303230285644531,1.0953525304794312,-0.1456036865711212,-0.6823726296424866,-0.0041111893951892,0.0627749785780906,0.0,0.0,-0.7816970944404602,0.6478085517883301
-0.0317937843501567,1.0794856548309326,-0.1496521681547165,-0.7051849365234375,-0.0015739024383947,0.0507458634674549,0.0,0.0,0.1533221006393432,0.7993437051773071
-0.0333061218261718,1.063608169555664,-0.1525864154100418,-0.7056702375411987,-0.0002332451549591,0.0268131792545318,0.0,0.0,-0.9089363813400269,0.2346560955047607
-0.0349083915352821,1.0472122430801392,-0.1619871407747268,-0.7287060618400574,0.0015101958997547,0.0348687395453453,0.0,0.0,-0.7812053561210632,0.7804648876190186
-0.0365480408072471,1.030293583869934,-0.164775401353836,-0.7519375681877136,0.0023019374348223,0.0158350430428981,0.0,0.0,0.2468454837799072,0.429854154586792
-0.0383440963923931,1.0137639045715332,-0.1805143505334854,-0.7346510291099548,0.0032018523197621,0.0179983340203762,0.0,0.0,-0.9115855097770692,0.1750775575637817
-0.0402338989078998,0.9967160224914552,-0.1902908682823181,-0.7576869130134583,0.0044944416731595,0.0258519146591424,0.0,0.0,-0.9275827407836914,-0.2835286855697632
-0.0422185882925987,0.9791499376296996,-0.2001717537641525,-0.7807229161262512,0.006175491027534,0.0336212031543254,0.0,0.0,-0.1607646346092224,0.4718766212463379
-0.0442992225289344,0.9610655307769777,-0.2101479321718216,-0.8037590384483337,0.0082403682172298,0.0412973687052726,0.0,0.0,-0.9076305627822876,0.823556661605835
-0.0464140884578228,0.9424595832824708,-0.2123876363039016,-0.8269398212432861,0.0091176647692918,0.0175461452454328,0.0,0.0,0.5071672201156616,0.4058361053466797
-0.0485983863472938,0.9243775010108948,-0.2198511660099029,-0.8036639094352722,0.0105286100879311,0.0282190404832363,0.0,0.0,-0.4780980944633484,0.8975329399108887
-0.0508146286010742,0.905788004398346,-0.221743106842041,-0.826198399066925,0.0106378411874175,0.0021846150048077,0.0,0.0,0.8714382648468018,0.4723092317581177
-0.053105354309082,0.8877134919166565,-0.2297028005123138,-0.8033114671707153,0.0112553918734192,0.0123509094119071,0.0,0.0,0.1572517156600952,0.8559920787811279
-0.0555212013423442,0.8699459433555603,-0.2407964468002319,-0.7896707057952881,0.0104792471975088,-0.0155228972434997,0.0,0.0,-0.727480411529541,0.5252170562744141
-0.0579873099923133,0.8516595959663391,-0.2449067384004593,-0.8127156496047974,0.0087899854406714,-0.0337851829826831,0.0,0.0,-0.5194541215896606,0.8375554084777832
-0.0604774467647075,0.8328468203544617,-0.2456877529621124,-0.8361066579818726,0.0055037941783666,-0.0657238066196441,0.0,0.0,0.6481573581695557,0.9486159086227416
-0.0628855675458908,0.8143066763877869,-0.2360520362854004,-0.8239985704421997,0.0008065378642641,-0.0939455851912498,0.0,0.0,0.2333765029907226,0.6601030826568604
-0.0653775185346603,0.7955705523490906,-0.243378683924675,-0.8327257037162781,-0.004936518613249,-0.1148609071969986,0.0,0.0,-0.3347930312156677,0.4865082502365112
-0.0679720863699913,0.7763164043426514,-0.2539457678794861,-0.8557640910148621,-0.0103710172697901,-0.1086897403001785,0.0,0.0,0.4235866069793701,0.9469631910324096
-0.0705305114388465,0.7571149468421936,-0.2487841844558715,-0.853468656539917,-0.0173386521637439,-0.1393527537584304,0.0,0.0,0.3550705909729004,0.8815983533859253
-0.0732157677412033,0.7384317517280579,-0.2598818838596344,-0.8304842114448547,-0.0258717034012079,-0.1706612855195999,0.0,0.0,-0.7127702832221985,0.977299690246582
-0.0759443268179893,0.719237744808197,-0.2629607319831848,-0.853272557258606,-0.0356448702514171,-0.195463165640831,0.0,0.0,0.7160069942474365,0.9594146013259888
-0.0787069350481033,0.7003133296966553,-0.2646723687648773,-0.84140944480896,-0.0470993258059024,-0.2290893048048019,0.0,0.0,0.1312963962554931,0.8754639625549316
-0.0813718810677528,0.6814448833465576,-0.2534309327602386,-0.8390578627586365,-0.0600071400403976,-0.2581562399864197,0.0,0.0,0.7590428590774536,0.8168072700500488
-0.0840971022844314,0.6632406115531921,-0.2579366266727447,-0.809727132320404,-0.0744321420788765,-0.2885001301765442,0.0,0.0,-0.2298254966735839,0.3809795379638672
-0.0869272202253341,0.6445205211639404,-0.2686776220798492,-0.8327788710594177,-0.0886354744434356,-0.2840667366981506,0.0,0.0,0.5608968734741211,0.6887092590332031
-0.0897379890084266,0.6264095306396484,-0.2655875384807586,-0.8059261441230774,-0.1039954498410224,-0.3071996569633484,0.0,0.0,0.3677557706832886,0.5042519569396973
-0.0924403220415115,0.6083564162254333,-0.254271924495697,-0.8035455346107483,-0.1198477894067764,-0.3170468509197235,0.0,0.0,0.7141650915145874,-0.0913752317428588
-0.0952882766723632,0.5905340313911438,-0.2685878872871399,-0.7934885025024414,-0.1359819173812866,-0.3226824104785919,0.0,0.0,-0.0687616467475891,0.5658080577850342
-0.0981904044747352,0.5721913576126099,-0.2728955745697021,-0.8169019222259521,-0.1532594412565231,-0.3455504477024078,0.0,0.0,0.7039031982421875,0.851639986038208
-0.1008695587515831,0.5543172955513,-0.2493576258420944,-0.7964192628860474,-0.1718259006738662,-0.3713294565677643,0.0,0.0,0.9867122173309326,-0.486723244190216
-0.1033970862627029,0.5373691916465759,-0.2347948998212814,-0.7554255723953247,-0.1898475140333175,-0.3604318797588348,0.0,0.0,0.2902634143829345,-0.7833200693130493
-0.1060411483049392,0.5208536982536316,-0.2481117248535156,-0.7361956834793091,-0.2062555253505706,-0.3281601071357727,0.0,0.0,-0.3259503841400146,0.6551765203475952
-0.1087377518415451,0.5038004517555237,-0.2520914673805237,-0.760463297367096,-0.2240002602338791,-0.3548946380615234,0.0,0.0,0.8724935054779053,-0.6797822713851929
-0.1115356460213661,0.4874575138092041,-0.263435959815979,-0.728925347328186,-0.2405901104211807,-0.3317967057228088,0.0,0.0,0.5176341533660889,0.1035939455032348
-0.1142170876264572,0.471250981092453,-0.2524285912513733,-0.7229410409927368,-0.2565909028053283,-0.32001593708992,0.0,0.0,0.4608067274093628,-0.543986976146698
-0.116887666285038,0.4553238749504089,-0.2525753378868103,-0.7104715704917908,-0.2713893055915832,-0.2959682941436767,0.0,0.0,0.3343498706817627,-0.6931484937667847
-0.119625374674797,0.4393629431724548,-0.2607658803462982,-0.7118439078330994,-0.2847446501255035,-0.267106831073761,0.0,0.0,0.8790814876556396,-0.7496454119682312
-0.1224850639700889,0.4239432513713836,-0.2741758525371551,-0.687671959400177,-0.2968994379043579,-0.243095725774765,0.0,0.0,0.6547921895980835,-0.1182222366333007
-0.1251810044050216,0.4092271327972412,-0.2579365670681,-0.6564746499061584,-0.308953195810318,-0.2410749644041061,0.0,0.0,0.8535441160202026,-0.9156140685081482
-0.1278586387634277,0.394439160823822,-0.2580968737602234,-0.6593350172042847,-0.3189945816993713,-0.2008272856473922,0.0,0.0,0.9221246242523192,-0.876305341720581
-0.130363181233406,0.3805743455886841,-0.242570087313652,-0.6179676055908203,-0.3271995186805725,-0.1640984714031219,0.0,0.0,0.8725179433822632,-0.9784530401229858
-0.1329894065856933,0.3670445084571838,-0.2564627528190613,-0.6027341485023499,-0.3336327373981476,-0.1286638081073761,0.0,0.0,0.8828438520431519,-0.9694274663925172
-0.1356519758701324,0.3541890680789947,-0.2617779970169067,-0.5723955035209656,-0.338315486907959,-0.0936549007892608,0.0,0.0,0.9291467666625975,-0.7117778062820435
-0.1381973326206207,0.34185391664505,-0.2514775097370147,-0.548951268196106,-0.341515839099884,-0.0640071853995323,0.0,0.0,0.8598716259002686,-0.419092059135437
-0.1406689584255218,0.3304175436496734,-0.2433922290802002,-0.509183406829834,-0.3454667627811432,-0.079018697142601,0.0,0.0,0.5092051029205322,-0.6987852454185486
-0.143052190542221,0.319198340177536,-0.235963225364685,-0.4992015659809112,-0.3479417264461517,-0.0494990870356559,0.0,0.0,0.9342862367630004,-0.5134363174438477
-0.1454653739929199,0.3081451952457428,-0.2397441864013672,-0.4916326105594635,-0.349595308303833,-0.0330712646245956,0.0,0.0,0.8841370344161987,0.5158387422561646
-0.1477455198764801,0.2970286309719085,-0.2255474776029586,-0.4946713447570801,-0.3521868586540222,-0.0518308095633983,0.0,0.0,0.862001895904541,-0.967825412750244
-0.1501123458147049,0.2859838008880615,-0.2359200417995453,-0.491068422794342,-0.352988600730896,-0.016034772619605,0.0,0.0,0.9606530666351318,-0.0669254660606384
-0.1522706001996994,0.2757513523101806,-0.2149023562669754,-0.4550055265426636,-0.3539693355560303,-0.0196145512163639,0.0,0.0,0.9308099746704102,-0.5444633364677429
-0.1541517227888107,0.2663183212280273,-0.188379168510437,-0.4191776812076568,-0.353684514760971,0.0056963209062814,0.0,0.0,0.9743480682373048,-0.6293918490409851
-0.1559810638427734,0.2578481435775757,-0.1839382797479629,-0.3762046098709106,-0.3526314496994018,0.0210615266114473,0.0,0.0,0.6873866319656372,0.3110837936401367
-0.1579246520996093,0.249405175447464,-0.1946299821138382,-0.3751799762248993,-0.3523483872413635,0.0056614708155393,0.0,0.0,0.6218866109848022,0.6790680885314941
-0.1596151292324066,0.2414927333593368,-0.1679300218820572,-0.3519364595413208,-0.3535277247428894,-0.0235869027674198,0.0,0.0,0.2235720157623291,-0.4713863134384155
-0.1613350808620453,0.2337016612291336,-0.1703701317310333,-0.3466691970825195,-0.3552277982234955,-0.0340018980205059,0.0,0.0,0.5844783782958984,-0.5904409885406494
-0.1630311012268066,0.2263634949922561,-0.1688500642776489,-0.3263294994831085,-0.3560267090797424,-0.0159782357513904,0.0,0.0,0.611412763595581,-0.652113676071167
-0.1646543443202972,0.2195032685995102,-0.1626415252685547,-0.3048209249973297,-0.3556976020336151,0.0065819681622087,0.0,0.0,0.3536313772201538,-0.4751989841461181
-0.1661500930786132,0.2127586156129837,-0.1500167548656463,-0.2996538579463959,-0.3552309572696686,0.0093328161165118,0.0,0.0,0.0948327779769897,-0.9220375418663024
-0.167724609375,0.2058352380990982,-0.159495323896408,-0.3072023689746856,-0.3530833423137665,0.0429531708359718,0.0,0.0,0.6247502565383911,-0.3761252164840698
-0.1691810637712478,0.1989044696092605,-0.1478993743658065,-0.3074795603752136,-0.3507176041603088,0.0473147630691528,0.0,0.0,0.5414807796478271,-0.3324089050292969
-0.1704295128583908,0.1921363025903701,-0.1275027096271515,-0.300161212682724,-0.3479257822036743,0.0558363609015941,0.0,0.0,0.4854813814163208,-0.6685142517089844
-0.171581745147705,0.1853028088808059,-0.119230255484581,-0.302749365568161,-0.3437206447124481,0.0841025859117508,0.0,0.0,0.4971035718917846,-0.3628020286560058
-0.1726119965314865,0.1789161562919616,-0.106813944876194,-0.2829532325267792,-0.3397572040557861,0.0792689099907875,0.0,0.0,0.1082518100738525,-0.929786205291748
-0.173618882894516,0.1727630198001861,-0.106088675558567,-0.2722101211547851,-0.3341063559055328,0.1130169406533241,0.0,0.0,-0.0233576297760009,-0.8526045680046082
-0.1747764647006988,0.1661223024129867,-0.1222787350416183,-0.2936511039733886,-0.3272947371006012,0.1362324953079223,0.0,0.0,0.2648630142211914,-0.5622212886810303
-0.1759169548749923,0.1592947542667389,-0.1216292381286621,-0.3017497658729553,-0.319405734539032,0.1577798426151275,0.0,0.0,0.6535046100616455,0.2524375915527344
-0.1770466864109039,0.1527012437582016,-0.1201140061020851,-0.2914887368679046,-0.311992883682251,0.1482571959495544,0.0,0.0,0.8417373895645142,-0.6003499031066895
-0.1779269278049469,0.146946296095848,-0.0963904336094856,-0.2539986670017242,-0.3033205568790436,0.1734464615583419,0.0,0.0,0.3864263296127319,-0.754472017288208
-0.1788392961025238,0.1413949131965637,-0.1008577793836593,-0.2447494715452194,-0.2933829724788666,0.1987517923116684,0.0,0.0,0.8283531665802002,-0.3963388204574585
-0.1797250807285308,0.1366511881351471,-0.0973612293601036,-0.2090862393379211,-0.2843243777751922,0.1811719536781311,0.0,0.0,0.7411339282989502,-0.4253134131431579
-0.1804112493991851,0.1324113756418228,-0.0776084661483764,-0.1867088824510574,-0.2750861644744873,0.1847636699676513,0.0,0.0,0.6177425384521484,-0.3721141815185547
-0.181041806936264,0.1287371069192886,-0.0715926587581634,-0.1617173105478286,-0.2663377821445465,0.1749678701162338,0.0,0.0,0.428763747215271,-0.0283280611038208
-0.1816630363464355,0.1255116611719131,-0.0701098591089248,-0.1419202387332916,-0.2581701278686523,0.16335329413414,0.0,0.0,0.1573097705841064,-0.2720416784286499
-0.1823025643825531,0.1222822070121765,-0.0716324001550674,-0.1421998143196106,-0.2503352463245392,0.1566978096961975,0.0,0.0,0.5347297191619873,0.5779625177383423
-0.1829618513584137,0.1193749755620956,-0.0719560831785202,-0.1281962543725967,-0.2441974282264709,0.1227564811706543,0.0,0.0,0.3876633644104004,0.1372057199478149
-0.1837244033813476,0.1166367605328559,-0.0814755111932754,-0.120841383934021,-0.2389010339975357,0.1059279590845108,0.0,0.0,0.574720025062561,0.7498595714569092
-0.184243768453598,0.1143233403563499,-0.0556059703230857,-0.1022271886467933,-0.2351724356412887,0.0745719671249389,0.0,0.0,0.6613004207611084,0.2346284389495849
-0.1846998184919357,0.1120122745633125,-0.0493015460669994,-0.1021286621689796,-0.2314197123050689,0.0750544071197509,0.0,0.0,0.4879889488220215,0.0195620059967041
-0.1849520653486251,0.110142171382904,-0.0292552709579467,-0.0824879184365272,-0.2273260951042175,0.0818721279501915,0.0,0.0,0.5037614107131958,-0.7834246158599854
-0.1852053701877594,0.1088221669197082,-0.0306372791528701,-0.0578590258955955,-0.2219504117965698,0.1075136065483093,0.0,0.0,-0.0288034081459045,-0.5649831891059875
-0.1855669021606445,0.1070026978850364,-0.0420630872249603,-0.0799892246723175,-0.2159688919782638,0.1196300238370895,0.0,0.0,0.2251355648040771,-0.4607390761375427
-0.1858543455600738,0.1052777171134948,-0.0346605107188224,-0.0758149474859237,-0.2099952697753906,0.1194723695516586,0.0,0.0,0.0322041511535644,0.0883858203887939
-0.1861104071140289,0.1037852615118026,-0.0312383268028497,-0.0655386671423912,-0.2043140679597854,0.113624133169651,0.0,0.0,-0.0068609714508056,-0.4974595308303833
-0.1864340752363205,0.1017757505178451,-0.0377325117588043,-0.0885816439986229,-0.1989063620567321,0.1081542000174522,0.0,0.0,0.246362566947937,0.1329951286315918
-0.1866942346096038,0.09973955899477,-0.0313976183533668,-0.0897838547825813,-0.1934929639101028,0.1082680225372314,0.0,0.0,0.0357069969177246,0.0911957025527954
-0.1870163977146148,0.0977788269519805,-0.0369663313031196,-0.0865311473608017,-0.1887116581201553,0.0956259816884994,0.0,0.0,0.1932780742645263,0.6698248386383057
-0.1873769760131836,0.0958610847592353,-0.0390578284859657,-0.0848533436655998,-0.1856975704431533,0.0602815970778465,0.0,0.0,0.2554409503936767,0.2655514478683471
-0.1877288818359375,0.0940619334578514,-0.037829466164112,-0.0796353295445442,-0.18304044008255,0.0531427338719368,0.0,0.0,0.3903062343597412,0.9014053344726562
-0.1879551857709884,0.0923793613910675,-0.0232238508760929,-0.0747075006365776,-0.1824526637792587,0.0117555437609553,0.0,0.0,0.6067149639129639,0.6273986101150513
-0.1879814118146896,0.0906385034322738,-0.0019784769974648,-0.077452503144741,-0.1830974966287613,-0.0128964157775044,0.0,0.0,0.5974075794219971,0.4022912979125976
-0.1878373175859451,0.0893293693661689,0.0148955937474966,-0.0582449026405811,-0.183593213558197,-0.0099143786355853,0.0,0.0,0.4240924119949341,0.0839806795120239
-0.1875839233398437,0.0885221362113952,0.0260242037475109,-0.0359617471694946,-0.1842775493860244,-0.0136865405365824,0.0,0.0,0.2684179544448852,-0.0860565304756164
