x_pos,y_pos,x_vel,y_vel,angle,ang_vel,leg_1,leg_2,main_booster,lat_booster
-0.0015016555553302,1.403533697128296,-0.1512857526540756,-0.3282878696918487,0.0009902020683512,0.019475782290101,0.0,0.0,-0.0300088221776777,0.6190996888774412
-0.0029265403281897,1.3960766792297363,-0.1413442939519882,-0.3314272463321686,-0.0001437722094124,-0.022680876776576,0.0,0.0,0.5270012053239039,0.58165126111827
-0.0041457177139818,1.389083981513977,-0.1191758066415786,-0.3107841908931732,-0.0028594895265996,-0.0543194711208343,0.0,0.0,0.4193040264525951,-0.6831377077282026
-0.005502033047378,1.3826428651809692,-0.1332393139600753,-0.2862806916236877,-0.0052212174050509,-0.0472384169697761,0.0,0.0,-0.8039896940441738,-0.6328208970528046
-0.0068671228364109,1.3761132955551147,-0.1343380659818649,-0.2902165055274963,-0.0073741734959185,-0.0430632382631301,0.0,0.0,-0.011231996621613,-0.609626523528233
-0.0082374569028615,1.3694922924041748,-0.134998470544815,-0.2942691147327423,-0.0093733025714755,-0.0399863347411155,0.0,0.0,0.1246768687716455,-0.5201046617528884
-0.0096281049773097,1.3633712530136108,-0.1372630149126052,-0.2720580995082855,-0.0111584076657891,-0.0357058458030223,0.0,0.0,-0.3343433172437131,-0.6244773436862636
-0.011020565405488,1.3571618795394895,-0.1375899612903595,-0.2759860455989837,-0.0127959754317998,-0.0327540524303913,0.0,0.0,-0.8974504837230137,0.8743297088324988
-0.0123088834807276,1.350870132446289,-0.1246598362922668,-0.2796722948551178,-0.0169151946902275,-0.082392431795597,0.0,0.0,0.951820599876142,-0.5031157819560308
-0.013585090637207,1.345779299736023,-0.123668685555458,-0.2263134866952896,-0.0208260118961334,-0.0782234296202659,0.0,0.0,0.5019292385502692,0.7833991280341425
-0.0146618839353322,1.3414041996002195,-0.1015064492821693,-0.1945450156927108,-0.0269282925873994,-0.1220570653676986,0.0,0.0,0.2276915509048271,0.9017718643393235
-0.0155557636171579,1.3375208377838137,-0.0806408002972602,-0.1727799624204635,-0.0355679132044315,-0.1728080809116363,0.0,0.0,-0.4585864208559282,-0.8524736533380666
-0.0164604187011718,1.333554983139038,-0.0822708010673523,-0.1764766126871109,-0.0436715818941593,-0.1620883643627166,0.0,0.0,-0.0328810308803424,0.9624887896148392
-0.0172381401062011,1.3294854164123535,-0.0666289329528808,-0.1812269240617752,-0.0546976625919342,-0.2205419540405273,0.0,0.0,0.0268537168956699,-0.9630291343346676
-0.0179141052067279,1.3261021375656128,-0.0575755015015602,-0.1507657468318939,-0.0646357387304306,-0.1987795978784561,0.0,0.0,0.3822672759877565,-0.6695495054187537
-0.0184816364198923,1.3229893445968628,-0.0474486351013183,-0.1387674063444137,-0.0738515406847,-0.1843323856592178,0.0,0.0,-0.1850930716496586,0.9097333277301716
-0.0189152713865041,1.3197890520095823,-0.0310323648154735,-0.1428916305303573,-0.0860810801386833,-0.2446133345365524,0.0,0.0,0.9699171894986258,0.6984897104003676
-0.0190274231135845,1.3171321153640747,0.0028270117472857,-0.1189535036683082,-0.1000277400016784,-0.2789587080478668,0.0,0.0,0.1373474707984265,0.9068735747205464
-0.0188876148313283,1.3151991367340088,0.0306031312793493,-0.0871034190058708,-0.1165508851408958,-0.3304929137229919,0.0,0.0,0.7682981853965969,-0.7588234418650798
-0.0187828056514263,1.3141090869903564,0.0265528000891208,-0.0497833415865898,-0.1325582712888717,-0.3201770186424255,0.0,0.0,-0.7715154296218363,0.7906770933465899
-0.0185540206730365,1.312924027442932,0.0416217446327209,-0.0544396601617336,-0.1512721925973892,-0.3743125200271606,0.0,0.0,0.453951146086295,-0.5974481714426864
-0.018253231421113,1.3122365474700928,0.0483454354107379,-0.0325169414281845,-0.1695645898580551,-0.3658811151981354,0.0,0.0,0.9235475505348468,-0.9776170496288784
-0.0177067760378122,1.3123767375946045,0.0714307874441146,0.0042293323203921,-0.1864171773195266,-0.3370818197727203,0.0,0.0,0.6731858331733425,0.6299555472706994
-0.0169283859431743,1.3128560781478882,0.0964339524507522,0.0188553500920534,-0.2051545083522796,-0.3747802674770355,0.0,0.0,0.6798057272901668,0.5117637870846845
-0.0160768516361713,1.3142486810684204,0.1059018746018409,0.0588821209967136,-0.2261425554752349,-0.4197983145713806,0.0,0.0,-0.9042784280495236,-0.5455850597089256
-0.0152290342375636,1.3155581951141355,0.1048951894044876,0.0549849458038806,-0.2465610802173614,-0.4083704352378845,0.0,0.0,-0.9597014502255,-0.5502915765605179
-0.0143713001161813,1.3168039321899414,0.1054889559745788,0.0519307628273963,-0.2666713893413543,-0.4022070467472076,0.0,0.0,0.8479657015937212,-0.710751294955251
-0.0134242055937647,1.31939435005188,0.1140529885888099,0.11148352175951,-0.2864979803562164,-0.3965317904949188,0.0,0.0,0.4796950984217678,0.9291397038575024
-0.0122842788696289,1.3229334354400637,0.1359156221151352,0.1528252810239792,-0.309133380651474,-0.4527081847190857,0.0,0.0,-0.3559952859572208,-0.7166207442933447
-0.0111478809267282,1.3264154195785522,0.1347230374813079,0.1501082330942154,-0.331057459115982,-0.4384813904762268,0.0,0.0,0.2465290513675642,0.6827841366830313
-0.0096832271665334,1.3306962251663208,0.1694451719522476,0.1848015785217285,-0.3551423549652099,-0.4816981256008148,0.0,0.0,-0.8458568453788757,-0.9494303464889526
-0.0082454681396484,1.3349353075027466,0.1652460098266601,0.1829354912042617,-0.3778278231620788,-0.4537099301815033,0.0,0.0,-0.7892132997512817,-0.9786210656166076
-0.0068328855559229,1.3391504287719729,0.1611280143260955,0.1819348335266113,-0.3990023136138916,-0.4234895706176758,0.0,0.0,-0.8180018663406372,-0.9517633318901062
-0.0054448125883936,1.343324065208435,0.1572200208902359,0.1801934689283371,-0.4188029170036316,-0.3960123658180237,0.0,0.0,-0.8574485182762146,-0.980116605758667
-0.0040704729035496,1.3474632501602173,0.1545849740505218,0.1787536144256591,-0.437411367893219,-0.3721688687801361,0.0,0.0,-0.7252092957496643,-0.9083373546600342
-0.0027027130126953,1.351569890975952,0.1528273373842239,0.1774108856916427,-0.4549635946750641,-0.3510447144508362,0.0,0.0,-0.8948162794113159,-0.8181436061859131
-0.0013422012561932,1.3556339740753174,0.1510761082172393,0.1756421625614166,-0.4715233743190765,-0.331196129322052,0.0,0.0,-0.8282937407493591,-0.8017528653144836
2.2220610844669864e-05,1.3596606254577637,0.1506154537200927,0.1740621775388717,-0.4872830510139465,-0.3151933848857879,0.0,0.0,-0.6536146402359009,-0.9001808762550354
0.0013778686989098,1.3636653423309326,0.1485147476196289,0.1733472496271133,-0.5017917156219482,-0.2901731133460998,0.0,0.0,-0.86590975522995,-0.8258373737335205
0.0027343749534338,1.367631912231445,0.1477089524269104,0.1718154847621917,-0.5154168009757996,-0.2725020349025726,0.0,0.0,-0.8528634309768677,-0.8456663489341736
0.0040801046416163,1.3715780973434448,0.1453555524349212,0.1712638288736343,-0.5276999473571777,-0.2456627190113067,0.0,0.0,-0.8694981336593628,-0.9086138606071472
0.0054306983947753,1.3754812479019165,0.1451136618852615,0.169517382979393,-0.5392265319824219,-0.2305316478013992,0.0,0.0,-0.936526894569397,-0.96195787191391
0.0067777633666992,1.3793394565582275,0.1439027637243271,0.1677795201539993,-0.5498235821723938,-0.2119413316249847,0.0,0.0,-0.8809685111045837,-0.8366877436637878
0.0081321718171238,1.3831548690795898,0.1439566910266876,0.1660584062337875,-0.5596995949745178,-0.1975203156471252,0.0,0.0,-0.9058177471160888,-0.9220308065414428
0.0094719883054494,1.3869374990463257,0.1413140296936035,0.1650349646806717,-0.5682522058486938,-0.1710523664951324,0.0,0.0,-0.96379154920578,-0.8492026329040527
0.0108115198090672,1.3906776905059814,0.1404673755168914,0.1634346693754196,-0.5758973360061646,-0.1529027670621872,0.0,0.0,-0.9666301608085632,-0.8440098762512207
0.012154197320342,1.3943774700164795,0.140009269118309,0.1619276851415634,-0.582676351070404,-0.1355805248022079,0.0,0.0,-0.8347077965736389,-0.8939138054847717
0.0134858135133981,1.3980681896209717,0.1375821828842163,0.1620827466249466,-0.5879088640213013,-0.1046501025557518,0.0,0.0,-0.9134843945503236,-0.856149435043335
0.0148069383576512,1.401747703552246,0.1352411657571792,0.1621342301368713,-0.5916242599487305,-0.0743079036474227,0.0,0.0,-0.922442615032196,-0.5063146352767944
0.0161478035151958,1.4053747653961182,0.1368836313486099,0.1599480211734771,-0.5949501395225525,-0.0665180832147598,0.0,0.0,-0.941518247127533,-0.8787288665771484
0.0174997337162494,1.4089601039886477,0.137375921010971,0.1583572328090667,-0.5975641012191772,-0.0522779710590839,0.0,0.0,-0.8284419178962708,-0.7220412492752075
0.0188566204160451,1.4125158786773682,0.1370568424463272,0.1574167758226394,-0.5991871356964111,-0.0324610546231269,0.0,0.0,-0.937591016292572,-0.7452027797698975
0.0202269554138183,1.416023015975952,0.1378879249095916,0.1554762572050094,-0.6002164483070374,-0.0205863267183303,0.0,0.0,-0.9787277579307556,-0.8836343884468079
0.0215980522334575,1.419508934020996,0.1369625926017761,0.1549998968839645,-0.6000422239303589,0.0034842062741518,0.0,0.0,-0.9496861100196838,-0.6673754453659058
0.0229899398982524,1.422940373420715,0.1387167125940323,0.1527200639247894,-0.5994853973388672,0.0111360140144824,0.0,0.0,-0.9229340553283693,-0.7331340909004211
0.0243799202144145,1.4263393878936768,0.137573629617691,0.1517111808061599,-0.5977885723114014,0.0339366868138313,0.0,0.0,-0.9667351841926576,-0.7508585453033447
0.0257856361567974,1.4296996593475342,0.1385612934827804,0.1502632349729538,-0.5953893065452576,0.047984953969717,0.0,0.0,-0.9663417339324952,-0.7093047499656677
0.0272109992802143,1.4330124855041504,0.1400870829820633,0.148336187005043,-0.5924702882766724,0.0583816654980182,0.0,0.0,-0.9500190019607544,-0.5076424479484558
0.0286633484065532,1.436272382736206,0.1425131410360336,0.1461096704006195,-0.5892348885536194,0.064708411693573,0.0,0.0,-0.9257640838623048,-0.8446708917617798
0.0301105491816997,1.4395142793655396,0.1407948285341262,0.145823985338211,-0.5845758318901062,0.0931815207004547,0.0,0.0,-0.5885871052742004,-0.8795310258865356
0.0315562263131141,1.4427156448364258,0.1396937668323516,0.1444202065467834,-0.5788202285766602,0.1151126474142074,0.0,0.0,-0.9204941391944884,-0.5474062561988831
0.0330147743225097,1.4458742141723633,0.1403081566095352,0.1427773535251617,-0.5722928643226624,0.1305468380451202,0.0,0.0,-0.9518630504608154,-0.6100338697433472
0.0344943031668663,1.448975920677185,0.1419980674982071,0.1403960585594177,-0.5653143525123596,0.1395699828863144,0.0,0.0,-0.931508243083954,-0.5204188823699951
0.0359944328665733,1.4520233869552612,0.1435951888561248,0.1381370723247528,-0.557830810546875,0.1496709138154983,0.0,0.0,-0.9112664461135864,-0.8646616339683533
0.0374888405203819,1.4550321102142334,0.1419049352407455,0.1368274390697479,-0.5490801334381104,0.1750134527683258,0.0,0.0,-0.805438756942749,-0.1595146656036377
0.0390362739562988,1.4579545259475708,0.1476060003042221,0.1327633559703827,-0.5408526062965393,0.1645502001047134,0.0,0.0,-0.9346807599067688,-0.7793624401092529
0.0405892357230186,1.460843205451965,0.1471717059612274,0.1316141486167907,-0.5315107107162476,0.1868383735418319,0.0,0.0,-0.8745875358581543,-0.680804967880249
0.0421524047851562,1.463673114776611,0.1474789679050445,0.1292160302400589,-0.5214071273803711,0.2020711451768875,0.0,0.0,-0.9662994742393494,-0.5835235714912415
0.0437327399849891,1.466455101966858,0.1484737992286682,0.1272555440664291,-0.5105594992637634,0.2169523984193802,0.0,0.0,-0.9792073965072632,-0.5554475784301758
0.045320700854063,1.4691848754882812,0.1483533829450607,0.1251807510852813,-0.4987770915031433,0.2356489449739456,0.0,0.0,-0.9557615518569946,-0.4302833080291748
0.0469608306884765,1.4718279838562012,0.1538334935903549,0.1211192086338996,-0.4873842000961303,0.2278584241867065,0.0,0.0,-0.948643445968628,-0.623921275138855
0.0486120209097862,1.4744175672531128,0.1540959924459457,0.1189439818263053,-0.4751022458076477,0.2456390857696533,0.0,0.0,-0.991940975189209,-0.2920213937759399
0.0503147132694721,1.476920247077942,0.1594661921262741,0.1148845329880714,-0.4631461203098297,0.2391227930784225,0.0,0.0,-0.9439345598220824,-0.8178362250328064
0.0520182624459266,1.479373335838318,0.1583897024393081,0.1129534989595413,-0.4499787390232086,0.2633475661277771,0.0,0.0,-0.958296537399292,-0.196599006652832
0.0537727363407611,1.4817392826080322,0.163634791970253,0.10889533162117,-0.4370684623718261,0.2582056224346161,0.0,0.0,-0.8581456542015076,-0.0959755182266235
0.0555776581168174,1.4840174913406372,0.168812483549118,0.1048391237854957,-0.4243793189525604,0.2537828087806701,0.0,0.0,-0.9724542498588562,-0.6952698230743408
0.0573784820735454,1.4862371683120728,0.1671003252267837,0.1025002971291542,-0.4103635549545288,0.2803151309490204,0.0,0.0,-0.9753863215446472,-0.6348304748535156
0.0591842643916606,1.4884049892425537,0.1664135754108429,0.1003802493214607,-0.3951533436775207,0.3042040467262268,0.0,0.0,-0.9756817817687988,-0.6289083361625671
0.0610017776489257,1.490516185760498,0.1665174961090088,0.0979719087481498,-0.3789172768592834,0.3247212767601013,0.0,0.0,-0.9543150067329408,-0.5259127616882324
0.0628240555524826,1.4925721883773804,0.1657457202672958,0.0956611111760139,-0.3614599704742431,0.3491453528404236,0.0,0.0,-0.9836252331733704,-0.2934802770614624
0.0646948814392089,1.4945417642593384,0.1705139577388763,0.0916005820035934,-0.3440355062484741,0.3484900593757629,0.0,0.0,-0.9579008221626282,0.1724903583526611
0.0666135773062706,1.4964239597320557,0.1751881539821624,0.0875411182641983,-0.3266056478023529,0.3485977053642273,0.0,0.0,-0.9733281135559082,-0.0956243276596069
0.0685793906450271,1.4982192516326904,0.1797634363174438,0.08348248898983,-0.3091325759887695,0.3494619727134704,0.0,0.0,-0.986776888370514,-0.6382731795310974
0.0705399513244628,1.4999550580978394,0.1776980459690094,0.0809414461255073,-0.2901574671268463,0.3795022368431091,0.0,0.0,-0.9850473403930664,-0.2642068862915039
0.0725462883710861,1.5016043186187744,0.1820586621761322,0.0768796876072883,-0.2710652649402618,0.3818436861038208,0.0,0.0,-0.9919870495796204,-0.059738278388977
0.0745975524187088,1.503166675567627,0.1863054931163787,0.0728180035948753,-0.2518202364444732,0.3849010169506073,0.0,0.0,-0.9593021273612976,-0.0094551444053649
0.0766928642988205,1.5046426057815552,0.1904335469007492,0.0687561854720115,-0.2323874980211258,0.3886546492576599,0.0,0.0,-0.9953515529632568,-0.6421144008636475
0.0787890404462814,1.50604248046875,0.1891154199838638,0.0653188452124595,-0.2116418778896331,0.414912462234497,0.0,0.0,-0.9587246775627136,0.4985661506652832
0.0809273719787597,1.5073564052581787,0.1929896175861358,0.0612523704767227,-0.1906424611806869,0.4199883341789245,0.0,0.0,-0.9785951375961304,0.1213968992233276
0.0831068009138107,1.5085846185684204,0.1967302858829498,0.0571849271655082,-0.1693580448627472,0.4256885051727295,0.0,0.0,-0.9853717684745787,-0.163441777229309
0.0853261947631836,1.5097274780273438,0.2003326416015625,0.0531162582337856,-0.1477587521076202,0.4319860339164734,0.0,0.0,-0.9871129989624025,0.5248064994812012
0.08762788772583,1.5107790231704712,0.209251120686531,0.0486833490431308,-0.1269175708293914,0.4168238639831543,0.0,0.0,-0.8770913481712341,0.8738464117050171
0.0900498405098915,1.5117318630218506,0.2229801714420318,0.0438763350248336,-0.1078103855252265,0.3821439445018768,0.0,0.0,-0.9582107663154602,0.8720406293869019
0.0925871878862381,1.5125757455825806,0.236128494143486,0.0386831201612949,-0.0903410911560058,0.3493857085704803,0.0,0.0,-0.9422576427459716,0.9726934432983398
0.0952289551496505,1.5133196115493774,0.2478993386030197,0.0339716784656047,-0.0742212161421775,0.3223975598812103,0.0,0.0,-0.8340141773223877,0.965534806251526
0.0979912728071212,1.5139774084091189,0.261709064245224,0.0298879910260438,-0.0598475225269794,0.2874735891819,0.0,0.0,-0.9019434452056884,0.9114686250686646
0.1008544936776161,1.5145398378372192,0.2730768918991089,0.0254762079566717,-0.0467523969709873,0.2619026303291321,0.0,0.0,-0.907221019268036,0.963315725326538
0.1038086861371994,1.515018105506897,0.2832022607326507,0.0215822663158178,-0.0346906073391437,0.2412358969449997,0.0,0.0,-0.908511757850647,0.9368960857391356
0.1068763732910156,1.5154070854187012,0.2962020635604858,0.0174994822591543,-0.0242563504725694,0.2086851894855499,0.0,0.0,-0.9704504013061525,0.6655062437057495
0.1100191101431846,1.515709638595581,0.3044037222862243,0.0135724106803536,-0.0145047819241881,0.1950313001871109,0.0,0.0,-0.923400580883026,0.975815773010254
0.1132541671395301,1.5159279108047483,0.3147682249546051,0.0097598200663924,-0.005887346342206,0.1723486185073852,0.0,0.0,-0.7472734451293945,0.5437638759613037
0.1165542602539062,1.5160540342330933,0.3217672407627105,0.0056172842159867,0.0022485195659101,0.1627177298069,0.0,0.0,-0.9653021693229676,-0.214170217514038
0.1198766678571701,1.5160903930664062,0.32341268658638,0.0015758749796077,0.0109541704878211,0.174112781882286,0.0,0.0,-0.7513741850852966,0.2221217155456543
0.1232194900512695,1.5160369873046875,0.3248796463012695,-0.0024667687248438,0.0202431138604879,0.1857790350914001,0.0,0.0,-0.8609070777893066,0.1453831195831298
0.1265812814235687,1.5158944129943848,0.3261678218841553,-0.0065107690170407,0.0301280133426189,0.1976980119943618,0.0,0.0,-0.7591610550880432,-0.3906337022781372
0.1299603432416916,1.5156625509262085,0.3272774517536163,-0.0105562508106231,0.0406206250190734,0.2098523080348968,0.0,0.0,-0.8069034218788147,0.5259959697723389
0.1334063559770584,1.5153487920761108,0.3346743285655975,-0.0142463529482483,0.0504327602684497,0.1962426900863647,0.0,0.0,-0.9483532309532166,0.7887215614318848
0.1369259804487228,1.514956831932068,0.3429325520992279,-0.0177483297884464,0.0593626387417316,0.1785976439714431,0.0,0.0,-0.8369158506393433,-0.296807587146759
0.1404579132795334,1.5144758224487305,0.3435119986534118,-0.0217939373105764,0.06893090903759,0.191365510225296,0.0,0.0,-0.8197649717330933,-0.9803020358085632
0.1439326256513595,1.513899326324463,0.335436999797821,-0.0262275841087102,0.0808508917689323,0.2383996248245239,0.0,0.0,-0.8256831169128418,-0.7580868601799011
0.1473552733659744,1.5132349729537964,0.3280392587184906,-0.0303535088896751,0.0949521362781524,0.2820251584053039,0.0,0.0,-0.8460180759429932,0.111724853515625
0.150785356760025,1.5124834775924685,0.3281076550483703,-0.0344111509621143,0.1097162812948226,0.2952829003334045,0.0,0.0,-0.8998254537582397,0.9860676527023317
0.1543089896440506,1.5116543769836426,0.3390831649303436,-0.0378780104219913,0.1229219287633895,0.2641130685806274,0.0,0.0,-0.7861671447753906,0.2402194738388061
0.1578366309404373,1.5107380151748655,0.3388251066207886,-0.0419352501630783,0.1368041485548019,0.2776439785957336,0.0,0.0,-0.7616372108459473,0.9423270225524902
0.1614251136779785,1.5097440481185913,0.3457271456718445,-0.0454344004392623,0.1498883664608001,0.2616845965385437,0.0,0.0,-0.93917053937912,-0.0004717707633972
0.1650144606828689,1.5086629390716553,0.3451579213142395,-0.0494929887354373,0.163660854101181,0.27544966340065,0.0,0.0,-0.9157789945602416,-0.0750409364700317
0.1686032265424728,1.5074952840805054,0.344439834356308,-0.0535539425909519,0.1781267672777176,0.2893182635307312,0.0,0.0,-0.7449663281440735,-0.4312982559204101
0.1721900999546051,1.5062413215637207,0.3435774445533752,-0.0576173774898052,0.1932909041643142,0.3032824695110321,0.0,0.0,-0.887113630771637,-0.181987464427948
0.1757734268903732,1.5049015283584597,0.3425756096839905,-0.0616834238171577,0.2091576308012008,0.3173346221446991,0.0,0.0,-0.8894190788269043,-0.6605543494224548
0.1793018281459808,1.503467321395874,0.3352012932300567,-0.0663467422127723,0.2269995659589767,0.3568386435508728,0.0,0.0,-0.8275465369224548,-0.4460352659225464
0.1828239411115646,1.501948595046997,0.3339368402957916,-0.0704220160841941,0.2455517500638961,0.3710441291332245,0.0,0.0,-0.7342382073402405,-0.1218326091766357
