x_pos,y_pos,x_vel,y_vel,angle,ang_vel,leg_1,leg_2,main_booster,lat_booster
-0.0015015602111816,1.4031413793563845,-0.151882603764534,-0.3457245528697967,0.0015484605683013,0.0305287633091211,0.0,0.0,-0.4270741939544678,0.9198691844940186
-0.0029020309448242,1.3948982954025269,-0.1393735855817794,-0.3663596510887146,0.0008715338772162,-0.0135388765484094,0.0,0.0,0.2289739847183227,0.3265013694763183
-0.0041805268265306,1.386622428894043,-0.1274318546056747,-0.3678167164325714,0.0004596538783516,-0.0082383900880813,0.0,0.0,0.3229312896728515,0.4178755283355713
-0.0055313110351562,1.3784631490707395,-0.1339817345142364,-0.3626289665699005,-0.0006250205915421,-0.0216954834759235,0.0,0.0,-0.1939988136291504,0.2538790702819824
-0.0068586347624659,1.3698207139968872,-0.1314020454883575,-0.3841058909893036,-0.0019253632053732,-0.0260093361139297,0.0,0.0,0.2522586584091186,0.3318517208099365
-0.0080571174621582,1.3613125085830688,-0.1188138276338577,-0.37814661860466,-0.0029466021806001,-0.0204268433153629,0.0,0.0,-0.1536767482757568,0.1584610939025879
-0.0092314723879098,1.3523210287094116,-0.116181194782257,-0.3996258676052093,-0.0041879178024828,-0.0248284880071878,0.0,0.0,-0.4726746082305908,0.4754090309143066
-0.0103815076872706,1.3428462743759155,-0.1135241016745567,-0.4210982918739319,-0.005650226958096,-0.0292491950094699,0.0,0.0,-0.4677428007125854,0.4599405527114868
-0.0115070343017578,1.3328886032104492,-0.1108448952436447,-0.4425719380378723,-0.007335168775171,-0.0337020382285118,0.0,0.0,-0.4640120267868042,0.6485998630523682
-0.0125566478818655,1.32245135307312,-0.1017425805330276,-0.4638978838920593,-0.0105271991342306,-0.0638464614748954,0.0,0.0,-0.0282257199287414,0.2025878429412841
-0.013581370934844,1.3115309476852417,-0.0990207567811012,-0.4853728711605072,-0.0139436405152082,-0.0683348327875137,0.0,0.0,0.4078661203384399,-0.1542703509330749
-0.0145144462585449,1.3008017539978027,-0.0899160504341125,-0.4768943786621094,-0.0173011291772127,-0.0671556740999221,0.0,0.0,-0.6380674839019775,-0.4091900587081909
-0.0154223442077636,1.2895891666412354,-0.0871639922261238,-0.4983750581741333,-0.0208859331905841,-0.0717026069760322,0.0,0.0,-0.492996871471405,-0.0024148821830749
-0.0163047797977924,1.2778939008712769,-0.0843983069062233,-0.5198488235473633,-0.024698631837964,-0.0762610808014869,0.0,0.0,-0.3122749328613281,-0.9110760688781738
-0.0172167774289846,1.265727162361145,-0.0885107666254043,-0.5407921671867371,-0.0273548234254121,-0.0531282499432563,0.0,0.0,-0.1227166652679443,-0.7839525938034058
-0.0181541442871093,1.2530702352523804,-0.092091865837574,-0.5625621676445007,-0.0289694368839263,-0.0322955027222633,0.0,0.0,-0.3924168348312378,-0.8330158591270447
-0.0191163066774606,1.239942193031311,-0.0956456437706947,-0.5834819078445435,-0.0295383892953395,-0.0113800996914505,0.0,0.0,-0.7017337083816528,-0.7847012281417847
-0.0201004035770893,1.2263264656066897,-0.09880031645298,-0.605137825012207,-0.0291498098522424,0.0077723776921629,0.0,0.0,-0.4129897952079773,-0.1751602888107299
-0.0210588462650775,1.212227463722229,-0.096005730330944,-0.6266125440597534,-0.0289932899177074,0.0031306694727391,0.0,0.0,0.2801222801208496,-0.581498384475708
-0.0220934860408306,1.1983078718185425,-0.1044187322258949,-0.618635356426239,-0.0280511453747749,0.0188446026295423,0.0,0.0,0.173058271408081,-0.3291866779327392
-0.0229969974607229,1.1847015619277954,-0.0914924070239067,-0.604699432849884,-0.0269191302359104,0.0226422864943742,0.0,0.0,-0.4735127687454223,0.1603404283523559
-0.0238748546689748,1.170612335205078,-0.0886923596262931,-0.6261783242225647,-0.0260200053453445,0.0179840549826622,0.0,0.0,-0.4557373523712158,0.6675609350204468
-0.0246628765016794,1.156036376953125,-0.0778456777334213,-0.6478308439254761,-0.0269663091748952,-0.0189277660101652,0.0,0.0,-0.4819684028625488,-0.0431547760963439
-0.0254252441227436,1.1409775018692017,-0.075040265917778,-0.6693057417869568,-0.0281442776322364,-0.0235616639256477,0.0,0.0,-0.5174538493156433,-0.962693452835083
-0.026255989447236,1.1254421472549438,-0.0840372294187545,-0.6904412508010864,-0.0271884687244892,0.0191178135573864,0.0,0.0,0.0171180963516235,-0.4629063606262207
-0.027139376848936,1.110055923461914,-0.0886528342962265,-0.6838279366493225,-0.0268803313374519,0.0061627039685845,0.0,0.0,-0.253197431564331,-0.4458922743797302
-0.0279972068965435,1.0941866636276243,-0.0858621597290039,-0.7053008675575256,-0.0268036648631095,0.0015335079515352,0.0,0.0,0.2614624500274658,-0.3159478306770324
-0.028912354260683,1.07878315448761,-0.0908943340182304,-0.6846097111701965,-0.0274193454533815,-0.0123135289177298,0.0,0.0,-0.6827603578567505,-0.2940230965614319
-0.02980213239789,1.0628966093063354,-0.0881182104349136,-0.7060826420783997,-0.028264969587326,-0.0169124491512775,0.0,0.0,0.1517339944839477,-0.826829731464386
-0.0307393074035644,1.047037124633789,-0.0942831635475158,-0.7048566341400146,-0.0277058444917202,0.011182595975697,0.0,0.0,0.2347829341888427,-0.8896964192390442
-0.0316877365112304,1.0316557884216309,-0.0969770401716232,-0.6835824251174927,-0.0255945175886154,0.0422265976667404,0.0,0.0,-0.3023909330368042,0.6901271343231201
-0.0325633995234966,1.0157854557037354,-0.0882734581828117,-0.705336332321167,-0.024905614554882,0.0137780932709574,0.0,0.0,0.8523961305618286,-0.2704785466194153
-0.033484362065792,1.0007832050323486,-0.0921215787529945,-0.6667619347572327,-0.0248703900724649,0.000704635749571,0.0,0.0,-0.8915914297103882,-0.1260113716125488
-0.0343803390860557,0.9852979779243468,-0.0894039645791053,-0.6882347464561462,-0.0250591151416301,-0.0037746406160295,0.0,0.0,-0.4808995723724365,-0.355933129787445
-0.0352514274418354,0.9693297743797302,-0.0867019370198249,-0.709707498550415,-0.0254701897501945,-0.008221436291933,0.0,0.0,0.5314459800720215,0.0656613111495971
-0.0360632911324501,0.9539291262626648,-0.0806230008602142,-0.6844834089279175,-0.0260238572955131,-0.0110733779147267,0.0,0.0,-0.7747414112091064,-0.4236158728599548
-0.0368506424129009,0.9380454421043396,-0.0779561549425125,-0.7059563398361206,-0.0267961453646421,-0.0154457930475473,0.0,0.0,0.4310083389282226,-0.5899861454963684
-0.0376067161560058,0.9226723313331604,-0.0758765190839767,-0.6832468509674072,-0.0265327803790569,0.0052672205492854,0.0,0.0,-0.2730116844177246,-0.2646985054016113
-0.0383387580513954,0.9068161249160768,-0.0732503309845924,-0.7047197222709656,-0.0264836270362138,0.0009830023627728,0.0,0.0,0.363451600074768,-0.1261168718338012
-0.0390102379024028,0.8912281394004822,-0.0670943781733512,-0.6927998661994934,-0.0265383422374725,-0.0010942325461655,0.0,0.0,-0.8090070486068726,-0.1464268565177917
-0.0396580696105957,0.8751571774482727,-0.0645144954323768,-0.7142726182937622,-0.0268021021038293,-0.0052752546034753,0.0,0.0,-0.3503856658935547,-0.5605989694595337
-0.0403177253901958,0.858603298664093,-0.0663860291242599,-0.7357227206230164,-0.0263857170939445,0.0083276573568582,0.0,0.0,0.1544286012649536,-0.63914555311203
-0.0409229286015033,0.8418867588043213,-0.0621437728404998,-0.7429256439208984,-0.0247929487377405,0.0318555571138858,0.0,0.0,0.2565087080001831,0.6824319362640381
-0.0413569435477256,0.8252837061882019,-0.043562289327383,-0.7379158139228821,-0.0246317610144615,0.0032236117403954,0.0,0.0,-0.0226104855537414,-0.1719075441360473
-0.0417682640254497,0.8081974983215332,-0.041092537343502,-0.7593885660171509,-0.0246667061001062,-0.000698942458257,0.0,0.0,-0.1687475442886352,-0.2283379435539245
-0.0421570762991905,0.7906282544136047,-0.0386540815234184,-0.7808612585067749,-0.0248939469456672,-0.0045448523014783,0.0,0.0,0.2654483318328857,-0.250393271446228
-0.0424685478210449,0.7730873227119446,-0.0309430696070194,-0.7795954346656799,-0.0250932313501834,-0.0039857109077274,0.0,0.0,-0.0579046607017517,-0.502008318901062
-0.0428051948547363,0.7550706267356873,-0.0344757847487926,-0.8007296919822693,-0.0242911111563444,0.0160421691834926,0.0,0.0,0.516048789024353,-0.5932332277297974
-0.043281652033329,0.7376671433448792,-0.0491595454514026,-0.7734647989273071,-0.0227911379188299,0.0299992766231298,0.0,0.0,0.2618389129638672,-0.5042181611061096
-0.0437854751944541,0.7203636765480042,-0.0526985600590705,-0.7690085768699646,-0.0205022450536489,0.0457779467105865,0.0,0.0,-0.4441394805908203,0.319469690322876
-0.0442684181034565,0.7025772929191589,-0.050439715385437,-0.7904816269874573,-0.0183822494000196,0.0424000471830368,0.0,0.0,-0.1374512910842895,0.5437624454498291
-0.0446918494999408,0.6843103766441345,-0.0433345809578895,-0.811853289604187,-0.0174033418297767,0.0195783991366624,0.0,0.0,0.6628403663635254,-0.0232395529747009
-0.0449771881103515,0.6662284135818481,-0.0298924203962087,-0.8036220073699951,-0.0160727966576814,0.0266109593212604,0.0,0.0,0.5437116622924805,0.0037240982055664
-0.0452279075980186,0.6487812995910645,-0.0262748338282108,-0.7754148840904236,-0.0148794688284397,0.0238663405179977,0.0,0.0,-0.6493043303489685,0.6542268991470337
-0.0453946106135845,0.6308472752571106,-0.0160870123654603,-0.797077476978302,-0.0154536897316575,-0.0114842290058732,0.0,0.0,0.7186403274536133,-0.0685012936592102
-0.0456340797245502,0.6131675839424133,-0.0227599944919347,-0.7857787013053894,-0.0166251324117183,-0.0234289951622486,0.0,0.0,0.6811193227767944,-0.4973530769348144
-0.0457457527518272,0.5962187647819519,-0.010299002751708,-0.7532950043678284,-0.0174841303378343,-0.0171800162643194,0.0,0.0,-0.1140443086624145,0.2716183662414551
-0.045839212834835,0.5787867307662964,-0.0083554256707429,-0.7747675776481628,-0.0184654891490936,-0.0196269899606704,0.0,0.0,0.507777214050293,0.4370615482330322
-0.0458328239619731,0.5619966983795166,0.0014258184237405,-0.7462358474731445,-0.0192456226795911,-0.0156027227640151,0.0,0.0,0.3458151817321777,0.3902437686920166
-0.0458588600158691,0.5456852912902832,-0.0014116236707195,-0.7249673008918762,-0.020418556407094,-0.023458857089281,0.0,0.0,0.4096260070800781,0.1070955991744995
-0.0458177551627159,0.529363214969635,0.005184568464756,-0.7254372239112854,-0.0214864611625671,-0.0213578697293996,0.0,0.0,0.7315043210983276,-0.2436332702636718
-0.045849610120058,0.5136640071868896,-0.0015147599624469,-0.6977693438529968,-0.0231283381581306,-0.0328375771641731,0.0,0.0,0.4903326034545898,-0.583082377910614
-0.0457798950374126,0.4981772005558014,0.0072571663185954,-0.6883070468902588,-0.0234115626662969,-0.005664522293955,0.0,0.0,0.175950288772583,-0.0361269116401672
-0.0456676483154296,0.4828609228134155,0.0114998687058687,-0.6807271838188171,-0.0236857738345861,-0.0054840347729623,0.0,0.0,0.6015865802764893,-0.122190237045288
-0.0455235466361045,0.4676440060138702,0.0147083280608057,-0.6763125061988831,-0.0239833705127239,-0.0059521943330764,0.0,0.0,0.1089318990707397,-0.0987683534622192
-0.0454384796321392,0.4525418281555176,0.0092497998848557,-0.6712192296981812,-0.0247134454548358,-0.0146016823127865,0.0,0.0,0.7281420230865479,-0.210859477519989
-0.045294664800167,0.4382980763912201,0.0150521323084831,-0.6330668330192566,-0.0253771636635065,-0.0132743101567029,0.0,0.0,0.3814781904220581,0.3010649681091308
-0.0450624451041221,0.4239352941513061,0.0236018672585487,-0.6383527517318726,-0.0257500670850276,-0.0074583003297448,0.0,0.0,0.3714864253997803,-0.3965741395950317
-0.0447763428092002,0.4101511240005493,0.0288955215364694,-0.6126331686973572,-0.0260349344462156,-0.0056972722522914,0.0,0.0,-0.4509056806564331,-0.1417959928512573
-0.0444776527583599,0.3958839178085327,0.0301641169935464,-0.6341055631637573,-0.0263244360685348,-0.0057898694649338,0.0,0.0,-0.0497659444808959,-0.0527179837226867
-0.0441667549312114,0.3811335563659668,0.031372457742691,-0.6555778980255127,-0.0266073644161224,-0.0056585101410746,0.0,0.0,0.9602069854736328,-0.4035987854003906
-0.0437880530953407,0.3670057356357574,0.0379650518298149,-0.6279026865959167,-0.0267036352306604,-0.0019254942890256,0.0,0.0,0.797112226486206,-0.5329837203025818
-0.0435648933053016,0.3537859618663788,0.0217461548745632,-0.5875370502471924,-0.0261316895484924,0.0114385671913623,0.0,0.0,0.7970805168151855,0.2633441686630249
-0.0432345382869243,0.3410217761993408,0.032032486051321,-0.5672807097434998,-0.0251498185098171,0.0196376405656337,0.0,0.0,0.3237218856811523,0.0599169731140136
-0.0429132468998432,0.3282453119754791,0.0312152747064828,-0.5678265690803528,-0.0242415256798267,0.0181655753403902,0.0,0.0,0.607525110244751,0.4088634252548218
-0.042508315294981,0.3154576122760772,0.0391961634159088,-0.5683211088180542,-0.0229648277163505,0.0255338996648788,0.0,0.0,0.6706452369689941,-0.0039315819740295
-0.0421182624995708,0.3027026653289795,0.0377902723848819,-0.5668707489967346,-0.0217627957463264,0.0240407530218362,0.0,0.0,0.8144266605377197,-0.3219435214996338
-0.0417096130549907,0.2907711267471313,0.0396046563982963,-0.5302701592445374,-0.0205195546150207,0.0248649176210165,0.0,0.0,0.0329236984252929,-0.0767064690589904
-0.0412321090698242,0.2791199088096618,0.0461557954549789,-0.5178132653236389,-0.0189507491886615,0.0313762500882148,0.0,0.0,0.4131373167037964,-0.3746105432510376
-0.0408294685184955,0.2680366635322571,0.0390137359499931,-0.4925719797611236,-0.0177218168973922,0.0245788320899009,0.0,0.0,-0.1453338265419006,-0.1927068829536438
-0.040419578552246,0.2564703226089477,0.0396363772451877,-0.5140443444252014,-0.0163789894431829,0.0268567316234111,0.0,0.0,0.5308628082275391,-0.5819986462593079
-0.0399961471557617,0.2455247789621353,0.0395841673016548,-0.4864410161972046,-0.0136597966775298,0.0543838143348693,0.0,0.0,0.2574137449264526,0.5027940273284912
-0.0396042838692665,0.2347540259361267,0.0375018268823623,-0.4786886572837829,-0.0119966268539428,0.0332631841301918,0.0,0.0,-0.0681961774826049,-0.3039422035217285
-0.0392064079642295,0.2235000431537628,0.0379659235477447,-0.5001611113548279,-0.0101924138143658,0.036084346473217,0.0,0.0,0.617965817451477,0.6161261796951294
-0.0387596115469932,0.2127927392721176,0.0439620986580848,-0.4758756458759308,-0.0094938389956951,0.0139715056866407,0.0,0.0,0.4013948440551758,-0.0847202539443969
-0.0382289886474609,0.2023414969444275,0.0518473871052265,-0.4644937813282013,-0.0082958275452256,0.0239604581147432,0.0,0.0,0.4446538686752319,-0.8075998425483704
-0.0377317443490028,0.1918486207723617,0.0466833636164665,-0.4663345515727997,-0.0052946391515433,0.0600234679877758,0.0,0.0,0.6328867673873901,0.0123615264892578
-0.0371362678706646,0.1814690381288528,0.0559076964855194,-0.4613085687160492,-0.0016974175814539,0.0719445198774337,0.0,0.0,0.486896276473999,-0.3155978918075561
-0.0364033691585063,0.1713770031929016,0.0688474625349044,-0.4485341012477875,0.0026909946464002,0.087767906486988,0.0,0.0,0.4885033369064331,-0.6069261431694031
-0.0355789177119731,0.1613310128450393,0.0762820765376091,-0.4465133547782898,0.0087729012593626,0.1216380968689918,0.0,0.0,0.7011420726776123,-0.7520978450775146
-0.0348237976431846,0.151967391371727,0.0676577240228653,-0.4162249863147735,0.0165282096713781,0.1551059335470199,0.0,0.0,0.2882715463638305,-0.6990177035331726
-0.0341037735342979,0.1430134624242782,0.0625037103891372,-0.3980870246887207,0.0259099658578634,0.187635138630867,0.0,0.0,0.1711055040359497,0.4150265455245971
-0.0333048813045024,0.1342900544404983,0.0697672516107559,-0.3879092633724212,0.0359018296003341,0.1998372673988342,0.0,0.0,0.1323229074478149,-0.4410195350646972
-0.032442569732666,0.1254241019487381,0.0755909979343414,-0.3943272531032562,0.0464200712740421,0.2103646099567413,0.0,0.0,0.2196376323699951,-0.2786091566085815
-0.0316341407597065,0.1166372597217559,0.0701649636030197,-0.3908891379833221,0.0569700375199317,0.2109990864992141,0.0,0.0,0.6121509075164795,0.3047159910202026
-0.0307893753051757,0.1086368411779403,0.0732142478227615,-0.3560371696949005,0.0681174844503402,0.2229490280151367,0.0,0.0,-0.2425796389579773,0.6621735095977783
-0.0298925396054983,0.1001599878072738,0.0794754177331924,-0.377244621515274,0.0782169848680496,0.2019902169704437,0.0,0.0,0.8216572999954224,-0.0890030860900878
-0.0291995052248239,0.092497169971466,0.0595154389739036,-0.3411113619804382,0.0879048407077789,0.1937569677829742,0.0,0.0,0.1933404207229614,0.236251950263977
-0.0284869186580181,0.0851141512393951,0.060966707766056,-0.3287684321403503,0.0981099680066108,0.2041027545928955,0.0,0.0,0.4154688119888305,0.9453942775726318
-0.027814483270049,0.0782192349433898,0.0586747154593467,-0.3070283830165863,0.1066128760576248,0.1700580865144729,0.0,0.0,0.2219979763031005,0.6700229644775391
-0.0272158626466989,0.0716706365346908,0.0525227673351764,-0.2915894389152527,0.1139105856418609,0.1459541469812393,0.0,0.0,0.2786377668380737,0.9547510147094728
-0.0266070365905761,0.0652201026678085,0.0552241988480091,-0.2871325314044952,0.1195293739438057,0.1123758107423782,0.0,0.0,0.6750593185424805,0.9197189807891846
-0.0261295326054096,0.0591854900121688,0.0439003929495811,-0.2685201466083526,0.1233581453561782,0.0765753611922264,0.0,0.0,0.4198706150054931,0.8399170637130737
-0.0257855411618948,0.0533216819167137,0.0321772173047065,-0.260797381401062,0.1255716234445572,0.0442692339420318,0.0,0.0,0.8585067987442017,0.3046021461486816
-0.0254240036010742,0.0482007376849651,0.0331353023648262,-0.2278566062450409,0.1285783648490905,0.0601350665092468,0.0,0.0,0.3405838012695312,0.8868509531021118
-0.0249735824763774,0.0430592633783817,0.0434967428445816,-0.2286437153816223,0.1301113069057464,0.0306588616222143,0.0,0.0,0.7168252468109131,0.8933484554290771
-0.0243898387998342,0.0386675223708152,0.0581130906939506,-0.19521164894104,0.1303698420524597,0.0051708091050386,0.0,0.0,0.0989558696746826,0.297625184059143
-0.0238878242671489,0.0345578044652938,0.0497607104480266,-0.1826916635036468,0.1308053731918335,0.0087106758728623,0.0,0.0,-0.1085681319236755,0.7928371429443359
-0.0233094207942485,0.0299897529184818,0.0591305717825889,-0.2029142677783966,0.1295264810323715,-0.0255782790482044,0.0,0.0,0.6083710193634033,0.0505629777908325
-0.0227296836674213,0.0257926322519779,0.0586581639945507,-0.1864776462316513,0.1288413256406784,-0.0137030128389596,0.0,0.0,0.3492664098739624,0.3318241834640503
-0.0222410205751657,0.0221037007868289,0.0493332408368587,-0.1639158576726913,0.1283803433179855,-0.0092195626348257,0.0,0.0,0.2829394340515136,0.7289284467697144
-0.0217209812253713,0.0188694577664136,0.0536086447536945,-0.1436083763837814,0.1267843693494796,-0.0319199189543724,0.0,0.0,-0.1014850139617919,0.2530651092529297
-0.0212002750486135,0.0151524879038333,0.0534175150096416,-0.1650836616754531,0.1254418790340423,-0.0268498007208108,0.0,0.0,0.4353494644165039,0.3133195638656616
-0.0208515170961618,0.0117323491722345,0.0364673286676406,-0.1518731266260147,0.1238622516393661,-0.0315927192568779,0.0,1.0,0.964144229888916,0.9190430641174316
-0.0207496639341115,0.0093909241259098,0.0295788403600454,-0.1028683185577392,0.1037246584892273,-0.40389284491539,0.0,1.0,0.1185219287872314,0.1654667854309082
-0.0207870490849018,0.0075935218483209,0.0289349053055048,-0.0779498293995857,0.0712948739528656,-0.6486698985099792,0.0,1.0,0.4661051034927368,-0.105770468711853
-0.0208154674619436,0.0060084080323576,0.0286710206419229,-0.0692427009344101,0.0401308313012123,-0.6232811808586121,0.0,1.0,0.4934691190719604,0.1124117374420166
-0.0207393653690814,0.0044471835717558,0.0386180393397808,-0.068842127919197,0.0095147043466568,-0.6123227477073669,0.0,0.0,-0.0613096356391906,-0.9105570316314696
-0.0207228660583496,0.0024177886079996,0.0308695379644632,-0.0902612656354904,-0.0193267408758401,-0.5768292546272278,0.0,0.0,0.4344903230667114,-0.9567474722862244
-0.0207422263920307,0.0009765481809154,0.0250489600002765,-0.0646215230226516,-0.045986108481884,-0.5331874489784241,1.0,0.0,0.2925612926483154,-0.4978281259536743
