x_pos,y_pos,x_vel,y_vel,angle,ang_vel,leg_1,leg_2,main_booster,lat_booster
-0.0015288352733477,1.4030978679656982,-0.1548634767532348,-0.3476603627204895,0.0017749472754076,0.0350130945444107,0.0,0.0,-0.1704815626144409,0.7151204347610474
-0.0030054091475903,1.3947685956954956,-0.1478509455919265,-0.3701883852481842,0.0019709542393684,0.0039211921393871,0.0,0.0,0.2681304216384887,0.5840539932250977
-0.004335880279541,1.386373519897461,-0.1323241740465164,-0.3731151819229126,0.001252741087228,-0.0143655817955732,0.0,0.0,-0.560075044631958,0.4999873638153076
-0.0056818006560206,1.3774515390396118,-0.133868858218193,-0.3965324163436889,0.0005407176213338,-0.0142421144992113,0.0,0.0,0.0745706558227539,0.8054559230804443
-0.0068860054016113,1.36864173412323,-0.1181585788726806,-0.3915462493896484,-0.0016952464357018,-0.0447237156331539,0.0,0.0,-0.0261470675468444,0.7455627918243408
-0.0080405231565237,1.3593039512634275,-0.1113705411553382,-0.4150196313858032,-0.0057302922941744,-0.0807085931301117,0.0,0.0,0.4865564107894897,-0.2375258207321167
-0.0092380521818995,1.350219488143921,-0.1155965477228164,-0.4037805795669555,-0.0098478309810161,-0.082358106970787,0.0,0.0,0.1401000022888183,0.3728739023208618
-0.01035737991333,1.3412762880325315,-0.1082842573523521,-0.3975000381469726,-0.0134577918797731,-0.0722055956721305,0.0,0.0,-0.1140936017036438,0.0553407669067382
-0.0115094184875488,1.3318066596984863,-0.1115794405341148,-0.4209132790565491,-0.0170491859316825,-0.0718343555927276,0.0,0.0,-0.1918527483940124,-0.429540753364563
-0.012697696685791,1.3218103647232056,-0.1152223348617553,-0.4443221390247345,-0.0206188671290874,-0.0714000016450882,0.0,0.0,-0.2265779376029968,0.6099951267242432
-0.0138707160949707,1.3112863302230835,-0.1123193651437759,-0.467808336019516,-0.0255460161715745,-0.0985521450638771,0.0,0.0,-0.0241294503211975,-0.4103389382362366
-0.0150867458432912,1.3002361059188845,-0.1166428923606872,-0.4912202060222626,-0.0304457582533359,-0.0980038270354271,0.0,0.0,0.6048853397369385,0.4783095121383667
-0.0162016861140728,1.2896721363067627,-0.1071839779615402,-0.469599038362503,-0.0347182713449001,-0.0854581147432327,0.0,0.0,-0.0094108581542968,0.578510046005249
-0.0173155777156353,1.278573751449585,-0.1058107614517211,-0.4934059083461761,-0.0402391068637371,-0.1104268059134483,0.0,0.0,-0.0331966876983642,-0.7039280533790588
-0.0185245517641305,1.266958713531494,-0.1164309531450271,-0.5163479447364807,-0.0446536429226398,-0.0882987380027771,0.0,0.0,-0.1218497157096862,0.0653520822525024
-0.0197894088923931,1.254817008972168,-0.1220564991235733,-0.5397599339485168,-0.0490321293473243,-0.0875778421759605,0.0,0.0,0.470794677734375,0.1832660436630249
-0.0209531784057617,1.2432811260223389,-0.1125811487436294,-0.5128445625305176,-0.0527952164411544,-0.0752686709165573,0.0,0.0,0.5197439193725586,-0.287394106388092
-0.0220297817140817,1.2317241430282593,-0.1045276150107383,-0.5137588381767273,-0.0559030398726463,-0.0621619522571563,0.0,0.0,-0.2446279525756836,-0.8350751399993896
-0.023226261138916,1.2196528911590576,-0.1179489865899086,-0.536560595035553,-0.0575739666819572,-0.0334214642643928,0.0,0.0,0.1824991703033447,0.0668044090270996
-0.0245244987308979,1.207666516304016,-0.1279111802577972,-0.5327965021133423,-0.0594691894948482,-0.0379077792167663,0.0,0.0,0.7104952335357666,-0.426748514175415
-0.0257147792726755,1.1963073015213013,-0.1177892461419105,-0.5049058198928833,-0.0606995858252048,-0.0246102530509233,0.0,0.0,-0.4323898553848266,0.0160280466079711
-0.0269779209047555,1.184421181678772,-0.1251211464405059,-0.5283227562904358,-0.0618804432451725,-0.0236191228032112,0.0,0.0,-0.759143054485321,-0.1697878241539001
-0.0283164028078317,1.1720082759857178,-0.1326997578144073,-0.5517300367355347,-0.0630087330937385,-0.0225677024573087,0.0,0.0,0.0915572643280029,0.6907980442047119
-0.0296128280460834,1.1593596935272217,-0.1272236406803131,-0.5622637867927551,-0.0654041767120361,-0.0479132235050201,0.0,0.0,0.380683422088623,-0.2845495939254761
-0.0310724265873432,1.147001028060913,-0.1430372446775436,-0.5494046807289124,-0.0682929307222366,-0.0577802583575248,0.0,0.0,-0.1603851318359375,-0.2214659452438354
-0.0326148979365825,1.13409423828125,-0.1513904482126236,-0.5737692713737488,-0.0711233243346214,-0.0566080324351787,0.0,0.0,-0.2127242088317871,0.2299884557723999
-0.0342415794730186,1.1206607818603516,-0.1598606407642364,-0.5971778035163879,-0.0738944113254547,-0.0554218292236328,0.0,0.0,-0.2749181389808655,-0.749821126461029
-0.0360258109867572,1.106716513633728,-0.1775251775979995,-0.6197952032089233,-0.074785865843296,-0.0178292784839868,0.0,0.0,-0.7686193585395813,0.4269200563430786
-0.0378979668021202,1.09224534034729,-0.1863775849342346,-0.64320307970047,-0.0756159350275993,-0.0166012495756149,0.0,0.0,-0.4979604482650757,0.5034663677215576
-0.0398215278983116,1.0772411823272705,-0.1906045228242874,-0.666938066482544,-0.0773519575595855,-0.0347202494740486,0.0,0.0,-0.2731420993804931,-0.6728855967521667
-0.041887380182743,1.0617239475250244,-0.2062157690525055,-0.6896763443946838,-0.0777243003249168,-0.0074467398226261,0.0,0.0,0.2039879560470581,-0.1809493899345398
-0.0440779700875282,1.0461640357971191,-0.2184757441282272,-0.6915779113769531,-0.0782951042056083,-0.0114161213859915,0.0,0.0,-0.6247695088386536,-0.0530259609222412
-0.046362780034542,1.0300774574279783,-0.2279777824878692,-0.714985728263855,-0.0788015201687812,-0.0101280445232987,0.0,0.0,-0.3376669883728027,-0.5592856407165527
-0.0487925522029399,1.0134649276733398,-0.2437688112258911,-0.738296389579773,-0.0780125707387924,0.0157791394740343,0.0,0.0,-0.579041063785553,-0.3071761131286621
-0.0513193123042583,0.9963254928588868,-0.2535428702831268,-0.7617042064666748,-0.0771582350134849,0.0170865170657634,0.0,0.0,0.0661462545394897,0.3678356409072876
-0.0538950935006141,0.9793879389762878,-0.2585619688034057,-0.752727746963501,-0.076183907687664,0.0194865856319665,0.0,0.0,-0.4258182048797607,0.2891366481781006
-0.0565703399479389,0.9619235396385192,-0.2685763835906982,-0.7761356234550476,-0.0751435756683349,0.0208065807819366,0.0,0.0,-0.6394973397254944,0.203930377960205
-0.0593461990356445,0.9439327120780944,-0.2786999642848968,-0.799543559551239,-0.0740370526909828,0.0221304707229137,0.0,0.0,-0.79765784740448,0.5255372524261475
-0.0621845237910747,0.9254164695739746,-0.2840327620506286,-0.8229331970214844,-0.0738408863544464,0.003923512995243,0.0,0.0,-0.1049081683158874,0.74619460105896
-0.0650637596845626,0.9063676595687866,-0.2866131961345672,-0.8466804623603821,-0.0751338452100753,-0.025859285145998,0.0,0.0,0.6543898582458496,0.6188309192657471
-0.0680540055036544,0.8879711031913757,-0.2962641716003418,-0.8177679181098938,-0.0778676196932792,-0.0546757504343986,0.0,0.0,0.741370677947998,0.1402982473373413
-0.0709758773446083,0.8698577284812927,-0.2901029586791992,-0.8051459789276123,-0.0799334496259689,-0.0413165353238582,0.0,0.0,-0.3689618110656738,0.4208683967590332
-0.0740028396248817,0.8512176871299744,-0.3006753325462341,-0.828554093837738,-0.081933245062828,-0.0399959161877632,0.0,0.0,-0.5380434393882751,0.506205677986145
-0.0770891159772872,0.8320443034172058,-0.3054900467395782,-0.8523275256156921,-0.0850422158837318,-0.0621795766055583,0.0,0.0,-0.2746907472610473,0.3006389141082763
-0.0802818313241005,0.8123442530632019,-0.3162025511264801,-0.8757360577583313,-0.0880856961011886,-0.0608696117997169,0.0,0.0,0.6453529596328735,0.5970625877380371
-0.0834565162658691,0.7925959229469299,-0.3133842051029205,-0.877944827079773,-0.0921348333358764,-0.0809826329350471,0.0,0.0,0.9748296737670898,0.0046256780624389
-0.0866170898079872,0.7731090784072876,-0.312380701303482,-0.8663196563720703,-0.0957819074392318,-0.0729415416717529,0.0,0.0,0.9515774250030518,0.7696844339370728
-0.0898740738630294,0.7545862197875977,-0.3202016353607178,-0.8235934972763062,-0.1012240052223205,-0.1088420152664184,0.0,0.0,0.8599023818969727,-0.2969638109207153
-0.0932985320687294,0.7368840575218201,-0.3363336622714996,-0.7871969938278198,-0.1072933375835418,-0.1213865503668785,0.0,0.0,-0.549018383026123,0.9835770130157472
-0.0967576950788497,0.7186407446861267,-0.3379677534103393,-0.8114058375358582,-0.1151935011148452,-0.1580028384923935,0.0,0.0,-0.3508636951446533,0.9453039169311525
-0.1002345085144043,0.6998555660247803,-0.3374499678611755,-0.8357204794883728,-0.1253668665885925,-0.2034673988819122,0.0,0.0,0.8903137445449829,0.9465997219085692
-0.1037133187055587,0.6818055510520935,-0.3357167541980743,-0.8032912015914917,-0.1374897360801696,-0.2424571216106414,0.0,0.0,0.3774819374084472,0.9269185066223145
-0.1070760712027549,0.6637401580810547,-0.3224060237407684,-0.8042479753494263,-0.1513209491968155,-0.2766241431236267,0.0,0.0,0.8920879364013672,0.5473524332046509
-0.1103644371032714,0.646499514579773,-0.3139708936214447,-0.7678269743919373,-0.1661728620529174,-0.2970386445522308,0.0,0.0,0.0774749517440795,0.8787186145782471
-0.1135298758745193,0.6291570067405701,-0.3000426590442657,-0.7727130055427551,-0.182713121175766,-0.3308051526546478,0.0,0.0,0.793289065361023,0.797981858253479
-0.1167634949088096,0.6120563745498657,-0.305150419473648,-0.7623791098594666,-0.2010233849287033,-0.3662050068378448,0.0,0.0,0.8229453563690186,-0.7353745698928833
-0.119877815246582,0.5957155823707581,-0.295071542263031,-0.7285701036453247,-0.2175441235303878,-0.3304144740104675,0.0,0.0,0.187864065170288,0.7900941371917725
-0.1228265762329101,0.5795080661773682,-0.2771466672420501,-0.7230436205863953,-0.2355016618967056,-0.3591507077217102,0.0,0.0,0.9156942367553712,0.1013306379318237
-0.1255796402692794,0.5641399621963501,-0.258101224899292,-0.685873806476593,-0.2530026137828827,-0.3500191569328308,0.0,0.0,0.5473587512969971,-0.3229349851608276
-0.1283289939165115,0.549344539642334,-0.2575393915176391,-0.6606698632240295,-0.2707788646221161,-0.3555249869823456,0.0,0.0,0.6665096282958984,-0.6576127409934998
-0.1310872137546539,0.5345587134361267,-0.2599599957466125,-0.6601641774177551,-0.2870489060878753,-0.325401097536087,0.0,0.0,0.8220582008361816,-0.564906895160675
-999.0,0.5204339027404785,-0.26569464802742,-0.6307814121246338,-0.3024371862411499,-0.3077660799026489,0.0,0.0,0.1747083663940429,-0.0004574060440063
-0.1366181373596191,0.5062724947929382,-0.2580650746822357,-0.6324673891067505,-0.3173681795597076,-0.2986199557781219,0.0,0.0,0.5159776210784912,-0.6604816913604736
-0.1393060684204101,0.4924023151397705,-0.2558456659317016,-0.6193450689315796,-0.3308537602424621,-0.269711434841156,0.0,0.0,0.743826150894165,-0.9754841923713684
-0.1420343369245529,0.4786335527896881,-0.261884868144989,-0.6144922375679016,-0.3422924876213074,-0.2287747859954834,0.0,0.0,0.8718172311782837,-0.8772400617599487
-0.1448606550693512,0.4653983116149902,-0.2732149958610534,-0.5904953479766846,-0.3521662652492523,-0.1974758058786392,0.0,0.0,0.7797648906707764,-0.8052388429641724
-0.1475147306919098,0.4529636800289154,-0.2576976418495178,-0.5545619130134583,-0.3602830469608307,-0.1623353958129882,0.0,0.0,0.0811256170272827,-0.902388334274292
-0.1502235382795334,0.4402653872966766,-0.2649827003479004,-0.5658667087554932,-0.3665181994438171,-0.124703012406826,0.0,0.0,0.7776461839675903,-0.6308094263076782
-0.1527310311794281,0.4283433556556701,-0.2462095469236374,-0.5310376286506653,-0.3713269829750061,-0.0961759239435195,0.0,0.0,0.5689001083374023,-0.4006540775299072
-0.1552713364362716,0.4165717363357544,-0.2491471767425537,-0.5244612693786621,-0.3765058219432831,-0.1035773381590843,0.0,0.0,0.3277455568313598,-0.802735447883606
-0.157859519124031,0.4051163494586944,-0.2554516196250915,-0.5100173950195312,-0.3800741136074066,-0.0713658779859542,0.0,0.0,0.6347118616104126,-0.7285746932029724
-0.1603534668684005,0.3940064907073974,-0.2475501745939254,-0.4942644536495209,-0.3820336759090423,-0.0391918942332267,0.0,0.0,0.7954217195510864,-0.2953283786773681
-0.1627474725246429,0.383725494146347,-0.236992672085762,-0.457581877708435,-0.3846003115177154,-0.0513327717781066,0.0,0.0,0.6219326257705688,-0.3165222406387329
-0.1649742126464843,0.3736652731895447,-0.2206116169691085,-0.4476760625839233,-0.3867936134338379,-0.043866291642189,0.0,0.0,0.8417075872421265,-0.3086245059967041
-0.1671832054853439,0.3637051880359649,-0.2187282145023346,-0.4432657063007355,-0.3891219794750213,-0.0465672761201858,0.0,0.0,0.7926504611968994,-0.2483464479446411
-0.1693021804094314,0.3536658585071563,-0.2100637257099151,-0.4466957747936249,-0.391071081161499,-0.0389817878603935,0.0,0.0,0.8076169490814209,-0.7762553095817566
-0.1714844703674316,0.3436639308929443,-0.2178566008806228,-0.4446320533752441,-0.3914658427238464,-0.0078950459137558,0.0,0.0,0.8708207607269287,-0.4186254143714905
-0.1734440773725509,0.334385871887207,-0.1955926269292831,-0.4124609529972076,-0.3918681442737579,-0.008046212606132,0.0,0.0,0.8690948486328125,-0.427994966506958
-0.1750786751508712,0.3258085250854492,-0.1635096818208694,-0.3812035322189331,-0.391816109418869,0.0010406619403511,0.0,0.0,0.9593292474746704,-0.2740039229393005
-0.1765768975019455,0.3181242346763611,-0.1493253111839294,-0.3416588604450226,-0.3923449516296386,-0.0105769131332635,0.0,0.0,0.8359600305557251,-0.794407844543457
-0.1782497465610504,0.3105416595935821,-0.1680571585893631,-0.3367907702922821,-0.3915221095085144,0.0164568573236465,0.0,0.0,0.9232056140899658,0.033385157585144
-0.1796381026506424,0.3036812245845794,-0.1398338824510574,-0.3046331405639648,-0.3904488980770111,0.0214641150087118,0.0,0.0,0.913419246673584,-0.210122525691986
-0.1809907853603363,0.2972854673862457,-0.1357928812503814,-0.2841120660305023,-0.3898861110210418,0.0112556377425789,0.0,0.0,0.9053601026535034,-0.7691054940223694
-0.1822738647460937,0.2915240228176117,-0.1302208304405212,-0.2555440068244934,-0.3878476917743683,0.0407679677009582,0.0,0.0,0.9333709478378296,-0.9050190448760986
-0.1834347695112228,0.28642538189888,-0.1197625994682312,-0.2256112098693847,-0.3839325308799743,0.0783034488558769,0.0,0.0,0.8862569332122803,-0.5750542283058167
-0.1843980848789215,0.2816898226737976,-0.101432129740715,-0.2091056257486343,-0.3785123527050018,0.1084033399820327,0.0,0.0,0.8380190134048462,-0.9403923749923706
-0.1853716820478439,0.2769748568534851,-0.1043487191200256,-0.2077152729034423,-0.3710909485816955,0.1484278738498687,0.0,0.0,0.7020595073699951,-0.4836113452911377
-0.1862120628356933,0.2722616791725158,-0.0915014296770095,-0.2075576037168502,-0.3631986677646637,0.1578457057476043,0.0,0.0,0.6530106067657471,-0.6402381658554077
-0.1868531256914138,0.2677654325962066,-0.0731918811798095,-0.197556659579277,-0.353603333234787,0.1919068694114685,0.0,0.0,0.5841058492660522,-0.8148592710494995
-0.187389850616455,0.2632262706756592,-0.0646489411592483,-0.199086531996727,-0.3420848250389099,0.2303698509931564,0.0,0.0,0.2942304611206054,-0.3573833703994751
-0.1878370344638824,0.2589958310127258,-0.0557355359196662,-0.1854490935802459,-0.3305600583553314,0.2304954528808593,0.0,0.0,0.0762586593627929,-0.6074873208999634
-0.1882490217685699,0.2549580633640289,-0.0535248890519142,-0.1766907125711441,-0.3177329897880554,0.2565415501594543,0.0,0.0,0.4278823137283325,-0.4723125696182251
-0.1884800940752029,0.2511667907238006,-0.0359865352511405,-0.1657373160123825,-0.3043826818466186,0.2670062482357025,0.0,0.0,0.2813229560852051,0.0184673070907592
-0.1886609047651291,0.2471780925989151,-0.0313862226903438,-0.1745466887950897,-0.290645956993103,0.2747343480587005,0.0,0.0,0.0386927127838134,0.4288809299468994
-0.1888805329799652,0.2431393265724182,-0.0351973697543144,-0.1769194453954696,-0.2770382761955261,0.2721535265445709,0.0,0.0,-0.0142261385917663,-0.0852490663528442
-0.1891977339982986,0.238576203584671,-0.045025311410427,-0.200341984629631,-0.2634077072143554,0.2726115584373474,0.0,0.0,0.0289462804794311,0.1214066743850708
-0.1895326673984527,0.2340077310800552,-0.0468051508069038,-0.2007092535495758,-0.2498223781585693,0.2717064321041107,0.0,0.0,-0.0566821694374084,-0.1514316201210022
-0.1899619996547699,0.2289148122072219,-0.0563114807009696,-0.2241319268941879,-0.2362161874771118,0.2721239328384399,0.0,0.0,-0.2084599137306213,-0.5827228426933289
-0.1905217170715332,0.2233144342899322,-0.0704049542546272,-0.2466552555561065,-0.2215822339057922,0.2926790416240692,0.0,0.0,-0.4539840221405029,-0.3584580421447754
-0.1911721229553222,0.2171900570392608,-0.0795345902442932,-0.27008056640625,-0.2069298326969146,0.2930481135845184,0.0,0.0,-0.5680910348892212,0.1055104732513427
-0.1919111311435699,0.2105417549610138,-0.0884519591927528,-0.2935060560703277,-0.1922602951526641,0.2933903336524963,0.0,0.0,0.3421171903610229,0.7486188411712646
-0.1926235258579254,0.2039519697427749,-0.0843340381979942,-0.291231632232666,-0.1791113317012787,0.262979507446289,0.0,0.0,-0.4599878191947937,0.4744977951049804
-0.1934199333190918,0.1968377381563186,-0.0927739441394805,-0.3146538436412811,-0.1659482419490814,0.2632617950439453,0.0,0.0,0.2268993854522705,0.98913311958313
-0.1942859590053558,0.1897851824760437,-0.0977828353643417,-0.3122390210628509,-0.1547771543264389,0.2234221994876861,0.0,0.0,0.495221734046936,0.999558448791504
-0.1949432343244552,0.1831333041191101,-0.0750191807746887,-0.2946973741054535,-0.1455008834600448,0.185525506734848,0.0,0.0,0.8034762144088745,0.955918550491333
-0.195469856262207,0.1765126138925552,-0.0601719096302986,-0.2935401499271393,-0.1380168497562408,0.1496806442737579,0.0,0.0,0.5873665809631348,0.959821343421936
-0.1957360208034515,0.1704139858484268,-0.0323938801884651,-0.2705251276493072,-0.1322584450244903,0.1151681542396545,0.0,0.0,0.7341272830963135,0.9261276721954346
-0.195916935801506,0.1649985611438751,-0.0219792760908603,-0.2403452694416046,-0.1283832937479019,0.0775030478835105,0.0,0.0,0.8030364513397217,0.7532715797424316
-0.1958152800798416,0.1604084819555282,0.0074099912308156,-0.2037676870822906,-0.1256431639194488,0.0548027269542217,0.0,0.0,0.6699020862579346,0.1318906545639038
-0.1956249177455902,0.1561492085456848,0.0159175675362348,-0.1890422403812408,-0.122547298669815,0.0619172677397728,0.0,0.0,0.5084716081619263,0.5234546661376953
-0.1953660994768142,0.1524720042943954,0.0238426942378282,-0.1632618308067321,-0.1205158308148384,0.0406292229890823,0.0,0.0,0.1855232715606689,0.0075256824493408
-0.1950487196445465,0.1491020023822784,0.029494309797883,-0.1496005654335022,-0.1182896271347999,0.0445242933928966,0.0,0.0,0.044188380241394,0.0048420429229736
-0.1946947127580642,0.1456279307603836,0.0329378768801689,-0.1542081236839294,-0.1158374696969986,0.0490429997444152,0.0,0.0,0.2755138874053955,0.156529426574707
-0.1944224387407302,0.1423549205064773,0.0252079907804727,-0.1453128904104232,-0.1138349026441574,0.0400514863431453,0.0,0.0,0.082942247390747,0.7628483772277832
-0.1941865980625152,0.1390623897314071,0.0231827963143587,-0.1463053971529007,-0.1134361252188682,0.0079757254570722,0.0,0.0,0.2484643459320068,0.7913899421691895
-0.1938917189836502,0.1358700543642044,0.0307222306728363,-0.141972079873085,-0.1146548837423324,-0.0243753530085086,0.0,0.0,-0.1224493384361267,0.2112617492675781
-0.1936242133378982,0.1321512311697006,0.028001170605421,-0.1653805822134018,-0.1158965900540351,-0.0248342473059892,0.0,0.0,0.0899852514266967,0.1256453990936279
-0.1932655274868011,0.1282442212104797,0.0367448739707469,-0.1737123131752014,-0.1167663112282753,-0.0173943229019641,0.0,0.0,0.1788020133972168,-0.1063805222511291
-0.192796990275383,0.124525249004364,0.0474327616393566,-0.1653322726488113,-0.1173445582389831,-0.0115649728104472,0.0,0.0,-0.0188536643981933,-0.0153212547302246
-0.1923386603593826,0.1202796995639801,0.0464393459260463,-0.1887408047914505,-0.117956668138504,-0.0122418496757745,0.0,0.0,0.2350149154663086,-0.203790545463562
