x_pos,y_pos,x_vel,y_vel,angle,ang_vel,leg_1,leg_2,main_booster,lat_booster
-0.0015565871726721,1.4033323526382446,-0.1577680110931396,-0.3372376561164856,0.0018792303744703,0.037078607827425,0.0,0.0,0.2396911838347533,-0.9361000842075566
-0.0031778335105627,1.3959901332855225,-0.1659517884254455,-0.326330691576004,0.0056635318323969,0.0756937488913536,0.0,0.0,-0.4906757142364033,0.8553226904148752
-0.0047546387650072,1.3883497714996338,-0.1594792157411575,-0.3395837545394897,0.0074417288415133,0.0355672724545002,0.0,0.0,-0.0803190322899023,0.8532113114901283
-0.0063172341324388,1.3804148435592651,-0.1567321568727493,-0.3526626229286194,0.0079155517742037,0.0094772884622216,0.0,0.0,-0.0465639893065823,-0.6238127054576448
-0.0079598426818847,1.3721892833709717,-0.165757343173027,-0.3655887246131897,0.0093969563022255,0.029630834236741,0.0,0.0,0.4824349442931617,0.6838684886985912
-0.009461116977036,1.3644042015075684,-0.1505622565746307,-0.3460080027580261,0.0098293432965874,0.008648470044136,0.0,0.0,0.7905221183875069,-0.8501926900712087
-0.0111072538420557,1.3572641611099243,-0.1667148619890213,-0.3173518180847168,0.0119028454646468,0.0414740368723869,0.0,0.0,0.5053658038460558,0.7580156629976985
-0.0125963212922215,1.3507219552993774,-0.149768441915512,-0.2907717525959015,0.012750044465065,0.0169459991157054,0.0,0.0,-0.6382846523761811,-0.752831230324463
-0.0141938207671046,1.343894600868225,-0.1621376127004623,-0.3034633994102478,0.0151040414348244,0.0470844358205795,0.0,0.0,0.6056579729861413,0.5891240176056294
-0.0158058162778615,1.337838649749756,-0.1623697131872177,-0.2691679000854492,0.0162601508200168,0.023124735802412,0.0,0.0,0.4731544792439488,-0.9820783339843768
-0.0174664501100778,1.3322862386703491,-0.1692446172237396,-0.2468102723360061,0.019409405067563,0.0629906728863716,0.0,0.0,-0.8314438250154736,0.5736227927111631
-0.0191283226013183,1.326442003250122,-0.1680291593074798,-0.2597709596157074,0.0212338231503963,0.0364917889237403,0.0,0.0,0.8615817987758478,-0.8479842835992601
-0.0207653045654296,1.3214950561523438,-0.1675150096416473,-0.2199256867170334,0.0250051487237215,0.0754333361983299,0.0,0.0,-0.9207620056919488,0.8969830125781662
-0.0223771091550588,1.3162503242492676,-0.1629188656806945,-0.2331300228834152,0.0267146788537502,0.0341937653720378,0.0,0.0,0.7952473569685703,0.8883566416082085
-0.0238281246274709,1.31207537651062,-0.1452643573284149,-0.1855519711971283,0.0268818289041519,0.0033433404751122,0.0,0.0,-0.1512671487987744,0.6898533694470232
-0.0252701751887798,1.3076026439666748,-0.1426292955875396,-0.19876529276371,0.0253299623727798,-0.0310403555631637,0.0,0.0,0.8660334614121266,-0.7048573179439706
-0.0266802795231342,1.304298996925354,-0.1411589682102203,-0.1468302905559539,0.0254745464771986,0.0028917514719069,0.0,0.0,0.2486837550614384,-0.6790158913776712
-0.028087805956602,1.3011244535446167,-0.1423285454511642,-0.1411254703998565,0.0270277895033359,0.0310678724199533,0.0,0.0,0.7670324062937643,0.5345818205167507
-0.0294235236942768,1.298956036567688,-0.1342497318983078,-0.0963801965117454,0.0276981107890605,0.0134075041860342,0.0,0.0,-0.0568726407818638,0.5583863799759601
-0.0307793617248535,1.2964967489242554,-0.1351411193609237,-0.1092993766069412,0.027262533083558,-0.0087124165147542,0.0,0.0,-0.1391883512679992,-0.7069277077893772
-0.0322381965816021,1.2937486171722412,-0.1464013010263443,-0.1221525594592094,0.0277783647179603,0.0103175798431038,0.0,0.0,0.7411051610902011,0.9826652244612716
-0.0336777679622173,1.291405439376831,-0.1423510462045669,-0.1041066348552703,0.0261957198381423,-0.0316557399928569,0.0,0.0,0.8010057436640434,0.9550618520507032
-0.0349592193961143,1.2896678447723389,-0.1247136443853378,-0.0771658718585968,0.0227910876274108,-0.0680987611413002,0.0,0.0,-0.9927309033834392,-0.7174729327856197
-0.0363511070609092,1.2876285314559937,-0.136829987168312,-0.0906083732843399,0.0204662084579467,-0.0465016402304172,0.0,0.0,-0.0651883259821624,0.7966115064007442
-0.0377553924918174,1.285300850868225,-0.1366637200117111,-0.1034122630953788,0.0167400166392326,-0.0745304375886917,0.0,0.0,-0.2840166020072063,-0.8316904519472634
-0.0393022522330284,1.2826616764068604,-0.1527961790561676,-0.1172727048397064,0.0148707339540123,-0.0373854450881481,0.0,0.0,-0.6136343951909102,0.5365065480123906
-0.0408679023385047,1.2797348499298096,-0.1533735245466232,-0.1300561726093292,0.0117222340777516,-0.0629697889089584,0.0,0.0,0.964869879858786,-0.969764436193739
-0.0427556037902832,1.2779936790466309,-0.1870180666446685,-0.0773724615573883,0.0099887792021036,-0.034669142216444,0.0,0.0,0.6821180234310908,0.6398043654230715
-0.0448064804077148,1.2771471738815308,-0.2014754116535186,-0.0376000329852104,0.0064247683621943,-0.0712802186608314,0.0,0.0,0.8369250882550272,0.6341523773247131
-0.0468979850411415,1.276819944381714,-0.2039714753627777,-0.0145358359441161,0.001310407067649,-0.1022871732711792,0.0,0.0,-0.2817845958488123,-0.6960027353204697
-0.0491053573787212,1.2762084007263184,-0.2166885584592819,-0.0271804500371217,-0.0026940794195979,-0.0800897926092147,0.0,0.0,-0.3909752964973449,0.0948033332824707
-0.051375675946474,1.2753047943115234,-0.2227259427309036,-0.0401672832667827,-0.006935033481568,-0.0848193019628524,0.0,0.0,-0.7266108989715576,0.3272361755371094
-0.0537088401615619,1.2741096019744873,-0.228778675198555,-0.0531543679535388,-0.0114175165072083,-0.0896498337388038,0.0,0.0,-0.6337952613830566,-0.2271924614906311
-0.0561051368713378,1.2726224660873413,-0.2348452806472778,-0.0661417245864868,-0.016146246343851,-0.0945744216442108,0.0,0.0,-0.8300305604934692,-0.1582704186439514
-0.0585648529231548,1.2708433866500854,-0.2409245073795318,-0.0791293680667877,-0.021125566214323,-0.099586397409439,0.0,0.0,-0.7663602828979492,-0.3695418238639831
-0.0610879883170127,1.2687727212905884,-0.247015118598938,-0.0921173319220542,-0.0263595432043075,-0.1046795099973678,0.0,0.0,-0.9440214037895204,-0.0908140540122985
-0.0636747330427169,1.266410231590271,-0.2531159818172455,-0.1051056385040283,-0.0318519286811351,-0.1098478883504867,0.0,0.0,-0.7777820825576782,-0.622008204460144
-0.0663712471723556,1.2637629508972168,-0.2649986743927002,-0.1177587807178497,-0.036446712911129,-0.0918958708643913,0.0,0.0,-0.9549345970153807,0.1700397729873657
-0.0691316574811935,1.2608239650726318,-0.2711170017719269,-0.1307467967271804,-0.0413066521286964,-0.0971987247467041,0.0,0.0,-0.9621496796607972,-0.2193945050239563
-0.0719559639692306,1.257593274116516,-0.2772426605224609,-0.1437351554632187,-0.0464347191154956,-0.102561354637146,0.0,0.0,-0.934800148010254,-0.9143431782722472
-0.0749291405081749,1.2540844678878784,-0.2940280735492706,-0.1560510098934173,-0.0496906824409961,-0.0651191473007202,0.0,0.0,-0.9765662550926208,-0.4772361516952514
-0.0779665932059288,1.25028395652771,-0.3001658320426941,-0.1690385192632675,-0.0532201044261455,-0.0705882906913757,0.0,0.0,-0.826012372970581,-0.2679358720779419
-0.0810681357979774,1.2461915016174316,-0.3063084781169891,-0.1820262372493744,-0.0570253357291221,-0.0761046111583709,0.0,0.0,-0.8886056542396545,-0.6488571166992188
-0.084276869893074,1.2418097257614136,-0.3178320527076721,-0.1948687732219696,-0.0600304082036018,-0.0601014867424964,0.0,0.0,-0.9423326253890992,0.0488046407699584
-0.0875498801469802,1.2371361255645752,-0.3239823281764984,-0.2078563868999481,-0.0633154883980751,-0.0657016560435295,0.0,0.0,-0.8925594687461853,-0.3920097351074219
-0.0908873528242111,1.2321704626083374,-0.3301354050636291,-0.2208442240953445,-0.06688242405653,-0.0713389217853546,0.0,0.0,-0.8543053269386292,0.2885725498199463
-0.0942892059683799,1.2269132137298584,-0.3362906575202942,-0.2338323146104812,-0.070732943713665,-0.0770104154944419,0.0,0.0,-0.7954314351081848,-0.8737103939056396
-0.0978367775678634,1.2213822603225708,-0.3526723980903625,-0.2459196895360946,-0.0728019326925277,-0.0413795299828052,0.0,0.0,-0.9461604952812196,-0.840825617313385
-0.1015295013785362,1.2155758142471311,-0.3689555823802948,-0.2580842077732086,-0.0731124207377433,-0.0062097301706671,0.0,0.0,-0.7602949142456055,-0.0687075853347778
-0.1052865982055664,1.2094773054122925,-0.3751134276390075,-0.2710714340209961,-0.0737108662724495,-0.0119685837998986,0.0,0.0,-0.959217607975006,0.0596375465393066
-0.1091082543134689,1.2030868530273438,-0.3812708556652069,-0.2840586900711059,-0.0745984613895416,-0.0177519489079713,0.0,0.0,-0.8548782467842102,0.5636579990386963
-0.1129539459943771,1.196403980255127,-0.3823607265949249,-0.2971307933330536,-0.0767905637621879,-0.0438419803977012,0.0,0.0,-0.958631157875061,0.85890793800354
-0.1167843788862228,1.1894153356552124,-0.3784922957420349,-0.3108458518981933,-0.0812965333461761,-0.0901193097233772,0.0,0.0,-0.9253292679786682,0.6731503009796143
-0.1206255927681922,1.1821348667144775,-0.3779137730598449,-0.3239235877990722,-0.0874410718679428,-0.122890755534172,0.0,0.0,-0.959281861782074,0.0214118957519531
-0.1245311722159385,1.1745630502700806,-0.3840638995170593,-0.3369143307209015,-0.093878798186779,-0.1287544965744018,0.0,0.0,-0.7605418562889099,-0.4659783840179443
-0.12850122153759,1.16670024394989,-0.3902105391025543,-0.3499055504798889,-0.100610539317131,-0.1346347630023956,0.0,0.0,-0.8924115896224976,0.7740843296051025
-0.1324646025896072,1.1585427522659302,-0.3874633610248565,-0.3631773889064789,-0.109418898820877,-0.1761671155691146,0.0,0.0,-0.7761092782020569,0.935604453086853
-0.1364015638828277,1.1500838994979858,-0.3822217583656311,-0.376835435628891,-0.1208153069019317,-0.227928802371025,0.0,0.0,-0.8844585418701172,0.5290710926055908
-0.140355497598648,1.1413320302963257,-0.3824482560157776,-0.3900687098503113,-0.1336926519870758,-0.2575470805168152,0.0,0.0,-0.4840637445449829,0.9657204151153564
-0.1443065702915191,1.1322861909866333,-0.3801980316638946,-0.4034443795681,-0.1485480815172195,-0.2971087694168091,0.0,0.0,-0.3144607543945312,0.6376693248748779
-0.1482678353786468,1.122934341430664,-0.3795779049396515,-0.4173731207847595,-0.1650874316692352,-0.3307872712612152,0.0,0.0,-0.7759276628494263,0.6092469692230225
-0.1522527635097503,1.113288164138794,-0.3806829154491424,-0.4307990670204162,-0.1829396188259124,-0.3570439219474792,0.0,0.0,-0.5996119379997253,0.050969123840332
-0.1563012152910232,1.103354811668396,-0.3867894113063812,-0.4438153803348541,-0.2010899186134338,-0.3630062043666839,0.0,0.0,-0.907589077949524,0.7810158729553223
-0.1603498458862304,1.0931167602539062,-0.3849726021289825,-0.4578557312488556,-0.221168965101242,-0.4015808701515198,0.0,0.0,-0.7778405547142029,0.1539540290832519
-0.1644615232944488,1.0825927257537842,-0.391061007976532,-0.4708797037601471,-0.2415469735860824,-0.4075603485107422,0.0,0.0,-0.7198193669319153,0.1204917430877685
-0.1686359345912933,1.0717828273773191,-0.3971381187438965,-0.4839050471782684,-0.262224406003952,-0.4135490953922272,0.0,0.0,-0.757470428943634,-0.4992102384567261
-0.1728727370500564,1.0606873035430908,-0.4032026827335357,-0.4969317018985748,-0.2832017242908478,-0.4195468425750732,0.0,0.0,-0.4253864884376526,-0.6315716505050659
-0.177214428782463,1.0493171215057373,-0.4145962297916412,-0.5092723369598389,-0.3033795654773712,-0.4035577178001404,0.0,0.0,-0.0949061512947082,0.6270489692687988
-0.1815672814846038,1.0376452207565308,-0.414273589849472,-0.5232865810394287,-0.3251844942569732,-0.4360983371734619,0.0,0.0,0.1893314123153686,-0.9037770628929138
-0.1860158890485763,1.0262404680252075,-0.4254459738731384,-0.5113709568977356,-0.3454740941524505,-0.4057922959327698,0.0,0.0,-0.5652403831481934,-0.4331892132759094
-0.190526008605957,1.0145502090454102,-0.4314426779747009,-0.524397611618042,-0.3660653531551361,-0.4118252396583557,0.0,0.0,0.1784358024597168,-0.5644625425338745
-0.1949567794799804,1.003207802772522,-0.4245197176933288,-0.5089773535728455,-0.3857547044754028,-0.3937870860099792,0.0,0.0,0.4374139308929443,-0.7889029383659363
-0.1993431150913238,0.9927141666412354,-0.4213173985481262,-0.4711871445178985,-0.4042782187461853,-0.3704703450202942,0.0,0.0,-0.5995503664016724,-0.4539673328399658
-0.2037902325391769,0.981934130191803,-0.4272393584251404,-0.4842091500759125,-0.4231045842170715,-0.3765274882316589,0.0,0.0,-0.0387088656425476,-0.6416637301445007
-0.2083475589752197,0.9708958864212036,-0.439410924911499,-0.4955919086933136,-0.4408334195613861,-0.3545765876770019,0.0,0.0,0.2492200136184692,-0.0727084875106811
-0.2128134667873382,0.9598713517189026,-0.4303497672080993,-0.4951870143413543,-0.4586279392242431,-0.3558904528617859,0.0,0.0,0.5806419849395752,-0.2156042456626892
-0.2172223031520843,0.949017345905304,-0.4243802428245544,-0.4879453480243683,-0.476866066455841,-0.3647627234458923,0.0,0.0,0.2118465900421142,-0.9358409643173218
-0.2214918583631515,0.9387145042419434,-0.4121046960353851,-0.4631074070930481,-0.4934321939945221,-0.3313224911689758,0.0,0.0,0.4704575538635254,-0.3775598406791687
-0.2254136055707931,0.9290332198143004,-0.3774734437465668,-0.4356397986412048,-0.5099731087684631,-0.3308184444904327,0.0,0.0,0.17939293384552,-0.5480558276176453
-0.2292211949825287,0.9199293255805968,-0.3668132424354553,-0.4099073410034179,-0.5258061289787292,-0.3166603446006775,0.0,0.0,0.4349348545074463,-0.901767909526825
-0.2331166267395019,0.9110521674156188,-0.3770138919353485,-0.3994646072387695,-0.5401545166969299,-0.2869675457477569,0.0,0.0,0.8256068229675293,-0.5950464606285095
-0.2366172820329666,0.9030141234397888,-0.3385841250419616,-0.3618971407413482,-0.5534118413925171,-0.2651459574699402,0.0,0.0,0.8236616849899292,-0.2958483695983886
-0.2399359196424484,0.8955869078636169,-0.3197826147079468,-0.3351447284221649,-0.5674912929534912,-0.2815890312194824,0.0,0.0,0.9187426567077636,-0.8671320080757141
-0.2430020272731781,0.88898104429245,-0.2958444952964782,-0.2982211410999298,-0.5801389217376709,-0.2529527544975281,0.0,0.0,0.6398962736129761,-0.8993663191795349
-0.2458110749721527,0.8830298781394958,-0.2715866267681122,-0.26861172914505,-0.5911697149276733,-0.2206152975559234,0.0,0.0,0.7744555473327637,-0.8645239472389221
-0.2482965886592865,0.8775378465652466,-0.2407433986663818,-0.247609794139862,-0.6004806756973267,-0.1862189322710037,0.0,0.0,0.974604606628418,-0.6679149866104126
-0.2506253719329834,0.8722761273384094,-0.2261165380477905,-0.2369671165943145,-0.6085923910140991,-0.1622347384691238,0.0,0.0,0.9175381660461426,-0.7206382155418396
-0.2526928782463074,0.8672441840171814,-0.2012621611356735,-0.2262031733989715,-0.6152020692825317,-0.1321937143802642,0.0,0.0,0.8292441368103027,-0.7715392708778381
-0.2543517053127289,0.86259526014328,-0.1618382632732391,-0.2085334658622741,-0.6201007962226868,-0.0979740619659423,0.0,0.0,0.8790351152420044,-0.9149471521377563
-0.2557193338871002,0.8581080436706543,-0.1343238204717636,-0.2005977183580398,-0.6230581998825073,-0.0591476671397686,0.0,0.0,0.6816220283508301,-0.905953049659729
-0.2567504048347473,0.8543347716331482,-0.1020449250936508,-0.1682074069976806,-0.6243512034416199,-0.0258604083210229,0.0,0.0,0.4227792024612427,-0.9574175477027892
-0.2574809491634369,0.851111114025116,-0.0734749212861061,-0.1430797129869461,-0.6238409876823425,0.0102042080834507,0.0,0.0,-0.4402264356613159,-0.9732555747032166
-0.258305937051773,0.8476528525352478,-0.0840521082282066,-0.1529559791088104,-0.621951699256897,0.0377861261367797,0.0,0.0,0.2071366310119629,-0.8787466287612915
-0.2590275704860687,0.8441734313964844,-0.0750494971871376,-0.1532683074474334,-0.6184518933296204,0.0699965953826904,0.0,0.0,0.0987923145294189,-0.92865788936615
-0.2596901357173919,0.8409146070480347,-0.0705770701169967,-0.1427981406450271,-0.6132306456565857,0.104424849152565,0.0,0.0,0.3020598888397217,-0.6720003485679626
-0.2599824368953705,0.8381880521774292,-0.0346189625561237,-0.1186708584427833,-0.6067355871200562,0.1299010217189788,0.0,0.0,-0.0669399499893188,-0.6309347748756409
-0.2603567540645599,0.8352152705192566,-0.0437764450907707,-0.129202514886856,-0.599121630191803,0.1522788554430008,0.0,0.0,0.4207767248153686,-0.879439651966095
-0.2605364322662353,0.8329675197601318,-0.0256271418184041,-0.096443273127079,-0.5899959206581116,0.1825138628482818,0.0,0.0,-0.2986090779304504,-0.7997546195983887
-0.260794460773468,0.8304786086082458,-0.0345067530870437,-0.1067740842700004,-0.579684317111969,0.2062320262193679,0.0,0.0,-0.162097692489624,-0.8144241571426392
-0.2611411511898041,0.8277624845504761,-0.0448176003992557,-0.116338662803173,-0.5677502155303955,0.2386815547943115,0.0,0.0,0.0099375247955322,-0.4650231599807739
-0.2613150477409363,0.8253774046897888,-0.0271693225950002,-0.1018916666507721,-0.5563387274742126,0.2282302677631378,0.0,0.0,-0.0222693085670471,-0.3171788454055786
-0.2615172266960144,0.82270348072052,-0.0298165138810873,-0.1148990243673324,-0.5452134013175964,0.2225068807601928,0.0,0.0,0.1024113893508911,-0.6663249135017395
-0.2616561353206634,0.8203650116920471,-0.0244707651436328,-0.0997057259082794,-0.5330363512039185,0.2435414791107177,0.0,0.0,0.0456717014312744,-0.5828383564949036
-0.2617806494235992,0.8182810544967651,-0.0238333828747272,-0.0882009267807006,-0.5200348496437073,0.2600294649600982,0.0,0.0,-0.0542311072349548,-0.5727427005767822
-0.2619556784629822,0.8159391283988953,-0.0296153724193573,-0.0995242446660995,-0.506305456161499,0.2745878100395202,0.0,0.0,-0.2502809762954712,0.0992031097412109
-0.2621474862098694,0.8133090138435364,-0.0311414245516061,-0.1125345677137374,-0.4928496479988098,0.2691159844398498,0.0,0.0,-0.0657512545585632,0.0911934375762939
-0.2623530924320221,0.8103906512260437,-0.0323649123311042,-0.1255440264940261,-0.4796633422374725,0.2637263238430023,0.0,0.0,-0.174458622932434,-0.0399668216705322
-0.2625693380832672,0.807183563709259,-0.0332803204655647,-0.1385525912046432,-0.4667419493198395,0.2584277689456939,0.0,0.0,0.3866170644760132,0.0435432195663452
-0.2623635828495025,0.8045678734779358,0.0085832607001066,-0.1122875586152076,-0.4535266160964966,0.2643067836761474,0.0,0.0,-0.1160650253295898,-0.3164572715759277
-0.2621622681617737,0.801663339138031,0.0082931835204362,-0.1252954602241516,-0.4405655860900879,0.2592208683490753,0.0,0.0,-0.0407800078392028,-0.3120889663696289
-0.2619622647762298,0.7984701991081238,0.0083177518099546,-0.1383024752140045,-0.4278526604175567,0.2542588114738464,0.0,0.0,-0.0828828811645507,-0.1741988658905029
-0.261760413646698,0.7949880361557007,0.0086556449532508,-0.1513085812330246,-0.415380984544754,0.2494333535432815,0.0,0.0,-0.2865827679634094,0.1488955020904541
-0.2615536749362945,0.7912169098854065,0.0093038287013769,-0.1643138080835342,-0.4031430780887604,0.2447580397129058,0.0,0.0,0.1808866262435913,0.4356007575988769
-0.2612459659576416,0.7878177165985107,0.0199320055544376,-0.1480381488800048,-0.3915351033210754,0.2321593016386032,0.0,0.0,-0.0547540187835693,0.0436761379241943
-0.2609272599220276,0.7841288447380066,0.0211856514215469,-0.1610409319400787,-0.3801436722278595,0.2278284281492233,0.0,0.0,-0.1232240200042724,0.1262085437774658
-0.2605945169925689,0.7801505923271179,0.0227310545742511,-0.1740428954362869,-0.3689590692520141,0.2236928641796112,0.0,0.0,-0.0810901522636413,0.2814979553222656
-0.2602449357509613,0.7758826613426208,0.0245593748986721,-0.1870440393686294,-0.3579706251621246,0.219768613576889,0.0,0.0,0.4939581155776977,-0.170828640460968
-0.2596510946750641,0.771719753742218,0.0485971644520759,-0.1823700815439224,-0.3466208577156067,0.2269951999187469,0.0,0.0,0.2585875988006592,0.0811609029769897
-0.2587880194187164,0.7679639458656311,0.0753140151500701,-0.1643126755952835,-0.3351004421710968,0.2304091900587082,0.0,0.0,-0.1434919834136963,0.2820539474487304
-0.2578998506069183,0.7639184594154358,0.0779276117682457,-0.1773130595684051,-0.3237397074699402,0.2272148877382278,0.0,0.0,-0.2445931434631347,0.1727179288864135
