x_pos,y_pos,x_vel,y_vel,angle,ang_vel,leg_1,leg_2,main_booster,lat_booster
-0.001543617225252,1.4031435251235962,-0.1565535068511963,-0.3456302285194397,0.0019716899842023,0.0389089882373809,0.0,0.0,-0.787405690847242,-0.8139933095413855
-0.0031651495955884,1.394904851913452,-0.1657590866088867,-0.3661686182022095,0.005538779310882,0.0713490545749664,0.0,0.0,-0.3681647288499625,-0.7785547153194556
-0.0048530576750636,1.3861790895462036,-0.1737742573022842,-0.3878466784954071,0.0104650082066655,0.0985336974263191,0.0,0.0,-0.6582795798033183,0.6886858272858322
-0.0065155983902513,1.3769707679748535,-0.1702774912118911,-0.4092932939529419,0.0144458850845694,0.0796249955892562,0.0,0.0,-0.6081808928619419,-0.6382177240795623
-0.0082349777221679,1.367282748222351,-0.1770984083414077,-0.4306333363056183,0.019556051120162,0.1022126451134681,0.0,0.0,0.1834054585767612,-0.8734706092465966
-0.009933185763657,1.3576977252960205,-0.1769417226314544,-0.4261059761047363,0.0265934132039546,0.1407601833343505,0.0,0.0,-0.5626650631999892,0.7855545626332479
-0.0115878107026219,1.3476346731185913,-0.1711655557155609,-0.4473618268966675,0.0322408489882946,0.1129592433571815,0.0,0.0,0.0543170550171505,0.9650613899921332
-0.0130805019289255,1.3377219438552856,-0.153125450015068,-0.4406562149524688,0.0360530987381935,0.0762523338198661,0.0,0.0,-0.1792442587087115,-0.97680280578668
-0.0146656986325979,1.3273346424102783,-0.1644555479288101,-0.4618077278137207,0.0419185794889926,0.1173203960061073,0.0,0.0,-0.6968206089973639,-0.8104837251535367
-0.0163280479609966,1.3164682388305664,-0.173846036195755,-0.483187735080719,0.0494560450315475,0.1507633775472641,0.0,0.0,-0.9596504061343724,-0.7179060153368113
-0.0180507656186819,1.305118441581726,-0.1811744421720504,-0.5047503113746643,0.058263923972845,0.1761736571788787,0.0,0.0,-0.9674903613464128,-0.967256568062178
-0.0198516845703125,1.2932809591293335,-0.1907289326190948,-0.526553213596344,0.0688017383217811,0.2107758820056915,0.0,0.0,0.3263277979849655,0.7288814735623727
-0.0215273853391408,1.2818256616592407,-0.1769334375858307,-0.509571373462677,0.0780939757823944,0.1858617514371872,0.0,0.0,-0.4865070127092201,0.950802043201884
-0.0231279376894235,1.269891381263733,-0.167311891913414,-0.5308130383491516,0.0852910876274108,0.143955260515213,0.0,0.0,-0.7390055181982735,0.6379792484259303
-0.0246745105832815,1.2574909925460815,-0.1603231430053711,-0.5514598488807678,0.0909145325422287,0.1124793514609336,0.0,0.0,-0.3497703296420626,0.851242937941628
-0.0261475555598735,1.2446107864379885,-0.1509381383657455,-0.572682797908783,0.0945191532373428,0.0720988810062408,0.0,0.0,-0.0731587939658497,0.762790702769311
-0.0275524146854877,1.2312688827514648,-0.1421988010406494,-0.5930859446525574,0.0962210446596145,0.0340409502387046,0.0,0.0,0.0185430254535741,0.973826221056114
-0.0288002975285053,1.2178088426589966,-0.1244584769010543,-0.5982043147087097,0.0958924144506454,-0.0065728724002838,0.0,0.0,-0.5367358573594041,-0.7830677582938395
-0.0301023479551076,1.2038674354553225,-0.1311202049255371,-0.6196755766868591,0.0968054756522178,0.0182626843452453,0.0,0.0,-0.7604590963578275,0.9297669991026346
-0.0313416495919227,1.1894537210464478,-0.1231587156653404,-0.6405594944953918,0.0960375592112541,-0.0153596876189112,0.0,0.0,-0.2292133049857594,0.6517285053790638
-0.0325183868408203,1.1745727062225342,-0.1152188032865524,-0.6612263321876526,0.0936065539717674,-0.048624899238348,0.0,0.0,0.6216943654020861,-0.9862738926031744
-0.033797550946474,1.1598442792892456,-0.1273614764213562,-0.6545547246932983,0.0930547416210174,-0.0110374689102172,0.0,0.0,-0.4498003143891054,-0.6951601509732688
-0.0351158156991004,1.144627809524536,-0.1322469413280487,-0.6763171553611755,0.0934733003377914,0.0083721075206995,0.0,0.0,0.7845436942177966,-0.7006448129884116
-0.0364333167672157,1.129429578781128,-0.1336483061313629,-0.6755933165550232,0.0953516289591789,0.0375700108706951,0.0,0.0,0.9148226253337136,0.7132681985941253
-0.0379362106323242,1.114848494529724,-0.1501767337322235,-0.6480398178100586,0.0952402502298355,-0.002227593678981,0.0,0.0,-0.1226138380437382,-0.7241100749452775
-0.0395004265010356,1.099758505821228,-0.1579651981592178,-0.6707669496536255,0.0967714861035347,0.0306246727705001,0.0,0.0,0.9087031382414804,0.7122155571423487
-0.0410752296447753,1.0854535102844238,-0.1574436128139495,-0.6357724070549011,0.0967322811484336,-0.0007841340266168,0.0,0.0,-0.5500320407530301,-0.7235556250050175
-0.042708396911621,1.0706647634506226,-0.1648746579885482,-0.6573798656463623,0.0982752069830894,0.0308583583682775,0.0,0.0,-0.0699539449538733,-0.9601024162465532
-0.0444210059940815,1.055389165878296,-0.174983948469162,-0.6791648268699646,0.1019638106226921,0.0737721025943756,0.0,0.0,0.7845948005067533,0.9178229523566116
-0.0461253151297569,1.0404222011566162,-0.1720693260431289,-0.6653160452842712,0.1035928577184677,0.0325811095535755,0.0,0.0,0.3851078174893279,0.8285593099179415
-0.0478047356009483,1.026055097579956,-0.1677310913801193,-0.6385254263877869,0.1033890023827552,-0.0040771993808448,0.0,0.0,0.2478921048049605,-0.7052318330301488
-0.0496213920414447,1.011677622795105,-0.1825780272483825,-0.639063835144043,0.1042961776256561,0.0181433446705341,0.0,0.0,0.1646099376449004,0.7736227086356534
-0.0514835342764854,0.997668206691742,-0.1852971613407135,-0.622576892375946,0.1033854782581329,-0.0182139668613672,0.0,0.0,-0.7934695024139875,0.8785110197596213
-0.0532626137137413,0.9831792712211608,-0.1751902848482132,-0.643769383430481,0.1006892770528793,-0.0539240837097168,0.0,0.0,0.9790950804732312,-0.7474539797416511
-0.0551329627633094,0.9693260192871094,-0.1856400668621063,-0.6156002879142761,0.0993034914135932,-0.0277157686650753,0.0,0.0,0.8764991420475259,0.7015181225462062
-0.0569877624511718,0.9562906622886658,-0.1824891865253448,-0.5791512131690979,0.096334621310234,-0.0593774020671844,0.0,0.0,-0.3767782263397394,0.792552992390405
-0.0587576851248741,0.9427788853645324,-0.1722242534160614,-0.600225031375885,0.0916140154004097,-0.0944123044610023,0.0,0.0,0.7655658386533657,0.8798607812377683
-0.0604617111384868,0.9300238490104676,-0.1637023538351059,-0.566496729850769,0.0849667936563491,-0.1329442709684372,0.0,0.0,-0.2282735142313285,0.8881807051874147
-0.0620731338858604,0.9168065190315248,-0.1525134742259979,-0.5869734287261963,0.0764089748263359,-0.1711566299200058,0.0,0.0,-0.4714269131822191,0.6437143893262708
-0.0636026412248611,0.9031159281730652,-0.1426790654659271,-0.6079791188240051,0.0662498548626899,-0.2031822502613067,0.0,0.0,0.0046837580301946,0.6024001334226814
-0.0651590377092361,0.8896569609642029,-0.1438021957874298,-0.5976983308792114,0.05453871935606,-0.2342230528593063,0.0,0.0,-0.9997761249542236,-0.7551851868629456
-0.0667314529418945,0.8757128119468689,-0.1463256776332855,-0.6193792819976807,0.0437544323503971,-0.2156856507062912,0.0,0.0,-0.9811578392982484,0.3041423559188843
-0.0682711601257324,0.8612890839576721,-0.1427814364433288,-0.6407662630081177,0.032697532325983,-0.2211381644010543,0.0,0.0,-0.9950774908065796,-0.9238757491111756
-0.0698381438851356,0.8463810086250305,-0.1467734575271606,-0.6624050140380859,0.0228988472372293,-0.1959737241268158,0.0,0.0,-0.9954530596733092,-0.8474711775779724
-0.071441650390625,0.830980122089386,-0.1519664973020553,-0.6843744516372681,0.0146197732537984,-0.1655814349651336,0.0,0.0,-0.9646047353744508,-0.549411416053772
-0.0730493515729904,0.8150925636291504,-0.1531207710504531,-0.7060560584068298,0.0070662964135408,-0.1510694324970245,0.0,0.0,-0.8349402546882629,-0.9734008312225342
-0.0746893882751464,0.7987186312675476,-0.1578233242034912,-0.7277166247367859,0.0009653661400079,-0.1220189556479454,0.0,0.0,-0.986624836921692,-0.8369098901748657
-0.0763702392578125,0.7818728089332581,-0.1636066883802414,-0.7487048506736755,-0.0034510041587054,-0.0883272290229797,0.0,0.0,0.1790231466293335,-0.4772173166275024
-0.0781049728393554,0.7653905749320984,-0.1682647764682769,-0.7325676679611206,-0.0085982838645577,-0.1029456108808517,0.0,0.0,-0.8918784856796265,-0.6045055985450745
-0.0798497200012207,0.7484264373779297,-0.170220673084259,-0.7539902925491333,-0.0127967121079564,-0.0839687883853912,0.0,0.0,-0.2823628187179565,0.2390830516815185
-0.0815541297197341,0.7309817671775818,-0.1658793687820434,-0.7753703594207764,-0.0172928813844919,-0.089923545718193,0.0,0.0,0.1559110879898071,0.3933752775192261
-0.0832486152648925,0.7138304114341736,-0.1644054800271988,-0.7623497843742371,-0.0222752895206213,-0.0996482595801353,0.0,0.0,-0.1677439212799072,0.2302620410919189
-0.0849012359976768,0.6961984634399414,-0.159910961985588,-0.7837306261062622,-0.0275594778358936,-0.1056836694478988,0.0,0.0,0.8034254312515259,0.9476032257080078
-0.0864082351326942,0.6793974041938782,-0.1431394517421722,-0.7468762993812561,-0.0350250266492366,-0.1493110060691833,0.0,0.0,-0.4007015228271484,0.300394058227539
-0.08787202835083,0.6621161103248596,-0.138508528470993,-0.7682600617408752,-0.0427955947816371,-0.1554116904735565,0.0,0.0,0.3930666446685791,-0.0762808322906494
-0.0893553718924522,0.6449553966522217,-0.139786496758461,-0.7629623413085938,-0.0512453094124794,-0.1689945459365844,0.0,0.0,0.0879087448120117,-0.5483667850494385
-0.0907420143485069,0.6281041502952576,-0.1310232728719711,-0.7492273449897766,-0.05879458039999,-0.1509855538606643,0.0,0.0,0.4960677623748779,-0.6222084164619446
-0.0919608101248741,0.611682116985321,-0.115478977560997,-0.7301347255706787,-0.0651194155216217,-0.1264966875314712,0.0,0.0,0.2130885124206543,-0.6559785008430481
-0.0930849090218544,0.5956903696060181,-0.107130154967308,-0.7109806537628174,-0.0703547149896621,-0.1047058925032615,0.0,0.0,0.2327146530151367,-0.3425320386886596
-0.0941786766052246,0.5801016688346863,-0.1035024523735046,-0.6931189298629761,-0.0761632323265075,-0.1161703094840049,0.0,0.0,-0.2908247709274292,-0.551780641078949
-0.0952660590410232,0.5640324354171753,-0.1035727113485336,-0.7144598364830017,-0.0812785252928733,-0.1023055911064148,0.0,0.0,0.47767174243927,-0.6087117195129395
-0.0964008346199989,0.5484416484832764,-0.1090127825736999,-0.6931723356246948,-0.0857047662138938,-0.088524617254734,0.0,0.0,0.1199061870574951,0.5211327075958252
-0.0973256081342697,0.5328760743141174,-0.0868193879723548,-0.6921386122703552,-0.0913071036338806,-0.1120471134781837,0.0,0.0,-0.0007636547088623,-0.924068808555603
-0.0982726067304611,0.5168411731719971,-0.0905195027589798,-0.7129250764846802,-0.0954514071345329,-0.0828861817717552,0.0,0.0,0.9079480171203612,-0.4841750860214233
-0.0991186127066612,0.5010157823562622,-0.0801429003477096,-0.7036411762237549,-0.0998658686876297,-0.0882893428206443,0.0,0.0,0.9922868013381958,-0.8144314885139465
-0.1000710502266883,0.4858081340789795,-0.0917524471879005,-0.6761327981948853,-0.1033250242471695,-0.0691831186413765,0.0,0.0,0.427661657333374,-0.0003875494003295
-0.1008801460266113,0.4712205827236175,-0.0771956592798233,-0.6485974788665771,-0.1070100218057632,-0.0737002342939376,0.0,0.0,0.9175608158111572,-0.806016206741333
-0.101564884185791,0.456642746925354,-0.066286101937294,-0.6480605006217957,-0.1091808378696441,-0.0434163585305213,0.0,0.0,0.8455965518951416,-0.7885727882385254
-0.1021250709891319,0.4430202543735504,-0.0551778674125671,-0.6055068969726562,-0.1100168675184249,-0.0167206171900033,0.0,0.0,0.1639454364776611,-0.7863237261772156
-0.1027369499206543,0.4294337630271911,-0.0615502186119556,-0.6038184762001038,-0.109657421708107,0.0071891136467456,0.0,0.0,0.5704877376556396,-0.2249824404716491
-0.1033156365156173,0.416340708732605,-0.0575070455670356,-0.5819398164749146,-0.1100111976265907,-0.0070757837966084,0.0,0.0,0.214605450630188,-0.0141011476516723
-0.1037717834115028,0.4034455120563507,-0.0450526103377342,-0.5731607675552368,-0.1105689778923988,-0.0111556518822908,0.0,0.0,0.7718489170074463,-0.2792649865150451
-0.1042152419686317,0.3914428949356079,-0.0428377762436866,-0.5335602164268494,-0.112073466181755,-0.0300896205008029,0.0,0.0,-0.3143259286880493,0.3896806240081787
-0.104608729481697,0.3789598047733307,-0.0375154577195644,-0.5549414753913879,-0.1138843894004821,-0.0362185016274452,0.0,0.0,0.8586652278900146,-0.691857635974884
-0.1049972549080848,0.366662859916687,-0.0380170941352844,-0.5465962290763855,-0.1147204861044883,-0.0167216826230287,0.0,0.0,-0.1389520764350891,-0.6443169713020325
-0.1053808182477951,0.3538863062858581,-0.0383555218577384,-0.5678452253341675,-0.114722691476345,-4.400001853355207e-05,0.0,0.0,0.4550787210464477,-0.7630441784858704
-0.105770967900753,0.3410828709602356,-0.0401836261153221,-0.5689528584480286,-0.1135565638542175,0.0233222618699073,0.0,0.0,0.7624342441558838,-0.2752330303192138
-0.1060233116149902,0.3290614187717438,-0.0260628666728734,-0.5342233777046204,-0.11273243278265,0.0164827592670917,0.0,0.0,0.6776700019836426,-0.1569327712059021
-0.1060508713126182,0.3177804052829742,-0.0036583256442099,-0.5013107657432556,-0.1118311882019043,0.0180247388780117,0.0,0.0,0.0924746990203857,-0.4448517560958862
-0.1060407608747482,0.3068367838859558,0.0007404219941236,-0.4863600432872772,-0.1115701273083686,0.0052213575690984,0.0,0.0,-0.493120789527893,-0.4770837426185608
-0.1059797257184982,0.2954126596450805,0.0061419918201863,-0.5077410340309143,-0.1116038560867309,-0.0006745507707819,0.0,0.0,0.3770257234573364,-0.802392840385437
-0.1058189421892166,0.2845014929771423,0.0147400889545679,-0.4848407208919525,-0.1102782860398292,0.0265115648508071,0.0,0.0,-0.4105064868927002,-0.8652043342590332
-0.1056864708662033,0.2731229960918426,0.0101764984428882,-0.5054885745048523,-0.1072265654802322,0.0610343441367149,0.0,0.0,0.7794301509857178,0.5984880924224854
-0.1054402366280555,0.2623577415943146,0.023202933371067,-0.4783530235290527,-0.1058198660612106,0.0281341038644313,0.0,0.0,0.5858145952224731,-0.8516613245010376
-0.1051511764526367,0.2521301507949829,0.0260802898555994,-0.4543613195419311,-0.1030174568295478,0.0560484044253826,0.0,0.0,0.0091367959976196,-0.5326371788978577
-0.1047571152448654,0.2419497817754745,0.0357091054320335,-0.4522106945514679,-0.0993425548076629,0.0734978765249252,0.0,0.0,0.407585859298706,0.3675324916839599
-0.1042625457048416,0.2317212671041488,0.0459405481815338,-0.454373151063919,-0.0958535149693489,0.0697807893157005,0.0,0.0,0.3673667907714844,-0.285244882106781
-0.1036081314086914,0.2214986830949783,0.0618378818035125,-0.4541072845458984,-0.0922854542732238,0.0713610500097274,0.0,0.0,0.1770839691162109,-0.1930899024009704
-0.1027605086565017,0.2113889008760452,0.0809582397341728,-0.4490946233272552,-0.0885053575038909,0.0756019204854965,0.0,0.0,0.3173204660415649,-0.6517603397369385
-0.1017624884843826,0.2012540251016616,0.0947268530726432,-0.4501463174819946,-0.0834840610623359,0.1004262790083885,0.0,0.0,0.1516997814178466,-0.0847649574279785
-0.1006732955574989,0.1914221197366714,0.1041351407766342,-0.4367155730724334,-0.0787468403577804,0.094744473695755,0.0,0.0,0.098841905593872,-0.7888960242271423
-0.0995310768485069,0.1818747371435165,0.108094498515129,-0.4240153729915619,-0.0726842507719993,0.1212517991662025,0.0,0.0,0.2587802410125732,-0.9386515021324158
-0.0982644110918045,0.1726072430610656,0.1188551560044288,-0.411528468132019,-0.0649574324488639,0.1545365005731582,0.0,0.0,-0.1410784125328064,-0.7662503123283386
-0.0969971641898155,0.1628568023443222,0.1178961768746376,-0.4329964816570282,-0.0562166012823581,0.17481629550457,0.0,0.0,0.3379808664321899,-0.1754706501960754
-0.0956976860761642,0.1532476991415023,0.1215531378984451,-0.4267800748348236,-0.0479224994778633,0.1658824980258941,0.0,0.0,0.1796251535415649,-0.7826589345932007
-0.0943099036812782,0.1440906375646591,0.1289962828159332,-0.4066990315914154,-0.0382543019950389,0.1933635473251342,0.0,0.0,-0.2239807248115539,-0.7401727437973022
-0.0929315537214279,0.1344572156667709,0.1267342716455459,-0.4279027581214905,-0.0272976383566856,0.2191333472728729,0.0,0.0,0.8998408317565918,0.7709929943084717
-0.0915716141462326,0.1257268786430359,0.1270389854907989,-0.3878784775733948,-0.0184550937265157,0.1768511533737182,0.0,0.0,0.4108521938323974,0.3303112983703613
-0.0900752991437912,0.1174083054065704,0.1405644714832306,-0.3696287274360657,-0.0095000248402357,0.1791014075279235,0.0,0.0,-0.2089017033576965,-0.5773465633392334
-0.0885777473449707,0.1086147427558898,0.1396496742963791,-0.3907884955406189,0.0004790748935192,0.1995817720890045,0.0,0.0,0.8666270971298218,0.4982821941375732
-0.0871231108903884,0.1006105244159698,0.1360097825527191,-0.3557772934436798,0.0098046511411666,0.1865115463733673,0.0,0.0,0.6994302272796631,0.5197005271911621
-0.0856090560555458,0.0928929895162582,0.1433064639568328,-0.343076229095459,0.0178053323179483,0.1600137054920196,0.0,0.0,0.457297682762146,0.8337953090667725
-0.084103487432003,0.0854901671409607,0.1444965600967407,-0.3290997743606567,0.0237825792282819,0.1195451766252517,0.0,0.0,0.2387332916259765,0.7588297128677368
-0.0826246291399002,0.078191265463829,0.1437089741230011,-0.3244649171829223,0.027901217341423,0.0823728144168853,0.0,0.0,0.5100963115692139,-0.318791389465332
-0.0810173004865646,0.071400485932827,0.1563198715448379,-0.3019005358219147,0.0322686471045017,0.087348386645317,0.0,0.0,0.3219436407089233,-0.1753759384155273
-0.0793203338980674,0.0645738691091537,0.1652327477931976,-0.3035072088241577,0.0366698652505874,0.0880244523286819,0.0,0.0,0.7217693328857422,-0.8887355327606201
-0.0775054916739463,0.0584706626832485,0.1751653552055359,-0.2714217901229858,0.0429240502417087,0.1250835657119751,0.0,0.0,0.4611959457397461,-0.4795913100242615
-0.075690746307373,0.0529140569269657,0.1754191815853119,-0.2471440136432647,0.0489032082259655,0.119583249092102,0.0,0.0,0.3468378782272339,-0.9231135845184326
-0.0738008469343185,0.0479358062148094,0.1811565309762954,-0.2215309292078018,0.0566447265446186,0.1548307389020919,0.0,0.0,0.2295849323272705,-0.3142083883285522
-0.0718299895524978,0.0431280694901943,0.189165860414505,-0.2139971256256103,0.0644797980785369,0.1567010730504989,0.0,0.0,0.4344551563262939,-0.936387538909912
-0.069937989115715,0.0389027707278728,0.1795786172151565,-0.1882317066192627,0.0740071237087249,0.190546378493309,0.0,0.0,-0.0378102660179138,-0.688007652759552
-0.0680471435189247,0.0341983176767826,0.1783784478902816,-0.209650918841362,0.0846082642674446,0.2120225131511688,0.0,0.0,0.4148858785629272,-0.4974497556686401
-0.0660732239484787,0.0296098086982965,0.1865198612213134,-0.2045842260122299,0.0953782722353935,0.2154002636671066,0.0,0.0,0.4252103567123413,-0.6782188415527344
-0.0642725974321365,0.0253150556236505,0.1682064086198806,-0.1916753500699997,0.1071423441171646,0.2352815121412277,0.0,0.0,0.2390425205230713,-0.186471939086914
-0.0625626593828201,0.0211011990904808,0.1597444117069244,-0.1881286203861236,0.1183236166834831,0.2236253321170807,0.0,0.0,0.4091171026229858,0.2811964750289917
-0.0608819015324115,0.0171206574887037,0.157053917646408,-0.1778240352869033,0.129288837313652,0.219304472208023,0.0,0.0,0.3317874670028686,0.2480397224426269
-0.0591907501220703,0.0133041236549615,0.1581403911113739,-0.1706110388040542,0.1402262598276138,0.2187485247850418,0.0,1.0,0.9384943246841432,0.9731757640838624
-0.0573578849434852,0.0101967668160796,0.1853645145893097,-0.1382283866405487,0.1371754556894302,-0.0623343475162982,0.0,1.0,0.8020939826965332,0.571570873260498
-0.0556854233145713,0.0082142213359475,0.1877504289150238,-0.0863667204976081,0.1167145520448684,-0.4092861711978912,0.0,1.0,-0.0065414905548095,-0.5748842358589172
-0.0542021766304969,0.0061026429757475,0.1799182444810867,-0.09169802069664,0.085297480225563,-0.6284226179122925,0.0,1.0,0.2814394235610962,-0.7554203867912292
-0.0528127662837505,0.0040446016937494,0.1748915612697601,-0.0898227915167808,0.0496537573635578,-0.7129615545272827,0.0,1.0,0.6936321258544922,-0.8888985514640808
