x_pos,y_pos,x_vel,y_vel,angle,ang_vel,leg_1,leg_2,main_booster,lat_booster
-0.0015206336975097,1.402976155281067,-0.1542632728815078,-0.3530662953853607,0.0019758534617722,0.0389909371733665,0.0,0.0,0.2132309759363588,-0.9091456512004772
-0.0030662536155432,1.3949108123779297,-0.1585604548454284,-0.3584750890731811,0.0059283259324729,0.0790575370192527,0.0,0.0,-0.2715692573452581,0.7285736461397057
-0.0045392988249659,1.3861916065216064,-0.1497148424386978,-0.3875199556350708,0.0083135077729821,0.0477080643177032,0.0,0.0,0.679088137714825,0.6981444003797002
-0.0060910223983228,1.3775827884674072,-0.1560685932636261,-0.3826208114624023,0.0091985436156392,0.0177026651799678,0.0,0.0,0.0918992699188221,0.9099269027897564
-0.0074722291901707,1.3689773082733154,-0.1374086141586303,-0.3824696242809295,0.0084893917664885,-0.0141844376921653,0.0,0.0,-0.5193684209875971,-0.6240516645187315
-0.0088891983032226,1.3597217798233032,-0.1421286761760711,-0.4113548696041107,0.0089106885716319,0.0084266336634755,0.0,0.0,0.6952858864317477,-0.997401795223127
-0.0104142185300588,1.3507055044174194,-0.1550575941801071,-0.400739461183548,0.0114377466961741,0.0505458712577819,0.0,0.0,0.6882364263334027,0.7265090769788374
-0.011721134185791,1.34203839302063,-0.1323332637548446,-0.3852194547653198,0.0130582693964242,0.0324137583374977,0.0,0.0,0.0706288493557172,-0.6755841620982398
-0.0130959507077932,1.3335423469543457,-0.1406155973672866,-0.3776310682296753,0.0161604490131139,0.0620490722358226,0.0,0.0,-0.7219605402256706,0.8587535028526888
-0.0144021986052393,1.3244049549102783,-0.1321856081485748,-0.4061212539672851,0.0177081264555454,0.0309561379253864,0.0,0.0,0.2805896655147504,0.6906207120636092
-0.0155865671113133,1.3153144121170044,-0.1188886538147926,-0.404031366109848,0.0181467775255441,0.0087741175666451,0.0,0.0,-0.5623212554960604,0.6866618815114613
-0.0167099945247173,1.305575609207153,-0.1113659366965293,-0.4328242242336273,0.0171936526894569,-0.0190645195543766,0.0,0.0,-0.3662288155462649,0.7687333592027191
-0.0177591331303119,1.2951945066452026,-0.1022019013762474,-0.4613570868968963,0.014506971463561,-0.0537387207150459,0.0,0.0,0.2496013012428408,-0.8610741903238386
-0.0188198089599609,1.2845598459243774,-0.1052399277687072,-0.4726494550704956,0.0136898756027221,-0.0163432043045759,0.0,0.0,-0.5165150194540171,-0.8090086571403229
-0.0199295990169048,1.273283839225769,-0.1114899963140487,-0.5011530518531799,0.0142002683132886,0.0102087091654539,0.0,0.0,0.8140532649799224,-0.7086199165666265
-0.0209695808589458,1.2618426084518433,-0.1063485294580459,-0.5085259079933167,0.0165165774524211,0.0463305413722991,0.0,0.0,0.6879615215716004,-0.7036697668921914
-0.0219269748777151,1.2510744333267212,-0.0999132022261619,-0.4786350429058075,0.0206480138003826,0.0826361328363418,0.0,0.0,0.48734880376581,0.7977839064447269
-0.0226860046386718,1.2401634454727173,-0.0787866562604904,-0.4849773049354553,0.0234892237931489,0.056829459965229,0.0,0.0,0.7097241825473415,-0.9390275954788146
-0.0234276764094829,1.2298603057861328,-0.0791576355695724,-0.458005279302597,0.0284201875329017,0.0986282378435134,0.0,0.0,0.1349107686888573,0.6273368435989158
-0.0241945274174213,1.219490885734558,-0.0803537666797638,-0.4609341025352478,0.0320548042654991,0.0726988166570663,0.0,0.0,-0.5995511374073879,-0.8040452922569751
-0.0250133518129587,1.2084769010543823,-0.0868548154830932,-0.4896246194839477,0.0369803719222545,0.0985198989510536,0.0,0.0,-0.1007632661956332,0.8556637337554529
-0.0257651321589946,1.1968138217926023,-0.0784228965640068,-0.5184430480003357,0.0401905551552772,0.0642095953226089,0.0,0.0,-0.6049689162239016,-0.6896525877093231
-0.026561927050352,1.1844991445541382,-0.0840144902467727,-0.5474464297294617,0.0444838590919971,0.0858735889196395,0.0,0.0,0.2576313937587877,0.9423859836873548
-0.0272352211177349,1.1718908548355105,-0.0697961971163749,-0.5604440569877625,0.0469267591834068,0.0488623827695846,0.0,0.0,0.4112614281957842,-0.9893925601045144
-0.0281549450010061,1.1594454050064087,-0.0963082611560821,-0.5532727837562561,0.051221027970314,0.0858929604291915,0.0,0.0,0.7262999753378832,0.9041959132749764
-0.0292126648128032,1.147429585456848,-0.1079822331666946,-0.5341135859489441,0.0534137487411499,0.0438541695475578,0.0,0.0,-0.8196379368796454,0.6366387668605412
-0.0302228927612304,1.1347733736038208,-0.1019067987799644,-0.5625250339508057,0.0542862750589847,0.0174501072615385,0.0,0.0,-0.5584121833146622,-0.7981866897782284
-0.0313135161995887,1.121470928192139,-0.1118396371603012,-0.5913200378417969,0.0570329502224922,0.0549336560070514,0.0,0.0,-0.8164707412790682,0.6596807501703355
-0.0323670394718647,1.1075292825698853,-0.107017233967781,-0.6196975708007812,0.0586799904704093,0.0329410545527935,0.0,0.0,0.7842424565760735,0.8124841503714421
-0.0334156975150108,1.0937280654907229,-0.1047643050551414,-0.6133833527565002,0.0585793107748031,-0.0020135282538831,0.0,0.0,-0.5042853966569485,0.8209567444815239
-0.0344017036259174,1.0792934894561768,-0.0967033803462982,-0.6414579749107361,0.0566967725753784,-0.0376508124172687,0.0,0.0,0.6409620638474485,0.6819258451703848
-0.0354466438293457,1.0648561716079712,-0.100920058786869,-0.6415323615074158,0.0531683899462223,-0.0705674737691879,0.0,0.0,-0.2308443629230336,0.8454670422361815
-0.0364384651184082,1.0497829914093018,-0.0940200537443161,-0.6697379946708679,0.048067383468151,-0.1020200476050376,0.0,0.0,-0.5128060941751662,0.7194484694740333
-0.0373836532235145,1.0340592861175537,-0.0879304558038711,-0.6986392140388489,0.0415566600859165,-0.1302141547203064,0.0,0.0,-0.7940834183336107,0.6912117393496863
-0.0382773391902446,1.017692804336548,-0.0812078863382339,-0.7271972298622131,0.0334913358092308,-0.161306619644165,0.0,0.0,0.426838207122046,0.8992268238897503
-0.0391089431941509,1.0016694068908691,-0.0730390846729278,-0.711955726146698,0.023502042517066,-0.1997860521078109,0.0,0.0,-0.4659565945952775,-0.9350198484416858
-0.0400225631892681,0.9849912524223328,-0.0830425471067428,-0.7411423921585083,0.0152902565896511,-0.164235457777977,0.0,0.0,-0.6806488596807561,-0.7547757753615354
-0.0409972183406353,0.9676700830459596,-0.0903970077633857,-0.769775390625,0.0083106523379683,-0.1395924389362335,0.0,0.0,-0.4221238144351815,0.7359635105079319
-0.0419227592647075,0.9497103095054626,-0.0839036330580711,-0.7981922030448914,-0.000220404981519,-0.1706209927797317,0.0,0.0,0.8630756029404001,0.9361964361642664
-0.0427438728511333,0.9321327209472656,-0.0714518949389457,-0.7812625169754028,-0.0107455607503652,-0.2105034291744232,0.0,0.0,0.7119275441106478,0.9897093611590868
-0.0436079017817974,0.91512793302536,-0.0733751058578491,-0.7559139728546143,-0.0236026607453823,-0.2571419477462768,0.0,0.0,0.6522796154022217,-0.9993818402290344
-0.0444045066833496,0.8982576727867126,-0.0686083287000656,-0.7500106692314148,-0.034518226981163,-0.2183113992214203,0.0,0.0,0.1111872196197509,-0.9987805485725404
-0.0452006347477436,0.8810455799102783,-0.070336565375328,-0.7652243971824646,-0.0436840914189815,-0.1833172291517257,0.0,0.0,0.2723104953765869,-0.9984700679779052
-0.045974351465702,0.8637934923171997,-0.0699002891778945,-0.7669947147369385,-0.0510625019669532,-0.1475681960582733,0.0,0.0,0.1581953763961792,-0.998282253742218
-0.0468563064932823,0.8461999297142029,-0.0825139582157135,-0.7821422815322876,-0.0566862039268016,-0.1124741062521934,0.0,0.0,0.517114520072937,-0.94537091255188
-0.0477540977299213,0.828410804271698,-0.0858029276132583,-0.7907890677452087,-0.0606172457337379,-0.0786207765340805,0.0,0.0,0.7017374038696289,-0.8516324758529663
-0.0486279502511024,0.8106578588485718,-0.0849904790520668,-0.7891169190406799,-0.0629798769950866,-0.0472527258098125,0.0,0.0,0.6947568655014038,-0.764214277267456
-0.0496402755379676,0.7935630679130554,-0.0998771861195564,-0.7598239183425903,-0.0643192827701568,-0.0267883297055959,0.0,0.0,0.3487597703933716,-0.7270658016204834
-0.0507951751351356,0.7768070697784424,-0.1151601821184158,-0.7447293400764465,-0.0646478608250618,-0.0065712877549231,0.0,0.0,0.1989401578903198,-0.5037727952003479
-0.0519889816641807,0.7599593997001648,-0.119763895869255,-0.7487674951553345,-0.06427051872015,0.0075468034483492,0.0,0.0,0.2437466382980346,-0.1211376190185546
-0.0530536659061908,0.7430967688560486,-0.1070865020155906,-0.7494235634803772,-0.06365916877985,0.012227114289999,0.0,0.0,-0.2961713671684265,-0.4432021379470825
-0.054124642163515,0.7255861759185791,-0.1074440330266952,-0.7782391309738159,-0.0633176565170288,0.006830614991486,0.0,0.0,0.4537544250488281,-0.4256024360656738
-0.0550811775028705,0.7080037593841553,-0.0961756184697151,-0.7814144492149353,-0.0628050565719604,0.0102519616484642,0.0,0.0,0.0033203363418579,-0.0268224477767944
-0.0560117736458778,0.6904984712600708,-0.0933082327246666,-0.7780064940452576,-0.0625611394643783,0.0048782378435134,0.0,0.0,0.6694706678390503,0.5075907707214355
-0.0567178726196289,0.6730617880821228,-0.0699959322810173,-0.7749856114387512,-0.0631627812981605,-0.0120326746255159,0.0,0.0,0.4435440301895141,-0.333981990814209
-0.0574877746403217,0.6556012630462646,-0.0756983906030654,-0.7760741114616394,-0.0644349753856659,-0.0254443250596523,0.0,0.0,0.3937897682189941,-0.4200205206871032
-0.0581417083740234,0.6384915113449097,-0.0641839653253555,-0.7604833245277405,-0.0656277015805244,-0.0238544475287199,0.0,0.0,0.2444676160812378,-0.4976750612258911
-0.0586650855839252,0.6214838624000549,-0.0513257756829261,-0.7559372186660767,-0.0666297301650047,-0.0200405977666378,0.0,0.0,0.7629246711730957,-0.5650474429130554
-0.0590957626700401,0.6051449775695801,-0.0431312024593353,-0.7261744737625122,-0.0665689930319786,0.0012145437067374,0.0,0.0,0.1841479539871215,-0.3284258842468261
-0.0595500953495502,0.5890063047409058,-0.0449373684823513,-0.71729576587677,-0.067055843770504,-0.0097369570285081,0.0,0.0,0.0887136459350586,-0.7134457230567932
-0.0600128173828125,0.5725803971290588,-0.0469515062868595,-0.7300084829330444,-0.0663857609033584,0.0134016703814268,0.0,0.0,0.630866289138794,0.0687730312347412
-0.0605350509285926,0.5565526485443115,-0.0521336384117603,-0.712348997592926,-0.0664728507399559,-0.0017418097704648,0.0,0.0,0.5466451644897461,-0.5232987403869629
-0.0609493255615234,0.5405918955802917,-0.0424108244478702,-0.7093232870101929,-0.0654983967542648,0.019488887861371,0.0,0.0,0.461101770401001,-0.1387632489204406
-0.0613139159977436,0.5247923731803894,-0.0372431799769401,-0.7021651864051819,-0.0647303983569145,0.0153603423386812,0.0,0.0,0.8668296337127686,0.0853403806686401
-0.0616472251713275,0.5090219974517822,-0.0338357165455818,-0.7008845806121826,-0.0642258897423744,0.0100901862606406,0.0,0.0,0.8198592662811279,-0.2030807137489318
-0.0620815269649028,0.4935911893844604,-0.0429901741445064,-0.6858323216438293,-0.0646580010652542,-0.0086422963067889,0.0,0.0,0.867984414100647,-0.2454533576965332
-0.0624357238411903,0.4789584279060364,-0.0347910784184932,-0.6503751277923584,-0.0652850866317749,-0.012541520409286,0.0,0.0,0.4123468399047851,0.5249674320220947
-0.0626635551452636,0.4640340507030487,-0.0209663957357406,-0.6633864641189575,-0.0670849904417991,-0.0359978787600994,0.0,0.0,0.2184774875640869,-0.4643523693084717
-0.0628360733389854,0.4494019150733948,-0.0152129624038934,-0.6504083871841431,-0.0691022127866745,-0.0403443090617656,0.0,0.0,0.5792319774627686,-0.6379432082176208
-0.0631321892142295,0.4348114728927612,-0.0283256769180297,-0.6485238671302795,-0.0703781619668006,-0.0255189500749111,0.0,0.0,0.943169116973877,-0.2617397904396057
-0.0634868592023849,0.4207760989665985,-0.0333565957844257,-0.6238955855369568,-0.0724652186036109,-0.0417412742972373,0.0,0.0,0.7399075031280518,-0.5310959815979004
-0.0638082474470138,0.4070750772953033,-0.0308805350214242,-0.6089956164360046,-0.0737110078334808,-0.0249157659709453,0.0,0.0,0.8351466655731201,0.1897304058074951
-0.0642100349068641,0.3941452503204345,-0.037935521453619,-0.574773371219635,-0.0759318694472312,-0.0444174036383628,0.0,0.0,-0.3419101238250732,-0.0853872895240783
-0.0646186843514442,0.3805674314498901,-0.0383003950119018,-0.6035898327827454,-0.0784665644168853,-0.0506937503814697,0.0,0.0,0.5299427509307861,-0.6129275560379028
-0.065088078379631,0.3668882250785827,-0.045223943889141,-0.6080572605133057,-0.0801724046468734,-0.0341165177524089,0.0,0.0,0.96667742729187,-0.6668081283569336
-0.0654997825622558,0.353128433227539,-0.0406894907355308,-0.6115708947181702,-0.0806426703929901,-0.0094052897766232,0.0,0.0,0.9720938205718994,0.246856689453125
-0.0659232139587402,0.3393310010433197,-0.0413721166551113,-0.6132708787918091,-0.08160300552845,-0.0192068554461002,0.0,0.0,0.9412297010421752,-0.3530206084251404
-0.0662872344255447,0.3262801468372345,-0.0350701585412025,-0.5801107287406921,-0.0829249396920204,-0.026438558474183,0.0,0.0,0.961965799331665,-0.2086970210075378
-0.0664831176400184,0.3140177428722381,-0.0183778684586286,-0.5450658202171326,-0.0841237232089042,-0.0239757169038057,0.0,0.0,0.7504887580871582,-0.450968861579895
-0.0667314529418945,0.3024167120456695,-0.0227544959634542,-0.5157191157341003,-0.0861893966794014,-0.0413134545087814,0.0,0.0,0.7605476379394531,-0.7389327883720398
-0.0671648979187011,0.2907146215438843,-0.0420951172709465,-0.5201644897460938,-0.0874238088726997,-0.0246884599328041,0.0,0.0,0.7175731658935547,0.2106527090072631
-0.067491628229618,0.2795871198177337,-0.0312972106039524,-0.4946360290050506,-0.0887816995382309,-0.0271578393876552,0.0,0.0,0.3384311199188232,0.5198550224304199
-0.0678314194083213,0.2685146629810333,-0.031040396541357,-0.4922862350940704,-0.0916986390948295,-0.0583386607468128,0.0,0.0,-0.0392941832542419,-0.9397989511489868
-0.0682585686445236,0.2568094432353973,-0.0415163971483707,-0.520307183265686,-0.0928887128829956,-0.0238014459609985,0.0,0.0,0.8590309619903564,0.0536057949066162
-0.068632885813713,0.2456334233283996,-0.0358533635735511,-0.4968149960041046,-0.094459056854248,-0.0314068347215652,0.0,0.0,0.7155172824859619,-0.6110354065895081
-0.068908117711544,0.2347046732902526,-0.0270865447819232,-0.4857482314109802,-0.0948871076107025,-0.0085611771792173,0.0,0.0,0.3839789628982544,-0.4188394546508789
-0.0691431015729904,0.2235534042119979,-0.0228438451886177,-0.4956541955471039,-0.0955415070056915,-0.0130878370255231,0.0,0.0,0.5549519062042236,-0.6764755845069885
-0.0693071335554122,0.2123091518878936,-0.0169895272701978,-0.4997093975543976,-0.0949712544679641,0.0114053450524806,0.0,0.0,0.5679926872253418,-0.4890890121459961
-0.0692877769470214,0.2012063860893249,0.0010437156306579,-0.4933995306491852,-0.0940732359886169,0.0179603956639766,0.0,0.0,0.8557006120681763,-0.5738642811775208
-0.0691124945878982,0.1900957375764846,0.0153212817385792,-0.4936696887016296,-0.0918915420770645,0.0436341986060142,0.0,0.0,0.7069363594055176,-0.2987061738967895
-0.0688785538077354,0.1794973760843277,0.0215355940163135,-0.4709254205226898,-0.0900549739599227,0.0367314293980598,0.0,0.0,0.8183161020278931,-0.8266995549201965
-0.0686038956046104,0.169508472084999,0.0242075305432081,-0.4437613785266876,-0.0868139863014221,0.0648195445537567,0.0,0.0,0.581423282623291,-0.2231673002243042
-0.0681616812944412,0.1598103195428848,0.0407134182751178,-0.4308280646800995,-0.0833393037319183,0.0694936066865921,0.0,0.0,0.3399875164031982,-0.8613532781600952
-0.0676795989274978,0.1498480886220932,0.0431914888322353,-0.4424948990345001,-0.078377865254879,0.0992287844419479,0.0,0.0,0.7738499641418457,-0.6588129997253418
-0.0672742873430252,0.1400673240423202,0.0346639677882194,-0.4344064891338348,-0.0725684612989425,0.1161880865693092,0.0,0.0,0.6557673215866089,0.0819942951202392
-0.0667282119393348,0.1309233456850052,0.0486527532339096,-0.4061227142810821,-0.066683605313301,0.1176972016692161,0.0,0.0,0.4631203413009643,-0.4244712591171264
-0.0661758407950401,0.1218881011009216,0.049704261124134,-0.4013274013996124,-0.0612107627093791,0.1094569340348243,0.0,0.0,0.624683141708374,-0.1902958750724792
-0.065704345703125,0.1133877113461494,0.0425079241394996,-0.3776151239871979,-0.0566200651228427,0.0918139368295669,0.0,0.0,0.0246167182922363,-0.2937846779823303
-0.0651610344648361,0.104883037507534,0.0497554764151573,-0.3778203129768371,-0.0520952269434928,0.0904965996742248,0.0,0.0,0.4156494140625,-0.721176028251648
-0.0646984130144119,0.0967071652412414,0.0406328439712524,-0.3631830513477325,-0.0465340055525302,0.1112245172262191,0.0,0.0,0.777984619140625,0.3958160877227783
-0.0642937645316124,0.0890972688794136,0.0355729982256889,-0.3380738794803619,-0.0416990704834461,0.0966988280415535,0.0,0.0,0.4806863069534302,-0.6775331497192383
-0.0639551132917404,0.0815111249685287,0.0279757045209407,-0.3370104432106018,-0.0358777567744255,0.1164260506629943,0.0,0.0,0.7248574495315552,0.9466900825500488
-0.0636617690324783,0.0742225274443626,0.0258778929710388,-0.3238585889339447,-0.0324511416256427,0.0685322806239128,0.0,0.0,0.5976264476776123,0.2100553512573242
-0.063503548502922,0.0670522302389144,0.0133374137803912,-0.3186276257038116,-0.0300098061561584,0.0488268993794918,0.0,0.0,0.8302500247955322,0.9786149263381958
-0.0631195083260536,0.0604238137602806,0.0380228199064731,-0.2945895791053772,-0.0296251699328422,0.0076926625333726,0.0,0.0,0.0840429067611694,0.9428932666778564
-0.0626121535897255,0.053496491163969,0.0525575168430805,-0.3079169392585754,-0.0314319171011447,-0.0361346863210201,0.0,0.0,0.6362769603729248,0.375899076461792
-0.0619437210261821,0.0470471009612083,0.0683119148015976,-0.2866706848144531,-0.0328831858932971,-0.0290254689753055,0.0,0.0,0.5795350074768066,-0.1244021654129028
-0.0612789168953895,0.0410629846155643,0.0683666542172432,-0.2660054266452789,-0.0347434915602207,-0.0372059494256973,0.0,0.0,0.4581243991851806,-0.70003741979599
-0.0605100616812706,0.0355649553239345,0.0774058029055595,-0.2443681806325912,-0.0352642908692359,-0.0104158483445644,0.0,0.0,-0.0135486721992492,-0.649612307548523
-0.0597921386361122,0.0294211246073246,0.0714861005544662,-0.2730483412742615,-0.0349616147577762,0.0060534575022757,0.0,0.0,0.8535369634628296,-0.1566837430000305
-0.0590561851859092,0.0240028481930494,0.0736373513936996,-0.2408157289028167,-0.0349997766315937,-0.0007634636131115,0.0,0.0,0.3468855619430542,-0.2542462348937988
-0.0582541450858116,0.0188962072134017,0.0803221389651298,-0.226963073015213,-0.0351107791066169,-0.0022204122506082,0.0,0.0,0.6281371116638184,0.6710505485534668
-0.0573023781180381,0.0138080930337309,0.0967494323849678,-0.2261777371168136,-0.0366680584847927,-0.0311455018818378,0.0,0.0,0.8842586278915405,-0.816724956035614
-0.0565474517643451,0.0091422293335199,0.0760455280542373,-0.2073872536420822,-0.0372133962810039,-0.0109068639576435,0.0,0.0,0.2903990745544433,-0.4118819236755371
-0.0558832176029682,0.0044364547356963,0.0677459836006164,-0.2091802954673767,-0.0385176911950111,-0.0260859616100788,0.0,0.0,0.7612855434417725,0.3555711507797241
-0.0552240386605262,-1.536846139060799e-05,0.0676391869783401,-0.1979045569896698,-0.0402208343148231,-0.0340628400444984,1.0,0.0,0.9037622213363647,-0.0441660284996032
-0.0544773116707801,-0.003745641792193,0.0662464946508407,-0.1660410761833191,-0.0304309334605932,0.1976623982191085,1.0,0.0,0.9655847549438475,-0.5708338618278503
-0.0534856803715229,-0.0069943331182003,0.0727853924036026,-0.1440678089857101,-0.004339091014117,0.5218889713287354,1.0,1.0,0.9798669815063475,0.7594958543777466
-0.05242919921875,-0.0086945677176117,0.0865318104624748,-0.0758816376328468,0.0130663784220814,0.3462512493133545,1.0,1.0,0.5930882692337036,-0.64448481798172
-0.0515858642756938,-0.008963968604803,0.0738676264882087,-0.012106510810554,0.0233741793781518,0.2061352431774139,1.0,1.0,-0.4180129766464233,-0.375757098197937
