x_pos,y_pos,x_vel,y_vel,angle,ang_vel,leg_1,leg_2,main_booster,lat_booster
-0.0015018463600426,1.4029228687286377,-0.1519960314035415,-0.3554346859455108,0.0016199180390685,0.0319436937570571,0.0,0.0,-0.2180817407207524,0.8108946351739754
-0.0029160499107092,1.3942434787750244,-0.1411187350749969,-0.3857576251029968,0.0013220299733802,-0.0059574986808001,0.0,0.0,0.0082408835648721,-0.8367739174760259
-0.0042848587036132,1.385225534439087,-0.1381537467241287,-0.4007978737354278,0.002571748336777,0.0249968208372592,0.0,0.0,-0.1337084463966147,-0.9138797199410216
-0.0057278634048998,1.375502586364746,-0.1476204395294189,-0.432139903306961,0.0058536431752145,0.0656440705060958,0.0,0.0,-0.6886109197850512,0.7336707941809334
-0.0070922849699854,1.3650808334350586,-0.1378577649593353,-0.4631871283054352,0.0072443848475813,0.0278175976127386,0.0,0.0,0.7810949632730209,-0.603455031873184
-0.0083446502685546,1.3548362255096436,-0.1281594187021255,-0.4553322196006775,0.0101404106244444,0.0579260997474193,0.0,0.0,-0.0334118608366587,-0.9677629198571464
-0.0096742631867527,1.3438889980316162,-0.1377759277820587,-0.4865915477275848,0.0148988617584109,0.0951773971319198,0.0,0.0,-0.0071605500552576,-0.6291200925144387
-0.0110428808256983,1.3322412967681885,-0.1425026655197143,-0.5177389979362488,0.0204728860408067,0.1114910468459129,0.0,0.0,0.5264779703261275,0.7801291546500357
-0.0123836519196629,1.3210617303848269,-0.13799449801445,-0.496925950050354,0.024360291659832,0.0777553990483284,0.0,0.0,-0.1188539871880067,0.6335337949378435
-0.013682747259736,1.3091862201690674,-0.1324648112058639,-0.5278440713882446,0.0268792975693941,0.0503846406936645,0.0,0.0,-0.972846010203682,0.8639066697853175
-0.0149156572297215,1.2966128587722778,-0.1237470954656601,-0.5588223338127136,0.0273294374346733,0.0090038198977708,0.0,0.0,-0.5656423641603574,0.8742467612892186
-0.016086196526885,1.283339262008667,-0.1154396161437034,-0.5899099707603455,0.0257353354245424,-0.0318850651383399,0.0,0.0,-0.3235718204525741,0.6223653303397555
-0.0172146800905466,1.2693696022033691,-0.1096172705292701,-0.6208245754241943,0.0225354712456464,-0.0640032440423965,0.0,0.0,0.8917978732341474,-0.962140475502609
-0.0183609966188669,1.2552995681762695,-0.1133714169263839,-0.6253176331520081,0.0212975889444351,-0.0247596688568592,0.0,0.0,0.9389685949364948,0.8407912451645678
-0.0193041805177927,1.2419952154159546,-0.0916634947061538,-0.5912640690803528,0.0186808630824089,-0.0523394420742988,0.0,0.0,0.4392878471378456,0.6918264592078813
-0.0201181415468454,1.2283740043640137,-0.0774793997406959,-0.6053438782691956,0.0147972758859395,-0.0776789858937263,0.0,0.0,-0.2415300318324267,-0.6231876476832847
-0.0209991447627544,1.2140578031539917,-0.0850468426942825,-0.6362516283988953,0.0117760803550481,-0.0604294538497924,0.0,0.0,-0.6581456590588561,-0.7369525630168419
-0.0219561569392681,1.19903302192688,-0.0936811566352844,-0.6677576899528503,0.0097837373614311,-0.0398501865565776,0.0,0.0,-0.8263356466110847,-0.7121983525720055
-0.022994328290224,1.1833125352859497,-0.1029226407408714,-0.6986809968948364,0.0088924821466207,-0.0178267154842615,0.0,0.0,0.3439879267128289,-0.8752370395147754
-0.0242171287536621,1.1675786972045898,-0.1229776963591575,-0.6992868781089783,0.0095840748399496,0.0138331726193428,0.0,0.0,0.2543735192364647,0.6788334880455524
-0.0253221504390239,1.1520066261291504,-0.1099337935447692,-0.6920896172523499,0.0090156476944684,-0.0113695636391639,0.0,0.0,0.6571465503758835,-0.6090416873191162
-0.0265075676143169,1.1363946199417114,-0.1191378384828567,-0.6938754320144653,0.0096156885847449,0.0120016792789101,0.0,0.0,0.6723434589575352,-0.8637762678495405
-0.0276631359010934,1.1209073066711426,-0.1180800199508667,-0.6883363127708435,0.0121030220761895,0.0497514009475708,0.0,0.0,-0.5092594431121911,0.8002927616955479
-0.0287928581237792,1.104710817337036,-0.1136244088411331,-0.7198494672775269,0.012748465873301,0.0129101667553186,0.0,0.0,-0.3450213163589513,-0.975567008612388
-0.0300644878298044,1.0878137350082395,-0.1301842480897903,-0.7510126829147339,0.015730544924736,0.0596467144787311,0.0,0.0,-0.5462572155562451,-0.6928026459243453
-0.0314523689448833,1.0701956748962402,-0.1434800624847412,-0.7830783724784851,0.0203650500625371,0.0926901251077652,0.0,0.0,0.1698593984439436,-0.6609892228062204
-0.0329497344791889,1.0526504516601562,-0.1557201743125915,-0.7798787355422974,0.0262641534209251,0.1179820448160171,0.0,0.0,0.2209737271516578,0.8920889900308113
-999.0,1.03532612323761,-0.1646837741136551,-0.7700455188751221,0.0302763730287551,0.0802446156740188,0.0,0.0,-0.362830248050686,-0.714941321061612
-0.0362838730216026,1.017303228378296,-0.1785522252321243,-0.8011415600776672,0.0359720550477504,0.1139135733246803,0.0,0.0,-0.0794204447420592,0.6624880393946155
-0.0380149856209754,0.998579442501068,-0.177559807896614,-0.832285463809967,0.0403540730476379,0.0876403898000717,0.0,0.0,0.5018173994670811,0.6975598448532385
-0.0397588722407817,0.9803197979927064,-0.1774119883775711,-0.8116193413734436,0.0433446280658245,0.0598110668361187,0.0,0.0,0.7562681571602969,0.6509849241542912
-0.0416169166564941,0.9620506167411804,-0.1872723549604416,-0.8120084404945374,0.0447913259267807,0.0289339013397693,0.0,0.0,-0.5220259759798243,-0.9254791070411912
-0.0436159148812294,0.9430829882621764,-0.203450009226799,-0.8431171774864197,0.048300351947546,0.0701806098222732,0.0,0.0,0.9437628640393888,-0.6265309119512125
-0.0458232872188091,0.924034595489502,-0.2253067046403885,-0.8467488884925842,0.052816204726696,0.0903172343969345,0.0,0.0,0.0613268654861836,0.8784642924489467
-0.0480296127498149,0.9048966765403748,-0.223409503698349,-0.8506771922111511,0.0555630065500736,0.0549361109733581,0.0,0.0,0.6821191482823821,-0.8896387854057052
-0.050388716161251,0.8862130045890808,-0.2405000180006027,-0.8305575251579285,0.0600936710834503,0.0906132906675338,0.0,0.0,0.3397590828309493,-0.8322168125093399
-0.0529207214713096,0.867368757724762,-0.259414792060852,-0.8377873301506042,0.0662422478199005,0.12297173589468,0.0,0.0,0.1904382481537794,-0.943976489112606
-0.0555934906005859,0.8486475348472595,-0.2753873169422149,-0.8324378728866577,0.0742675065994262,0.160505324602127,0.0,0.0,-0.8839350333788858,-0.9732791061322126
-0.0584110245108604,0.8292273283004761,-0.2919371724128723,-0.8636561036109924,0.0843500271439552,0.2016502320766449,0.0,0.0,0.4058154605712922,0.8483015856916938
-0.0612412467598915,0.8098929524421692,-0.2915218770503998,-0.8598151803016663,0.0927736386656761,0.168472558259964,0.0,0.0,-0.3369261654387825,-0.9254833307729212
-0.0642213821411132,0.7898537516593933,-0.3086968958377838,-0.891326904296875,0.1033701002597808,0.2119292318820953,0.0,0.0,0.8520371913909912,0.9667882919311525
-0.0670966133475303,0.7700234651565552,-0.2965211272239685,-0.8819988369941711,0.1122924834489822,0.1784476041793823,0.0,0.0,0.943026065826416,0.9548008441925048
-0.0698763877153396,0.7500655055046082,-0.2852700352668762,-0.8875841498374939,0.1195478290319442,0.1451071053743362,0.0,0.0,0.9929590225219728,0.9876594543457032
-0.0725876837968826,0.7303919792175293,-0.2766852080821991,-0.8748362064361572,0.1250783652067184,0.1106105670332908,0.0,0.0,0.5451252460479736,0.9988570213317872
-0.0753622055053711,0.7104219198226929,-0.2809875905513763,-0.8878583312034607,0.1285994946956634,0.0704225823283195,0.0,0.0,0.9930278062820436,0.9991888999938964
-0.0781137496232986,0.6903669834136963,-0.276824951171875,-0.891475260257721,0.1302590072154998,0.0331903770565986,0.0,0.0,0.999830722808838,0.9995784759521484
-0.0808414444327354,0.6704408526420593,-0.2726039886474609,-0.8855862021446228,0.1300931274890899,-0.0033176927827298,0.0,0.0,0.993093967437744,0.9990713596343994
-0.0838375091552734,0.65130615234375,-0.2972037196159363,-0.8502258062362671,0.1277052760124206,-0.0477569997310638,0.0,0.0,0.8698740005493164,0.9699646234512328
-0.0871038436889648,0.632788360118866,-0.3220559954643249,-0.8226257562637329,0.1231459602713584,-0.0911862924695015,0.0,0.0,-0.4083819389343261,0.999870538711548
-0.0903609246015548,0.6135807037353516,-0.319223403930664,-0.8531532883644104,0.1167032942175865,-0.1288536041975021,0.0,0.0,-0.2454761266708374,0.9997448921203612
-0.0935874953866005,0.5936891436576843,-0.3137301802635193,-0.88339763879776,0.1078356727957725,-0.177352488040924,0.0,0.0,0.7629776000976562,0.996168613433838
-0.0969563499093055,0.5742778182029724,-0.3258973062038421,-0.861967921257019,0.0969334095716476,-0.2180453538894653,0.0,0.0,-0.396272599697113,0.9998555183410645
-0.1002988815307617,0.5541750192642212,-0.3209323585033417,-0.8926503658294678,0.0837310403585434,-0.2640471458435058,0.0,0.0,0.3219650983810425,0.9998369216918944
-0.1036805137991905,0.5343468189239502,-0.3228867650032043,-0.8804665803909302,0.0685918554663658,-0.3027837872505188,0.0,0.0,0.2858133316040039,0.9982869625091552
-0.106941320002079,0.5144067406654358,-0.3088690638542175,-0.8855273127555847,0.0515708774328231,-0.3404193222522735,0.0,0.0,0.9217746257781982,0.9999206066131592
-0.1103419288992881,0.4945825338363647,-0.3206827342510223,-0.8805176019668579,0.0324262864887714,-0.3828918933868408,0.0,0.0,-0.2035679817199707,0.9952211380004884
-0.1137188896536827,0.4740758836269378,-0.3160528242588043,-0.9110774993896484,0.0110591044649481,-0.4273440241813659,0.0,0.0,0.987635612487793,0.9981485605239868
-0.1169087439775466,0.4540995657444,-0.2957132458686828,-0.8878215551376343,-0.0119096068665385,-0.4593747556209564,0.0,0.0,0.9442980289459229,0.9862632751464844
-0.1199780479073524,0.4348896741867065,-0.2819255292415619,-0.854159951210022,-0.0366022400557994,-0.4938530027866363,0.0,0.0,0.9448187351226808,0.8395957946777344
-0.1231115311384201,0.4163824319839477,-0.2865422666072845,-0.8234121203422546,-0.0630909949541091,-0.5297753810882568,0.0,0.0,0.2178740501403808,0.8685373067855835
-0.1261821687221527,0.3975739181041717,-0.2786765098571777,-0.8373699188232422,-0.0912033393979072,-0.5622471570968628,0.0,0.0,0.969446063041687,0.4154784679412842
-0.1293616294860839,0.3793396949768066,-0.2891486287117004,-0.8124150633811951,-0.1197863519191742,-0.5716603994369507,0.0,0.0,0.9459307193756104,0.0782015323638916
-0.1323893517255783,0.361295223236084,-0.2748329639434814,-0.8044513463973999,-0.1476118564605713,-0.5565100908279419,0.0,0.0,0.9897313117980956,-0.5393131375312805
-0.1353860795497894,0.3436575829982757,-0.2730960845947265,-0.7867453098297119,-0.1741827130317688,-0.5314170718193054,0.0,0.0,0.9937334060668944,-0.7864943742752075
-0.1384155303239822,0.3260491192340851,-0.2781811356544494,-0.7856927514076233,-0.1990691721439361,-0.4977295398712158,0.0,0.0,0.9942132234573364,-0.7210208773612976
-0.1415823996067047,0.3088605999946594,-0.2931618988513946,-0.7672713398933411,-0.2228101044893264,-0.474818617105484,0.0,0.0,0.9956588745117188,-0.7645854949951172
-0.1446152627468109,0.2925087213516235,-0.2815632820129394,-0.7301847338676453,-0.2448475062847137,-0.4407480657100677,0.0,0.0,0.9915146827697754,-0.5323249697685242
-0.1475670784711837,0.2759447395801544,-0.2750158905982971,-0.7396655678749084,-0.2654112875461578,-0.4112755358219147,0.0,0.0,0.9993773698806764,-0.7393286228179932
-0.1503324508666992,0.2601964473724365,-0.258107841014862,-0.7033703923225403,-0.2842920124530792,-0.3776149153709411,0.0,0.0,0.9906402826309204,-0.8118499517440796
-0.1531817466020584,0.2446470856666565,-0.2680462002754211,-0.6944700479507446,-0.3016998469829559,-0.3481564521789551,0.0,0.0,0.9980432987213136,-0.6541998982429504
-0.1560132056474685,0.2296508103609085,-0.2674222886562347,-0.6698517203330994,-0.3179878294467926,-0.3257597982883453,0.0,0.0,0.987489938735962,-0.8290680050849915
-0.1586967408657074,0.2150352150201797,-0.2545175850391388,-0.6526841521263123,-0.3324007391929626,-0.2882584929466247,0.0,0.0,0.9961466789245604,-0.772631824016571
-0.1613247841596603,0.2012871354818344,-0.2502801716327667,-0.6139614582061768,-0.3455080986022949,-0.2621473968029022,0.0,0.0,0.998503804206848,-0.9191455245018004
-0.1637545526027679,0.18781179189682,-0.2325618714094162,-0.6014406681060791,-0.3564519584178924,-0.2188771218061447,0.0,0.0,0.9956361055374146,-0.9670528769493104
-0.1661965399980545,0.1743559688329696,-0.2357130050659179,-0.600167453289032,-0.3653973639011383,-0.1789078563451767,0.0,0.0,0.9975317716598512,-0.8779751062393188
-0.1685419976711273,0.160729631781578,-0.2280561029911041,-0.6072908639907837,-0.3722723424434662,-0.1374997198581695,0.0,0.0,0.9969520568847656,-0.8029788136482239
-0.1708986312150955,0.147024467587471,-0.2307386100292205,-0.6104090809822083,-0.3774936199188232,-0.1044256314635276,0.0,0.0,0.998705506324768,-0.4117900133132934
-0.1729712486267089,0.1339611113071441,-0.2023996114730835,-0.5818865895271301,-0.3826604783535003,-0.1033370047807693,0.0,0.0,0.9970186948776244,-0.8973504304885864
-0.1746998727321624,0.1215562894940376,-0.1700468063354492,-0.5520866513252258,-0.3856627643108368,-0.0600454919040203,0.0,0.0,0.9993658065795898,-0.6178816556930542
-0.1762929856777191,0.1099388897418975,-0.1574268043041229,-0.5168411135673523,-0.3876712322235107,-0.0401692613959312,0.0,0.0,0.9981240034103394,-0.8929863572120667
-0.1780190467834472,0.0983042567968368,-0.1722331941127777,-0.517200231552124,-0.3880741894245147,-0.0080590415745973,0.0,0.0,0.99994957447052,-0.5282958149909973
-0.1794300079345703,0.0872946828603744,-0.1419819146394729,-0.4890741407871246,-0.3871258199214935,0.0189670994877815,0.0,0.0,0.99993634223938,-0.1369956135749817
-0.1807483732700348,0.0766200646758079,-0.1322795450687408,-0.474304586648941,-0.3866425454616546,0.0096653010696172,0.0,0.0,0.9994015693664552,-0.4896594285964966
-0.1818746626377105,0.0664204433560371,-0.1128936409950256,-0.4532460570335388,-0.3863640427589416,0.0055702934041619,0.0,0.0,0.9995712041854858,-0.4230104088783264
-0.1827505081892013,0.0567027665674686,-0.0878827050328254,-0.4318172037601471,-0.3860505819320678,0.0062693217769265,0.0,0.0,0.9982869625091552,-0.4748233556747436
-0.183317944407463,0.0472011677920818,-0.0575854778289794,-0.4220600426197052,-0.3851476609706878,0.0180582460016012,0.0,0.0,0.9999761581420898,-0.4106630682945251
-0.1837562620639801,0.0375574454665184,-0.0449019633233547,-0.4283238351345062,-0.3840108215808868,0.0227370578795671,1.0,0.0,0.9832274913787842,-0.1271363496780395
-0.1839720755815506,0.0290953256189823,-0.0379604510962963,-0.372145801782608,-0.36550372838974,0.3718205690383911,1.0,0.0,0.9996175765991212,-0.8438814282417297
-0.1836821585893631,0.0216299146413803,-0.0086246030405163,-0.3226742446422577,-0.3262381553649902,0.785009503364563,1.0,0.0,0.9999624490737916,0.0897339582443237
-0.1829642355442047,0.0148367742076516,0.0152030270546674,-0.2902646362781524,-0.2678029239177704,1.1686618328094482,1.0,0.0,0.9996449947357178,0.2032127380371093
-0.1819231957197189,0.0091831777244806,0.0344064682722091,-0.2401361316442489,-0.1969334334135055,1.4175293445587158,1.0,0.0,0.9396555423736572,0.0046029090881347
-0.1806960999965667,0.0050469613634049,0.0659106075763702,-0.1773553937673568,-0.1401194781064987,1.136183500289917,1.0,1.0,0.9709080457687378,0.875918984413147
-0.1792449951171875,0.0020832633599638,0.1073764935135841,-0.1286346763372421,-0.1026236191391944,0.7498770952224731,1.0,1.0,0.6929640769958496,0.8803408145904541
-0.1776832640171051,-0.0003639483475126,0.1355620920658111,-0.1074879691004753,-0.0821871683001518,0.408728688955307,1.0,1.0,0.0479938983917236,-0.5632662773132324
-0.1762475073337555,-0.0021478675771504,0.1326746344566345,-0.0787285938858985,-0.0713834166526794,0.216090515255928,1.0,1.0,-0.7598744034767151,-0.9958559274673462
-0.1749139726161956,-0.0036065960302948,0.1262528151273727,-0.0645131319761276,-0.0643533170223236,0.1406218856573104,1.0,1.0,-0.7942993640899658,-0.9941331744194032
-0.1736721098423004,-0.0046523357741534,0.1169514805078506,-0.0461855120956897,-0.0571842789649963,0.1433943808078766,1.0,1.0,-0.7689671516418457,-0.9940087795257568
-0.1725262701511383,-0.0052492166869342,0.1057556644082069,-0.0262163486331701,-0.0484490022063255,0.1747081130743026,1.0,1.0,-0.840384840965271,-0.9987911581993104
-0.1714551895856857,-0.0054275654256343,0.0981111228466034,-0.0076610264368355,-0.0395646691322326,0.1776830852031707,1.0,1.0,-0.8958079814910889,-0.9945962429046632
-0.1704870164394378,-0.0052360203117132,0.088767409324646,0.0087047312408685,-0.0316274836659431,0.1587371528148651,1.0,1.0,-0.925402283668518,-0.9827868938446044
-0.1696357727050781,-0.0047254706732928,0.0796038880944252,0.0228009782731533,-0.0261844098567962,0.1088561415672302,1.0,1.0,-0.8844711184501648,-0.9909155368804932
-0.1689002960920334,-0.0039423014968633,0.0714880675077438,0.0348445586860179,-0.0241460241377353,0.0407671444118022,1.0,1.0,-0.792715311050415,-0.7128297090530396
-0.1682550460100174,-0.0029521726537495,0.0645797029137611,0.0440081767737865,-0.024204621091485,-0.0011656035203486,1.0,1.0,-0.6362025737762451,-0.8295800089836121
-0.1677031517028808,-0.0018462443258613,0.0553097017109394,0.0491517409682273,-0.0243227798491716,-0.0023580926936119,1.0,1.0,-0.6177177429199219,-0.2259884476661682
-0.1671537458896637,-0.0007197523373179,0.0554461553692817,0.0500627011060714,-0.0248170811682939,-0.0098794708028435,1.0,1.0,-0.7585906386375427,-0.6236929893493652
-0.1666436195373535,0.0003385758318472,0.0501887612044811,0.0470521114766597,-0.0240031704306602,0.0162850208580493,1.0,1.0,-0.6577725410461426,-0.3763995170593261
-0.1661325395107269,0.0012736297212541,0.0501015670597553,0.0415773279964923,-0.0230191461741924,0.0196815151721239,1.0,1.0,-0.4058505296707153,-0.3452416658401489
-0.1656209975481033,0.0020546889863908,0.0500239059329032,0.0347333215177059,-0.0218969713896513,0.0224446356296539,1.0,1.0,-0.6161583662033081,-0.4391506314277649
-0.1651396751403808,0.0024719692301005,0.0513993985950946,0.0184962637722492,-0.0251219272613525,-0.0644976943731308,1.0,1.0,-0.3090057373046875,-0.0583559274673461
-0.1646496802568435,0.0027108287904411,0.0509196817874908,0.0105820186436176,-0.0270137339830398,-0.0378353372216224,1.0,1.0,-0.511846125125885,-0.2312984466552734
-0.1641533821821212,0.0028229451272636,0.050581581890583,0.0049644703976809,-0.0279545038938522,-0.0188149455934762,1.0,1.0,-0.7885285019874573,-0.1573934555053711
-0.1636543273925781,0.0028796650003641,0.0504410080611705,0.0025085050147026,-0.0284784957766532,-0.0104794893413782,1.0,1.0,-0.664229691028595,-0.4611995220184326
-0.1631556451320648,0.0029478287324309,0.0504868328571319,0.0030173298437148,-0.0290889665484428,-0.0122090270742774,1.0,1.0,-0.3561666011810303,-0.2641819715499878
-0.1626595556735992,0.003073391970247,0.0506613068282604,0.0055614602752029,-0.0301321260631084,-0.0208624769002199,1.0,1.0,-0.7014114260673523,-0.3066384792327881
-0.1621670722961425,0.0032747006043791,0.0508878640830516,0.0089151794090867,-0.0317466743290424,-0.0322902128100395,1.0,1.0,-0.6479097604751587,-0.4207977056503296
-0.1616776436567306,0.0035448528360575,0.0510962903499603,0.011957655660808,-0.033881589770317,-0.0426973365247249,1.0,1.0,-0.6305181384086609,0.2098393440246582
-0.1611904203891754,0.0038598871324211,0.0512396469712257,0.0139435231685638,-0.0363590568304061,-0.0495480149984359,1.0,1.0,-0.5772788524627686,-0.3711822032928467
-0.1607036590576172,0.0041899420320987,0.0513006374239921,0.01460503321141,-0.0389545559883117,-0.0519086308777332,1.0,1.0,-0.6475694179534912,-0.3439239263534546
-0.1602162420749664,0.0045087672770023,0.0512887947261333,0.0141006149351596,-0.0414689593017101,-0.0502868667244911,1.0,1.0,-0.5376859307289124,-0.1519584655761718
-0.1597272902727127,0.0047996616922318,0.0512312278151512,0.0128615461289882,-0.0437755361199379,-0.0461303293704986,1.0,1.0,-0.4925400614738464,0.0126475095748901
