x_pos,y_pos,x_vel,y_vel,angle,ang_vel,leg_1,leg_2,main_booster,lat_booster
-0.001577568007633,1.4034523963928225,-0.1598178595304489,-0.3318995833396911,0.0018352114129811,0.0362069979310035,0.0,0.0,-0.9076426050391008,0.6765643363277132
-0.0031524659134447,1.3958325386047363,-0.1578602790832519,-0.3386585414409637,0.0022013196721673,0.0073234089650213,0.0,0.0,0.1988339950385194,0.5532381876167063
-0.0046331407502293,1.3884763717651367,-0.1475873589515686,-0.326942890882492,0.0017297964077442,-0.00943139847368,0.0,0.0,0.2570650959511358,-0.9781869442503052
-0.0063527105376124,1.381514310836792,-0.1734125018119812,-0.3094207644462585,0.0031762276776134,0.0289310254156589,0.0,0.0,0.5966520716290575,-0.5252784432267161
-0.0080379489809274,1.3753278255462646,-0.1714473813772201,-0.2749696969985962,0.0060751005075871,0.0579827427864074,0.0,0.0,-0.2894136704394181,-0.8343825741091726
-0.0098299980163574,1.3689674139022827,-0.1834669262170791,-0.2827039361000061,0.0102918585762381,0.0843428522348404,0.0,0.0,-0.3613496915778529,0.9730799636466902
-0.0116046909242868,1.3624364137649536,-0.1799071580171585,-0.2902871072292328,0.0126998033374547,0.0481633134186267,0.0,0.0,-0.7651056584616507,0.916768836272374
-0.0133459093049168,1.355737805366516,-0.1743214577436447,-0.2977224290370941,0.0128935249522328,0.0038748185615986,0.0,0.0,-0.6273344963502157,0.570540930337229
-0.0150999072939157,1.3488738536834717,-0.1745247542858123,-0.3050485551357269,0.0120336012914776,-0.017199907451868,0.0,0.0,-0.3784688211649274,0.9275752015946176
-0.0168376918882131,1.3418452739715576,-0.1711126118898391,-0.3123673498630523,0.0093955751508474,-0.0527652688324451,0.0,0.0,-0.2043019336361664,-0.8317236302021624
-0.0186885837465524,1.3346443176269531,-0.1839065849781036,-0.3200352489948272,0.0082321660593152,-0.0232704374939203,0.0,0.0,-0.95009122523433,-0.5767228936599005
-0.0206364635378122,1.3272695541381836,-0.1947047412395477,-0.3277651667594909,0.0081419516354799,-0.0018046339973807,0.0,0.0,-0.0442084565337728,0.7989508393095461
-0.0225649829953908,1.319727897644043,-0.1908749639987945,-0.3351809084415436,0.0061941659078001,-0.0389591082930564,0.0,0.0,-0.9678241392339472,-0.6523551921255621
-0.0245960243046283,1.3120074272155762,-0.2023662030696869,-0.3431243300437927,0.0054660835303366,-0.0145631534978747,0.0,0.0,0.8778662931605539,-0.86752321601544
-0.0265813823789358,1.3055304288864136,-0.1999722421169281,-0.2878753840923309,0.0068872235715389,0.028425270691514,0.0,0.0,0.3800531097599844,0.971278126213224
-0.028443431481719,1.299244046211243,-0.1858475506305694,-0.2793974876403808,0.0065415310673415,-0.0069146589376032,0.0,0.0,-0.8907096934159557,0.7091967308536364
-0.0302936546504497,1.2927945852279663,-0.1830120384693145,-0.2866393625736236,0.0045524393208324,-0.0397854708135128,0.0,0.0,0.3091725920275292,0.5567905565884896
-0.0320349708199501,1.2866147756576538,-0.1713553369045257,-0.2746509313583374,0.001815625000745,-0.0547411143779754,0.0,0.0,0.5932407214456719,-0.563887334054761
-0.0337781906127929,1.2814295291900637,-0.1730319559574127,-0.2304544746875763,0.0005490711191669,-0.0253335479646921,0.0,0.0,-0.8948229439818873,-0.7425812455520475
-0.03564453125,1.276071548461914,-0.1871482729911804,-0.2381306290626526,0.001050578081049,0.0100308340042829,0.0,0.0,-0.8612478200009739,-0.9399772214656889
-0.0376261696219444,1.2705483436584473,-0.2002609074115753,-0.2454757243394851,0.0031240254174917,0.0414726920425891,0.0,0.0,0.5641158940772997,0.5905930175894598
-0.0396068580448627,1.265478491783142,-0.1991189867258072,-0.2253332287073135,0.0041568949818611,0.0206593610346317,0.0,0.0,-0.3163855139061127,0.8580183203934644
-0.0415614135563373,1.2602355480194092,-0.1945105940103531,-0.2330119013786316,0.0032262448221445,-0.0186146181076765,0.0,0.0,-0.0481836455601556,-0.5551421741330957
-0.0436107628047466,1.254814386367798,-0.2050938606262207,-0.240944042801857,0.0033842755947262,0.003160857129842,0.0,0.0,0.7558198639456948,-0.8758309277476747
-0.0459548942744731,1.2502483129501345,-0.2361541986465454,-0.2029440104961395,0.0051098763942718,0.0345151089131832,0.0,0.0,0.445937897072745,-0.8556642849067935
-0.0485692992806434,1.2464159727096558,-0.2648512721061706,-0.1703471392393112,0.0084785120561718,0.0673724561929702,0.0,0.0,0.584266879162203,-0.9366207733749082
-0.0513148307800293,1.2434614896774292,-0.2799833416938782,-0.131347045302391,0.0138376718387007,0.1071833819150924,0.0,0.0,-0.6197391998028332,0.5205316422995401
-0.0540831573307514,1.2403414249420166,-0.2815619111061096,-0.1387194693088531,0.0185123831033706,0.093494102358818,0.0,0.0,-0.0377721969293578,-0.7904194425291957
-0.0569821372628212,0.0,-0.2967066168785095,-0.1461966782808303,0.0252286083996295,0.1343246400356292,0.0,0.0,-0.4751393104866048,0.7542974417290764
-0.0598777756094932,1.2335948944091797,-0.295031189918518,-0.1538528054952621,0.0306296814233064,0.1080216392874717,0.0,0.0,-0.0119406159198964,-0.6409051063721101
-0.0628765076398849,1.229968786239624,-0.3067283034324646,-0.1613078415393829,0.0374005287885665,0.1354167163372039,0.0,0.0,-0.988962948322296,0.9975669384002686
-0.0658597946166992,1.2261693477630615,-0.3035742342472076,-0.1690030097961425,0.0425823405385017,0.1036362797021865,0.0,0.0,-0.9882158637046814,0.9949462413787842
-0.0688283890485763,1.222211837768555,-0.3005214333534241,-0.1759962439537048,0.0461956374347209,0.072266049683094,0.0,0.0,-0.9731987118721008,0.9916229248046876
-0.071779154241085,1.218078374862671,-0.2970926463603973,-0.1837742030620575,0.0481899566948413,0.0398865975439548,0.0,0.0,-0.9971941709518432,0.9674224853515624
-0.0747034102678299,1.213780641555786,-0.2925906777381897,-0.1910161525011062,0.0483531840145587,0.0032646167092025,0.0,0.0,-0.9883530139923096,0.9475164413452148
-0.0776021927595138,1.209323763847351,-0.2882273197174072,-0.1980365365743637,0.0467214919626712,-0.0326339453458786,0.0,0.0,-0.9479504227638244,0.7990219593048096
-0.0804912596940994,1.2046949863433838,-0.285876452922821,-0.2056300640106201,0.0437208823859691,-0.0600120909512043,0.0,0.0,-0.9613083004951476,0.8923487663269043
-0.0833559036254882,1.1999061107635498,-0.2816694974899292,-0.2126992046833038,0.0389846786856651,-0.0947240367531776,0.0,0.0,-0.9342228770256042,0.5413539409637451
-0.0862303748726844,1.1949542760849,-0.2817899584770202,-0.2199513465166092,0.033396229147911,-0.1117690801620483,0.0,0.0,-0.9620882272720336,-0.0651592016220092
-0.0891539603471756,1.189830660820007,-0.2868527472019195,-0.2276018112897873,0.0279649123549461,-0.108626402914524,0.0,0.0,-0.993445634841919,0.5619330406188965
-0.0920892730355262,1.184541940689087,-0.2872695326805115,-0.2349560707807541,0.021772488951683,-0.1238482743501663,0.0,0.0,-0.9535744786262512,0.3354637622833252
-0.095072366297245,1.1790814399719238,-0.2921973466873169,-0.2426070123910904,0.0157406516373157,-0.1206368431448936,0.0,0.0,-0.9810793399810792,0.9758222103118896
-0.0980125442147255,1.1734411716461182,-0.2857902646064758,-0.2506190538406372,0.0076178070157766,-0.1624569147825241,0.0,0.0,-0.9064816236495972,0.9556196928024292
-0.1009106636047363,1.1676287651062012,-0.2795162498950958,-0.2583028376102447,-0.0025551845319569,-0.2034600675106048,0.0,0.0,-0.8490535616874695,-0.5415554046630859
-0.1038999557495117,1.1616395711898804,-0.2899591326713562,-0.2662345767021179,-0.0114139877259731,-0.1771759241819381,0.0,0.0,-0.8106871247291565,0.9765522480010986
-0.1068507209420204,1.1554679870605469,-0.2841506898403168,-0.2744103372097015,-0.0221976172178983,-0.2156725376844406,0.0,0.0,-0.571931004524231,0.4692246913909912
-0.1098450645804405,1.149126052856445,-0.2886858582496643,-0.282067209482193,-0.0328145697712898,-0.2123389691114425,0.0,0.0,-0.845515251159668,0.6350655555725098
-0.1128411293029785,1.142618179321289,-0.2879917919635772,-0.2895327806472778,-0.0442907735705375,-0.2295243442058563,0.0,0.0,-0.8110381364822388,0.1728777885437011
-0.1158790588378906,1.1359399557113647,-0.2923480868339538,-0.2971906065940857,-0.0555989667773246,-0.226163700222969,0.0,0.0,-0.9875705242156982,0.2015408277511596
-0.1189578026533126,1.1290912628173828,-0.2966102957725525,-0.3048479259014129,-0.0667386949062347,-0.2227946072816848,0.0,0.0,-0.8520125150680542,0.7420320510864258
-0.1220038384199142,1.1220647096633911,-0.2916731238365173,-0.3129192292690277,-0.0795389860868454,-0.2560057640075683,0.0,0.0,-0.9224634766578674,0.5529944896697998
-0.1250491142272949,1.114867091178894,-0.2907686531543731,-0.3206788003444671,-0.0931655690073967,-0.2725315690040588,0.0,0.0,-0.9142146706581116,-0.870198130607605
-0.1281884163618087,1.1075026988983154,-0.301803320646286,-0.3281162977218628,-0.1052054688334465,-0.2407978475093841,0.0,0.0,-0.9449858665466307,0.4978435039520263
-0.1313645392656326,1.0999677181243896,-0.3056607842445373,-0.3357743620872497,-0.1170768067240715,-0.2374269515275955,0.0,0.0,-0.9765571355819702,0.0007851123809814
-0.1345763206481933,1.0922622680664062,-0.3094102740287781,-0.3434319198131561,-0.1287800073623657,-0.234063982963562,0.0,0.0,-0.914805233478546,0.6147185564041138
-0.1377822905778885,1.0843757390975952,-0.3079791367053985,-0.3516493141651153,-0.1413498371839523,-0.2513965964317322,0.0,0.0,-0.7105407118797302,0.5057523250579834
-0.1409753859043121,1.0763139724731443,-0.3057135939598083,-0.3596485555171966,-0.1549193263053894,-0.2713894248008728,0.0,0.0,-0.8987200856208801,0.0348672866821289
-0.1442006081342697,1.0680820941925049,-0.3091262280941009,-0.3673090934753418,-0.1683227866888046,-0.2680692672729492,0.0,0.0,-0.9524860978126526,-0.3571878671646118
-0.1474569290876388,1.0596801042556765,-0.3124223351478576,-0.3749690651893616,-0.1815613210201263,-0.2647707164287567,0.0,0.0,-0.8069333434104919,0.5335251092910767
-0.1507062911987304,1.0511027574539185,-0.3109915554523468,-0.382982075214386,-0.1955679655075073,-0.2801332771778106,0.0,0.0,-0.7690317630767822,-0.825887143611908
-0.1540436744689941,1.042365550994873,-0.321504533290863,-0.3899833858013153,-0.2078996300697326,-0.2466330975294113,0.0,0.0,-0.6717186570167542,0.7629146575927734
-0.1573588401079177,1.0334463119506836,-0.3182067275047302,-0.3983372449874878,-0.2213465273380279,-0.2689380049705505,0.0,0.0,-0.949607789516449,0.3137391805648803
-0.1607002317905426,1.0243568420410156,-0.3210217356681824,-0.4059965312480926,-0.234634518623352,-0.2657597959041595,0.0,0.0,-0.6857033371925354,-0.0197547078132629
-0.1640665084123611,1.0150972604751587,-0.3237137198448181,-0.4136553406715393,-0.2477655559778213,-0.2626205682754516,0.0,0.0,-0.6023660898208618,0.853219747543335
-0.1673915833234787,1.0056360960006714,-0.3180611431598663,-0.4229895174503326,-0.2624932825565338,-0.2945544123649597,0.0,0.0,-0.4646809101104736,-0.1171328425407409
-0.1707389801740646,0.996005356311798,-0.3205071687698364,-0.4306512176990509,-0.2770684063434601,-0.2915025651454925,0.0,0.0,-0.8453800082206726,0.8412308692932129
-0.1740396469831466,0.9861863255500792,-0.3143260478973388,-0.4394711554050445,-0.2932509183883667,-0.3236502707004547,0.0,0.0,-0.3460839986801147,0.4441709518432617
-0.1773601472377777,0.9761978983879088,-0.3165263533592224,-0.4471360743045807,-0.3092859089374542,-0.3207002282142639,0.0,0.0,-0.4023400545120239,0.4890172481536865
-0.1806991547346115,0.9660401344299316,-0.318603515625,-0.4548004269599914,-0.3251762986183166,-0.3178076446056366,0.0,0.0,-0.5794033408164978,0.410211443901062
-0.1840556114912033,0.9557128548622132,-0.3205582499504089,-0.4624641835689544,-0.3409250974655151,-0.3149760961532593,0.0,0.0,-0.335047960281372,0.6080363988876343
-0.187389463186264,0.9451981782913208,-0.3175090253353119,-0.4711624383926391,-0.3575877845287323,-0.3332534730434418,0.0,0.0,-0.7779726982116699,0.7602698802947998
-0.1906786859035492,0.9344829320907592,-0.3117510974407196,-0.4806213080883026,-0.3757544457912445,-0.3633330464363098,0.0,0.0,-0.0098830461502075,-0.5812504887580872
-0.1940315216779709,0.9236353635787964,-0.3197142481803894,-0.4863058626651764,-0.3923286497592926,-0.3314831852912903,0.0,0.0,-0.3447613716125488,0.015895128250122
-0.1973970383405685,0.9126182794570924,-0.3211933672428131,-0.4939705431461334,-0.4087752997875213,-0.3289333581924438,0.0,0.0,0.0997177362442016,0.3274867534637451
-0.2006909847259521,0.9018036127090454,-0.314172089099884,-0.4851431548595428,-0.425202339887619,-0.3285405933856964,0.0,0.0,0.2515730857849121,-0.1405701637268066
-0.203846737742424,0.8911238312721252,-0.3007918894290924,-0.4792026281356811,-0.4412718713283539,-0.3213905990123749,0.0,0.0,0.1945838928222656,-0.5379643440246582
-0.2069693058729171,0.8806453347206116,-0.2986606955528259,-0.4700646102428436,-0.4561596214771271,-0.2977544963359833,0.0,0.0,0.2206462621688842,-0.561142086982727
-0.2098860740661621,0.8708237409591675,-0.279334008693695,-0.4406142830848694,-0.4697692394256592,-0.2721917331218719,0.0,0.0,0.4015247821807861,-0.6062107086181641
-0.2124712467193603,0.8617441058158875,-0.2476371228694915,-0.4072704315185547,-0.4818488657474518,-0.2415927350521087,0.0,0.0,0.8789858818054199,-0.683363139629364
-0.2147993594408035,0.8538677096366882,-0.2230887860059738,-0.3534916341304779,-0.4927048683166504,-0.2171202450990677,0.0,0.0,0.8787713050842285,-0.8557137846946716
-0.2171591818332672,0.8464719653129578,-0.2277319878339767,-0.3316843807697296,-0.5019704103469849,-0.1853103339672088,0.0,0.0,0.5565140247344971,0.1268248558044433
-0.2191323339939117,0.8398564457893372,-0.1893426477909088,-0.2969725728034973,-0.5109708309173584,-0.1800085306167602,0.0,0.0,0.9932141304016112,-0.7735169529914856
-0.220938354730606,0.8341187834739685,-0.1739214360713958,,-0.5185425281524658,-0.1514342129230499,0.0,0.0,0.987534761428833,0.0316724777221679
-0.2224008589982986,0.8293207287788391,-0.1394051015377044,-0.2158786505460739,-0.5263416171073914,-0.1559813916683197,0.0,0.0,0.994947910308838,-0.5672472715377808
-0.2234923392534256,0.8254930973052979,-0.1034086197614669,-0.172356829047203,-0.5329042077064514,-0.1312518864870071,0.0,0.0,0.9849183559417723,-0.594679057598114
-0.2241744995117187,0.8223468661308289,-0.0639216154813766,-0.1415322422981262,-0.537836492061615,-0.0986460149288177,0.0,0.0,0.535224199295044,-0.945869505405426
-0.2247402667999267,0.8194676637649536,-0.054097793996334,-0.1289544403553009,-0.5406907796859741,-0.0570859834551811,0.0,0.0,0.5048387050628662,-0.9178998470306396
-0.2250998467206955,0.8168634176254272,-0.035288106650114,-0.1160084530711174,-0.5414607524871826,-0.0153995947912335,0.0,0.0,-0.2634089589118957,-0.9446157217025756
-0.2255072593688964,0.8141297101974487,-0.0414345376193523,-0.1212241277098655,-0.540666937828064,0.015875956043601,0.0,0.0,0.6743900775909424,-0.760086715221405
-0.2256284654140472,0.8116587996482849,-0.0144843952730298,-0.1088738515973091,-0.5379481315612793,0.0543746165931224,0.0,0.0,0.0277905464172363,-0.9234864711761476
-0.2255721986293792,0.8096820712089539,0.001511693932116,-0.086225226521492,-0.5332220792770386,0.0945194214582443,0.0,0.0,-0.1937920451164245,-0.921841025352478
-0.2255705893039703,0.8075915575027466,-0.0056171170435845,-0.0906577035784721,-0.5266042947769165,0.1323552280664444,0.0,0.0,-0.1701335310935974,-0.9138115048408508
-0.2256143987178802,0.805374801158905,-0.0115594370290637,-0.0957601442933082,-0.5184282660484314,0.1635204553604126,0.0,0.0,0.0360621213912963,-0.8144829869270325
-0.2255480289459228,0.8032386302947998,-0.0020971107296645,-0.0916532129049301,-0.508529782295227,0.1979700326919555,0.0,0.0,-0.1683001518249511,-0.6048253774642944
-0.2255239486694336,0.8009676933288574,-0.0076033687219023,-0.0972522795200347,-0.4972449541091919,0.2256964147090912,0.0,0.0,-0.553575873374939,-0.7678878307342529
-0.2255385369062423,0.7985712885856628,-0.0127826435491442,-0.1024632975459098,-0.4845637381076813,0.2536244988441467,0.0,0.0,-0.4632480144500732,-0.7645228505134583
-0.2256041020154953,0.7960481643676758,-0.0194481816142797,-0.1076816022396087,-0.4702302813529968,0.2866692245006561,0.0,0.0,-0.4699159860610962,-0.4940856695175171
-0.2256654202938079,0.7933556437492371,-0.0190910883247852,-0.1153452768921852,-0.4559223651885986,0.2861583232879638,0.0,0.0,-0.0698422789573669,-0.7007431983947754
-0.2257632315158844,0.7905281186103821,-0.0239568036049604,-0.1211187466979026,-0.4403901994228363,0.3106433749198913,0.0,0.0,-0.0471654534339904,0.0993930101394653
-0.2258563488721847,0.7875317931175232,-0.0235559195280075,-0.1287859082221985,-0.4249005019664764,0.3097938895225525,0.0,0.0,-0.1479557156562805,0.0062159299850463
-0.2259448021650314,0.7843663096427917,-0.023138653486967,-0.1364533305168151,-0.4094617664813995,0.3087746500968933,0.0,0.0,-0.0410869717597961,0.3924601078033447
-0.2260285913944244,0.7810320854187012,-0.0227094106376171,-0.144120991230011,-0.3940824866294861,0.3075855672359466,0.0,0.0,-0.2338749766349792,0.5475277900695801
-0.226075604557991,0.7775094509124756,-0.0182069279253482,-0.1528894901275634,-0.3796825706958771,0.2879983782768249,0.0,0.0,-0.1765165328979492,0.4670312404632568
-0.2261181324720382,0.7738175988197327,-0.0177655909210443,-0.1605553925037384,-0.3653589487075805,0.2864722609519958,0.0,0.0,0.2907044887542724,0.6475205421447754
-0.2258216440677642,0.7706700563430786,0.0172599572688341,-0.1367871016263961,-0.3522979617118835,0.2612196207046509,0.0,0.0,0.0384656190872192,0.1317644119262695
-0.2254049330949783,0.7676595449447632,0.0291490405797958,-0.1307843029499054,-0.339151531457901,0.2629287838935852,0.0,0.0,-0.0479465126991272,0.4541223049163818
-0.2249842584133148,0.7644795179367065,0.0295751206576824,-0.1384481787681579,-0.3261061310768127,0.2609080374240875,0.0,0.0,-0.549424946308136,0.6535265445709229
-0.2245120108127594,0.7611111998558044,0.0360207073390483,-0.1472171396017074,-0.3144480288028717,0.2331622540950775,0.0,0.0,-0.6516658067703247,0.5358951091766357
-0.2239855825901031,0.757554829120636,0.0428069531917572,-0.1559733897447586,-0.3042517304420471,0.2039257287979126,0.0,0.0,-0.4230244159698486,0.4554979801177978
-0.2234562337398529,0.7538279294967651,0.0431808307766914,-0.1636322289705276,-0.2941799759864807,0.2014351189136505,0.0,0.0,-0.3283659219741821,0.6437540054321289
-0.2228752076625824,0.7499150633811951,0.0497002005577087,-0.1722381711006164,-0.2855267822742462,0.1730638891458511,0.0,0.0,-0.8011198043823242,0.7990267276763916
-0.2222243845462799,0.7458086013793945,0.0585338659584522,-0.1812355667352676,-0.2787917554378509,0.1347005367279052,0.0,0.0,-0.679914116859436,0.0123027563095092
-0.2215719670057296,0.7415313720703125,0.0588182210922241,-0.1888900250196457,-0.2722030580043793,0.1317739188671112,0.0,0.0,-0.8200080990791321,0.3893060684204101
-0.2209185063838958,0.7370830774307251,0.0590643063187599,-0.1965443938970565,-0.2657675147056579,0.1287106871604919,0.0,0.0,-0.8768628239631653,0.356890320777893
-0.2202644795179367,0.7324637770652771,0.0592683963477611,-0.2041986733675003,-0.2594917416572571,0.1255156993865966,0.0,0.0,-0.9109888672828674,-0.1647399663925171
-0.2196103632450103,0.7276735901832581,0.0594268627464771,-0.2118528485298156,-0.2533820271492004,0.1221940144896507,0.0,0.0,-0.8962038159370422,0.5063697099685669
-0.2189165651798248,0.722695529460907,0.0646003782749176,-0.2204240262508392,-0.248513177037239,0.097377136349678,0.0,0.0,-0.8931423425674438,-0.6060410141944885
-0.2182611525058746,0.7175549864768982,0.0599975511431694,-0.2275424897670745,-0.2428681701421737,0.112899973988533,0.0,0.0,-0.7380048632621765,-0.364538311958313
-0.2176074087619781,0.712243378162384,0.0599983744323253,-0.2351962029933929,-0.2374066859483719,0.1092297807335853,0.0,0.0,-0.7830293774604797,-0.3077378273010254
-0.2169560939073562,0.7067606449127197,0.0599400997161865,-0.2428497821092605,-0.2321339696645736,0.1054541319608688,0.0,0.0,-0.8902838230133057,0.267041802406311
