x_pos,y_pos,x_vel,y_vel,angle,ang_vel,leg_1,leg_2,main_booster,lat_booster
-0.0015308379661291,1.4032297134399414,-0.1552681922912597,-0.3417982161045074,0.00195456109941,0.0385697409510612,0.0,0.0,0.8370454714473994,0.5648000016673559
-0.0029638290870934,1.3959345817565918,-0.1445021331310272,-0.3242316544055938,0.0031430681701749,0.0237730257213115,0.0,0.0,0.015270941279599,0.9014300730886174
-0.0042356490157544,1.388610601425171,-0.1268393993377685,-0.325510561466217,0.0028058739844709,-0.0067443950101733,0.0,0.0,-0.945508695672068,0.6457489505868967
-0.0054729459807276,1.380889892578125,-0.1226549744606018,-0.3431458175182342,0.0017396034672856,-0.0213273856788873,0.0,0.0,-0.9312991337420296,-0.6599709040774515
-0.0067571639083325,1.3727762699127195,-0.1287134140729904,-0.36060631275177,0.0020330725237727,0.0058697378262877,0.0,0.0,0.9019031295696668,0.6323242340738504
-0.0078293802216649,1.3652055263519287,-0.1070929169654846,-0.336482971906662,0.0019129676511511,-0.0024025593884289,0.0,0.0,-0.2033594864640062,0.5136483858310537
-0.0088681224733591,1.357239842414856,-0.1031668409705162,-0.3540320694446563,0.0012157158926129,-0.0139461578801274,0.0,0.0,0.6458291595509318,0.7757860937902885
-0.0096878055483102,1.349848747253418,-0.080476626753807,-0.3284898698329925,-0.0002550842764321,-0.0294189788401126,0.0,0.0,0.4276304187173378,-0.6177011423024221
-0.0105722425505518,1.3431541919708252,-0.0886378139257431,-0.2975390553474426,-6.446222687372938e-05,0.0038126916624605,0.0,0.0,0.0688643793022052,-0.9208831897843992
-0.0115345958620309,1.3367751836776731,-0.0987676531076431,-0.2835066616535187,0.0024408386088907,0.050110600888729,0.0,0.0,0.5773210482083484,-0.5675920043526607
-0.012458992190659,1.3308535814285278,-0.0968603044748306,-0.2631970942020416,0.0068168919533491,0.0875290930271148,0.0,0.0,0.38986392828559,0.8059542082266382
-0.013260269537568,1.325203537940979,-0.083583265542984,-0.2511327862739563,0.0102309668436646,0.0682875663042068,0.0,0.0,0.4022179891961313,0.7595026994379144
-0.0138884540647268,1.3200560808181765,-0.065514400601387,-0.2288011908531189,0.0129018034785985,0.0534215793013572,0.0,0.0,0.2382264246847452,-0.8521383312540396
-0.0145316123962402,1.3149051666259766,-0.0693729072809219,-0.2289861887693405,0.0178993251174688,0.0999598279595375,0.0,0.0,0.1728536553701138,-0.7385434477918363
-0.0151336668059229,1.310246825218201,-0.0674817338585853,-0.2071403712034225,0.0250942986458539,0.1439125686883926,0.0,0.0,0.7264713478578395,0.5868658908523878
-0.0155776981264352,1.3056597709655762,-0.0514725744724273,-0.2040052860975265,0.0320747010409832,0.1396210491657257,0.0,0.0,0.0468339641624826,0.7293361958285858
-0.0158849712461233,1.3015074729919434,-0.0370372459292411,-0.1846973299980163,0.0383254215121269,0.1250258237123489,0.0,0.0,-0.1663455246916914,0.5263539222078859
-0.0161438938230276,1.2969595193862915,-0.0315702222287654,-0.2022896111011505,0.0439398512244224,0.1122986301779747,0.0,0.0,-0.7379592052512753,0.9054046809452254
-0.0163231845945119,1.2920315265655518,-0.0221668276935815,-0.2191551625728607,0.0481339283287525,0.0838889628648758,0.0,0.0,0.9572364780542316,0.83818445785215
-0.0165757182985544,1.2877105474472046,-0.0282648093998432,-0.1921384334564209,0.0511215813457965,0.0597583353519439,0.0,0.0,-0.2022863151335157,-0.557892266228098
-0.0168656352907419,1.282996654510498,-0.0335911773145198,-0.2096658498048782,0.0556773580610752,0.0911238119006156,0.0,0.0,0.792533641547198,0.8993318282674768
-0.0170994754880666,1.2786099910736084,-0.0269107911735773,-0.1951038688421249,0.0591741204261779,0.0699412897229194,0.0,0.0,0.9263305865183228,-0.8942464943429878
-0.0172772407531738,1.2747869491577148,-0.0241506583988666,-0.1701744049787521,0.0654860138893127,0.1262494027614593,0.0,0.0,-0.4597475023149828,0.5108667429507243
-0.0174118988215923,1.2705689668655396,-0.0194232817739248,-0.1877404153347015,0.0713865384459495,0.1180208548903465,0.0,0.0,0.1326084308994939,0.986918452003286
-0.0176177024841308,1.2666161060333252,-0.0253026541322469,-0.1759182661771774,0.0760661140084266,0.0935997441411018,0.0,0.0,0.0134864246694623,0.9506516387263416
-0.017889404669404,1.2628949880599976,-0.0307786576449871,-0.1655618846416473,0.0796356871724128,0.0713916197419166,0.0,0.0,0.6012889134864288,0.7104714032951654
-0.0181586258113384,1.2598445415496826,-0.0298623740673065,-0.1357312649488449,0.0825438201427459,0.0581628680229187,0.0,0.0,-0.282367175576877,0.530841993682116
-0.0183966644108295,1.2564101219177246,-0.0266555491834878,-0.1528122425079345,0.085375465452671,0.0566328652203083,0.0,0.0,0.3720118057608919,-0.9477371883456626
-0.0188897140324115,1.2535252571105957,-0.0547447875142097,-0.1285280138254165,0.0907595381140708,0.1076815873384475,0.0,0.0,0.2228255969459558,0.8703893303291602
-0.0193654056638479,1.250789761543274,-0.0520094633102417,-0.1218531876802444,0.0951627194881439,0.0880632549524307,0.0,0.0,-0.2865747709521988,0.58098744345129
-0.0197949409484863,1.2476739883422852,-0.0469593554735183,-0.1387402713298797,0.0991382971405983,0.0795117169618606,0.0,0.0,-0.9942796230316162,0.9956798553466796
-0.020156193524599,1.244168996810913,-0.0391671992838382,-0.1559829413890838,0.1021603345870971,0.0604408457875251,0.0,0.0,-0.8734761476516724,0.9981029033660888
-0.0204504020512104,1.2402900457382202,-0.0315187647938728,-0.1725404411554336,0.1042384281754493,0.0415622368454933,0.0,0.0,-0.9842522740364076,0.9875755310058594
-0.0206745155155658,1.2360196113586426,-0.0235141739249229,-0.1898820847272873,0.1053393855690956,0.0220188181847333,0.0,0.0,-0.9852995276451112,0.9976692199707032
-0.0208178516477346,1.2313700914382937,-0.0141700385138392,-0.2066300511360168,0.1051797047257423,-0.0031936261802911,0.0,0.0,-0.9380543231964112,0.9960160255432128
-0.0208804123103618,1.2263472080230713,-0.0048293890431523,-0.2231399416923523,0.1037573143839836,-0.028447663411498,0.0,0.0,-0.893071174621582,0.9598257541656494
-0.0208697319030761,1.2209370136260986,0.0035502514801919,-0.2402808368206024,0.1012952625751495,-0.0492410808801651,0.0,0.0,-0.9317514896392822,0.7075806856155396
-0.0207992549985647,1.2151477336883545,0.0102453120052814,-0.2570896446704864,0.0981226861476898,-0.0634513646364212,0.0,0.0,-0.8883330225944519,0.4709086418151855
-0.0207276344299316,1.2089645862579346,0.009564945474267,-0.2746431529521942,0.0957438051700592,-0.0475775077939033,0.0,0.0,-0.9799944758415222,0.8063795566558838
-0.0205881111323833,1.202398657798767,0.017244067043066,-0.2916164100170135,0.0924773216247558,-0.065329909324646,0.0,0.0,-0.9913533329963684,0.0187118053436279
-0.0204469673335552,1.1954389810562134,0.0166060365736484,-0.3091696500778198,0.0900081619620323,-0.0493834689259529,0.0,0.0,-0.8662748336791992,0.0807231664657592
-0.0203039161860942,1.188085436820984,0.015989625826478,-0.3267222940921783,0.0883378311991691,-0.03340645134449,0.0,0.0,-0.9845362901687622,0.3980131149291992
-0.0201587677001953,1.1803380250930786,0.0153951365500688,-0.3442745804786682,0.0874677300453186,-0.0174022428691387,0.0,0.0,-0.9471667408943176,0.3685113191604614
-0.0200113300234079,1.172196865081787,0.0148228257894515,-0.361826628446579,0.0873990505933761,-0.0013739442219957,0.0,0.0,-0.9806718230247498,0.4031978845596313
-0.0198611263185739,1.1636618375778198,0.0142728984355926,-0.3793786466121673,0.088132806122303,0.0146753210574388,0.0,0.0,-0.9000215530395508,0.7851665019989014
-0.0196410175412893,1.1547338962554932,0.0221512354910373,-0.3967927396297455,0.0879885703325271,-0.0028844457119703,0.0,0.0,-0.954850733280182,-0.0176800489425659
-0.0194178577512502,1.1454119682312012,0.0216464567929506,-0.4143448173999786,0.0886485055088996,0.0131987761706113,0.0,0.0,-0.9791237711906432,0.2074084281921386
-0.0191914550960063,1.1356961727142334,0.0211643390357494,-0.4318969547748565,0.0901132747530937,0.0292952116578817,0.0,0.0,-0.9341995716094972,-0.2335798144340515
-0.0189615245908498,1.125586748123169,0.0207048915326595,-0.4494493305683136,0.0923834070563316,0.0454024896025657,0.0,0.0,-0.964623212814331,0.6011233329772949
-0.0186820030212402,1.1150882244110107,0.0260136909782886,-0.4667246043682098,0.0943039283156395,0.0384105145931243,0.0,0.0,-0.8798345327377319,0.8961434364318848
-0.0183111187070608,1.1042081117630005,0.0365706011652946,-0.4835963547229767,0.0948189571499824,0.0103004425764083,0.0,0.0,-0.6960350275039673,0.2811962366104126
-0.0179359428584575,1.0929341316223145,0.0361785106360912,-0.5011488795280457,0.0961403250694274,0.0264275707304477,0.0,0.0,-0.7822687029838562,0.7474292516708374
-0.017486572265625,1.0812723636627195,0.0445640794932842,-0.518324613571167,0.0965092107653617,0.0073777758516371,0.0,0.0,-0.8410862684249878,0.0240453481674194
-0.0170326232910156,1.0692169666290283,0.0442159138619899,-0.5358772873878479,0.097684621810913,0.0235080495476722,0.0,0.0,-0.9437087178230286,0.383532166481018
-0.0165737159550189,1.0567677021026611,0.0438892804086208,-0.5534301996231079,0.0996664762496948,0.0396371632814407,0.0,0.0,-0.6863687038421631,0.6482648849487305
-0.0160666462033987,1.0439283847808838,0.0489921048283577,-0.5707518458366394,0.1013682410120964,0.0340353213250637,0.0,0.0,-0.3845518827438354,0.7142870426177979
-0.0154898641631007,1.030711650848389,0.0568219646811485,-0.5874612331390381,0.1022270321846008,0.0171754769980907,0.0,0.0,-0.74819016456604,0.3914600610733032
-0.014907550998032,1.0171014070510864,0.0565575547516346,-0.6050142645835876,0.1038915440440177,0.0332897715270519,0.0,0.0,-0.3146885633468628,0.6811888217926025
-0.0142597202211618,1.0031139850616455,0.0638277381658554,-0.6217317581176758,0.104831650853157,0.0188023783266544,0.0,0.0,-0.5531354546546936,0.2845497131347656
-0.0136061664670705,0.9887327551841736,0.0636024102568626,-0.6392850875854492,0.1065765395760536,0.0348975285887718,0.0,0.0,-0.4522701501846313,0.8094912767410278
-0.0128768924623727,0.9739623069763184,0.072117730975151,-0.6565306782722473,0.1073764413595199,0.0159981846809387,0.0,0.0,-0.6917460560798645,0.4356532096862793
-0.0121415136381983,0.958798050880432,0.0719291418790817,-0.6740840673446655,0.1089797690510749,0.0320664308965206,0.0,0.0,-0.4609379768371582,0.3720591068267822
-0.0113997459411621,0.943240225315094,0.0717579796910286,-0.6916378140449524,0.1113856881856918,0.0481182001531124,0.0,0.0,-0.333523154258728,0.9241218566894532
-0.0105760572478175,0.9273027777671814,0.0810706093907356,-0.7084245681762695,0.1126768440008163,0.0258231647312641,0.0,0.0,-0.1165222525596618,0.7890682220458984
-0.0096823694184422,0.9109765887260436,0.0888629108667373,-0.7256413102149963,0.1131761595606803,0.0099863111972808,0.0,0.0,-0.4848705530166626,0.6898984909057617
-0.008738899603486,0.894264817237854,0.0941446870565414,-0.7427679896354675,0.1133811771869659,0.0041002808138728,0.0,0.0,-0.0173381567001342,0.2224490642547607
-0.007788467220962,0.8771592974662781,0.0940357893705368,-0.7603216767311096,0.1143843755125999,0.0200636461377143,0.0,0.0,-0.0561726689338684,0.6227964162826538
-0.0067747114226222,0.8596624732017517,0.1009784713387489,-0.7776691913604736,0.1147752478718757,0.0078171771019697,0.0,0.0,0.2685019969940185,0.2795802354812622
-0.0058082579635083,0.84275221824646,0.0953567177057266,-0.7516624927520752,0.1160572543740272,0.0256401598453521,0.0,0.0,0.0881353616714477,0.8514893054962158
-0.0048753740265965,0.8259085416793823,0.0929238200187683,-0.7486411929130554,0.116413839161396,0.0071315481327474,0.0,0.0,-0.064512550830841,0.9856069087982178
-0.0038699149154126,0.8086867332458496,0.1010716408491134,-0.7653710246086121,0.1158932447433471,-0.0104117188602685,0.0,0.0,0.0484246015548706,0.5370831489562988
-0.0028389929793775,0.7916721105575562,0.103865347802639,-0.7561520338058472,0.1151255145668983,-0.0153544070199131,0.0,0.0,-0.1515226364135742,0.4410930871963501
-0.001800537109375,0.7742637991905212,0.1038246899843216,-0.7737058401107788,0.1151451244950294,0.0003923625627066,0.0,0.0,-0.4331054091453552,0.8947896957397461
-0.0006756782531738,0.7564756274223328,0.1136961728334426,-0.7904959917068481,0.1139462068676948,-0.0239783637225627,0.0,0.0,0.0891898870468139,0.6513838768005371
0.0004541397211141,0.7386775016784668,0.1147403344511985,-0.7908947467803955,0.1122018173336982,-0.0348880514502525,0.0,0.0,0.3915936946868896,0.6801865100860596
0.0016779899597167,0.7209064364433289,0.1246048063039779,-0.7896587252616882,0.1099943220615387,-0.0441498383879661,0.0,0.0,-0.1085814237594604,0.5850845575332642
0.0029535293579101,0.7027430534362793,0.1301051676273346,-0.8070674538612366,0.107459433376789,-0.0506974160671234,0.0,0.0,-0.0150446891784667,-0.1447965502738952
0.0042366981506347,0.6841863393783569,0.1300952136516571,-0.8246211409568787,0.1056974232196807,-0.0352403223514556,0.0,0.0,0.5992133617401123,-0.1204261183738708
0.0055212974548339,0.6664258241653442,0.1291035115718841,-0.7893058061599731,0.1050628870725631,-0.0126908672973513,0.0,0.0,-0.5583917498588562,0.300574779510498
0.0068136216141283,0.6482717394828796,0.1290986239910125,-0.8068587183952332,0.1051934733986854,0.0026117772795259,0.0,0.0,0.0009882450103759,0.2058409452438354
0.0080145839601755,0.6300110220909119,0.1195576339960098,-0.8116297125816345,0.1057221665978431,0.0105740893632173,0.0,0.0,0.287377119064331,0.9273717403411864
0.0092665674164891,0.6123008131980896,0.1257488131523132,-0.7870789170265198,0.105175606906414,-0.010931228287518,0.0,0.0,-0.2335698008537292,0.6405171155929565
0.010567951016128,0.5942034125328064,0.1310054361820221,-0.8042637705802917,0.1043174415826797,-0.0171635188162326,0.0,0.0,0.7639578580856323,-0.4724973440170288
0.0117432596161961,0.5767829418182373,0.1179166659712791,-0.7742195725440979,0.1039337366819381,-0.007674089167267,0.0,0.0,0.2387628555297851,0.7355486154556274
0.0129190441220998,0.5597620606422424,0.1187132447957992,-0.7564047574996948,0.1028085723519325,-0.0225033108144998,0.0,0.0,0.1604102849960327,0.1307375431060791
0.0141210556030273,0.5429666042327881,0.1203130483627319,-0.7464589476585388,0.1026993170380592,-0.0021851288620382,0.0,0.0,0.5776958465576172,-0.4719567894935608
0.0153192523866891,0.5262685418128967,0.119089126586914,-0.7421866655349731,0.1034202426671981,0.0144183365628123,0.0,0.0,0.5073062181472778,0.1796169281005859
0.0165705680847167,0.5097377896308899,0.1232955828309059,-0.7348247766494751,0.1052504330873489,0.0366034880280494,0.0,0.0,-0.726571261882782,-0.0284627676010131
0.0178287513554096,0.4928134381771087,0.1232620254158973,-0.752377450466156,0.1077900230884552,0.0507918074727058,0.0,0.0,0.7057088613510132,0.339879035949707
0.019192885607481,0.4761258661746979,0.1324792504310608,-0.741958737373352,0.111695721745491,0.0781137645244598,0.0,0.0,0.7761319875717163,0.7305005788803101
0.0205238349735736,0.4602624177932739,0.1299532204866409,-0.7052788138389587,0.1148178800940513,0.0624430254101753,0.0,0.0,0.2482589483261108,0.5210106372833252
0.0218612663447856,0.4448748528957367,0.1309150755405426,-0.6841157078742981,0.1176333948969841,0.0563102290034294,0.0,0.0,0.1914396286010742,0.3221628665924072
0.0232374183833599,0.4298259317874908,0.1336989104747772,-0.6691504120826721,0.1215329393744468,0.077990785241127,0.0,0.0,0.3682141304016113,0.7435405254364014
0.0247383117675781,0.4148060083389282,0.1468587070703506,-0.6678196787834167,0.124745637178421,0.0642538294196128,0.0,0.0,0.4177554845809936,0.4497342109680176
0.0261456482112407,0.4000344574451446,0.1370595246553421,-0.6568231582641602,0.1283927708864212,0.0729431062936782,0.0,0.0,0.3996362686157226,0.3956557512283325
0.0275355335325002,0.3859705924987793,0.1343679428100586,-0.625466525554657,0.1330004334449768,0.0921533033251762,0.0,0.0,0.3953531980514526,0.8746562004089355
0.0289130210876464,0.3722368478775024,0.1342854350805282,-0.6107001900672913,0.1364509761333465,0.0690109655261039,0.0,0.0,-0.1437344551086425,0.5919883251190186
0.0303313247859478,0.3581224679946899,0.1387130916118621,-0.6275930404663086,0.1395576447248459,0.0621330328285694,0.0,0.0,0.4347571134567261,0.7653020620346069
0.0318125709891319,0.3445487916469574,0.1458366215229034,-0.6034926772117615,0.1418410986661911,0.0456686802208423,0.0,0.0,0.4202189445495605,0.3382420539855957
0.0331609733402729,0.3315294086933136,0.1321993023157119,-0.5788940191268921,0.1444728374481201,0.0526347979903221,0.0,0.0,0.1036988496780395,-0.0725473761558532
0.0343860611319541,0.3188469409942627,0.1195880025625228,-0.5639516711235046,0.1473903059959411,0.0583496913313865,0.0,0.0,0.0343686342239379,0.7705056667327881
0.035611055791378,0.3062402606010437,0.1206059679389,-0.5604854822158813,0.1492802053689956,0.0377976037561893,0.0,0.0,0.4655942916870117,0.5518045425415039
0.036691665649414,0.2940165400505066,0.1070446595549583,-0.5433825850486755,0.1502992957830429,0.0203816648572683,0.0,0.0,0.8344182968139648,0.2770693302154541
0.0375222191214561,0.2822238206863403,0.0823343321681022,-0.5241920948028564,0.1510201543569564,0.014417128637433,0.0,0.0,0.9633128643035888,0.8854919672012329
0.0384312644600868,0.2713558077812195,0.0912413969635963,-0.4829898774623871,0.1506873816251754,-0.0066556795500218,0.0,0.0,0.9240882396697998,-0.5828103423118591
0.0393073074519634,0.2607328295707702,0.0861333906650543,-0.4722809493541717,0.1521589308977127,0.0294311456382274,0.0,0.0,0.9613113403320312,0.4997445344924927
0.0402171127498149,0.2510979771614074,0.0883064046502113,-0.4284915924072265,0.1548239439725875,0.0533001944422721,0.0,0.0,0.6711111068725586,-0.1617879271507263
0.0409832000732421,0.242227092385292,0.0736767202615737,-0.3945663571357727,0.1577505618333816,0.0585326142609119,0.0,0.0,0.8693233728408813,-0.146152377128601
0.0417565330862998,0.234432652592659,0.0733157247304916,-0.3468503654003143,0.1617633700370788,0.0802562162280082,0.0,0.0,0.8956223726272583,0.7288895845413208
0.0425723083317279,0.2272657305002212,0.0784938186407089,-0.3188705444335937,0.1648458689451217,0.0616502948105335,0.0,0.0,0.7287940979003906,-0.0134027004241943
0.0432389266788959,0.2209670394659042,0.0633456856012344,-0.2803144752979278,0.1681713461875915,0.0665095597505569,0.0,0.0,0.8765791654586792,0.0695211887359619
0.0438219085335731,0.2156144976615905,0.0544041022658348,-0.2383355498313903,0.1720614433288574,0.0778019353747367,0.0,0.0,0.4299520254135132,0.2693800926208496
0.0444029793143272,0.2104722410440445,0.0536883845925331,-0.2290628105401992,0.1764873415231704,0.0885184034705162,0.0,0.0,0.5059305429458618,0.6242070198059082
0.0448106750845909,0.2057500481605529,0.0376872904598712,-0.2102427035570144,0.1795795410871505,0.0618438795208931,0.0,0.0,0.48797607421875,0.5729645490646362
0.0450532920658588,0.2012949287891388,0.0224656946957111,-0.1982258111238479,0.1813800483942031,0.0360100455582141,0.0,0.0,-0.2330727577209472,0.6750556230545044
0.0453421585261821,0.1964588016271591,0.0282793901860713,-0.2150134444236755,0.1819875389337539,0.0121498871594667,0.0,0.0,0.7457513809204102,0.2497826814651489
0.0455510132014751,0.1920670568943023,0.0200755931437015,-0.1952872723340988,0.1828000843524933,0.0162509754300117,0.0,0.0,0.2268247604370117,-0.430716872215271
0.0458010658621788,0.1877010017633438,0.0237092822790145,-0.1942087560892105,0.1841052323579788,0.0261027328670024,0.0,0.0,0.3483521938323974,-0.8651734590530396
0.0459641441702842,0.1837731003761291,0.0131935374811291,-0.1749657094478607,0.1872404962778091,0.0627049803733825,0.0,0.0,-0.5462380647659302,0.3735858201980591
0.0461205467581748,0.1794504523277282,0.0125386146828532,-0.1925122886896133,0.1903520226478576,0.0622307062149047,0.0,0.0,0.4799541234970093,-0.0096791982650756
0.0462726578116416,0.1751607805490493,0.0119087025523185,-0.1910785585641861,0.1936703324317932,0.0663662776350975,0.0,0.0,0.7695274353027344,-0.4314383268356323
0.0463926307857036,0.1714799255132675,0.0083075389266014,-0.1640816330909729,0.1973849534988403,0.07429239153862,0.0,0.0,-0.3207888603210449,0.6729559898376465
