x_pos,y_pos,x_vel,y_vel,angle,ang_vel,leg_1,leg_2,main_booster,lat_booster
-0.0015212058788165,1.403346061706543,-0.1540911942720413,-0.3366266191005707,0.0017724542412906,0.0349637679755687,0.0,0.0,-0.2081745862960815,0.807797908782959
-0.0029709816444665,1.3955128192901611,-0.1449791491031646,-0.3481402695178985,0.0017674246337264,-0.0001000653719529,0.0,0.0,-0.3133472204208374,0.6263750791549683
-0.0043581961654126,1.3873964548110962,-0.1371868550777435,-0.3607333600521087,0.0002518030814826,-0.0303153153508901,0.0,0.0,0.3085132837295532,-0.1821646690368652
-0.0058374404907226,1.3795950412750244,-0.14592806994915,-0.3467333614826202,-0.0017140582203865,-0.0393211841583251,0.0,0.0,0.1274093389511108,0.1306003332138061
-0.007225417997688,1.3721822500228882,-0.1372312754392624,-0.3294582962989807,-0.0032563947606831,-0.0308496244251728,0.0,0.0,-0.2368178963661193,-0.2669435739517212
-0.0086110113188624,1.3644911050796509,-0.1369950622320175,-0.3418380618095398,-0.004797174129635,-0.0308185778558254,0.0,0.0,-0.2038593888282776,0.7225663661956787
-0.0099393846467137,1.3565211296081543,-0.1298978477716446,-0.3542340993881225,-0.0077126217074692,-0.0583144649863243,0.0,0.0,0.1048214435577392,0.3204964399337768
-0.0111622810363769,1.3489205837249756,-0.1198241710662841,-0.3378178477287292,-0.0101490831002593,-0.048733465373516,0.0,0.0,-0.4266726970672607,-0.2881646156311035
-0.0123830791562795,1.3410414457321167,-0.1196052208542823,-0.3502000570297241,-0.012583932839334,-0.0487017929553985,0.0,0.0,-0.4508849382400512,0.2728650569915771
-0.0136015890166163,1.3328840732574463,-0.1193930134177208,-0.3625750541687011,-0.0150163499638438,-0.0486529730260372,0.0,0.0,-0.0513765811920166,0.3778102397918701
-0.0148180965334177,1.3244482278823853,-0.1191881746053695,-0.3749513626098633,-0.0174464769661426,-0.0486071854829788,0.0,0.0,-0.0678708553314209,-0.06555837392807
-0.016032600775361,1.3157341480255127,-0.1189907789230346,-0.3873284161090851,-0.0198742970824241,-0.0485609546303749,0.0,0.0,-0.5001729130744934,0.3798898458480835
-0.0172451976686716,1.30674147605896,-0.1188010722398758,-0.399705559015274,-0.0222998149693012,-0.0485146082937717,0.0,0.0,-0.9043127298355104,0.3422305583953857
-0.0184558872133493,1.2974704504013062,-0.118619218468666,-0.4120827615261078,-0.024722957983613,-0.0484674759209156,0.0,0.0,-0.7021915912628174,0.6312508583068848
-0.0196032524108886,1.287925362586975,-0.1107278019189834,-0.4242969751358032,-0.0286883562803268,-0.0793154910206794,0.0,0.0,-0.4681365489959717,-0.0467652678489685
-0.0207489021122455,1.2781020402908323,-0.1105571612715721,-0.4366748929023742,-0.0326504744589328,-0.0792492777109146,0.0,0.0,-0.2631024122238159,-0.1304972171783447
-0.0218928344547748,1.2680004835128784,-0.110395111143589,-0.4490530788898468,-0.0366102159023284,-0.0792019218206405,0.0,0.0,0.3336511850357055,-0.3941799402236938
-0.0229092594236135,1.258067607879639,-0.0981869921088218,-0.4415483772754669,-0.0400281883776187,-0.068365529179573,0.0,0.0,-0.7266659736633301,-0.7015670537948608
-0.0239705089479684,1.2478657960891724,-0.1038527861237526,-0.4534803330898285,-0.0422741249203681,-0.0449224896728992,0.0,0.0,-0.7469584941864014,-0.6341678500175476
-0.0250872615724802,1.2373887300491333,-0.1108422130346298,-0.4656690061092376,-0.0430892147123813,-0.016303788870573,0.0,0.0,-0.8181145191192627,0.8734453916549683
-0.0261188503354787,1.2266342639923096,-0.1002208739519119,-0.4780639708042145,-0.0460047349333763,-0.0583156533539295,0.0,0.0,-0.8201448917388916,-0.5402325987815857
-0.0271913520991802,1.2156012058258057,-0.1053609624505043,-0.4904161095619201,-0.0478638522326946,-0.0371856391429901,0.0,0.0,-0.6653242707252502,-0.796135425567627
-0.0283120162785053,1.2042922973632812,-0.1114485040307045,-0.5026447772979736,-0.048479463905096,-0.0123135140165686,0.0,0.0,0.2319568395614624,-0.7736650705337524
-0.0294227600097656,1.193044900894165,-0.1120743528008461,-0.4998452365398407,-0.0474922619760036,0.0197459571063518,0.0,0.0,-0.2678115367889404,-0.1021814942359924
-0.0305327419191598,1.1815192699432373,-0.1119949072599411,-0.5122247934341431,-0.0465032905340194,0.0197809264063835,0.0,0.0,-0.2568837404251098,0.1412996053695678
-0.0316426269710063,1.1696935892105105,-0.1119890213012695,-0.5255531668663025,-0.0455115400254726,0.019835177809,0.0,0.0,-0.8729603290557861,0.1636914014816284
-0.0327517502009868,1.1575894355773926,-0.1119228824973106,-0.5379279851913452,-0.0445172935724258,0.0198849346488714,0.0,0.0,-0.9337289929389954,0.1371967792510986
-0.0338603965938091,1.1452069282531738,-0.1118650287389755,-0.5503028631210327,-0.0435205064713954,0.0199357829988002,0.0,0.0,-0.5988214612007141,0.532459020614624
-0.0349352844059467,1.1325483322143557,-0.107664979994297,-0.5626026391983032,-0.0433502830564975,0.0034047882072627,0.0,0.0,-0.4439388513565063,-0.5018622279167175
-0.0360508933663368,1.1196119785308838,-0.1127808541059494,-0.5749123692512512,-0.0421444550156593,0.0241164974868297,0.0,0.0,-0.9324514269828796,0.5364798307418823
-0.0371221527457237,1.1064006090164185,-0.1072423458099365,-0.5871728658676147,-0.0420355536043643,0.002177923452109,0.0,0.0,-0.8025097250938416,-0.7783251404762268
-0.0382628440856933,1.0929105281829834,-0.1159479469060897,-0.5995050072669983,-0.0401762090623378,0.0371870473027229,0.0,0.0,-0.760632336139679,0.5821390151977539
-0.0393633842468261,1.0791451930999756,-0.1109309569001197,-0.6117708683013916,-0.0393126830458641,0.0172706823796033,0.0,0.0,-0.9645270705223083,0.7741382122039795
-0.0404092781245708,1.0650911331176758,-0.104070208966732,-0.6246381998062134,-0.0398244075477123,-0.0102346697822213,0.0,0.0,-0.8304362297058105,-0.5498934984207153
-0.0414973273873329,1.050762414932251,-0.1093716397881507,-0.6368210911750793,-0.0392688289284706,0.0111115658655762,0.0,0.0,-0.921306848526001,-0.2984112501144409
-0.0425854697823524,1.036155104637146,-0.1093747243285179,-0.6491959691047668,-0.0387104265391826,0.0111680561676621,0.0,0.0,-0.6122047901153564,0.3256549835205078
-0.0436737053096294,1.02126944065094,-0.1093845143914222,-0.6615708470344543,-0.0381491780281066,0.0112250056117773,0.0,0.0,-0.8047826290130615,-0.6824774146080017
-0.0448123924434185,1.0061136484146118,-0.1157309040427208,-0.6735509634017944,-0.0363125801086425,0.0367322042584419,0.0,0.0,-0.3082264065742492,0.6116670370101929
-0.045905876904726,0.9906835556030272,-0.1100637540221214,-0.6857616305351257,-0.0356094688177108,0.0140619929879903,0.0,0.0,-0.4848476648330688,-0.504364013671875
-0.0470376014709472,0.9749778509140016,-0.1148604154586792,-0.6979946494102478,-0.0339472293853759,0.0332447029650211,0.0,0.0,-0.6397799253463745,0.2840480804443359
-0.0481698028743267,0.9589937329292296,-0.1148943081498146,-0.7103697657585144,-0.0322820916771888,0.0333026871085166,0.0,0.0,-0.8009764552116394,0.2819516658782959
-0.0493022911250591,0.9427310824394226,-0.1149334907531738,-0.7227448225021362,-0.0306140575557947,0.033360730856657,0.0,0.0,-0.5954181551933289,-0.1698145866394043
-0.0504350662231445,0.9261902570724488,-0.1149776354432106,-0.7351198792457581,-0.0289431232959032,0.0334186926484108,0.0,0.0,0.0870726108551025,0.5354349613189697
-0.0514436736702919,0.9098864197731018,-0.1016058921813964,-0.7246047258377075,-0.0282077994197607,0.0147064672783017,0.0,0.0,-0.2940967082977295,0.3856762647628784
-0.0524528510868549,0.8933040499687195,-0.1016589403152465,-0.7369796633720398,-0.0274696014821529,0.0147639438509941,0.0,0.0,-0.6548989415168762,-0.0092431306838989
-0.0534625053405761,0.8764433264732361,-0.101715937256813,-0.7493545413017273,-0.0267285406589508,0.0148210795596241,0.0,0.0,0.3293147087097168,-0.3900780081748962
-0.0544140823185443,0.8598412871360779,-0.0961376279592514,-0.7378500699996948,-0.0257576163858175,0.0194184426218271,0.0,0.0,-0.7001281976699829,0.2718844413757324
-0.0553661361336708,0.842960774898529,-0.0962014123797416,-0.7502249479293823,-0.0247839018702507,0.0194744300097227,0.0,0.0,-0.4811166524887085,-0.1789888143539428
-0.0563189499080181,0.8258019685745239,-0.0962680205702781,-0.7625998258590698,-0.0238074325025081,0.0195296294987201,0.0,0.0,0.1675946712493896,-0.067245066165924
-0.0572787299752235,0.8089043498039246,-0.0969052985310554,-0.7509948015213013,-0.0228974521160125,0.0181997343897819,0.0,0.0,-0.5161629319190979,-0.1046163439750671
-0.0582392700016498,0.7917280197143555,-0.0969763919711113,-0.7633696794509888,-0.0219847988337278,0.0182530023157596,0.0,0.0,-0.0746108889579773,-0.1376788020133972
-0.0592004768550396,0.7742735147476196,-0.0970491468906402,-0.7757445573806763,-0.0210695434361696,0.0183050893247127,0.0,0.0,0.2344298362731933,-0.230132520198822
-0.0600736625492572,0.7570361495018005,-0.0886385142803192,-0.7660888433456421,-0.0197739247232675,0.0259124841541051,0.0,0.0,0.5023326873779297,0.5434021949768066
-0.060887049883604,0.7406118512153625,-0.0815696418285369,-0.729968249797821,-0.0195485148578882,0.004508133046329,0.0,0.0,0.1385605335235595,-0.583032488822937
-0.0616267211735248,0.7244088649749756,-0.0755600780248642,-0.7201153635978699,-0.0179733131080865,0.0315040051937103,0.0,0.0,-0.3591716289520263,0.5287437438964844
-0.0623319633305072,0.7079240679740906,-0.0712215900421142,-0.7326478958129883,-0.0172806642949581,0.0138529287651181,0.0,0.0,-0.1812937259674072,-0.0370950102806091
-0.0630378723144531,0.6911607980728149,-0.0712963789701461,-0.7450227737426758,-0.0165858268737792,0.0138967931270599,0.0,0.0,-0.095965027809143,-0.34180349111557
-0.0637445449829101,0.674119234085083,-0.0713703036308288,-0.7573976516723633,-0.0158888921141624,0.0139386234804987,0.0,0.0,0.250312328338623,0.7194235324859619
-0.0643213242292404,0.6577381491661072,-0.0570248588919639,-0.7280513048171997,-0.0165363047271966,-0.0129479467868804,0.0,0.0,0.1052230596542358,0.1323353052139282
-0.0649410262703895,0.641868531703949,-0.0610803589224815,-0.7053329944610596,-0.0174175389111042,-0.0176248662173748,0.0,0.0,-0.0777254104614257,0.062795877456665
-0.0655614882707595,0.625720202922821,-0.0611490495502948,-0.7177078723907471,-0.0182970464229583,-0.0175901539623737,0.0,0.0,-0.2815346717834472,0.2096257209777832
-0.0661825165152549,0.6092936396598816,-0.0612151101231575,-0.7300828099250793,-0.0191749446094036,-0.017558068037033,0.0,0.0,0.2976208925247192,0.2878562211990356
-0.0666993111371994,0.5931950211524963,-0.0512533411383628,-0.7155009508132935,-0.019602658227086,-0.0085540181025862,0.0,0.0,-0.0128361582756042,0.63939368724823
-0.0671642273664474,0.5768173336982727,-0.0447153188288211,-0.7279196977615356,-0.0213503427803516,-0.0349539443850517,0.0,0.0,0.116117238998413,-0.0805365443229675
-0.0676185637712478,0.5605672597885132,-0.0436882823705673,-0.7222527265548706,-0.0230724439024925,-0.034441839903593,0.0,0.0,0.3580293655395508,0.7819112539291382
-0.0681147575378418,0.5447695851325989,-0.0461459048092365,-0.7021750807762146,-0.0264996699988842,-0.0685444399714469,0.0,0.0,0.2064579725265503,0.5612156391143799
-0.0685330405831337,0.529634952545166,-0.0372595004737377,-0.67274010181427,-0.0310089755803346,-0.0901860073208808,0.0,0.0,-0.2602883577346802,0.6176474094390869
-0.0688961967825889,0.5142122507095337,-0.0303499288856983,-0.6855884194374084,-0.0369144193828105,-0.1181086301803588,0.0,0.0,0.4649889469146728,-0.6869516968727112
-0.0692596435546875,0.4996556341648102,-0.0317967124283313,-0.6470779180526733,-0.0414022952318191,-0.0897575318813324,0.0,0.0,0.3788702487945556,-0.7730535864830017
-0.0697562247514724,0.4854187667369842,-0.0465461649000644,-0.6328378915786743,-0.044475432485342,-0.0614628717303276,0.0,0.0,-0.3804273605346679,0.224838376045227
-0.0702529922127723,0.4709036350250244,-0.046568464487791,-0.6452134847640991,-0.0475484132766723,-0.0614593923091888,0.0,0.0,0.5703349113464355,0.5568468570709229
-0.0706462860107421,0.4569922089576721,-0.0351776368916034,-0.6184238195419312,-0.051650546491146,-0.0820428356528282,0.0,0.0,-0.5215235352516174,-0.2351647019386291
-0.071039579808712,0.4428025484085083,-0.0351853929460048,-0.6308001279830933,-0.0557528771460056,-0.0820463150739669,0.0,0.0,0.2042860984802246,-0.1788839101791381
-0.0713560134172439,0.4289605617523193,-0.0277410708367824,-0.6153473258018494,-0.0596077889204025,-0.0770983919501304,0.0,0.0,0.0725069046020507,0.270902156829834
-0.0716791152954101,0.4152224063873291,-0.0283017866313457,-0.6107451915740967,-0.0635644868016243,-0.0791342034935951,0.0,0.0,0.9370946884155272,-0.4968780279159546
-0.0718981772661209,0.4017691016197204,-0.018278069794178,-0.5980856418609619,-0.067153088748455,-0.0717720985412597,0.0,0.0,0.7516696453094482,-0.8030557036399841
-0.0721933394670486,0.3885781466960907,-0.027430847287178,-0.5863608121871948,-0.0692168474197387,-0.0412753224372863,0.0,0.0,0.8627035617828369,0.2267582416534423
-0.072435662150383,0.3764480352401733,-0.0221038646996021,-0.5392181277275085,-0.07132538408041,-0.0421706996858119,0.0,0.0,-0.2028254270553589,-0.0090141892433166
-0.0726776123046875,0.3640395104885101,-0.0220578964799642,-0.5515934228897095,-0.0734351649880409,-0.0421955808997154,0.0,0.0,0.3106071949005127,-0.7870471477508545
-0.0730334296822547,0.3523482978343963,-0.0349122956395149,-0.519641101360321,-0.0740968212485313,-0.0132330730557441,0.0,0.0,-0.6322629451751709,0.6049518585205078
-0.0733514800667762,0.3403683304786682,-0.0301724132150411,-0.5325254201889038,-0.075707621872425,-0.0322160869836807,0.0,0.0,0.7354261875152588,-0.4382977485656738
-0.0735636726021766,0.3293471038341522,-0.0197840686887502,-0.4899061322212219,-0.0771241933107376,-0.0283315572887659,0.0,0.0,-0.5957078337669373,-0.0160713195800781
-0.0737749114632606,0.3180474042892456,-0.019694996997714,-0.502281129360199,-0.0785427019000053,-0.0283701159060001,0.0,0.0,-0.1098946332931518,-0.015913963317871
-0.0739851966500282,0.3064693510532379,-0.0195943862199783,-0.514656126499176,-0.0799633115530014,-0.0284119937568902,0.0,0.0,0.1119201183319091,-0.2838751673698425
-0.074164867401123,0.295317530632019,-0.0164860226213932,-0.4957157075405121,-0.0814234018325805,-0.0292019490152597,0.0,0.0,0.4097564220428467,0.0162630081176757
-0.0742286667227745,0.2846204340457916,-0.0052536372095346,-0.4754883944988251,-0.0825417414307594,-0.0223667211830616,0.0,0.0,-0.2027389407157898,-0.6372924447059631
-0.0743397697806358,0.2736446261405945,-0.0112095465883612,-0.4878073930740356,-0.0824449658393859,0.0019355926197022,0.0,0.0,0.043512225151062,-0.1083903312683105
-0.0743700042366981,0.2627633810043335,-0.0033993716351687,-0.4835920333862304,-0.0820798873901367,0.0073016146197915,0.0,0.0,0.2338345050811767,-0.3473149538040161
-0.0742542296648025,0.2522277235984802,0.0106979627162218,-0.4682041108608246,-0.0812094360589981,0.0174093544483184,0.0,0.0,0.0533996820449829,-0.2751868963241577
-0.0740278214216232,0.2417787611484527,0.0213572196662426,-0.46432825922966,-0.0799308344721794,0.0255718138068914,0.0,0.0,0.0958403348922729,-0.6782957911491394
-0.0738171562552452,0.2318083792924881,0.0184172447770833,-0.4429893493652344,-0.077307678759098,0.0524631217122077,0.0,0.0,-0.5958324074745178,-0.0199766755104064
-0.0736045837402343,0.2215597033500671,0.018617732450366,-0.4553647637367248,-0.0746878385543823,0.0523966625332832,0.0,0.0,-0.0582466125488281,-0.2379419207572937
-0.0733897238969802,0.2110326439142227,0.0188312828540802,-0.4677401483058929,-0.0720714777708053,0.0523274056613445,0.0,0.0,0.3183479309082031,-0.2164885997772216
-0.0730737671256065,0.2006082087755203,0.0285853687673807,-0.4631631970405578,-0.0690864250063896,0.0597010366618633,0.0,0.0,0.4750368595123291,-0.2698150277137756
-0.0727707892656326,0.1905907690525055,0.0275042541325092,-0.4450953304767608,-0.0663221478462219,0.0552854649722576,0.0,0.0,0.1649492979049682,-0.083744466304779
-0.0723653808236122,0.1811995357275009,0.0374667197465896,-0.4172537922859192,-0.0632857084274292,0.0607288107275962,0.0,0.0,-0.471750259399414,0.1179860830307006
-0.0719573944807052,0.1715299934148788,0.0377325639128685,-0.4296293258666992,-0.0602532736957073,0.0606489181518554,0.0,0.0,0.0711134672164917,0.1224650144577026
-0.071596048772335,0.1623616963624954,0.0334430858492851,-0.4073757529258728,-0.0575981736183166,0.053102046251297,0.0,0.0,-0.2998147010803222,0.1967639923095703
-0.0712319388985633,0.1529150307178497,0.0337347649037838,-0.4197511374950409,-0.0549473129212856,0.0530171990394592,0.0,0.0,0.0322128534317016,0.0048955678939819
-0.0708724036812782,0.1438948661088943,0.0334318429231643,-0.4008070230484009,-0.052455548197031,0.0498353615403175,0.0,0.0,-0.1265081167221069,-0.4364582896232605
-0.0705097168684005,0.1345963329076767,0.033748835325241,-0.4131823182106018,-0.0499682687222957,0.0497458986937999,0.0,0.0,0.8021676540374756,-0.1369209289550781
-0.0701437965035438,0.1258352398872375,0.0342102535068988,-0.3893038332462311,-0.0476110875606536,0.0471434704959392,0.0,0.0,0.0916435718536377,0.2991735935211181
-0.0698325186967849,0.1173966526985168,0.0291054043918848,-0.3749844133853912,-0.0456152185797691,0.0399174615740776,0.0,0.0,0.3098573684692383,-0.20200115442276
-0.0696179419755935,0.1093101128935813,0.0199943538755178,-0.3593598008155823,-0.0441760569810867,0.0287834741175174,0.0,0.0,0.5053675174713135,-0.3914458751678467
-0.0692745223641395,0.101919874548912,0.0324438847601413,-0.3283964693546295,-0.042295329272747,0.0376144647598266,0.0,0.0,-0.042219340801239,0.0465928316116333
-0.0689272880554199,0.0942514017224311,0.0328207537531852,-0.3407716155052185,-0.0404196195304393,0.0375144742429256,0.0,0.0,0.2178895473480224,0.5598645210266113
-0.0683916062116622,0.0871419012546539,0.0525712184607982,-0.3159514367580414,-0.0394358523190021,0.0196751784533262,0.0,0.0,-0.4809790253639221,-0.4190807342529297
-0.0678520202636718,0.0797539576888084,0.0529702790081501,-0.3283263444900512,-0.0384572781622409,0.0195715446025133,0.0,0.0,0.4685038328170776,-0.1579516530036926
-0.0671525001525878,0.0732187330722808,0.0683823972940445,-0.2904134392738342,-0.0368972793221473,0.0311997681856155,0.0,0.0,-0.4943212270736694,-0.6539344787597656
-0.0664938911795616,0.0664077848196029,0.063136026263237,-0.3026464879512787,-0.0342066474258899,0.0538125932216644,0.0,0.0,0.2051029205322265,0.1186319589614868
-0.0658159255981445,0.0602115243673324,0.0651038810610771,-0.2753300964832306,-0.0315458439290523,0.0532162301242351,0.0,0.0,-0.4334458112716675,0.0115696191787719
-0.0651335716247558,0.0537369586527347,0.0655436888337135,-0.2877055406570434,-0.028890548273921,0.053105991333723,0.0,0.0,0.2256554365158081,0.8779112100601196
-0.0642985329031944,0.0474835485219955,0.0825429484248161,-0.2779096066951751,-0.0279446225613355,0.0189186129719018,0.0,0.0,0.1092808246612548,0.5301281213760376
-0.0634961128234863,0.0415771827101707,0.0805328637361526,-0.2625109255313873,-0.0282244123518466,-0.0055960668250918,0.0,0.0,0.1654090881347656,-0.4479901194572449
-0.062769316136837,0.0359406098723411,0.0733986720442771,-0.2505256235599518,-0.0289288014173507,-0.0140879852697253,0.0,0.0,0.2862651348114013,0.2324104309082031
-0.0620417594909668,0.0306844804435968,0.0735475271940231,-0.2336228191852569,-0.0297165606170892,-0.015755258500576,0.0,0.0,0.0160558223724365,-0.7708433270454407
-0.061342142522335,0.0256422851234674,0.0692048817873001,-0.2240844815969467,-0.0289694052189588,0.014943154528737,0.0,0.0,0.0707377195358276,0.1660568714141845
-0.060546301305294,0.0206673964858055,0.0784357860684394,-0.2210848480463028,-0.0278366487473249,0.0226553939282894,0.0,0.0,0.3095408678054809,0.1332812309265136
-0.0596531853079795,0.0162235125899314,0.0878054648637771,-0.1974781155586242,-0.0263524930924177,0.0296831168234348,0.0,0.0,0.1744617223739624,0.1487207412719726
-0.0587221160531044,0.0123604154214262,0.0915213078260421,-0.1716683655977249,-0.024791944772005,0.0312109552323818,0.0,0.0,0.0057697296142578,0.0902775526046752
