x_pos,y_pos,x_vel,y_vel,angle,ang_vel,leg_1,leg_2,main_booster,lat_booster
-0.0015211105346679,1.4031918048858645,-0.1545051783323288,-0.3434782326221466,0.0021468021441251,0.0423761941492557,0.0,0.0,-0.4398258468653719,-0.5636081532527212
-0.00307979574427,1.39505136013031,-0.159394234418869,-0.3618078529834747,0.0056342263706028,0.0697557255625724,0.0,0.0,0.0344467859043857,-0.7091095749758437
-0.0045962333679199,1.386852741241455,-0.1570526510477066,-0.364416241645813,0.0109899155795574,0.1071235761046409,0.0,0.0,0.2908673328352711,0.853811394665601
-0.0061520575545728,1.3788037300109863,-0.1595589816570282,-0.3577680885791778,0.0149184204638004,0.0785773321986198,0.0,0.0,-0.0789188066998702,0.867762534081321
-0.0076205255463719,1.3703267574310305,-0.1490950435400009,-0.3767766952514648,0.0171406473964452,0.0444484949111938,0.0,0.0,-0.2420552870127217,0.1281580244395785
-0.0090838428586721,1.361417293548584,-0.1489581167697906,-0.3960030376911163,0.0197401829063892,0.0519957058131694,0.0,0.0,0.957191319683924,-0.1246803412589888
-0.0105817792937159,1.3531007766723633,-0.1526594161987304,-0.3696669340133667,0.0225885901600122,0.0569733679294586,0.0,0.0,-0.1033061216544828,0.984975506432878
-0.01197652798146,1.3443576097488403,-0.1402769088745117,-0.3885941803455353,0.0233806781470775,0.0158432275056839,0.0,0.0,-0.5717978403382695,-0.437799990891074
-0.0133641241118311,1.3351821899414062,-0.1399541348218917,-0.4078185856342315,0.0245513655245304,0.0234159976243972,0.0,0.0,0.7483010645976569,0.2652284704528751
-0.0147638320922851,1.3267269134521484,-0.141533225774765,-0.3758191168308258,0.0260950196534395,0.0308758411556482,0.0,0.0,-0.8625116590224222,-0.2246369522944352
-0.0161551479250192,1.3178387880325315,-0.1410805135965347,-0.39505735039711,0.0280160922557115,0.0384253710508346,0.0,0.0,-0.9879136164648804,-0.8997426285668975
-0.0176001545041799,1.30851411819458,-0.1484074294567108,-0.414511114358902,0.0318890884518623,0.0774668827652931,0.0,0.0,-0.7557012688423719,0.0557656146376249
-0.0190354343503713,1.2987570762634275,-0.1478223949670791,-0.4337411522865295,0.0361380651593208,0.0849872082471847,0.0,0.0,-0.480542173636052,-0.9836485477326652
-0.0205286983400583,1.2885552644729614,-0.1557554304599762,-0.4535863101482391,0.0424926504492759,0.1271035373210907,0.0,0.0,-0.2749030852832799,-0.2496671667527874
-0.0220109932124614,1.277921438217163,-0.1550305932760238,-0.4728188812732696,0.0492221042513847,0.1346013247966766,0.0,0.0,0.4817461506285401,0.1819113082439212
-0.0233964920043945,1.2672626972198486,-0.1461879312992096,-0.4739930331707001,0.0567894205451011,0.1513600945472717,0.0,0.0,-0.688567577628052,0.7525174816043094
-0.0246968269348144,1.256187081336975,-0.1362052261829376,-0.4924959242343902,0.062892735004425,0.1220772713422775,0.0,0.0,-0.0075415333552288,-0.5867769568853362
-0.0260190013796091,1.24467134475708,-0.1396574676036834,-0.5121351480484009,0.0702626556158065,0.1474117934703827,0.0,0.0,-0.3294454008179277,0.3938003963829956
-0.0273271556943655,1.2327240705490112,-0.1386256366968155,-0.5313704609870911,0.0780051052570343,0.1548630148172378,0.0,0.0,-0.62514388728519,0.7082926946531218
-0.0285721775144338,1.2203506231307983,-0.131449818611145,-0.550305962562561,0.0849000588059425,0.1379111558198928,0.0,0.0,-0.9444633190608454,0.196320388269636
-0.0298014637082815,1.2075456380844116,-0.1302551627159118,-0.5695418119430542,0.0921674072742462,0.145360380411148,0.0,0.0,0.8435481776892098,0.3263104132382328
-0.0310467723757028,1.1950483322143557,-0.1322833001613617,-0.555925726890564,0.099866397678852,0.1539935171604156,0.0,0.0,-0.1372070269142948,0.967952121231213
-0.0321822166442871,1.1821318864822388,-0.1193045154213905,-0.5744526386260986,0.1055915802717208,0.1145140677690506,0.0,0.0,0.4467072895879496,0.3655196673317493
-0.0332674980163574,1.1692014932632446,-0.1149453967809677,-0.5751533508300781,0.1119712516665458,0.1276043951511383,0.0,0.0,0.1735623302433302,0.0920825624168075
-0.0344853401184082,1.1565039157867432,-0.1280880123376846,-0.564822256565094,0.1182508170604705,0.1256027519702911,0.0,0.0,-0.9839326578321586,-0.4226725670476892
-0.035681627690792,1.1433533430099487,-0.1263159662485122,-0.5850070118904114,0.1248987019062042,0.1329580247402191,0.0,0.0,-0.7003114737848637,0.4290124419212439
-0.0368573181331157,1.1297715902328491,-0.1246152147650718,-0.6042407155036926,0.1319139748811721,0.1403055787086486,0.0,0.0,0.1550867898813999,-0.7995173204910255
-0.0382549278438091,1.1165916919708252,-0.1487048119306564,-0.5865876078605652,0.1408126503229141,0.1779736429452896,0.0,0.0,0.0071505526376582,-0.6961241926525564
-0.039842415601015,1.1036574840545654,-0.1693570464849472,-0.5758997201919556,0.1513986736536026,0.211720585823059,0.0,0.0,0.0963250774074173,0.1525112809589974
-0.0414694771170616,1.0907692909240725,-0.1736076474189758,-0.5739500522613525,0.1622844189405441,0.2177148759365081,0.0,0.0,-0.2107378947974536,-0.6601326043796675
-0.0431238189339637,1.0774463415145874,-0.1779361814260482,-0.5935486555099487,0.1748096197843551,0.2505038976669311,0.0,0.0,-0.964436650276184,0.997317671775818
-0.044685460627079,1.063705563545227,-0.1672777682542801,-0.6120476126670837,0.185959443449974,0.2229965627193451,0.0,0.0,-0.9534171223640442,0.9805877208709716
-0.046157456934452,1.0495622158050537,-0.1569590866565704,-0.6298514008522034,0.1957659721374511,0.1961307823657989,0.0,0.0,-0.952226996421814,0.9826797246932985
-0.0475342757999897,1.0349998474121094,-0.1460379511117935,-0.6483489274978638,0.2041732668876648,0.1681462377309799,0.0,0.0,-0.9808659553527832,0.7907249927520752
-0.0488220229744911,1.0200275182724,-0.1358438283205032,-0.6664249300956726,0.2113049328327179,0.1426334083080291,0.0,0.0,-0.8818864226341248,0.8822058439254761
-0.0500132553279399,1.0046533346176147,-0.1247208938002586,-0.6841118335723877,0.2169598639011383,0.1130987256765365,0.0,0.0,-0.974057912826538,0.967552900314331
-0.0511044487357139,0.988866686820984,-0.1132171973586082,-0.7022430896759033,0.2211108058691024,0.0830187499523162,0.0,0.0,-0.8607822060585022,0.9881312847137452
-0.0520871169865131,0.9726831316947936,-0.1006223708391189,-0.7196214199066162,0.2234933823347091,0.0476515591144561,0.0,0.0,-0.9372352957725524,0.9913927316665648
-0.0529707893729209,0.9561030864715576,-0.08921979367733,-0.737017035484314,0.2243522852659225,0.0171779282391071,0.0,0.0,-0.4469007849693298,0.9870754480361938
-0.0537451729178428,0.9391199350357056,-0.0765784457325935,-0.7546728849411011,0.2234779745340347,-0.0174861215054988,0.0,0.0,0.1456274986267089,0.9647814035415648
-0.054621122777462,0.9224992394447328,-0.0851414129137992,-0.7383311986923218,0.2210035175085067,-0.049489140510559,0.0,0.0,-0.2245874404907226,0.9991538524627686
-0.0553728118538856,0.9054761528968812,-0.0706674009561538,-0.7559146285057068,0.216451808810234,-0.0910342335700988,0.0,0.0,0.4183170795440674,0.9401242733001708
-0.0559834465384483,0.8884608149528503,-0.0551136061549186,-0.7553790211677551,0.2104394137859344,-0.1202475577592849,0.0,0.0,0.7361972332000732,0.9033939838409424
-0.0564944259822368,0.8718861937522888,-0.0438558124005794,-0.7356360554695129,0.2031349539756775,-0.1460891664028167,0.0,0.0,-0.1689192056655883,-0.106733500957489
-0.0569727905094623,0.8548805117607117,-0.0409148409962654,-0.7548724412918091,0.1961686760187149,-0.1393256485462188,0.0,0.0,0.3461111783981323,-0.3083370923995971
-0.0574342720210552,0.8378552794456482,-0.0397291854023933,-0.7558420300483704,0.1897108703851699,-0.1291562020778656,0.0,0.0,-0.126811146736145,-0.4605445265769958
-0.0578620918095111,0.82039874792099,-0.036688070744276,-0.7750769257545471,0.1835854053497314,-0.1225093752145767,0.0,0.0,0.8022587299346924,0.3884203433990478
-0.0585424415767192,0.8038188815116882,-0.0616910643875598,-0.7361159920692444,0.177221804857254,-0.1272720545530319,0.0,0.0,-0.6652842164039612,0.9032678604125975
-0.0591344833374023,0.7868302464485168,-0.0517654940485954,-0.7541792988777161,0.1697667986154556,-0.149100050330162,0.0,0.0,-0.2674441337585449,0.697580099105835
-0.0596389770507812,0.7694220542907715,-0.0419776104390621,-0.7727499604225159,0.1612864136695861,-0.1696075797080993,0.0,0.0,0.3787267208099365,0.4883263111114502
-0.0600666031241416,0.7523174285888672,-0.0351489931344985,-0.7594071626663208,0.153677687048912,-0.1521738469600677,0.0,0.0,-0.1619449853897094,0.822699785232544
-0.0604009628295898,0.7348005175590515,-0.0246452149003744,-0.7776470184326172,0.1448909044265747,-0.1757356077432632,0.0,0.0,0.7416343688964844,0.8573988676071167
-0.0605734810233116,0.7175859212875366,-0.0072455466724932,-0.7641512751579285,0.1349231302738189,-0.1993554681539535,0.0,0.0,0.7855240106582642,-0.8840256333351135
-0.060891818255186,0.7012165784835815,-0.0239077620208263,-0.7268326878547668,0.1270283907651901,-0.1578947007656097,0.0,0.0,-0.072940707206726,0.8529262542724609
-0.0610898956656456,0.6844289302825928,-0.0100367357954382,-0.7453166246414185,0.1173092573881149,-0.1943826824426651,0.0,0.0,-0.4556353688240051,-0.2040128111839294
-0.061251163482666,0.6672102808952332,-0.0066413930617272,-0.7645536065101624,0.107883371412754,-0.1885176301002502,0.0,0.0,0.3835999965667724,0.8943464756011963
-0.0612882599234581,0.6505904793739319,0.0072099729441106,-0.7379123568534851,0.0970431119203567,-0.2168051302433014,0.0,0.0,-0.0643643140792846,0.0003302097320556
-0.0612881667912006,0.6335397958755493,0.0106636006385087,-0.7571507096290588,0.0864835307002067,-0.2111916244029998,0.0,0.0,0.2518004179000854,-0.5004920959472656
-0.0612829215824604,0.6169983744621277,0.0097670089453458,-0.7346665859222412,0.0773312896490097,-0.1830449849367141,0.0,0.0,-0.0780927538871765,-0.1847803592681884
-0.0612400062382221,0.6000258326530457,0.0132714686915278,-0.7539015412330627,0.0684452429413795,-0.1777208000421524,0.0,0.0,0.3857600688934326,0.4565992355346679
-0.0611375793814659,0.5830910801887512,0.0187589861452579,-0.7522905468940735,0.0600160248577594,-0.1685840785503387,0.0,0.0,0.1744893789291381,-0.6720678210258484
-0.0611603744328022,0.5664628148078918,0.0047525065019726,-0.7387692928314209,0.0530664399266243,-0.1389917582273483,0.0,0.0,0.5571171045303345,0.0646014213562011
-0.0610547065734863,0.5501420497894287,0.0168176162987947,-0.7251586318016052,0.0468960255384445,-0.1234083026647567,0.0,0.0,0.0875523090362548,-0.0228021740913391
-0.0609142296016216,0.5339949131011963,0.0199922211468219,-0.7174731492996216,0.0410285182297229,-0.1173504367470741,0.0,0.0,0.6221300363540649,0.2099244594573974
-0.0607438087463378,0.5180061459541321,0.0227155275642871,-0.7104669213294983,0.0354175195097923,-0.1122202724218368,0.0,0.0,0.4155027866363525,0.4500749111175537
-0.0606591217219829,0.5023387670516968,0.0144419325515627,-0.6961981058120728,0.0295261684805154,-0.1178268939256668,0.0,0.0,-0.0114202499389648,0.2139359712600708
-0.0605359077453613,0.4862393736839294,0.0180769562721252,-0.7154276371002197,0.0238338652998209,-0.1138459891080856,0.0,0.0,0.7041263580322266,0.1320698261260986
-0.0602969154715538,0.4701631367206573,0.0290748123079538,-0.7144246697425842,0.0187203604727983,-0.1022699028253555,0.0,0.0,0.8415771722793579,-0.2954926490783691
-0.0600072853267192,0.4550826251506805,0.0338274352252483,-0.670190691947937,0.0139209507033228,-0.0959882885217666,0.0,0.0,0.7016903162002563,-0.2562367916107178
-0.0597829818725585,0.4402991533279419,0.0275818593800067,-0.657004177570343,0.0088349059224128,-0.1017206907272338,0.0,0.0,0.4896118640899658,0.2011198997497558
-0.0596086494624614,0.4259980916976928,0.0228316579014062,-0.6355798840522766,0.0035141510888934,-0.1064151525497436,0.0,0.0,-0.4991427659988403,0.266831636428833
-0.0593959800899028,0.4112648367881775,0.0265173222869634,-0.6548084020614624,-0.0016722987638786,-0.1037289872765541,0.0,0.0,0.9286220073699952,-0.7791252732276917
-0.0593687072396278,0.3975873589515686,0.0066538988612592,-0.6078987121582031,-0.0055538993328809,-0.0776318684220314,0.0,0.0,-0.4422707557678222,0.3155173063278198
-0.0593034736812114,0.3834774494171142,0.0103501509875059,-0.6271260380744934,-0.0093305269256234,-0.0755324512720108,0.0,0.0,0.4293417930603027,0.3727650642395019
-0.0592263229191303,0.3694430589675903,0.0115862134844064,-0.6237802505493164,-0.0131523851305246,-0.0764372497797012,0.0,0.0,0.8302834033966064,0.7441127300262451
-0.0589658729732036,0.3555057942867279,0.0311577226966619,-0.6194866895675659,-0.018198899924755,-0.100930705666542,0.0,0.0,0.7930560111999512,-0.8872551918029785
-0.0587694160640239,0.3416826725006103,0.0229812394827604,-0.6144015192985535,-0.0214893091470003,-0.0658080875873565,0.0,0.0,0.940314531326294,-0.0874905586242675
-0.0585251823067665,0.328824520111084,0.0277498960494995,-0.5715262293815613,-0.0247829742729663,-0.0658729821443557,0.0,0.0,0.7950465679168701,-0.1967980861663818
-0.0581349357962608,0.3168597221374511,0.0419332198798656,-0.5318191647529602,-0.0276482589542865,-0.0573057830333709,0.0,0.0,0.6908786296844482,-0.1809930205345153
-0.0577991493046283,0.3057214915752411,0.0369992777705192,-0.4950990080833435,-0.031034966930747,-0.0677340254187583,0.0,0.0,-0.0909674167633056,-0.6181001663208008
-0.0574862472712993,0.2941471338272095,0.0332212261855602,-0.5144553184509277,-0.0329350605607032,-0.0380021296441555,0.0,0.0,0.0773563385009765,-0.6953257322311401
-0.0571445450186729,0.2829204797744751,0.0346819534897804,-0.4989729523658752,-0.0334447994828224,-0.0101947821676731,0.0,0.0,-0.2180321216583252,0.424535870552063
-0.0567665100097656,0.2712613344192505,0.0383526720106601,-0.5181992650032043,-0.0339928977191448,-0.010961721651256,0.0,0.0,0.472524881362915,-0.6425740122795105
-0.0564361587166786,0.2600832283496856,0.0324622318148613,-0.4967904388904571,-0.0334263406693935,0.0113309044390916,0.0,0.0,0.3484522104263305,0.4174544811248779
-0.0560606941580772,0.2493287175893783,0.0370881631970405,-0.4779683649539947,-0.0329746343195438,0.0090342666953802,0.0,0.0,-0.0412046909332275,-0.3289902806282043
-0.0556497573852539,0.2381416112184524,0.040719848126173,-0.4971947968006134,-0.0326077044010162,0.0073384260758757,0.0,0.0,0.7565197944641113,0.0275729894638061
-0.0551666244864463,0.2270664572715759,0.0479228720068931,-0.4922243356704712,-0.0322238281369209,0.0076774070039391,0.0,0.0,0.4694585800170898,-0.6248084902763367
-0.0545967109501361,0.2160889953374862,0.0552783533930778,-0.4878478646278381,-0.0305215176194906,0.0340462252497673,0.0,0.0,0.5226895809173584,-0.7568774819374084
-0.0538858398795127,0.2054639458656311,0.0677020102739334,-0.4721605181694031,-0.0271823350340127,0.0667835399508476,0.0,0.0,0.5044736862182617,-0.673133134841919
-0.0530452728271484,0.194936454296112,0.0791806206107139,-0.4678096771240234,-0.0223689787089824,0.0962671488523483,0.0,0.0,0.3552478551864624,-0.6429898142814636
-0.0522130951285362,0.1849074959754943,0.0772059708833694,-0.4456534683704376,-0.0164403170347213,0.1185731887817382,0.0,0.0,0.3143395185470581,-0.2554821968078613
-0.0513132102787494,0.1753508895635604,0.0840408504009246,-0.4246834516525268,-0.0105644846335053,0.1175165921449661,0.0,0.0,-0.1677902936935424,-0.7816064357757568
-0.0504295341670513,0.165366068482399,0.0813507884740829,-0.4437389373779297,-0.0036341967061161,0.1386057436466217,0.0,0.0,0.2985439300537109,-0.4724487066268921
-0.0494332313537597,0.1553336679935455,0.0924289301037788,-0.4458827674388885,0.0034730031620711,0.1421442776918411,0.0,0.0,0.410033106803894,-0.8967770338058472
-0.0485285744071006,0.1455182880163192,0.081715203821659,-0.4362853169441223,0.0121111646294593,0.17276331782341,0.0,0.0,0.6509878635406494,-0.527721107006073
-0.0475543960928916,0.1365716606378555,0.0875767618417739,-0.3977336883544922,0.0218315701931715,0.1944078505039215,0.0,0.0,-0.0591736435890197,0.0889979600906372
-0.0465493202209472,0.1271936446428299,0.0908824279904365,-0.4169674217700958,0.0313318148255348,0.1900049000978469,0.0,0.0,0.7588224411010742,-0.4899461269378662
-0.0456729903817176,0.1186475604772567,0.0788694843649864,-0.380033403635025,0.0399900525808334,0.1731650233268737,0.0,0.0,0.4181718826293945,0.7384999990463257
-0.0446495041251182,0.1105796918272972,0.0951748713850975,-0.3587830662727356,0.0470741428434848,0.1416816562414169,0.0,0.0,0.0866432189941406,0.4428646564483642
-0.0436554923653602,0.1028165221214294,0.0926518887281417,-0.3452562391757965,0.0537498071789741,0.1335133016109466,0.0,0.0,-0.1086687445640564,0.2653235197067261
-0.0426331534981727,0.0946211889386177,0.095741719007492,-0.3644849956035614,0.0601725652813911,0.1284550726413726,0.0,0.0,0.7358227968215942,-0.4104074835777282
-0.0416406616568565,0.0867745503783226,0.0931360200047493,-0.3489964306354522,0.0662145391106605,0.1208396926522255,0.0,0.0,0.7836434841156006,0.1868622303009033
-0.0407899841666221,0.0794548392295837,0.079819731414318,-0.3255635499954223,0.0714076235890388,0.1038620620965957,0.0,0.0,0.4783626794815063,0.7410893440246582
-0.0400370582938194,0.0723922550678253,0.0720720887184143,-0.3140474855899811,0.0745991095900535,0.063829481601715,0.0,0.0,0.5387594699859619,0.8882285356521606
-0.0391282066702842,0.0659236311912536,0.0895829126238823,-0.2875612676143646,0.0758876651525497,0.0257711820304393,0.0,0.0,0.0124348402023315,-0.1218754649162292
-0.0381747260689735,0.059364590793848,0.0941604003310203,-0.2915740311145782,0.077067345380783,0.023593533784151,0.0,0.0,0.2917103767395019,-0.5289126634597778
-0.0371625907719135,0.0532783381640911,0.0989795327186584,-0.2706184685230255,0.079282596707344,0.0443051755428314,0.0,0.0,0.1079462766647338,-0.5092362761497498
-0.036226462572813,0.0475348345935344,0.0906798839569091,-0.2554244697093963,0.0821867287158966,0.0580827184021472,0.0,0.0,0.1329092979431152,-0.7040337920188904
-0.035262394696474,0.0422494523227214,0.0922361761331558,-0.2351370751857757,0.0863155275583267,0.0825759693980217,0.0,0.0,0.1679381132125854,0.6260870695114136
-0.0342041030526161,0.0371579751372337,0.103128507733345,-0.2264473885297775,0.0889891386032104,0.0534723997116088,0.0,0.0,-0.157660961151123,-0.523995578289032
-0.0331689827144146,0.0316332690417766,0.1000624150037765,-0.2457515895366668,0.0924154669046402,0.0685263201594352,0.0,0.0,0.5878950357437134,-0.2865952253341675
-0.0321277603507041,0.0268144458532333,0.1007025390863418,-0.2143865078687667,0.0958063155412674,0.0678169578313827,0.0,0.0,0.4927718639373779,-0.5165490508079529
-0.0310722347348928,0.0221840962767601,0.1012050360441207,-0.2060754150152206,0.1001190692186355,0.0862549617886543,0.0,0.0,0.5735940933227539,0.2373495101928711
-0.0301763527095317,0.017982468008995,0.0861023142933845,-0.1869759708642959,0.1035830900073051,0.0692801550030708,0.0,0.0,0.3260568380355835,0.797379732131958
-0.029362391680479,0.0139540052041411,0.0799666494131088,-0.1791437268257141,0.1050083488225936,0.028505090624094,0.0,0.0,0.4746823310852051,0.5691319704055786
-0.0285646431148052,0.0102465488016605,0.0798397436738014,-0.1647685915231704,0.1049369126558303,-0.0014287601225078,0.0,0.0,0.4562273025512695,-0.3508144617080688
-0.0278700832277536,0.0075667356140911,0.088431566953659,-0.1179486289620399,0.085897296667099,-0.381069928407669,0.0,1.0,0.3177388906478882,0.0002976655960083
-0.0271832458674907,0.0054628467187285,0.1016624346375465,-0.0921373665332794,0.0526811368763446,-0.6650747060775757,0.0,1.0,0.3414582014083862,-0.7572294473648071
-0.0264853481203317,0.0037459111772477,0.1007487773895263,-0.0755049660801887,0.022106921300292,-0.6114858388900757,0.0,1.0,0.0187122821807861,-0.6707878708839417
-0.0258339885622262,0.0023593520745635,0.0947367325425148,-0.0614455193281173,-0.0071161175146698,-0.5844610929489136,0.0,0.0,0.1547305583953857,-0.9537648558616638
-0.0251949317753314,0.0008676504949107,0.0918982475996017,-0.0666592046618461,-0.0347518287599086,-0.5527142882347107,1.0,0.0,0.0788931846618652,-0.7103520631790161
