x_pos,y_pos,x_vel,y_vel,angle,ang_vel,leg_1,leg_2,main_booster,lat_booster
-0.0014591217041015,1.4030017852783203,-0.1478306055068969,-0.3519226908683777,0.001709668082185,0.0337213017046451,0.0,0.0,-0.3329827189445495,0.6800222396850586
-0.0027956962585449,1.3944809436798096,-0.1338355243206024,-0.3787063062191009,0.0018956564599648,0.0037208218127489,0.0,0.0,-0.1541208028793335,0.0816016197204589
-0.0040671350434422,1.3853368759155271,-0.1273196637630462,-0.4064019322395324,0.0020608913619071,0.0033049981575459,0.0,0.0,0.4956862926483154,0.7995976209640503
-0.0053320885635912,1.3762458562850952,-0.1248267889022827,-0.4040442109107971,0.0004175031790509,-0.0328707322478294,0.0,0.0,-0.2341690063476562,0.7859585285186768
-0.0064568519592285,1.36653470993042,-0.1088895574212074,-0.4316100478172302,-0.0031336864922195,-0.0710304826498031,0.0,0.0,-0.0753009915351867,-0.2056727409362793
-0.0075164795853197,1.356201171875,-0.1023575440049171,-0.4592800438404083,-0.0067063774913549,-0.0714603811502456,0.0,0.0,0.5584983825683594,-0.4011566638946533
-0.008528709411621,1.346062421798706,-0.0974871143698692,-0.4506281912326813,-0.0104035846889019,-0.0739504322409629,0.0,0.0,-0.2125023007392883,0.603878378868103
-0.0094165802001953,1.335302233695984,-0.0835143402218818,-0.4782818853855133,-0.0156152369454503,-0.1042425259947776,0.0,0.0,0.3628363609313965,-0.7267147898674011
-0.0102967265993356,1.3249645233154297,-0.0841621905565261,-0.4595021605491638,-0.0194283295422792,-0.0762689337134361,0.0,0.0,-0.160351276397705,-0.2380897998809814
-0.01111183129251,1.3140040636062622,-0.077634759247303,-0.4871841669082641,-0.0232662577182054,-0.0767656415700912,0.0,0.0,-0.6297321915626526,-0.843244731426239
-0.0119189266115427,1.3024239540100098,-0.078251227736473,-0.5147162675857544,-0.0256960242986679,-0.0485993549227714,0.0,0.0,0.5423797369003296,-0.0447928309440612
-0.0125824930146336,1.290958046913147,-0.0641816481947898,-0.5096305012702942,-0.0278390701860189,-0.0428649708628654,0.0,0.0,-0.3079831004142761,-0.78905189037323
-0.0132298469543457,1.278875708580017,-0.0637793764472007,-0.5370165705680847,-0.0287808459252119,-0.0188374165445566,0.0,0.0,-0.6020957231521606,-0.799200177192688
-0.0138683319091796,1.2661656141281128,-0.0642907544970512,-0.5648834705352783,-0.0283467117697,0.0086838947609066,0.0,0.0,-0.8525037169456482,-0.6443735361099243
-0.014480972662568,1.252841234207153,-0.0626704543828964,-0.5921675562858582,-0.0269602015614509,0.0277330223470926,0.0,0.0,-0.6283519864082336,-0.6833723187446594
-0.0150733944028615,1.238888144493103,-0.0617372468113899,-0.6200982332229614,-0.024493021890521,0.0493482463061809,0.0,0.0,-0.5852328538894653,0.1428190469741821
-0.0156013490632176,1.224312424659729,-0.0552683174610137,-0.6477711200714111,-0.0220546964555978,0.048771109431982,0.0,0.0,-0.4854052662849426,-0.8860014081001282
-0.0161186214536428,1.2091084718704224,-0.0555208697915077,-0.6756804585456848,-0.0183026101440191,0.0750483572483062,0.0,0.0,-0.8083683252334595,-0.6474258899688721
-0.016614532098174,1.193289279937744,-0.0544496662914752,-0.7030169367790222,-0.0135021843016147,0.0960171073675155,0.0,0.0,-0.4805761575698852,-0.32272869348526
-0.0170465465635061,1.17684805393219,-0.0480206832289695,-0.7306914925575256,-0.0087324036285281,0.0954042449593544,0.0,0.0,-0.5788683295249939,-0.0145907998085021
-0.0174146648496389,1.1597843170166016,-0.0416051484644413,-0.7583659887313843,-0.003993319813162,0.094789795577526,0.0,0.0,-0.6399627923965454,0.3979110717773437
-0.0177190788090229,1.142098307609558,-0.0352047868072986,-0.7860404849052429,0.0007142823887988,0.0941608399152755,0.0,0.0,-0.0826417803764343,0.434592604637146
-0.017959976568818,1.12378990650177,-0.0288211796432733,-0.8137151598930359,0.0053900093771517,0.0935228988528251,0.0,0.0,0.5505684614181519,0.5216010808944702
-0.0180275924503803,1.1052937507629397,-0.0105855781584978,-0.8220732808113098,0.0091807516291737,0.0758214443922042,0.0,0.0,0.3109893798828125,0.4695039987564087
-0.0181493759155273,1.0869393348693848,-0.0154480412602424,-0.8157714605331421,0.0124164763838052,0.064720019698143,0.0,0.0,0.1377639770507812,0.2457565069198608
-0.0183143615722656,1.0686664581298828,-0.0192707069218158,-0.812156617641449,0.0151551747694611,0.0547739267349243,0.0,0.0,0.0413694381713867,0.3275009393692016
-0.0184211730957031,1.0504579544067385,-0.0134233515709638,-0.8093027472496033,0.0178723894059658,0.0543441474437713,0.0,0.0,-0.2901765704154968,-0.0091428160667419
-0.0184653289616107,1.0316267013549805,-0.0071402676403522,-0.836974024772644,0.0205570179969072,0.0536924228072166,0.0,0.0,-0.3603569865226745,0.7895262241363525
-0.0183984749019145,1.012181043624878,0.0052436664700508,-0.8642712831497192,0.0219786316156387,0.0284322313964366,0.0,0.0,0.6079511642456055,0.671295166015625
-0.0182494167238473,0.9928228855133056,0.0149097871035337,-0.860360324382782,0.0219848807901144,0.0001247611653525,0.0,0.0,-0.310896098613739,-0.3534078598022461
-0.0180387496948242,0.9728422164916992,0.0210935361683368,-0.888031005859375,0.0219586789608001,-0.0005239326274022,0.0,0.0,0.8924622535705566,0.1477348804473877
-0.017867088317871,0.9529887437820436,0.0176452435553073,-0.8823683857917786,0.0214878488332033,-0.0094166528433561,0.0,0.0,0.8563549518585205,-0.0246283411979675
-0.0177468303591012,0.93386048078537,0.0129726659506559,-0.8501322269439697,0.0205555278807878,-0.0186464507132768,0.0,0.0,0.0845692157745361,0.7209303379058838
-0.017561912536621,0.9144584536552428,0.0209602005779743,-0.8622795939445496,0.0181158669292926,-0.0487930066883564,0.0,0.0,0.870532751083374,-0.5803160071372986
-0.0173564907163381,0.8954994678497314,0.0218247193843126,-0.8426087498664856,0.0168520305305719,-0.025276780128479,0.0,0.0,0.5101053714752197,0.0547242164611816
-0.0170868877321481,0.8769552111625671,0.0281892605125904,-0.8241801857948303,0.0156330559402704,-0.0243794620037078,0.0,0.0,0.1392416954040527,0.4552050828933716
-0.0167819019407033,0.8582586646080017,0.0318555273115634,-0.830940842628479,0.0142984939739108,-0.0266913417726755,0.0,0.0,0.1505708694458007,0.3284350633621216
-0.016400147229433,0.8397352695465088,0.039437785744667,-0.823250412940979,0.0130548030138015,-0.0248738881200552,0.0,0.0,0.2898099422454834,-0.122887372970581
-0.0160006526857614,0.8215753436088562,0.0413902401924133,-0.8070962429046631,0.011637439019978,-0.0283472929149866,0.0,0.0,-0.5107949376106262,0.3154878616333008
-0.0155448913574218,0.8027927279472351,0.0470451787114143,-0.8347671031951904,0.010188709013164,-0.0289746467024087,0.0,0.0,0.022536277770996,-0.0640357732772827
-0.0151046756654977,0.7841094136238098,0.0458225421607494,-0.8303553462028503,0.0084030898287892,-0.0357122272253036,0.0,0.0,0.1559525728225708,0.1257636547088623
-0.0145269390195608,0.7653540968894958,0.0592140033841133,-0.8335624933242798,0.0069860527291893,-0.0283407606184482,0.0,0.0,-0.3301854133605957,-0.5015007853507996
-0.0139290811493992,0.7459704279899597,0.0604013092815876,-0.8614992499351501,0.0063749053515493,-0.0122229484841227,0.0,0.0,0.0230662822723388,0.5418643951416016
-0.0131697654724121,0.7264549136161804,0.0775663256645202,-0.8673452734947205,0.0047627016901969,-0.0322443023324012,0.0,0.0,0.1782606840133667,-0.3872370719909668
-0.0123895648866891,0.7066317796707153,0.0798223167657852,-0.8810234069824219,0.0029864909593015,-0.0355240814387798,0.0,0.0,0.1849046945571899,-0.7121610045433044
-0.0115796085447072,0.6865382194519043,0.0813425779342651,-0.8930471539497375,0.0026414026506245,-0.0069017400965094,0.0,0.0,0.7603527307510376,-0.4016563892364502
-0.0106578823179006,0.6665365099906921,0.0922457724809646,-0.888962984085083,0.0025680086109787,-0.0014679396990686,0.0,0.0,0.4630545377731323,-0.5701690912246704
-0.0098446849733591,0.6470253467559814,0.0805239006876945,-0.8671656847000122,0.0033510692883282,0.0156612079590559,0.0,0.0,0.3084685802459717,-0.6855709552764893
-0.0091602327302098,0.6278330683708191,0.0664905756711959,-0.8529954552650452,0.0052837333641946,0.0386533662676811,0.0,0.0,0.3341418504714966,0.0901188850402832
-0.0084521295502781,0.6086342334747314,0.0689558312296867,-0.8532900214195251,0.0071102152578532,0.0365298762917518,0.0,0.0,0.7583639621734619,-0.3718487024307251
-0.0075548170134425,0.5897260904312134,0.0871853604912757,-0.8403752446174622,0.0096165724098682,0.0501271486282348,0.0,0.0,0.5720822811126709,0.1007609367370605
-0.0066804885864257,0.5712460875511169,0.0851848721504211,-0.8213487267494202,0.0118440072983503,0.0445485636591911,0.0,0.0,0.6305481195449829,-0.4616948366165161
-0.0056670187041163,0.552803635597229,0.0986130312085151,-0.8196897506713867,0.0145460087805986,0.0540399476885795,0.0,0.0,0.7841606140136719,-0.7987122535705566
-0.0046916007995605,0.5350368618965149,0.0932161659002304,-0.7896839380264282,0.0188199300318956,0.0854786187410354,0.0,0.0,0.1237815618515014,0.3390063047409057
-0.003589725587517,0.517147958278656,0.1054118499159812,-0.7951290607452393,0.0235403664410114,0.0944084748625755,0.0,0.0,0.7794317007064819,0.1876651048660278
-0.0025738715194165,0.4993941485881805,0.0972994416952133,-0.7891312837600708,0.0277635864913463,0.0844646915793418,0.0,0.0,0.2504045963287353,-0.0024304986000061
-0.0014779090415686,0.481925368309021,0.1050068363547325,-0.7764803767204285,0.0322962068021297,0.0906525030732154,0.0,0.0,0.5250148773193359,-0.0767815709114074
-0.0002518653927836,0.4647738933563232,0.1174347847700119,-0.7624095678329468,0.0373997688293457,0.1020712479948997,0.0,0.0,0.823493480682373,-0.0232223868370056
0.0010422706836834,0.4483669400215149,0.1238840669393539,-0.7293468117713928,0.0428679920732975,0.1093641966581344,0.0,0.0,0.5147526264190674,-0.2012073993682861
0.0022523880470544,0.4324128627777099,0.1158162206411361,-0.709224283695221,0.0479979589581489,0.1025993600487709,0.0,0.0,0.0083347558975219,-0.0631875991821289
0.0034960745833814,0.4161775112152099,0.1190424188971519,-0.7217519283294678,0.0532589666545391,0.1052200943231582,0.0,0.0,0.5390645265579224,-0.1251759529113769
0.0046215057373046,0.4002911746501922,0.1076713651418685,-0.7062409520149231,0.0580761283636093,0.0963432639837265,0.0,0.0,0.489126443862915,0.3255760669708252
0.0058374404907226,0.3844902515411377,0.1162114366889,-0.7024787664413452,0.0633983388543129,0.1064442992210388,0.0,0.0,0.5738037824630737,0.4269647598266601
0.0070417402312159,0.3689433634281158,0.1149520874023437,-0.691213846206665,0.0688163414597511,0.1083600744605064,0.0,0.0,0.8830876350402832,0.5567662715911865
0.0082676885649561,0.353459358215332,0.1182179078459739,-0.688386857509613,0.0731474831700325,0.0866227895021438,0.0,0.0,0.8963642120361328,0.5352107286453247
0.0093318941071629,0.3383561670780182,0.1035667285323143,-0.6713944673538208,0.0759702548384666,0.0564558021724224,0.0,0.0,0.856476902961731,0.013525366783142
0.0103397369384765,0.3240715861320495,0.0978184789419174,-0.6350239515304565,0.0789023116230964,0.0586411766707897,0.0,0.0,0.793734073638916,-0.021141767501831
0.0114005086943507,0.3096498847007751,0.1026965975761413,-0.6411474943161011,0.0822462439537048,0.0668786913156509,0.0,0.0,0.8626117706298828,0.134253978729248
0.012398337945342,0.2960482239723205,0.0962630212306976,-0.6047142744064331,0.0857326462864875,0.0697280466556549,0.0,0.0,0.5057594776153564,0.539250373840332
0.0132923126220703,0.28246009349823,0.0871869325637817,-0.6040433049201965,0.0879198759794235,0.0437443926930427,0.0,0.0,0.7654933929443359,0.1828532218933105
0.0140043254941701,0.2693177461624145,0.0694473534822464,-0.5842094421386719,0.0896583795547485,0.0347701050341129,0.0,0.0,0.5953695774078369,0.8129358291625977
0.0147356986999511,0.2564652562141418,0.072951465845108,-0.5712334513664246,0.0898380354046821,0.0035930469166487,0.0,0.0,0.8601715564727783,0.2115817070007324
0.0152105335146188,0.2443912327289581,0.047980822622776,-0.5365947484970093,0.0893554538488388,-0.0096515920013189,0.0,0.0,0.9707822799682616,0.5285667181015015
0.0157285686582326,0.2327418625354766,0.0530670769512653,-0.517677903175354,0.0881068110466003,-0.0249730162322521,0.0,0.0,0.8811156749725342,-0.1518821120262146
0.0161372181028127,0.2211301177740097,0.0422816835343837,-0.5159922242164612,0.0866924822330474,-0.0282864067703485,0.0,0.0,0.963447093963623,0.254703164100647
0.0165581703186035,0.2094837576150894,0.0431346893310546,-0.517560601234436,0.0856654196977615,-0.0205412209033966,0.0,0.0,0.9779938459396362,0.306504487991333
0.0168696399778127,0.1978171467781067,0.032349731773138,-0.5184445977210999,0.0844782069325447,-0.0237446036189794,0.0,0.0,0.9810343980789183,0.3076012134552002
0.0170516967773437,0.1869483292102813,0.0194335225969553,-0.4829886257648468,0.0832606926560401,-0.0243499148637056,0.0,0.0,0.9779973030090332,0.6832501888275146
0.0172674171626567,0.1769433319568634,0.0238872524350881,-0.4445385634899139,0.0809596553444862,-0.0460206642746925,0.0,0.0,0.9646718502044678,-0.6619803309440613
0.0171658508479595,0.1677519381046295,-0.0088034672662615,-0.4084367156028747,0.079622283577919,-0.0267473962157964,0.0,0.0,0.9093222618103028,0.6590406894683838
0.0168808940798044,0.1584905982017517,-0.0254266206175088,-0.4114537835121155,0.0765841528773307,-0.0607625357806682,0.0,0.0,0.9380414485931396,0.8032355308532715
0.0165926925837993,0.1500141769647598,-0.0242714006453752,-0.3765047490596771,0.0720766708254814,-0.0901497080922126,0.0,0.0,0.5928924083709717,0.033361792564392
0.0161187164485454,0.141735091805458,-0.0424096547067165,-0.3677287399768829,0.0671389549970626,-0.0987546741962432,0.0,0.0,0.6492435932159424,0.7824434041976929
0.0155508993193507,0.1338499635457992,-0.0501206219196319,-0.3501658141613006,0.0605538189411163,-0.1317028105258941,0.0,0.0,-0.3277416229248047,0.72194504737854
0.0149876596406102,0.1253517270088195,-0.0482568629086017,-0.3773932158946991,0.0525827370584011,-0.1594213843345642,0.0,0.0,0.1331096887588501,0.3200280666351318
0.0144108776003122,0.116834245622158,-0.0499185509979724,-0.37830451130867,0.0449124611914157,-0.1534055322408676,0.0,0.0,0.0529326200485229,-0.2417706251144409
0.0137859340757131,0.1080227941274643,-0.0548303425312042,-0.3914080560207367,0.03733691573143,-0.151511013507843,0.0,0.0,0.6269242763519287,-0.1657586097717285
0.0131830219179391,0.0991889536380767,-0.0530834570527076,-0.3924518823623657,0.0302093904465436,-0.1425503045320511,0.0,0.0,0.6102192401885986,-0.6056118011474609
0.0126149179413914,0.0905722677707672,-0.0512137487530708,-0.3828634321689605,0.0246815010905265,-0.1105577200651168,0.0,0.0,0.9096841812133788,-0.2013090848922729
0.0121403690427541,0.0820228904485702,-0.0426417626440525,-0.3799017369747162,0.0199255626648664,-0.0951185375452041,0.0,0.0,0.903062105178833,0.0219645500183105
0.0115848537534475,0.0741487815976142,-0.0507234521210193,-0.3499028980731964,0.0151665210723876,-0.0951807871460914,0.0,0.0,0.922882318496704,0.111325979232788
0.0109942434355616,0.0669773444533348,-0.0544386617839336,-0.3186901807785034,0.0106015484780073,-0.0912995114922523,0.0,0.0,0.8231320381164551,-0.577119767665863
0.0104384422302246,0.0602914914488792,-0.0525429360568523,-0.297134518623352,0.0076103974133729,-0.0598231926560401,0.0,0.0,0.3682544231414795,0.405539870262146
0.0099051473662257,0.053389485925436,-0.0507262833416461,-0.3067429661750793,0.0050338851287961,-0.0515301711857318,0.0,0.0,0.7942612171173096,0.359468936920166
0.009252262301743,0.0466941930353641,-0.0624373257160186,-0.2975631654262543,0.0022220376413315,-0.0562370605766773,0.0,0.0,0.8276214599609375,0.617363452911377
0.0086865425109863,0.0408159345388412,-0.0527776889503002,-0.2612545788288116,-0.0015281041851267,-0.0750026404857635,0.0,0.0,0.4880642890930176,-0.3956738114356994
0.0080398563295602,0.0350842326879501,-0.0607922784984111,-0.2547500729560852,-0.0053461655043065,-0.0763612017035484,0.0,0.0,0.834270715713501,-0.0911410450935363
0.0071988105773925,0.0300561282783746,-0.0796208083629608,-0.2234954386949539,-0.0097738299518823,-0.0885535404086113,0.0,0.0,0.7628246545791626,0.3691704273223877
0.0063963891007006,0.0255210492759943,-0.0762132331728935,-0.2015876322984695,-0.0137421945109963,-0.0793675407767295,0.0,0.0,0.3362481594085693,0.1990671157836914
0.0054973601363599,0.0212747193872928,-0.0857137814164161,-0.1887709349393844,-0.0178809594362974,-0.082775242626667,0.0,0.0,0.6958661079406738,0.3517625331878662
0.004465103149414,0.0175611115992069,-0.0986717864871025,-0.1651137471199035,-0.0223824121057987,-0.0900289192795753,0.0,0.0,0.6694300174713135,0.6850416660308838
0.0034084320068359,0.0139765357598662,-0.0996941402554512,-0.1594116687774658,-0.0282761752605438,-0.1178754568099975,0.0,0.0,0.5274717807769775,0.4318063259124756
0.0021969794761389,0.0106082530692219,-0.1146952137351036,-0.1498380452394485,-0.0346384197473526,-0.1272449940443039,0.0,0.0,0.260657787322998,0.8200943470001221
0.0008704185602255,0.0072187636978924,-0.1244696229696273,-0.150855153799057,-0.0427251607179641,-0.1617350131273269,0.0,0.0,0.231002926826477,0.6647195816040039
-0.0003556251467671,0.0040049767121672,-0.1132444962859153,-0.1431284993886947,-0.0519705712795257,-0.1849084645509719,0.0,0.0,0.6793020963668823,0.8114348649978638
-0.0014054297935217,0.0014336323365569,-0.1130397468805313,-0.1140406504273414,-0.0439369417726993,0.1607616096735,1.0,0.0,0.7299939393997192,0.9331207275390624
-0.0020720481406897,3.115892468485981e-05,-0.0896288007497787,-0.061933483928442,-0.0208483375608921,0.4622963368892669,1.0,0.0,0.065326452255249,0.7383910417556763
-0.0026099204551428,-0.0009227418922819,-0.0849652662873268,-0.0422587767243385,0.009953792206943,0.6160770654678345,1.0,0.0,0.0270897150039672,0.9896771907806396
-0.0030899047851562,-0.0010117554338648,-0.0561324246227741,-0.0040513416752219,0.0179164707660675,0.1591601222753524,1.0,1.0,-0.4555795192718506,0.9996545314788818
-0.0035862922668457,-0.0011142158182337,-0.0383008532226085,-0.0044695292599499,0.0066692121326923,-0.2250160276889801,0.0,1.0,-0.2842018604278564,0.0979261398315429
-0.0039093969389796,-0.0011247301008552,-0.0323303267359733,-0.0004999644588679,0.0066796033643186,0.0002087199536617,1.0,1.0,-0.856257975101471,0.974442720413208
-0.0040701865218579,-0.001123228110373,-0.0160556845366954,4.400872785481624e-05,0.006678398232907,-2.0741752450703643e-05,1.0,1.0,-0.8220574259757996,0.6132376194000244
-0.0041046142578125,-0.0011227988870814,-0.0034411258529871,9.773642659638426e-07,0.0066782524809241,-4.756364830882376e-07,1.0,1.0,-0.8528513312339783,0.0204641819000244
-0.0041059493087232,-0.0010554576292634,0.0005572711816057,0.002980563789606,0.0060123563744127,-0.0133038787171244,1.0,1.0,-0.5013206601142883,0.2090833187103271
-0.0040903091430664,-0.0010542774107307,0.0016003627097234,4.2377225327072665e-05,0.0059874979779124,-0.0004820714239031,1.0,1.0,-0.7245954275131226,0.0976773500442504
-0.0040869712829589,-0.0010076784528791,0.0008250201353803,0.0020693300757557,0.0054938378743827,-0.0098691079765558,1.0,1.0,-0.9242298007011414,-0.0574079751968383
-0.0040858266875147,-0.0010068917181342,0.0001220107515109,2.8166519769001752e-05,0.0054917130619287,-3.932765685021877e-05,1.0,1.0,-0.8429747819900513,0.0792280435562133
-0.004092407412827,-0.0009570741676725,-0.0001666894677327,0.0022159323561936,0.0049970438703894,-0.009898068383336,1.0,1.0,-0.8102200031280518,0.0756803750991821
-999.0,-0.0009562873747199,-3.848776395898312e-05,3.0159792004269548e-05,0.0049974075518548,8.061963853833731e-06,1.0,1.0,-0.7821285128593445,0.062306523323059
-0.0040930747054517,-0.0009565019863657,-2.545609640947077e-05,-1.4809324966336137e-05,0.0049978354945778,9.15662258194061e-06,1.0,1.0,-0.8823893666267395,0.103363037109375
-0.0041028023697435,-0.0008709215908311,-0.0001883442309917,0.0037980838678777,0.0042261099442839,-0.01543531101197,1.0,1.0,-0.8831300139427185,0.1554141044616699
