x_pos,y_pos,x_vel,y_vel,angle,ang_vel,leg_1,leg_2,main_booster,lat_booster
-0.0015370368491858,1.4032797813415527,-0.1560226380825042,-0.3395747542381286,0.0020711449906229,0.0408781245350837,0.0,0.0,-0.2015825510025024,0.5419409275054932
-0.0030464171431958,1.3953152894973757,-0.1520988494157791,-0.3539808392524719,0.0032183749135583,0.0229474436491727,0.0,0.0,-0.2820017337799072,0.8197576999664307
-0.0045001031830906,1.3869998455047607,-0.1448277682065963,-0.3695723414421081,0.0026794855948537,-0.010778802447021,0.0,0.0,0.0588105916976928,0.7799296379089355
-0.00600948324427,1.3788173198699951,-0.1490592956542968,-0.363668292760849,0.0008328655967488,-0.0369358994066715,0.0,0.0,0.2093974351882934,0.6571594476699829
-0.0073937415145337,1.3710081577301023,-0.1357406079769134,-0.3470722138881683,-0.0018403669819235,-0.0534696765244007,0.0,0.0,0.2021145820617675,0.237767219543457
-0.0087138172239065,1.3634467124938965,-0.1300841122865677,-0.3360673785209656,-0.0037349348422139,-0.0378943942487239,0.0,0.0,-0.3212810754776001,0.2988185882568359
-0.0100740436464548,1.3555405139923096,-0.1344155967235565,-0.3513936698436737,-0.0053264517337083,-0.031833067536354,0.0,0.0,-0.2809754610061645,-0.0342227220535278
-0.0114784240722656,1.3472895622253418,-0.139136403799057,-0.3667163848876953,-0.0066120312549173,-0.0257144533097744,0.0,0.0,0.0251243114471435,0.7518091201782227
-0.0128766056150197,1.3394802808761597,-0.1373136192560196,-0.3470915555953979,-0.0090846037492156,-0.0494561865925788,0.0,0.0,-0.0232417583465576,0.8345212936401367
-0.01426019705832,1.3313305377960205,-0.1345102339982986,-0.3622409701347351,-0.0128975333645939,-0.0762655586004257,0.0,0.0,-0.6559695601463318,-0.3145066499710083
-0.015698242932558,1.3228360414505005,-0.1402706205844879,-0.3775629997253418,-0.0163981448858976,-0.0700182989239692,0.0,0.0,0.6174674034118652,0.3547991514205932
-0.0171161647886037,1.3147708177566528,-0.1389000862836837,-0.3584869503974914,-0.0192577317357063,-0.0571969971060752,0.0,0.0,-0.4150271415710449,0.4265563488006592
-0.0185945518314838,1.3063608407974243,-0.1452621519565582,-0.3738178610801697,-0.0218024346977472,-0.0508989095687866,0.0,0.0,-0.6719659566879272,0.7203972339630127
-0.0200728420168161,1.2975974082946775,-0.1439630389213562,-0.389553040266037,-0.025623308494687,-0.076424665749073,0.0,0.0,0.3421427011489868,0.8328827619552612
-0.021403694525361,1.289494514465332,-0.1280324459075927,-0.3602227866649627,-0.0306237041950225,-0.1000168547034263,0.0,0.0,-0.5544110536575317,0.1991951465606689
-0.022802447900176,1.281046748161316,-0.1351458877325058,-0.3755570650100708,-0.0353045687079429,-0.0936258435249328,0.0,0.0,-0.5832070112228394,0.5760271549224854
-0.0242152214050292,1.2722582817077637,-0.1354585587978363,-0.3907457292079925,-0.0410692542791366,-0.1153041943907737,0.0,0.0,-0.7712518572807312,0.7663736343383789
-0.0256256107240915,1.263114333152771,-0.1336299777030944,-0.4066184461116791,-0.0483943745493888,-0.1465155780315399,0.0,0.0,-0.5327479243278503,0.72044837474823
-0.027043629437685,1.253628134727478,-0.1330425143241882,-0.4219120144844055,-0.0570573024451732,-0.173274353146553,0.0,0.0,-0.5317177176475525,-0.0197086930274963
-0.0285370834171772,1.243797779083252,-0.1409264802932739,-0.4372419416904449,-0.0653967037796974,-0.1668028980493545,0.0,0.0,-0.6775155663490295,-0.2617670893669128
-0.0301077850162982,1.2336232662200928,-0.1489720344543457,-0.4525715410709381,-0.0734128057956695,-0.1603366583585739,0.0,0.0,-0.3323719501495361,0.2771817445755005
-0.0317569747567176,1.223104476928711,-0.1571664065122604,-0.4679006338119507,-0.0811050832271575,-0.1538594514131546,0.0,0.0,-0.7268060445785522,0.8306252956390381
-0.0334067344665527,1.212230563163757,-0.155520349740982,-0.4838212132453918,-0.0904837250709533,-0.1875893771648407,0.0,0.0,0.2208291292190551,0.7413942813873291
-0.0350006110966205,1.2013334035873413,-0.1488591134548187,-0.4849932491779327,-0.1009486690163612,-0.2093177735805511,0.0,0.0,-0.4820910692214966,0.5998611450195312
-0.0366406440734863,1.190088391304016,-0.152886301279068,-0.5005610585212708,-0.1120027601718902,-0.2211012095212936,0.0,0.0,0.2185934782028198,0.6543364524841309
-0.0383752807974815,1.1792677640914917,-0.1611726582050323,-0.4818872213363647,-0.1242195218801498,-0.2443350851535797,0.0,0.0,-0.5901135206222534,0.7132402658462524
-0.0401376709342002,1.1680978536605835,-0.16286201775074,-0.4976113140583038,-0.1375463902950287,-0.2665374279022217,0.0,0.0,-0.0940805673599243,-0.1272939443588256
-0.0419856086373329,1.156584858894348,-0.171750858426094,-0.5129450559616089,-0.1505535989999771,-0.2601440548896789,0.0,0.0,-0.4264712333679199,-0.1770491003990173
-0.0439197532832622,1.144728660583496,-0.1807216703891754,-0.5282776951789856,-0.163242757320404,-0.2537830770015716,0.0,0.0,-0.1836719512939453,0.4304120540618896
-0.0459410659968853,1.1325290203094482,-0.1897675991058349,-0.5436093807220459,-0.1756156831979751,-0.2474584281444549,0.0,0.0,0.137445330619812,-0.0295889973640441
-0.0479354858398437,1.1208434104919434,-0.187487855553627,-0.5208221077919006,-0.1876148879528045,-0.2399839609861374,0.0,0.0,0.1735420227050781,0.7630627155303955
-0.0499634742736816,1.109269380569458,-0.1896043270826339,-0.5161237120628357,-0.2008942514657974,-0.2655871510505676,0.0,0.0,0.3873107433319092,-0.7740799784660339
-0.0520812049508094,1.0983898639678955,-0.2003521621227264,-0.4851244986057281,-0.21241095662117,-0.2303337752819061,0.0,0.0,-0.690761148929596,0.2247453927993774
-0.0542883872985839,1.0871665477752686,-0.2096401005983352,-0.5004526376724243,-0.2236207276582718,-0.2241955250501632,0.0,0.0,-0.4489644765853882,-0.7401636242866516
-0.0566410049796104,1.075619339942932,-0.2259282320737838,-0.5146555304527283,-0.2330745756626129,-0.1890769302845001,0.0,0.0,0.5564830303192139,-0.5101150274276733
-0.0589402206242084,1.064778447151184,-0.2219805419445037,-0.4830902814865112,-0.2411475926637649,-0.1614599525928497,0.0,0.0,-0.4246280193328857,-0.5732294321060181
-0.0613769516348838,1.0536067485809326,-0.2372148334980011,-0.4975929856300354,-0.2477179020643234,-0.1314060539007187,0.0,0.0,-0.4312022924423218,0.8252546787261963
-0.0638370513916015,1.0420708656311035,-0.2381146699190139,-0.5140639543533325,-0.2557611465454101,-0.1608646959066391,0.0,0.0,0.407536506652832,-0.6180719137191772
-0.0662887543439865,1.0312706232070925,-0.238742783665657,-0.4811485409736633,-0.2623314559459686,-0.1314061135053634,0.0,0.0,-0.2027865648269653,-0.4771997928619385
-0.0688328742980957,1.0201250314712524,-0.2482579052448272,-0.4964684247970581,-0.2686152458190918,-0.1256756335496902,0.0,0.0,-0.2397148013114929,-0.611492395401001
-0.0715231895446777,1.0086616277694702,-0.2646036744117737,-0.5103017091751099,-0.2731537222862243,-0.0907695144414901,0.0,0.0,0.3180688619613647,0.8912544250488281
-0.0740178078413009,0.9973800778388976,-0.2436251193284988,-0.5025021433830261,-0.2791374325752258,-0.1196743622422218,0.0,0.0,0.6620628833770752,-0.2181613445281982
-0.0764245018362999,0.986167848110199,-0.2355612814426422,-0.4993135631084442,-0.2843958139419555,-0.1051678285002708,0.0,0.0,0.5127325057983398,-0.0083187222480773
-0.0787015929818153,0.9752686619758606,-0.2232658565044403,-0.485281378030777,-0.2889654338359833,-0.0913925096392631,0.0,0.0,-0.3638179898262024,0.0112563371658325
-0.0810722336173057,0.964024007320404,-0.2328850328922271,-0.5005993843078613,-0.29327192902565,-0.0861304849386215,0.0,0.0,0.8392167091369629,0.3560291528701782
-0.0833802223205566,0.9529456496238708,-0.2270961999893188,-0.4931164383888244,-0.297084242105484,-0.0762465074658393,0.0,0.0,0.2719042301177978,0.433772325515747
-0.0856364220380783,0.9419946670532228,-0.2223875820636749,-0.4873766303062439,-0.3004273772239685,-0.0668627843260765,0.0,0.0,-0.5220628976821899,0.1466953754425048
-0.0879867523908615,0.9306980967521667,-0.2320406138896942,-0.5026940703392029,-0.3035244941711426,-0.0619421079754829,0.0,0.0,0.0860477685928344,0.1801267862319946
-0.0903596878051757,0.9198366403579712,-0.2341468781232834,-0.483394593000412,-0.3067852258682251,-0.0652145072817802,0.0,0.0,-0.7567832469940186,0.5784788131713867
-0.0927855521440506,0.9086081385612488,-0.2385590821504593,-0.4998994469642639,-0.3109509944915771,-0.0833156332373619,0.0,0.0,-0.7167734503746033,0.0986635684967041
-0.095305822789669,0.8970341086387634,-0.2482282668352127,-0.515217661857605,-0.3148900866508484,-0.0787816196680069,0.0,0.0,-0.8242816925048828,0.1430220603942871
-0.0979207009077072,0.8851146697998047,-0.2578988373279571,-0.530535876750946,-0.3186094164848327,-0.0743864253163337,0.0,0.0,-0.4848613739013672,0.5697259902954102
-0.100580409169197,0.8728219866752625,-0.2612828612327575,-0.5473848581314087,-0.3234929144382477,-0.0976701900362968,0.0,0.0,0.9650299549102784,0.5675249099731445
-0.1029857620596885,0.8615149855613708,-0.2349599152803421,-0.503791868686676,-0.3293129503726959,-0.1164005175232887,0.0,0.0,0.903895616531372,0.7993648052215576
-0.1050681099295616,0.8505362272262573,-0.2016539573669433,-0.4894585311412811,-0.3361822962760925,-0.1373867988586425,0.0,0.0,-0.7810988426208496,-0.1628642082214355
-0.1072450652718544,0.8392125964164734,-0.2113132178783416,-0.5047796368598938,-0.3428618907928467,-0.1335921734571457,0.0,0.0,-0.0078180432319641,0.3466305732727051
-0.109516717493534,0.8275437355041504,-0.220964640378952,-0.5201007127761841,-0.349359780550003,-0.1299579590559005,0.0,0.0,-0.0645038485527038,0.198329210281372
-0.1118828803300857,0.8155298829078674,-0.2306063622236251,-0.5354217290878296,-0.3556841611862182,-0.1264875829219818,0.0,0.0,0.5390141010284424,-0.3956196308135986
-0.1140113845467567,0.8042129874229431,-0.2073071300983429,-0.5043531656265259,-0.3615213930606842,-0.1167448610067367,0.0,0.0,0.4204119443893432,0.5731899738311768
-0.1160185784101486,0.7935175895690918,-0.1940923929214477,-0.4770407080650329,-0.3685274422168731,-0.1401211321353912,0.0,0.0,0.7801120281219482,-0.4026745557785034
-999.0,0.7830057740211487,-0.184414729475975,-0.4688118100166321,-0.375130146741867,-0.1320538073778152,0.0,0.0,0.4964876174926758,-0.5771081447601318
-0.1198260337114334,0.7731173634529114,-0.1849254816770553,-0.4408502280712127,-0.3806234896183014,-0.1098666340112686,0.0,0.0,0.7512571811676025,-0.6930845379829407
-0.1215367317199707,0.7635968923568726,-0.1676627546548843,-0.4240471720695495,-0.3842469751834869,-0.0724694654345512,0.0,0.0,0.9660751819610596,-0.7289195656776428
-0.123092845082283,0.7547616362571716,-0.1538067162036895,-0.3931693434715271,-0.3861725628376007,-0.0385125167667865,0.0,0.0,0.9644222259521484,-0.8110241889953613
-0.1246148124337196,0.7462679743766785,-0.1520686447620391,-0.3775266110897064,-0.3862975537776947,-0.0024997775908559,0.0,0.0,0.936120629310608,-0.9148390889167786
-0.1261840760707855,0.7385227084159851,-0.1584104150533676,-0.3438272476196289,-0.3847123980522156,0.0317032523453235,0.0,0.0,0.9843111038208008,-0.8295806050300598
-0.1274929046630859,0.7318913340568542,-0.1341438889503479,-0.2938585877418518,-0.3812490999698639,0.0692655146121978,0.0,0.0,0.9749399423599244,-0.9236225485801696
-0.128735065460205,0.7253715991973877,-0.1295150816440582,-0.2883562743663788,-0.3756130635738373,0.1127206087112426,0.0,0.0,0.9602371454238892,-0.9312055706977844
-0.1297309845685959,0.7199513912200928,-0.1068682223558425,-0.2390019446611404,-0.3679038882255554,0.1541836857795715,0.0,0.0,0.9027328491210938,-0.731334388256073
-0.1307874619960785,0.71504145860672,-0.1141761541366577,-0.2160563319921493,-0.3588889837265014,0.1802979409694671,0.0,0.0,0.3816230297088623,-0.6482447385787964
-0.1318635046482086,0.7106565237045288,-0.1173475235700607,-0.1924739480018615,-0.3486281633377075,0.2052165269851684,0.0,0.0,0.3229761123657226,-0.1525663137435913
-0.1328378617763519,0.7066180109977722,-0.1073928475379943,-0.1771130859851837,-0.3381973803043365,0.2086154520511627,0.0,0.0,-0.5144577622413635,0.0529675483703613
-0.1339037865400314,0.7022358179092407,-0.1166237592697143,-0.1924429684877395,-0.3277182877063751,0.2095824480056762,0.0,0.0,-0.2615699768066406,-0.1222641468048095
-0.1350606977939605,0.6975101232528687,-0.1258038282394409,-0.207773208618164,-0.3171983659267425,0.2103983908891677,0.0,0.0,-0.927772045135498,-0.7818456888198853
-0.136371225118637,0.6924658417701721,-0.1428493857383728,-0.2216560989618301,-0.3049676120281219,0.2446152716875076,0.0,0.0,-0.7707163691520691,0.3808389902114868
-0.137771800160408,0.6870786547660828,-0.1519174575805664,-0.2369900196790695,-0.2927106916904449,0.2451383769512176,0.0,0.0,-0.6828499436378479,0.0768916606903076
-0.1392617225646972,0.6813485026359558,-0.1609223335981369,-0.2523242235183716,-0.280434638261795,0.2455210238695144,0.0,0.0,-0.8132992386817932,0.5901021957397461
-0.140795424580574,0.675261378288269,-0.1642062813043594,-0.2684974670410156,-0.2693218290805816,0.2222566157579422,0.0,0.0,0.3666150569915771,-0.8542345762252808
-0.1422286033630371,0.6698121428489685,-0.1559722870588302,-0.2399145513772964,-0.2563888430595398,0.2586599588394165,0.0,0.0,-0.9693828225135804,0.5811502933502197
-0.1437122374773025,0.664011538028717,-0.1601176261901855,-0.2557936608791351,-0.2444078773260116,0.2396192550659179,0.0,0.0,-0.8997557759284973,0.7542550563812256
-0.1452386826276779,0.6578434705734253,-0.1632380783557891,-0.2724128067493438,-0.2336365729570388,0.215426355600357,0.0,0.0,-0.3278067111968994,-0.348025918006897
-0.146850973367691,0.6513321995735168,-0.1718522012233734,-0.2877451777458191,-0.2228784710168838,0.2151620686054229,0.0,0.0,-0.7545469999313354,0.710059642791748
-0.1485031098127365,0.6444621682167053,-0.1746512949466705,-0.3039445877075195,-0.2133291512727737,0.1909859627485275,0.0,0.0,0.121370792388916,0.8053410053253174
-0.1501214057207107,0.6379196047782898,-0.1696397960186004,-0.2896783649921417,-0.2054473161697387,0.1576370298862457,0.0,0.0,-0.9151411056518556,0.6080843210220337
-0.1517765074968338,0.6310214996337891,-0.1721123158931732,-0.3056766092777252,-0.198791891336441,0.1331085413694381,0.0,0.0,-0.6663980484008789,0.061775803565979
-0.1535138189792633,0.6237794160842896,-0.1803076565265655,-0.3210034370422363,-0.1921722143888473,0.1323933452367782,0.0,0.0,0.0694583654403686,0.4632267951965332
-0.1552747786045074,0.6165151000022888,-0.1827134937047958,-0.3220166265964508,-0.1855225563049316,0.1329932212829589,0.0,0.0,-0.2881990075111389,0.8329367637634277
-0.1570417433977127,0.6088795065879822,-0.1813500225543975,-0.338784247636795,-0.1808516085147857,0.0934190526604652,0.0,0.0,-0.6207363605499268,0.3961209058761596
-0.1588872969150543,0.6008995175361633,-0.1891583502292633,-0.3541094362735748,-0.1762314587831497,0.0924028977751731,0.0,0.0,-0.9634302854537964,0.9506874084472656
-0.1607198715209961,0.5925436019897461,-0.1854592263698578,-0.3711128532886505,-0.1740184277296066,0.0442603752017021,0.0,0.0,-0.5400169491767883,0.9919511079788208
-0.1625507324934005,0.5838300585746765,-0.1832752525806427,-0.3872469067573547,-0.1738304942846298,0.0037586414255201,0.0,0.0,-0.7515708208084106,0.9857256412506104
-0.1643741577863693,0.5747580528259277,-0.1804009526968002,-0.4034298360347748,-0.1757795959711074,-0.0389817766845226,0.0,0.0,-0.3017122745513916,-0.232163667678833
-0.1662700623273849,0.5653415322303772,-0.1875806003808975,-0.4187537431716919,-0.1777972728013992,-0.0403536334633827,0.0,0.0,-0.9287075996398926,0.9711143970489502
-0.1681497544050216,0.5555467009544373,-0.1836184561252594,-0.4358524084091186,-0.1821672618389129,-0.0873998552560806,0.0,0.0,-0.9659027457237244,0.4452931880950928
-0.1700983941555023,0.5454075932502747,-0.1904319524765014,-0.4511777758598327,-0.186613842844963,-0.0889314338564872,0.0,0.0,-0.7157089114189148,-0.2069859504699707
-0.1721138954162597,0.5349242687225342,-0.197048619389534,-0.4665032625198364,-0.1911407858133316,-0.0905386283993721,0.0,0.0,-0.8764193058013916,0.9911141395568848
-0.1741205155849456,0.524074912071228,-0.1941731870174408,-0.4830425083637237,-0.1976646482944488,-0.1304775923490524,0.0,0.0,-0.7080228328704834,-0.2576892971992492
-0.1761898100376129,0.5128816366195679,-0.200369507074356,-0.4983700513839721,-0.2042760103940963,-0.1322272717952728,0.0,0.0,-0.2364004850387573,-0.1755290627479553
-0.1783197373151779,0.5013444423675537,-0.2063417732715606,-0.5136978030204773,-0.2109782099723816,-0.1340443044900894,0.0,0.0,-0.8263891935348511,-0.1664673089981079
-0.1805077493190765,0.4894633889198303,-0.2120811641216278,-0.5290257334709167,-0.2177745252847671,-0.1359259188175201,0.0,0.0,0.4619473218917846,0.6022148132324219
-0.18263940513134,0.4782235026359558,-0.2049737274646759,-0.5007749795913696,-0.2260491847991943,-0.1654930859804153,0.0,0.0,-0.3681945204734802,0.3317317962646484
-0.1848241835832595,0.4666400849819183,-0.2102222442626953,-0.5161051154136658,-0.2344239801168441,-0.1674958318471908,0.0,0.0,-0.7773011922836304,0.9689388275146484
-0.1869996041059494,0.4546928703784942,-0.2076497077941894,-0.5325952172279358,-0.2444766908884048,-0.2010545283555984,0.0,0.0,-0.8418151140213013,0.7964787483215332
-0.1891776025295257,0.4423838853836059,-0.2066457718610763,-0.5489632487297058,-0.2558431327342987,-0.2273291051387787,0.0,0.0,-0.8725844025611877,-0.3205606341361999
-0.1914009153842926,0.4297321736812591,-0.2110998332500457,-0.564298689365387,-0.2673178613185882,-0.2294939011335373,0.0,0.0,-0.6855884194374084,-0.4267034530639648
-0.1936666518449783,0.416737824678421,-0.215274766087532,-0.579634428024292,-0.2789032459259033,-0.2317079752683639,0.0,0.0,-0.5569834113121033,-0.6779409050941467
-0.196010023355484,0.403422474861145,-0.223983496427536,-0.5938069224357605,-0.2895527482032776,-0.212990328669548,0.0,0.0,0.2372807264328003,-0.7843179702758789
-0.1983009278774261,0.3906404972076416,-0.2201796025037765,-0.5698819756507874,-0.2987365424633026,-0.1836767345666885,0.0,0.0,0.2487801313400268,-0.5766882300376892
-0.200364351272583,0.3784151375293731,-0.198693960905075,-0.5449377298355103,-0.3066369593143463,-0.1580085456371307,0.0,0.0,0.9257019758224488,-0.7971574664115906
-0.2022222578525543,0.3667968809604645,-0.179813727736473,-0.5176414251327515,-0.3128275573253631,-0.1238118186593055,0.0,0.0,0.8785841464996338,-0.8395630717277527
-0.2038920819759369,0.3562023043632507,-0.1625434160232544,-0.4718343913555145,-0.3174363970756531,-0.0921769142150878,0.0,0.0,0.9805300235748292,-0.3591739535331726
-0.2052231281995773,0.3465751111507416,-0.1288814693689346,-0.4288085401058197,-0.321831464767456,-0.0879011526703834,0.0,0.0,0.95517897605896,-0.9239886999130248
-0.2063748836517334,0.3373562395572662,-0.1128262057900428,-0.4102556407451629,-0.3242807984352112,-0.0489865317940712,0.0,0.0,0.97557270526886,-0.5505838990211487
-0.2074979245662689,0.3289399743080139,-0.1104826927185058,-0.3744623064994812,-0.3261782526969909,-0.0379490032792091,0.0,0.0,0.9279932975769044,-0.7769444584846497
-0.2086570709943771,0.3211388885974884,-0.1151508465409278,-0.3468885719776153,-0.32697194814682,-0.0158738680183887,0.0,0.0,0.8069428205490112,-0.0155176520347595
-0.2096534222364425,0.3138806819915771,-0.0986472219228744,-0.3228089213371277,-0.328001856803894,-0.02059793099761,0.0,0.0,0.61557936668396,-0.6155183911323547
-0.2105117738246917,0.3070281147956848,-0.0859865099191665,-0.3045239448547363,-0.3278402388095855,0.0032323603518307,0.0,0.0,0.872782826423645,-0.6543091535568237
-0.2111451178789138,0.3003525733947754,-0.0650228187441825,-0.2963104546070099,-0.3260821998119354,0.0351606085896492,0.0,0.0,0.965003252029419,-0.7586426138877869
-0.2114587724208831,0.2944599986076355,-0.0346938110888004,-0.2611449658870697,-0.3226146399974823,0.0693511143326759,0.0,0.0,0.8311583995819092,-0.008483350276947
-0.2114636898040771,0.2894820272922516,-0.0038237352855503,-0.2205042690038681,-0.3191480338573456,0.0693328455090522,0.0,0.0,0.7996671199798584,-0.5617362260818481
