x_pos,y_pos,x_vel,y_vel,angle,ang_vel,leg_1,leg_2,main_booster,lat_booster
-0.0015662193764001,1.4031959772109983,-0.1586457788944244,-0.3432936370372772,0.0018201858038082,0.035908855497837,0.0,0.0,0.5085918293775682,-0.9480617099455771
-0.0031966208480298,1.3956937789916992,-0.1668295562267303,-0.3334392607212066,0.0055590085685253,0.0747843459248542,0.0,0.0,0.9062941747756272,-0.6969077738535415
-0.0047611235640943,1.388458013534546,-0.1620905101299286,-0.3216262757778168,0.0111364163458347,0.111558698117733,0.0,0.0,0.5498205593593548,-0.8761037580316429
-0.0065679550170898,1.38149094581604,-0.1879142969846725,-0.3097166121006012,0.0182822961360216,0.1429309397935867,0.0,0.0,-0.2790648695879538,0.8989284995292119
-0.0083320615813136,1.3741012811660769,-0.1814873218536377,-0.3285101056098938,0.0233033299446105,0.100430354475975,0.0,0.0,0.7039025777128627,0.6390630696892636
-0.0099488254636526,1.3671293258666992,-0.1659132987260818,-0.3099322319030761,0.0274883899837732,0.083709105849266,0.0,0.0,0.0643113352941953,0.6847458462636125
-0.0115815158933401,1.3602885007858276,-0.1661455482244491,-0.304097980260849,0.0303417984396219,0.0570731870830059,0.0,0.0,0.4182733956237967,0.7678490523130233
-0.0130702015012502,1.3538633584976196,-0.1505035459995269,-0.2855966985225677,0.0319574140012264,0.0323152132332325,0.0,0.0,0.1859806201003808,0.5907770312986687
-0.0145840644836425,1.3479185104370115,-0.1518732011318206,-0.2642282247543335,0.0324368216097354,0.0095893014222383,0.0,0.0,0.1172708657086532,0.6809597323802149
-0.0161036495119333,1.3422882556915283,-0.1511370241641998,-0.2502113878726959,0.0316236689686775,-0.0162645243108272,0.0,0.0,0.7430508039126904,-0.6666832088302681
-0.0176398269832134,1.3371726274490356,-0.1544365435838699,-0.2273814976215362,0.032437440007925,0.0162768494337797,0.0,0.0,-0.0461212349243034,0.6237675187167114
-0.019163703545928,1.3316296339035034,-0.1518795639276504,-0.2463379353284835,0.0319361537694931,-0.010026529431343,0.0,0.0,0.4032898283133641,0.853226321000083
-0.0205567367374897,1.326562762260437,-0.1373226940631866,-0.2251528054475784,0.0299737267196178,-0.0392522513866424,0.0,0.0,0.5670660725803471,-0.6472335955198336
-0.0219820030033588,1.3215672969818115,-0.14207723736763,-0.2220129370689392,0.0295360554009675,-0.0087542552500963,0.0,0.0,0.335505583689319,0.6373591933785778
-0.02329340018332,1.3171570301055908,-0.1297496259212494,-0.1959895938634872,0.0281566381454467,-0.027591049671173,0.0,0.0,-0.7353785702548217,-0.9939536007405348
-0.0247111320495605,1.3123037815093994,-0.1421011090278625,-0.215708926320076,0.0284811407327651,0.0064906305633485,0.0,0.0,-0.000710572519897,-0.8958486488594006
-0.0262259487062692,1.307030200958252,-0.1532916724681854,-0.2344149947166443,0.0302687883377075,0.035756055265665,0.0,0.0,0.8122431091648199,-0.5083117642358574
-0.0276699066162109,1.3019459247589111,-0.1478230655193328,-0.226041093468666,0.0336582772433757,0.0677959397435188,0.0,0.0,-0.0313200027791011,0.6512315129981963
-0.0290966033935546,1.2964423894882202,-0.1446817964315414,-0.2446496784687042,0.0356479659676551,0.0397975854575634,0.0,0.0,-0.956333206226026,0.7636953326892306
-0.0305131915956735,1.2905129194259644,-0.1424543559551239,-0.2635522782802582,0.0364336036145687,0.0157143212854862,0.0,0.0,0.0268394942615119,0.7196306527974168
-0.0318408012390136,1.284868836402893,-0.1322963684797287,-0.2508356273174286,0.0359702706336975,-0.0092674195766448,0.0,0.0,0.7751484492929159,-0.864876544725939
-0.0332817062735557,1.2795010805130005,-0.1455104649066925,-0.2386015802621841,0.037371527403593,0.0280278287827968,0.0,0.0,-0.5166460199840461,0.6760071237588838
-0.0346996299922466,1.2737075090408323,-0.1416740119457245,-0.2574870884418487,0.0372630879282951,-0.0021689601708203,0.0,0.0,0.5637585032044048,0.865875880530726
-0.0360273346304893,1.2679269313812256,-0.1311706751585006,-0.2568773031234741,0.0356724336743354,-0.0318158343434333,0.0,0.0,-0.3089261157231877,-0.6591893664372079
-0.0374611839652061,1.2617162466049194,-0.1435466408729553,-0.2760361731052398,0.0358373522758483,0.0032985475845634,0.0,0.0,0.5310931718550846,0.8585142599232458
-0.0390428528189659,1.256034016609192,-0.1565396040678024,-0.2525104284286499,0.0342218615114688,-0.0323096849024295,0.0,0.0,0.4905561130378386,0.6688429944586213
-0.0406317710876464,1.25091290473938,-0.1560612320899963,-0.2275390028953552,0.031427651643753,-0.055884264409542,0.0,0.0,-0.873207565697957,-0.5759003852300579
-0.0423174872994422,1.2453669309616089,-0.1672995388507843,-0.2464616745710373,0.0301761459559202,-0.0250302366912364,0.0,0.0,0.630730780131604,-0.7372021778999736
-0.0442669875919818,1.2405359745025637,-0.195049375295639,-0.2147118300199508,0.0302658770233392,0.0017949717584997,0.0,0.0,-0.6759197404220947,-0.557133156399384
-0.0463029853999614,1.2352725267410278,-0.205015942454338,-0.2339624613523483,0.0316608026623725,0.0278986487537622,0.0,0.0,0.7574575946446165,-0.6455480956124338
-0.048437975347042,1.2309367656707764,-0.2164264917373657,-0.1927618086338043,0.0345534421503543,0.057852815836668,0.0,0.0,-0.8784411549568176,0.9102106094360352
-0.0505507476627826,1.226170778274536,-0.2127705365419387,-0.2118590772151947,0.0360366553068161,0.0296639315783977,0.0,0.0,-0.9730756878852844,0.8796274662017822
-0.0526439659297466,1.2209879159927368,-0.2094649821519851,-0.2303532510995865,0.0361794419586658,0.0028557041659951,0.0,0.0,-0.9299599528312684,0.9290509223937988
-0.0547113418579101,1.21537184715271,-0.20539191365242,-0.2495711892843246,0.0348453372716903,-0.0266821980476379,0.0,0.0,-0.7767702341079712,0.8163952827453613
-0.0567523948848247,1.2093327045440674,-0.2012476176023483,-0.26834437251091,0.0320213660597801,-0.0564791783690452,0.0,0.0,-0.7926444411277771,0.758408784866333
-0.058771513402462,1.2028740644454956,-0.1976579129695892,-0.286968857049942,0.0278244279325008,-0.083938643336296,0.0,0.0,-0.7797143459320068,0.0068479776382446
-0.0608300194144248,1.195987105369568,-0.2017890214920044,-0.306012213230133,0.0238127633929252,-0.0802332237362861,0.0,0.0,-0.8111585974693298,0.4660217761993408
-0.0629277229309082,1.1886720657348633,-0.2058966606855392,-0.3250553905963897,0.0199896618723869,-0.0764621421694755,0.0,0.0,-0.9634491205215454,0.979684352874756
-0.0649919509887695,1.1809420585632324,-0.2009024620056152,-0.3434935510158539,0.0145363239571452,-0.1090667247772216,0.0,0.0,-0.7232470512390137,0.909360408782959
-0.0670194625854492,1.1727869510650637,-0.1955054402351379,-0.3623947203159332,0.0073842317797243,-0.143041729927063,0.0,0.0,-0.9094889760017396,0.6701444387435913
-0.0690415352582931,1.164210319519043,-0.1940579414367675,-0.3811625838279724,-0.0006669986760243,-0.1610246300697326,0.0,0.0,-0.8746179342269897,0.8584810495376587
-0.0710196495056152,1.15520441532135,-0.1877779960632324,-0.4003002345561981,-0.0105752684175968,-0.19816555082798,0.0,0.0,-0.781485378742218,0.8659873008728027
-0.0729558020830154,1.1457607746124268,-0.1817551106214523,-0.419845700263977,-0.0222814511507749,-0.2341236174106598,0.0,0.0,-0.7883031964302063,0.6528053283691406
-0.0748688727617263,1.1358873844146729,-0.1781258136034011,-0.4390697777271271,-0.0352954603731632,-0.2602803111076355,0.0,0.0,-0.7930717468261719,0.9661893844604492
-0.0767475143074989,1.1255724430084229,-0.1730880886316299,-0.4588441848754883,-0.0498964935541152,-0.2920206785202026,0.0,0.0,-0.1771662235260009,0.7809009552001953
-0.0785961151123046,1.1148192882537842,-0.1686107665300369,-0.478533536195755,-0.0659628584980964,-0.3213275372982025,0.0,0.0,-0.731110692024231,0.4180668592453003
-0.0804802924394607,1.103640913963318,-0.1723944097757339,-0.4975953996181488,-0.0818190649151802,-0.3171243071556091,0.0,0.0,-0.7412656545639038,0.1827934980392456
-0.0823993682861328,1.0920372009277344,-0.1761257499456405,-0.5166564583778381,-0.0974637940526008,-0.3128944039344787,0.0,0.0,-0.0472397804260253,0.3571047782897949
-0.0843527764081955,1.080008029937744,-0.1798006147146225,-0.5357166528701782,-0.1128959059715271,-0.3086422085762024,0.0,0.0,-0.7138736844062805,0.9105477333068848
-0.0862710922956466,1.067539095878601,-0.1747651398181915,-0.5555470585823059,-0.1298685371875763,-0.33945232629776,0.0,0.0,-0.3921529650688171,0.9640604257583618
-0.088128849864006,1.0546272993087769,-0.1665618568658828,-0.5756450295448303,-0.1490113139152526,-0.3828559517860412,0.0,0.0,-0.3989436626434326,-0.7767892479896545
-0.0900846496224403,1.0413110256195068,-0.1783490478992462,-0.5936499834060669,-0.1662343740463256,-0.3444613516330719,0.0,0.0,-0.4295339584350586,-0.4308657646179199
-0.0920718163251876,1.0275698900222778,-0.1817526668310165,-0.6127129793167114,-0.1832426041364669,-0.3401642441749573,0.0,0.0,0.1620798110961914,-0.1652796864509582
-0.0939850807189941,1.0142303705215454,-0.1746388077735901,-0.5950222015380859,-0.200025662779808,-0.3356612622737884,0.0,0.0,0.7393369674682617,-0.9532727003097534
-0.0957283973693847,1.0011861324310305,-0.160050556063652,-0.5817387700080872,-0.2144298106431961,-0.2880826592445373,0.0,0.0,0.3908998966217041,-0.6742931008338928
-0.0975555405020713,0.9883389472961426,-0.1698660850524902,-0.5728951096534729,-0.2274223268032074,-0.2598505616188049,0.0,0.0,0.6888289451599121,-0.8203038573265076
-0.0991852730512619,0.976248562335968,-0.1521983742713928,-0.5390490889549255,-0.2383564412593841,-0.218682199716568,0.0,0.0,-0.7536435127258301,-0.4455938339233398
-0.100841999053955,0.9637307524681092,-0.1551341861486435,-0.5580961108207703,-0.2490787208080291,-0.2144457995891571,0.0,0.0,0.9823158979415894,-0.5610834956169128
-0.102230928838253,0.9522078037261964,-0.1299585551023483,-0.5136700868606567,-0.2581778764724731,-0.181983008980751,0.0,0.0,-0.5885677933692932,-0.907801866531372
-0.1037211418151855,0.9402952194213868,-0.1423521190881729,-0.5306442379951477,-0.2649925351142883,-0.136293277144432,0.0,0.0,0.1835027933120727,-0.3515732288360595
-0.1051301956176757,0.9283235669136048,-0.1346115171909332,-0.5332278609275818,-0.2714305222034454,-0.1287599056959152,0.0,0.0,-0.7168629169464111,-0.9088385701179504
-0.1066411957144737,0.91596120595932,-0.1471247375011444,-0.5501835942268372,-0.2755109667778015,-0.0816091373562812,0.0,0.0,-0.9491919875144958,-0.8200334310531616
-0.1082232445478439,0.9031887650489808,-0.1557071805000305,-0.5681361556053162,-0.2780692875385284,-0.0511663034558296,0.0,0.0,-0.815274178981781,-0.914666473865509
-0.1098912209272384,0.890017032623291,-0.1662491261959076,-0.5855177044868469,-0.2786439657211303,-0.0114934723824262,0.0,0.0,-0.0961560606956482,-0.8197413682937622
-0.1116401702165603,0.8764366507530212,-0.1761103570461273,-0.6033400893211365,-0.2773863971233368,0.0251513216644525,0.0,0.0,0.4606363773345947,-0.4458298683166504
-0.1133679375052452,0.8632259964942932,-0.1737021952867508,-0.5869702696800232,-0.2764413356781006,0.01890105381608,0.0,0.0,-0.4789652824401855,-0.7329841256141663
-0.115163043141365,0.8496172428131104,-0.1820137202739715,-0.6043641567230225,-0.2738646566867828,0.0515335574746131,0.0,0.0,-0.1557760834693908,-0.6020001769065857
-0.1170125007629394,0.8355891108512878,-0.1886630356311798,-0.6227784752845764,-0.2700543999671936,0.0762052983045578,0.0,0.0,-0.4608105421066284,-0.6713718771934509
-0.1189211830496788,0.8211597800254822,-0.1960453689098358,-0.6403511166572571,-0.2647554576396942,0.1059785634279251,0.0,0.0,0.2922499179840088,-0.434611439704895
-0.1208143234252929,0.8068668246269226,-0.1943374574184417,-0.6343442797660828,-0.2596191167831421,0.1027273386716842,0.0,0.0,0.1698430776596069,-0.4295875430107116
-0.1226558685302734,0.7928651571273804,-0.1890535652637481,-0.6214311718940735,-0.2546103000640869,0.1001762896776199,0.0,0.0,0.3953592777252197,-0.511174738407135
-0.1243834495544433,0.7792035937309265,-0.1789231747388839,-0.6061248183250427,-0.2483315616846084,0.1255748122930526,0.0,0.0,-0.1464132666587829,-0.4364796876907348
-0.1261161863803863,0.7651136517524719,-0.1796055436134338,-0.6251661777496338,-0.24188993871212,0.1288325041532516,0.0,0.0,0.311368465423584,-0.5090793371200562
-0.1277199685573578,0.7512547373771667,-0.1680414229631424,-0.6147187948226929,-0.2341190576553344,0.1554176211357116,0.0,0.0,0.3253018856048584,0.1925054788589477
-0.1292790472507476,0.7374346852302551,-0.1635952442884445,-0.6130193471908569,-0.2263220250606537,0.1559408009052276,0.0,0.0,0.3551685810089111,0.3120715618133545
-999.0,0.723557710647583,-0.1525769531726837,-0.615536093711853,-0.2181219607591629,0.1640010327100753,0.0,0.0,0.6731144189834595,-0.1246191263198852
-0.1321235597133636,0.7097664475440979,-0.1480848491191864,-0.6117677092552185,-0.2099315226078033,0.1638086885213852,0.0,0.0,-0.0236746668815612,0.2251986265182495
-0.1335199326276779,0.6955472826957703,-0.1478789299726486,-0.6308123469352722,-0.2016095519065857,0.1664393693208694,0.0,0.0,0.9010089635849,-0.0172784924507141
-0.134632870554924,0.6822522878646851,-0.1201004385948181,-0.589719831943512,-0.1927373260259628,0.177444577217102,0.0,0.0,-0.3949556350708008,0.6557137966156006
-0.1356966942548751,0.6685236692428589,-0.114267311990261,-0.6091548800468445,-0.1848150938749313,0.1584442406892776,0.0,0.0,-0.4790868163108825,0.0832433700561523
-0.1367522180080413,0.6543671488761902,-0.1135524064302444,-0.6281998157501221,-0.1767838895320892,0.160623699426651,0.0,0.0,-0.1986799836158752,-0.5066207051277161
-0.1378339827060699,0.6397973895072937,-0.1172439083456993,-0.6464968323707581,-0.1677014231681823,0.1816489398479461,0.0,0.0,0.6158113479614258,0.75916588306427
-0.1388588845729828,0.6256445050239563,-0.1099436059594154,-0.628196120262146,-0.1602500230073928,0.1490283906459808,0.0,0.0,0.3799914121627807,0.4286086559295654
-0.1398259103298187,0.6119129061698914,-0.1040289252996444,-0.6095162630081177,-0.1529267877340316,0.146464854478836,0.0,0.0,0.0881215333938598,0.6629811525344849
-0.1406652480363845,0.5984296798706055,-0.0900068283081054,-0.598646879196167,-0.1468637436628341,0.1212608814239502,0.0,0.0,-0.2940908670425415,0.4732483625411987
-0.1414891183376312,0.5845182538032532,-0.0885299146175384,-0.6176904439926147,-0.1407354325056076,0.1225663423538208,0.0,0.0,-0.4119048118591308,0.8327476978302002
-0.1422292739152908,0.5701560974121094,-0.0784823149442672,-0.6378993988037109,-0.1362857371568679,0.0889943316578865,0.0,0.0,0.3640201091766357,0.3270189762115478
-0.1428304612636566,0.555844247341156,-0.0649882033467292,-0.6356468796730042,-0.1314359903335571,0.0969945788383483,0.0,0.0,0.3175947666168213,0.125136137008667
-0.1432365477085113,0.5417583584785461,-0.0460618808865547,-0.625568151473999,-0.1260079145431518,0.1085613816976547,0.0,0.0,-0.1464788913726806,0.0826653242111206
-0.1436223983764648,0.5272443890571594,-0.0440739877521991,-0.6446117758750916,-0.1205546483397483,0.1090652793645858,0.0,0.0,0.3734670877456665,0.9215638637542723
-0.1438445150852203,0.5132267475128174,-0.0258521400392055,-0.6227161288261414,-0.1169281005859375,0.0725309327244758,0.0,0.0,0.3143905401229858,0.0416593551635742
-0.1439495086669922,0.4996756017208099,-0.0142705617472529,-0.6019840240478516,-0.1131840720772743,0.074880912899971,0.0,0.0,0.0066738128662109,0.5609617233276367
-0.1438568085432052,0.486282080411911,0.0065145106054842,-0.5950607657432556,-0.1104463785886764,0.0547538921236991,0.0,0.0,-0.008906602859497,-0.7459121942520142
-0.1437895745038986,0.4724606275558471,0.0027357821818441,-0.6139966249465942,-0.106491670012474,0.0790941715240478,0.0,0.0,0.8395278453826904,-0.5563722252845764
-0.1437433212995529,0.4590721130371094,-0.000266118266154,-0.5947035551071167,-0.1016318798065185,0.097195878624916,0.0,0.0,0.6918925046920776,0.8048088550567627
-0.1434226930141449,0.4465592801570892,0.0286372005939483,-0.5558983087539673,-0.0982398390769958,0.0678408816456794,0.0,0.0,0.2902467250823974,-0.144492506980896
-0.1430505812168121,0.4342843294143677,0.0339363552629947,-0.5453393459320068,-0.0949854627251625,0.0650875121355056,0.0,0.0,-0.4540612697601318,0.1558862924575805
-0.1426516473293304,0.4215812683105469,0.0366779267787933,-0.5643822550773621,-0.091796301305294,0.0637830942869186,0.0,0.0,0.2314891815185547,0.4564568996429443
-0.1421130150556564,0.4092179834842682,0.0504188723862171,-0.5492711663246155,-0.0883841291069984,0.0682437270879745,0.0,0.0,-0.1891787052154541,0.4306118488311767
-0.1415464431047439,0.3964265584945678,0.0532989017665386,-0.5683141946792603,-0.0850609391927719,0.0664637759327888,0.0,0.0,0.9005419015884399,0.7016229629516602
-0.1409251242876052,0.3845052719116211,0.0605414286255836,,-0.0834832638502121,0.0315533056855201,0.0,0.0,0.6163939237594604,-0.3110002279281616
-0.1402585059404373,0.3728870749473572,0.0652957037091255,-0.5162900686264038,-0.0821310058236122,0.0270453691482543,0.0,0.0,0.2443817853927612,0.040016770362854
-0.1396129578351974,0.3615285158157348,0.0637225806713104,-0.5047780871391296,-0.0813098773360252,0.0164226274937391,0.0,0.0,0.4316049814224243,-0.2550960779190063
-0.1390308439731598,0.350436121225357,0.0581304058432579,-0.4929915368556976,-0.0812283307313919,0.0016308123013004,0.0,0.0,0.0028831958770751,0.0696542263031005
-0.1383192092180252,0.33955979347229,0.0709346458315849,-0.4833804368972778,-0.080997459590435,0.0046174256131052,0.0,0.0,0.0797427892684936,-0.1319625377655029
-0.1375176459550857,0.328610897064209,0.0798945724964141,-0.4866057336330414,-0.080740749835968,0.005134533625096,0.0,0.0,0.2561562061309814,-0.5094628930091858
-0.1365589201450348,0.3180952072143554,0.0944861695170402,-0.4672867059707641,-0.0793733447790145,0.0273479614406824,0.0,0.0,0.0428776741027832,-0.3565629720687866
-0.1355447769165039,0.3078855574131012,0.1002776846289634,-0.4537030458450317,-0.0782548785209655,0.0223695766180753,0.0,0.0,-0.6682929992675781,-0.3152767419815063
-0.1344995498657226,0.2972476482391357,0.1035907268524169,-0.4727458953857422,-0.0773294270038604,0.0185090862214565,0.0,0.0,0.2461777925491333,-0.5922267436981201
-0.1333725899457931,0.2868335843086242,0.1106635779142379,-0.4627455472946167,-0.0753114596009254,0.0403593257069587,0.0,0.0,0.1895902156829834,-0.6914493441581726
-0.1322297155857086,0.276884377002716,0.111076533794403,-0.4420271813869476,-0.0721363574266433,0.0635019093751907,0.0,0.0,-0.7286487221717834,0.0058598518371582
-0.1310551613569259,0.2665071487426758,0.1144784837961196,-0.4610708951950073,-0.0691855624318122,0.0590158514678478,0.0,0.0,0.0365934371948242,-0.4708331227302551
-0.1297782957553863,0.2561269998550415,0.1247017830610275,-0.4612048864364624,-0.0662351101636886,0.059009063988924,0.0,0.0,-0.0493439435958862,-0.5998024344444275
-0.1285264045000076,0.2453255802392959,0.1210055574774742,-0.4798868000507355,-0.0620914883911609,0.0828722938895225,0.0,0.0,0.7571511268615723,0.3367776870727539
-0.1273445188999176,0.2349283993244171,0.1148861050605773,-0.4619642496109009,-0.0588323399424552,0.0651830509305,0.0,0.0,0.2087913751602172,0.4425201416015625
-0.1261219084262848,0.2247220575809478,0.1193006038665771,-0.4534998536109924,-0.0559079088270664,0.0584889128804206,0.0,0.0,0.5454121828079224,-0.5724970102310181
-0.1248581856489181,0.2148355841636657,0.1224704757332801,-0.4392599463462829,-0.0520514696836471,0.0771286189556121,0.0,0.0,-0.0186344981193542,-0.5095311999320984
-0.1235938072204589,0.2045188695192337,0.1220149248838424,-0.458372950553894,-0.0476804040372371,0.0874212756752967,0.0,0.0,0.7039868831634521,0.7208583354949951
-0.1220966354012489,0.1948220878839492,0.1467961370944976,-0.4308810830116272,-0.0447967387735843,0.0576735064387321,0.0,0.0,0.2790384292602539,-0.7185747027397156
-0.1205739006400108,0.1856421381235122,0.1481711417436599,-0.4078791737556457,-0.0407460033893585,0.0810147449374198,0.0,0.0,-0.1997389793395996,-0.5517534017562866
-0.1190579384565353,0.1760304570198059,0.1468074768781662,-0.4270626604557037,-0.03601561114192,0.0946079939603805,0.0,0.0,0.1447817087173462,-0.6597607135772705
