x_pos,y_pos,x_vel,y_vel,angle,ang_vel,leg_1,leg_2,main_booster,lat_booster
-0.0014608383644372,1.4030530452728271,-0.1479957401752472,-0.3496446311473846,0.0017058418598026,0.0336452722549438,0.0,0.0,-0.2354007207611299,-0.602296802613138
-0.0029071806930005,1.3946349620819092,-0.147349327802658,-0.3741478621959686,0.0043980814516544,0.0538503117859363,0.0,0.0,0.5947692454048525,-0.5371115425951217
-0.0042062760330736,1.3862266540527344,-0.1340045630931854,-0.373717725276947,0.0084430249407887,0.0809064134955406,0.0,0.0,0.1325064818651811,0.6826694092988154
-0.0054994584061205,1.377757906913757,-0.1317905634641647,-0.3764017820358276,0.0108855795115232,0.0488559082150459,0.0,0.0,-0.1414664926057973,0.587086495842647
-0.0066946982406079,1.368720531463623,-0.1204063296318054,-0.4016654789447784,0.011761306785047,0.0175160784274339,0.0,0.0,0.5044612063134908,-0.233547663976073
-0.0077342987060546,1.359855890274048,-0.1052630692720413,-0.3939957022666931,0.0130451908335089,0.0256799012422561,0.0,0.0,-0.3834195310591317,0.9572646103120882
-0.0086708068847656,1.3504211902618408,-0.0928767323493957,-0.4193170964717865,0.0122842462733387,-0.0152204614132642,0.0,0.0,0.3889516116604519,-0.5028107430951486
-0.0094931600615382,1.3412339687347412,-0.082576498389244,-0.4083180427551269,0.0126233203336596,0.0067819817923009,0.0,0.0,-0.4689747333610339,0.8054783753199024
-0.0102343559265136,1.331485152244568,-0.0725960880517959,-0.4332643449306488,0.0111207636073231,-0.0300539284944534,0.0,0.0,0.3790301230701185,0.5533614723042732
-0.010925960727036,1.3220787048339844,-0.0662353485822677,-0.4180434346199035,0.0082185072824358,-0.058050412684679,0.0,0.0,-0.2210764627364363,-0.1209384483175263
-0.0116101261228322,1.312100887298584,-0.0651521533727645,-0.4434455633163452,0.0049892263486981,-0.0645914152264595,0.0,0.0,0.9491949484783856,0.972798730758879
-0.0121265407651662,1.3024861812591553,-0.0462437644600868,-0.4273158311843872,-0.0003498475125525,-0.1067911237478256,0.0,0.0,0.3447865228545708,0.6470602893767701
-0.0124786375090479,1.2931574583053589,-0.0283624790608882,-0.4146197736263275,-0.0071187308058142,-0.1353901177644729,0.0,0.0,-0.7323205193882951,0.5481278930430297
-0.012792301364243,1.2832525968551636,-0.022889394313097,-0.4402766525745392,-0.01549091655761,-0.1674588918685913,0.0,0.0,0.0861205527794362,-0.2349859284596781
-0.0130199436098337,1.2735884189605713,-0.014322374947369,-0.4296383261680603,-0.0238359402865171,-0.1669159680604934,0.0,0.0,0.3067028315007132,-0.5401955521040592
-0.0132109643891453,1.263697862625122,-0.0115286977961659,-0.4397195875644684,-0.031324602663517,-0.1497867703437805,0.0,0.0,-0.1045318988627124,0.4754550533356053
-0.0134281162172555,1.2532368898391724,-0.0136918276548385,-0.4651192426681518,-0.0392569229006767,-0.1586609631776809,0.0,0.0,0.681258893632448,-0.4433291370404222
-0.0135167120024561,1.2427685260772705,-0.0010659351246431,-0.4654808640480041,-0.0469667725265026,-0.154211014509201,0.0,0.0,0.8924902122245273,0.7566940092364256
-0.0134177207946777,1.2331020832061768,0.0193954110145568,-0.429939866065979,-0.0563712641596794,-0.188106968998909,0.0,0.0,0.3797935699226391,-0.8418882255268744
-0.0134759899228811,1.2235851287841797,0.0025641159154474,-0.4233126044273376,-0.0646749436855316,-0.1660885065793991,0.0,0.0,0.7626647135323157,-0.8857161229713214
-0.0134471897035837,1.2146973609924316,0.0097084138542413,-0.3953224122524261,-0.0714474096894264,-0.1354617327451706,0.0,0.0,0.4508022573404813,-0.9901877343592832
-0.0135079380124807,1.2058217525482178,-0.0007258100667968,-0.3947307169437408,-0.0767454579472541,-0.1059702187776565,0.0,0.0,-0.7338662503492932,-0.2996676603264387
-0.0136236194521188,1.196375846862793,-0.0057117668911814,-0.4201315343379974,-0.0825554430484771,-0.1162100434303283,0.0,0.0,0.6236818930996137,-0.9778219389872528
-0.0137734413146972,1.1868072748184204,-0.010660795494914,-0.4255183339118957,-0.0868475139141082,-0.0858488380908966,0.0,0.0,0.8009148731214615,0.127388619157886
-0.014079856686294,1.1777366399765017,-0.0250647161155939,-0.4034756124019623,-0.0923847183585167,-0.110753908753395,0.0,0.0,-0.0698541107320593,0.6912228877625337
-0.0144130708649754,1.16807222366333,-0.0261496305465698,-0.429987758398056,-0.0994969680905342,-0.1422445029020309,0.0,0.0,-0.7494423583167524,0.5845202756120687
-0.0147703168913722,1.157834768295288,-0.0268395636230707,-0.4556145071983337,-0.1083198562264442,-0.1764581054449081,0.0,0.0,0.6769998213513382,0.0827825313568552
-0.0152429584413766,1.148298740386963,-0.0372124090790748,-0.4245873689651489,-0.118300974369049,-0.1996224075555801,0.0,0.0,0.0575778160028725,0.8204674423408997
-0.0157660488039255,1.1389448642730713,-0.0400553606450557,-0.4167454838752746,-0.1304978877305984,-0.2439382821321487,0.0,0.0,0.943814777855554,-0.8410103472334407
-0.0163877494633197,1.1298907995224,-0.0510028824210166,-0.403423398733139,-0.141626089811325,-0.2225639820098877,0.0,0.0,0.914798657458942,-0.3561550784542637
-0.0169325824826955,1.1217206716537476,-0.0428685322403907,-0.3642670214176178,-0.1532119214534759,-0.231716513633728,0.0,0.0,-0.9451183080673218,-0.9914081692695618
-0.0176511760801076,1.1129964590072632,-0.0619465932250022,-0.388801097869873,-0.1631226539611816,-0.1982148140668869,0.0,0.0,-0.9058926105499268,-0.9027934074401855
-0.0185373313724994,1.1037312746047974,-0.0801974162459373,-0.4127339422702789,-0.1715378016233444,-0.1683030426502227,0.0,0.0,-0.8770390748977661,-0.787983775138855
-0.0195827484130859,1.093907356262207,-0.0973227843642234,-0.4374693930149078,-0.1787790358066558,-0.1448247879743576,0.0,0.0,-0.9620524048805236,-0.4290890097618103
-0.020721148699522,1.0835143327713013,-0.1060603708028793,-0.4628748595714569,-0.1865908205509185,-0.1562355011701584,0.0,0.0,-0.6857738494873047,-0.7526109218597412
-0.022010613232851,1.07257342338562,-0.1220581755042076,-0.487138569355011,-0.1935072392225265,-0.1383287012577057,0.0,0.0,-0.8127898573875427,-0.7892726063728333
-0.0234613418579101,1.0610781908035278,-0.1392741799354553,-0.5116719603538513,-0.1993477046489715,-0.1168089285492897,0.0,0.0,-0.9258390069007874,-0.6453570127487183
-0.025057028979063,1.0490325689315796,-0.1544108837842941,-0.5360678434371948,-0.2045470774173736,-0.1039874404668808,0.0,0.0,-0.1118284463882446,-0.745794415473938
-0.0268136020749807,1.0364446640014648,-0.1715100705623626,-0.5600433349609375,-0.2087222188711166,-0.083502396941185,0.0,0.0,0.6679823398590088,-0.6380473971366882
-0.0285639762878417,1.024194598197937,-0.1716685593128204,-0.544928252696991,-0.2121222615242004,-0.0680010095238685,0.0,0.0,0.4433414936065674,0.0431206226348876
-0.0303658489137887,1.012401819229126,-0.175821840763092,-0.5247527956962585,-0.2165356576442718,-0.0882678776979446,0.0,0.0,0.5638828277587891,-0.3794642686843872
-0.0320520401000976,1.0007281303405762,-0.164217859506607,-0.519488513469696,-0.220991775393486,-0.0891219228506088,0.0,0.0,-0.193672776222229,0.0422605276107788
-0.0338444709777832,0.9884851574897766,-0.1742619127035141,-0.5448936223983765,-0.2260321080684662,-0.1008070260286331,0.0,0.0,-0.6454132199287415,-0.6309548616409302
-0.0357849113643169,0.9756855368614196,-0.1895410120487213,-0.5695734620094299,-0.2305970937013626,-0.0912995189428329,0.0,0.0,0.2562525272369385,-0.3987700939178467
-0.0378127098083496,0.9626541137695312,-0.1975554376840591,-0.5799969434738159,-0.2358912825584411,-0.1058836355805397,0.0,0.0,0.5535085201263428,-0.5308094620704651
-0.0398727431893348,0.949504852294922,-0.2013901770114898,-0.585153341293335,-0.2405881285667419,-0.0939369946718216,0.0,0.0,0.7587077617645264,0.2761197090148926
-0.0418666824698448,0.9364564418792723,-0.1944949328899383,-0.5807419419288635,-0.2455724626779556,-0.0996866822242736,0.0,0.0,-0.8616845011711121,0.6844682693481445
-0.0439278595149517,0.9228301048278807,-0.199546679854393,-0.6067279577255249,-0.2522634863853454,-0.1338205933570861,0.0,0.0,-0.780668318271637,0.6438158750534058
-0.0460614189505577,0.9086258411407472,-0.2052337229251861,-0.6327215433120728,-0.2605534195899963,-0.1657986342906952,0.0,0.0,0.073081374168396,-0.8151758313179016
-0.0483002662658691,0.8943606615066528,-0.2168056517839431,-0.6352881789207458,-0.2677914500236511,-0.144760325551033,0.0,0.0,-0.7977524995803833,-0.668874204158783
-0.0506909377872943,0.8795424103736877,-0.232428953051567,-0.6598129868507385,-0.2745879590511322,-0.135929986834526,0.0,0.0,-0.0594179034233093,0.0471060276031494
-0.0531950965523719,0.8641558289527893,-0.2432222366333007,-0.6852228045463562,-0.2819751799106598,-0.147745281457901,0.0,0.0,-0.3217144608497619,-0.1175248026847839
-0.0558133125305175,0.8482007384300232,-0.2540643811225891,-0.7106336355209351,-0.2899536192417145,-0.1595688611268997,0.0,0.0,0.1852205991744995,-0.1578755974769592
-0.0583802238106727,0.8324990272521973,-0.2483772039413452,-0.6995299458503723,-0.2985130250453949,-0.1711879223585128,0.0,0.0,-0.0517588257789611,-0.677543580532074
-0.0611005797982215,0.8162444233894348,-0.2641913592815399,-0.7240584492683411,-0.3066297769546509,-0.1623352915048599,0.0,0.0,0.8178887367248535,-0.1441795825958252
-0.063879869878292,0.8002108335494995,-0.2690475881099701,-0.7145025730133057,-0.3158250749111175,-0.1839059889316558,0.0,0.0,0.92102313041687,0.1469278335571289
-0.0663825049996376,0.784879744052887,-0.2413380891084671,-0.6833510994911194,-0.3251071572303772,-0.1856422424316406,0.0,0.0,0.2685513496398926,-0.651306688785553
-0.0687716454267501,0.7696877121925354,-0.2308983355760574,-0.6770287156105042,-0.3334636092185974,-0.1671294867992401,0.0,0.0,-0.7656816244125366,-0.9367725253105164
-0.0713352188467979,0.7539684176445007,-0.2494110614061355,-0.7002586126327515,-0.3407242596149444,-0.1452132165431976,0.0,0.0,-0.1673034429550171,-0.770703911781311
-0.0740773230791091,0.7377215027809143,-0.2684217095375061,-0.7234681844711304,-0.3467928469181061,-0.1213715076446533,0.0,0.0,-0.5753120183944702,-0.4860275983810425
-0.0769352912902832,0.7209062576293945,-0.2794564664363861,-0.7488805651664734,-0.3534543812274933,-0.1332307755947113,0.0,0.0,0.8833558559417725,0.4373425245285034
-0.0797395706176757,0.7047080397605896,-0.2730354964733124,-0.7217692136764526,-0.3612376153469085,-0.1556649059057235,0.0,0.0,0.4728317260742187,-0.4977406859397888
-0.0823935493826866,0.6885303854942322,-0.2579568028450012,-0.7209045886993408,-0.3691044449806213,-0.1573370397090912,0.0,0.0,0.9187562465667723,-0.8670783042907715
-0.0849415808916091,0.6728026270866394,-0.2485579997301101,-0.7006418108940125,-0.375722199678421,-0.1323548853397369,0.0,0.0,0.1694360971450805,-0.8957516551017761
-0.0875621810555458,0.6569316387176514,-0.2570046782493591,-0.7067142128944397,-0.3810944855213165,-0.1074457317590713,0.0,0.0,0.2255522012710571,-0.8645262122154236
-0.0902962684631347,0.6412003040313721,-0.2694226205348968,-0.7002379894256592,-0.3853349685668945,-0.084809586405754,0.0,0.0,0.2169214487075805,-0.7187767028808594
-0.0929421409964561,0.6258065700531006,-0.2614818811416626,-0.6850143671035767,-0.388653963804245,-0.066379614174366,0.0,0.0,0.0562313795089721,-0.6422132849693298
-0.0956259742379188,0.6100918650627136,-0.2660124897956848,-0.6990789175033569,-0.3911866247653961,-0.0506533682346344,0.0,0.0,0.8219149112701416,-0.9520768523216248
-0.0981011390686035,0.5951482653617859,-0.2464852333068847,-0.6644440293312073,-0.392280638217926,-0.0218805018812418,0.0,0.0,0.7210943698883057,-0.788474440574646
-0.1006596535444259,0.5804138779640198,-0.2556120157241821,-0.654929518699646,-0.392539918422699,-0.0051856925711035,0.0,0.0,0.7752742767333984,-0.7399793267250061
-0.1032060608267784,0.5662172436714172,-0.2550652325153351,-0.6308380961418152,-0.3920797705650329,0.0092028575018048,0.0,0.0,0.6810065507888794,-0.8031529188156128
-0.1056499481201171,0.5523478984832764,-0.245873287320137,-0.6160067319869995,-0.3904876112937927,0.0318430811166763,0.0,0.0,0.6476880311965942,-0.8462889790534973
-0.1080770492553711,0.5392065644264221,-0.245090514421463,-0.5834074020385742,-0.3879442811012268,0.0508668720722198,0.0,0.0,0.7020995616912842,-0.6082562804222107
-0.1103601455688476,0.5263039469718933,-0.2315167188644409,-0.5725857615470886,-0.3845351934432983,0.068181537091732,0.0,0.0,0.762953519821167,-0.7379320859909058
-0.1126902550458908,0.5134626030921936,-0.2370030432939529,-0.5696514844894409,-0.3802778422832489,0.085146814584732,0.0,0.0,0.6022645235061646,-0.6294296383857727
-0.114995576441288,0.5004737377166748,-0.2353584021329879,-0.5760058164596558,-0.3751569092273712,0.1024194732308387,0.0,0.0,0.8289649486541748,-0.8073412775993347
-0.1173704117536544,0.487489640712738,-0.2432539910078048,-0.5755664110183716,-0.3690403401851654,0.1223314553499221,0.0,0.0,0.7685312032699585,0.207840085029602
-0.119557000696659,0.475130170583725,-0.2238565385341644,-0.5479809045791626,-0.3635458052158355,0.1098904758691787,0.0,0.0,0.7940208911895752,-0.7729297280311584
-0.121503546833992,0.4634333848953247,-0.2010122537612915,-0.5182623267173767,-0.3568414747714996,0.1340865790843963,0.0,0.0,0.8398177623748779,0.3267472982406616
-0.1233572959899902,0.4525130689144134,-0.1906499713659286,-0.484045922756195,-0.3512918651103973,0.1109923347830772,0.0,0.0,0.9056799411773682,-0.0454095005989074
-0.1253270208835601,0.4416395425796509,-0.2010418176651001,-0.482279509305954,-0.3470069766044616,0.0856968909502029,0.0,0.0,0.958699345588684,0.5056657791137695
-0.1269981414079666,0.4314775466918945,-0.1698242425918579,-0.4509963989257812,-0.3441735506057739,0.0566685684025287,0.0,0.0,0.7279279232025146,0.0120819807052612
-0.1286713629961013,0.4216503500938415,-0.1690085083246231,-0.4363599717617035,-0.3423998057842254,0.0354749634861946,0.0,0.0,0.7244691848754883,-0.3125613927841186
-0.1302651464939117,0.4122828543186188,-0.1602700501680374,-0.4161202609539032,-0.3414574265480041,0.0188473332673311,0.0,0.0,0.824600100517273,-0.3532397747039795
-0.1317156851291656,0.4034446477890014,-0.1453622877597808,-0.3927362859249115,-0.3411398828029632,0.0063511179760098,0.0,0.0,0.8116390705108643,-0.2357981204986572
-0.1329645216464996,0.3948915004730224,-0.1250781416893005,-0.3800973296165466,-0.3409404754638672,0.0039883800782263,0.0,0.0,0.6285028457641602,-0.0011002421379089
-0.1341791152954101,0.3862346708774566,-0.1212229505181312,-0.3848031163215637,-0.3411898016929626,-0.0049865460023283,0.0,0.0,0.9031858444213868,-0.476546049118042
-0.1352370232343673,0.377610981464386,-0.1054996699094772,-0.3833442032337188,-0.3414977192878723,-0.0061583286151289,0.0,0.0,0.908134698867798,-0.4885608553886413
-0.1360117942094802,0.3692652285099029,-0.0774098634719848,-0.3709391057491302,-0.3415682911872864,-0.0014112938661128,0.0,0.0,0.9349477291107178,-0.8974283337593079
-0.1366270035505294,0.3609421551227569,-0.0630027502775192,-0.3695659339427948,-0.3400233685970306,0.030898755416274,0.0,0.0,0.8789447546005249,-0.9368590712547302
-0.1371268332004547,0.3533052206039428,-0.0527632646262645,-0.3387637138366699,-0.3371035456657409,0.0583966895937919,0.0,0.0,0.2869906425476074,-0.698798656463623
-0.137549489736557,0.3459547758102417,-0.0459658205509185,-0.3258277475833893,-0.333243191242218,0.0772072151303291,0.0,0.0,-0.6923465132713318,-0.437551736831665
-0.1380638182163238,0.338035523891449,-0.0546227619051933,-0.3512360453605652,-0.3299099206924438,0.0666655823588371,0.0,0.0,0.1048270463943481,-0.7251412272453308
-0.1385801285505294,0.3298401832580566,-0.0557977072894573,-0.3632894158363342,-0.3255597651004791,0.087002508342266,0.0,0.0,-0.1678389906883239,-0.5825443267822266
-0.1392319649457931,0.3210984170436859,-0.0701141506433487,-0.3874257206916809,-0.3204311430454254,0.1025725752115249,0.0,0.0,-0.0352246165275573,-0.3080648183822632
-0.1399701088666916,0.3117876350879669,-0.0782546699047088,-0.4128337800502777,-0.3158078789710998,0.0924651250243187,0.0,0.0,0.3198696374893188,0.2374980449676513
-0.1406689584255218,0.3025648593902588,-0.0737756937742233,-0.4090611040592193,-0.3117676973342895,0.0808035284280777,0.0,0.0,0.6563122272491455,0.2466465234756469
-0.1413242369890213,0.2939688265323639,-0.0683940201997757,-0.3814317584037781,-0.3087923526763916,0.0595066547393798,0.0,0.0,0.4110666513442993,-0.5016905665397644
-0.1418394148349762,0.2856392562389374,-0.055110465735197,-0.3694467842578888,-0.3050741255283355,0.0743644684553146,0.0,0.0,0.5474221706390381,-0.432671844959259
-0.1422695219516754,0.2777682840824127,-0.0459307916462421,-0.3492110669612884,-0.3020550906658172,0.060380570590496,0.0,0.0,0.6766774654388428,-0.767152726650238
-0.1426941901445388,0.2704895734786987,-0.0462956242263317,-0.3227086663246155,-0.2980989217758178,0.0791232138872146,0.0,0.0,-0.5802489519119263,0.1574733257293701
-0.1431926786899566,0.2626414895057678,-0.0532512441277504,-0.3481135070323944,-0.2945862412452698,0.0702528282999992,0.0,0.0,0.3421498537063598,-0.5035840272903442
-0.1437566727399826,0.2549874782562256,-0.06015495210886,-0.3394241034984588,-0.2907198369503021,0.0773279294371604,0.0,0.0,-0.0690459012985229,-0.0508396625518798
-0.1443900167942047,0.2467638850212097,-0.0666771158576011,-0.3648280203342438,-0.2872698009014129,0.0690016001462936,0.0,0.0,0.2348908185958862,-0.6225910186767578
-0.1449000388383865,0.2387303411960601,-0.0553380064666271,-0.356195867061615,-0.2828093469142914,0.0892093554139137,0.0,0.0,-0.1793125867843628,-0.1858719587326049
-0.1454745233058929,0.2301271706819534,-0.0614116117358207,-0.3815991282463074,-0.2787342965602875,0.0815009921789169,0.0,0.0,0.3225065469741821,-0.7568662762641907
-0.1458736360073089,0.2218114733695984,-0.0451912358403205,-0.3685913383960724,-0.2733197212219238,0.1082913875579834,0.0,0.0,-0.264534592628479,-0.5448496341705322
-0.1463743150234222,0.2129484564065933,-0.056132722645998,-0.3927892446517944,-0.2671053409576416,0.1242876648902893,0.0,0.0,-0.4058465957641601,-0.125881016254425
-0.1469319313764572,0.2035157978534698,-0.0615119226276874,-0.4181923568248749,-0.2612228393554687,0.1176495179533958,0.0,0.0,0.2463574409484863,-0.613950788974762
-0.147416204214096,0.1941411644220352,-0.0552059188485145,-0.415458619594574,-0.2543012797832489,0.1384304463863372,0.0,0.0,0.6848938465118408,0.4892911911010742
-0.1477499008178711,0.1854083091020584,-0.0398409143090248,-0.3870185613632202,-0.2477053552865982,0.1319184303283691,0.0,0.0,0.5851080417633057,-0.549831748008728
-0.1479280441999435,0.1772021204233169,-0.0252852328121662,-0.3634790778160095,-0.2401072531938552,0.1519621312618255,0.0,0.0,-0.246126115322113,-0.3180640935897827
-0.1481528282165527,0.1684261411428451,-0.0297160539776086,-0.3888813555240631,-0.2327568382024765,0.1470087319612503,0.0,0.0,-0.0206546187400817,-0.0766435265541076
-0.1484216749668121,0.1590802520513534,-0.033908762037754,-0.414282739162445,-0.2256309539079666,0.1425177454948425,0.0,0.0,0.7759482860565186,0.7920957803726196
-0.1486949920654297,0.1500007212162017,-0.0322983562946319,-0.4027813076972961,-0.2206015735864639,0.1005875691771507,0.0,0.0,0.8799763917922974,0.1297910213470459
-0.1488906890153885,0.1412976384162902,-0.0242576729506254,-0.3861106932163238,-0.2158618718385696,0.0947940126061439,0.0,0.0,0.9049789905548096,-0.5286798477172852
-0.1490008383989334,0.1329274922609329,-0.0166995748877525,-0.3711864352226257,-0.2101176232099533,0.1148850470781326,0.0,0.0,0.8551260232925415,-0.1963503360748291
-0.1489170044660568,0.124533325433731,0.0021409548353403,-0.3722011744976043,-0.2038210183382034,0.1259321868419647,0.0,0.0,0.8672512769699097,-0.4799280166625976
-0.1486000120639801,0.1166703775525093,0.0250454004853963,-0.3485620319843292,-0.1971150487661361,0.134119302034378,0.0,0.0,0.9398869276046752,-0.6078699231147766
-0.148141473531723,0.1096408441662788,0.0379524864256382,-0.3113971650600433,-0.1891729980707168,0.1588414460420608,0.0,0.0,0.5675137042999268,-0.4643746614456177
