x_pos,y_pos,x_vel,y_vel,angle,ang_vel,leg_1,leg_2,main_booster,lat_booster
-0.0014513016212731,1.4030587673187256,-0.1469961702823639,-0.3493978679180145,0.0016679133987054,0.032894130796194,0.0,0.0,-0.3162108063697815,0.8756978511810303
-0.0027588843367993,1.39465069770813,-0.1304391920566558,-0.3736969232559204,0.0013579109217971,-0.0062000495381653,0.0,0.0,-0.5512855648994446,0.695583701133728
-0.0039340974763035,1.3856712579727173,-0.1154500097036361,-0.3990850150585174,-0.0006856754771433,-0.040875818580389,0.0,0.0,-0.2266833782196045,0.0838667154312133
-0.0050475122407078,1.3761258125305176,-0.1092243418097496,-0.4242362082004547,-0.0027815925423055,-0.0419223494827747,0.0,0.0,0.0108858346939086,0.5879456996917725
-0.0059671401977539,1.3666146993637085,-0.0887491405010223,-0.4227291047573089,-0.0059631005860865,-0.0636361762881279,0.0,0.0,-0.5850701928138733,-0.2283673286437988
-0.0068335533142089,1.3565375804901123,-0.0833657160401344,-0.4478822946548462,-0.0091938953846693,-0.0646218061447143,0.0,0.0,-0.8722493648529053,0.4119733572006225
-0.007650947663933,1.3458950519561768,-0.07843479514122,-0.4730288386344909,-0.0124727245420217,-0.065582200884819,0.0,0.0,-0.8689743876457214,0.0896340608596801
-0.0084242820739746,1.3346867561340332,-0.0739754289388656,-0.4981767833232879,-0.0157974194735288,-0.0665000155568122,0.0,0.0,-0.6761219501495361,-0.6652166843414307
-0.0092118261381983,1.3229213953018188,-0.0767011269927024,-0.5229334235191345,-0.0178215578198432,-0.0404861718416214,0.0,0.0,-0.3091359138488769,-0.4936072826385498
-0.0099652288481593,1.310590147972107,-0.0732444375753402,-0.5480812788009644,-0.0198878310620784,-0.0413294397294521,0.0,0.0,-0.4535244703292846,-0.882044792175293
-0.0107491491362452,1.297695517539978,-0.0777831301093101,-0.5731022953987122,-0.0204946212470531,-0.0121368896216154,0.0,0.0,-0.5748641490936279,-0.7638773322105408
-0.0115627292543649,1.2842352390289309,-0.0820645317435264,-0.5982291102409363,-0.0198020637035369,0.0138524398207664,0.0,0.0,0.1919808387756347,-0.7818227410316467
-0.012302684597671,1.2709685564041138,-0.0763403177261352,-0.5895997881889343,-0.0174837559461593,0.0463704839348793,0.0,0.0,-0.18122398853302,-0.7296518087387085
-0.0130814556032419,1.2571306228637695,-0.081481710076332,-0.614981472492218,-0.0139161590486764,0.0713582932949066,0.0,0.0,-0.6229727268218994,-0.3741787672042846
-0.0138537408784031,1.2427270412445068,-0.0808029845356941,-0.6401268243789673,-0.0103766284883022,0.0707967430353164,0.0,0.0,-0.1172609329223632,-0.1777793765068054
-0.0146253583952784,1.2277579307556152,-0.0807083025574684,-0.6652750372886658,-0.0068614240735769,0.070310428738594,0.0,0.0,-0.6312121152877808,-0.3113974332809448
-0.0154021261259913,1.2122231721878052,-0.0812034383416175,-0.6904239654541016,-0.0033672645222395,0.0698893219232559,0.0,0.0,-0.575922966003418,0.2015523910522461
-0.0161898620426654,1.1961227655410769,-0.0822913572192192,-0.7155727744102478,0.0001094878098228,0.0695413127541542,0.0,0.0,-0.1795655488967895,0.646958589553833
-0.0169352535158395,1.1794625520706177,-0.0765287652611732,-0.7404497265815735,0.002081073122099,0.0394352190196514,0.0,0.0,-0.0281483530998229,0.2352693080902099
-0.0177032463252544,1.1622368097305298,-0.0787969380617141,-0.765597939491272,0.0040436536073684,0.0392553582787513,0.0,0.0,0.8650225400924683,0.4921166896820068
-0.0183593742549419,1.145719051361084,-0.0682704597711563,-0.734124481678009,0.0066720936447381,0.0525735393166542,0.0,0.0,0.1612707376480102,0.0044978857040405
-0.0190437324345111,1.129102110862732,-0.0711304396390914,-0.7385463714599609,0.0093364464119076,0.0532918870449066,0.0,0.0,-0.1888578534126281,0.2064639329910278
-0.0197681430727243,1.111919403076172,-0.0751392021775245,-0.7636934518814087,0.0120031796395778,0.0533395893871784,0.0,0.0,0.4962749481201172,0.2638835906982422
-0.020478343591094,1.0945963859558103,-0.0740162804722786,-0.7699460387229919,0.0149697940796613,0.0593376383185386,0.0,0.0,0.6393004655838013,0.667422890663147
-0.0213496200740337,1.0776646137237549,-0.0884569957852363,-0.7525313496589661,0.0162786301225423,0.0261791162192821,0.0,0.0,0.5957449674606323,-0.0990672707557678
-0.0224287025630474,1.0611621141433716,-0.1085955947637558,-0.7334499359130859,0.016951285302639,0.0134530393406748,0.0,0.0,0.234883427619934,-0.2066017389297485
-0.0235755927860736,1.0449082851409912,-0.115393117070198,-0.7223990559577942,0.0176550727337598,0.0140756238251924,0.0,0.0,0.8230156898498535,-0.2110289335250854
-0.0249487869441509,1.029450535774231,-0.1373856961727142,-0.6870061755180359,0.0177130904048681,0.0011601613368839,0.0,0.0,-0.2771089076995849,-0.8262923359870911
-0.0264726635068655,1.0134320259094238,-0.1544958055019378,-0.7119666934013367,0.0197944249957799,0.0416268184781074,0.0,0.0,-0.8345233798027039,0.4095851182937622
-0.0280720703303813,0.9968475103378296,-0.1620724350214004,-0.7371129989624023,0.0219033639878034,0.0421785973012447,0.0,0.0,-0.7954254150390625,0.0197961330413818
-0.0297513008117675,0.9796974062919616,-0.1700832247734069,-0.7622593641281128,0.0240428373217582,0.0427892431616783,0.0,0.0,-0.7813650965690613,0.4268101453781128
-0.0315143577754497,0.9619816541671752,-0.1785068213939666,-0.787405788898468,0.0262156315147876,0.0434558019042015,0.0,0.0,0.3715755939483642,0.8084948062896729
-0.0333961471915245,0.9447051882743835,-0.1886831820011139,-0.767856776714325,0.0267190001904964,0.0100673539564013,0.0,0.0,-0.8589733242988586,0.5431289672851562
-0.0353308692574501,0.9268593192100524,-0.1930386126041412,-0.7931361794471741,0.0262954421341419,-0.0084712477400898,0.0,0.0,0.3915426731109619,0.5300583839416504
-0.0373175628483295,0.9092434048652648,-0.1972519606351852,-0.7829082608222961,0.0248932614922523,-0.0280434936285018,0.0,0.0,-0.927635133266449,-0.4630612730979919
-0.039402388036251,0.8910616040229797,-0.2071127593517303,-0.808054506778717,0.0235341787338256,-0.027181576937437,0.0,0.0,-0.1193678379058837,-0.5988608598709106
-0.0416379943490028,0.8723093271255493,-0.2234797179698944,-0.8334341645240784,0.0234634336084127,-0.0014147504698485,0.0,0.0,-0.5096525549888611,0.3230010271072387
-0.0439775474369525,0.8529912829399109,-0.2339353859424591,-0.8585801720619202,0.0234398506581783,-0.0004717664269264,0.0,0.0,0.9506468772888184,0.8925461769104004
-0.0464278236031532,0.8346097469329834,-0.243149071931839,-0.8169205784797668,0.0215902645140886,-0.0369917377829551,0.0,0.0,0.4581828117370605,0.9888617992401124
-0.0488919243216514,0.8164721727371216,-0.2426273822784423,-0.8060697317123413,0.0178476572036743,-0.0748519673943519,0.0,0.0,-0.9551042914390564,0.9528954029083252
-0.0514057166874408,0.7977786660194397,-0.2460609674453735,-0.8307673931121826,0.0125977378338575,-0.1049984320998191,0.0,0.0,-0.8106554746627808,0.9179668426513672
-0.0539455413818359,0.7785195708274841,-0.2465005815029144,-0.8559156656265259,0.0052020344883203,-0.1479138284921646,0.0,0.0,-0.2084873914718628,0.8131934404373169
-0.0565264709293842,0.7586873769760132,-0.2487446963787078,-0.8814333081245422,-0.0040162573568522,-0.1843659877777099,0.0,0.0,0.9138638973236084,0.7346038818359375
-0.0590395927429199,0.7392064929008484,-0.2408482283353805,-0.865881085395813,-0.014347730204463,-0.2066295593976974,0.0,0.0,0.6394773721694946,-0.1199179887771606
-0.0617080703377723,0.7196003794670105,-0.2562549412250519,-0.8715186715126038,-0.0248080678284168,-0.2092067897319793,0.0,0.0,0.7999286651611328,0.9425544738769532
-0.0643581375479698,0.6999617218971252,-0.2526695132255554,-0.8730840086936951,-0.0369965769350528,-0.2437702715396881,0.0,0.0,0.8819676637649536,0.5534486770629883
-0.0669940933585167,0.6805129051208496,-0.2504149377346039,-0.8647754192352295,-0.0500167086720466,-0.2604027390480041,0.0,0.0,0.956386923789978,0.2891647815704345
-0.0698370933532714,0.6619895100593567,-0.2705710530281067,-0.823773205280304,-0.0635917261242866,-0.2715004384517669,0.0,0.0,-0.508918821811676,0.725914478302002
-0.0727599114179611,0.6429051756858826,-0.2774862647056579,-0.8488880395889282,-0.0782303884625434,-0.292773425579071,0.0,0.0,0.4120337963104248,0.9134418964385986
-0.0757231712341308,0.6238994002342224,-0.2797618806362152,-0.8456419110298157,-0.094646543264389,-0.3283230662345886,0.0,0.0,0.9577682018280028,0.576013445854187
-0.0785239189863205,0.605309784412384,-0.2629601061344147,-0.827373206615448,-0.1116350218653678,-0.3397695422172546,0.0,0.0,0.9510749578475952,0.3223111629486084
-0.0814230889081955,0.5874664187431335,-0.2725789844989776,-0.7944228053092957,-0.1288743615150451,-0.3447867631912231,0.0,0.0,0.5376983880996704,0.5636193752288818
-0.0842448249459266,0.569644033908844,-0.2640741467475891,-0.793772280216217,-0.1469103544950485,-0.3607196509838104,0.0,0.0,0.8819971084594727,0.2579370737075805
-0.0870592147111892,0.552607536315918,-0.2634740471839905,-0.7590529918670654,-0.1648648828268051,-0.359090656042099,0.0,0.0,0.7105717658996582,0.2478518486022949
-0.0897686928510665,0.5357180237770081,-0.2538065314292907,-0.752635657787323,-0.1820408403873443,-0.3435192704200744,0.0,0.0,0.4601321220397949,-0.3406912088394165
-0.0926165580749511,0.5189037919044495,-0.2673763632774353,-0.7495298981666565,-0.1995422840118408,-0.3500285744667053,0.0,0.0,0.6608425378799438,-0.2952610850334167
-0.0953441634774208,0.5026773810386658,-0.2559219896793365,-0.723537802696228,-0.2165411859750747,-0.3399780988693237,0.0,0.0,0.1187905073165893,0.819148063659668
-0.0979361534118652,0.4865055978298187,-0.240911453962326,-0.7215336561203003,-0.2350664883852005,-0.3705059587955475,0.0,0.0,-0.1172863841056823,-0.8682558536529541
-0.100717544555664,0.4698015749454498,-0.2614940106868744,-0.7451466917991638,-0.2519848048686981,-0.3383662700653076,0.0,0.0,0.4281880855560303,-0.6158091425895691
-0.1035781875252723,0.4535720646381378,-0.2706397175788879,-0.7240400910377502,-0.2677353024482727,-0.3150098323822021,0.0,0.0,0.1906793117523193,0.1803638935089111
-0.1064660996198654,0.4371510148048401,-0.27365443110466,-0.7326668500900269,-0.28324955701828,-0.3102849721908569,0.0,0.0,0.8583356142044067,0.2167578935623169
-0.1093754768371582,0.4213508069515228,-0.2754327654838562,-0.7053258419036865,-0.2992199659347534,-0.3194079399108886,0.0,0.0,0.8969544172286987,0.1288310289382934
-0.112108513712883,0.4057759642601013,-0.2585578858852386,-0.6953189373016357,-0.3144688904285431,-0.3049785494804382,0.0,0.0,0.9746336936950684,-0.899385929107666
-0.1147868186235427,0.3907023668289184,-0.2550616562366485,-0.672764241695404,-0.3277587890625,-0.2657987475395202,0.0,0.0,0.7207695245742798,-0.935047209262848
-0.1175283417105674,0.3756822347640991,-0.2633252143859863,-0.670060932636261,-0.3390679061412811,-0.226182222366333,0.0,0.0,0.966684341430664,-0.9966318607330322
-0.1203992813825607,0.3612135946750641,-0.2780525386333465,-0.6451975703239441,-0.3485336601734161,-0.189314991235733,0.0,0.0,0.8900785446166992,-0.990817368030548
-0.1231162101030349,0.3475968539714813,-0.2647362947463989,-0.606891393661499,-0.3558486104011535,-0.146299198269844,0.0,0.0,0.9468172788619996,-0.820097029209137
-0.1258130967617035,0.3338684439659118,-0.2645949721336365,-0.6114203333854675,-0.3612087666988373,-0.1072032004594802,0.0,0.0,0.9876068830490112,-0.9557998776435852
-0.1283171623945236,0.3210464119911194,-0.2473269999027252,-0.5706499814987183,-0.3644647002220154,-0.0651183128356933,0.0,0.0,0.9628008604049684,-0.9783011078834534
-0.1309459656476974,0.3085497617721557,-0.2615608870983124,-0.555740475654602,-0.3658523261547088,-0.0277523640543222,0.0,0.0,0.9510328769683838,-0.7206842303276062
-0.1335867941379547,0.2967031002044678,-0.2639773786067962,-0.5265464186668396,-0.3659645020961761,-0.0022435742430388,0.0,0.0,0.8397397994995117,0.5982457399368286
-0.1360381096601486,0.2852171063423157,-0.2440154254436493,-0.5107719898223877,-0.367143452167511,-0.0235790554434061,0.0,0.0,0.980628252029419,-0.5023209452629089
-0.1384504288434982,0.2746966183185577,-0.2406950443983078,-0.4677124321460724,-0.3677094876766205,-0.0113205071538686,0.0,0.0,0.8056497573852539,-0.3049925565719604
-0.140697956085205,0.2644502222537994,-0.2246369123458862,-0.4554284512996673,-0.3678371012210846,-0.0025523726362735,0.0,0.0,0.9608173370361328,-0.3674772977828979
-0.1429532021284103,0.2543089687824249,-0.2252864837646484,-0.4507841467857361,-0.3680824637413025,-0.0049073174595832,0.0,0.0,0.873687744140625,0.0289716720581054
-0.1451410353183746,0.2440758794546127,-0.2189520597457885,-0.4547606706619262,-0.3679033517837524,0.0035822291392832,0.0,0.0,0.9257433414459229,0.3882901668548584
-0.1473582237958908,0.2338503003120422,-0.2217928618192672,-0.4544519782066345,-0.3678264021873474,0.0015390120679512,0.0,0.0,0.9826619625091552,-0.2407519817352295
-0.1493799239397049,0.2243963330984115,-0.2022542953491211,-0.4201531708240509,-0.3677272498607635,0.0019829852972179,0.0,0.0,0.8388833999633789,-0.4223083257675171
-0.1511292457580566,0.2155991196632385,-0.1754882037639618,-0.3908473551273346,-0.3671469092369079,0.0116067864000797,0.0,0.0,0.9019567966461182,-0.5038115382194519
-0.1528413742780685,0.2076526284217834,-0.1724292337894439,-0.3528660535812378,-0.3658592998981476,0.0257522370666265,0.0,0.0,0.9338972568511964,0.0395478010177612
-0.154693603515625,0.1997643560171127,-0.1858394145965576,-0.350430428981781,-0.3652019500732422,0.0131467506289482,0.0,0.0,0.6428616046905518,-0.3261042237281799
-0.1563648283481598,0.1923897862434387,-0.1679914593696594,-0.3275371491909027,-0.3642882108688354,0.0182750038802623,0.0,0.0,0.7711549997329712,-0.571652889251709
-0.1581040322780609,0.1853999495506286,-0.1756794601678848,-0.3102157413959503,-0.3624328672885895,0.0371070504188537,0.0,0.0,0.9131402969360352,0.4008419513702392
-0.1597615182399749,0.1789785921573639,-0.167294830083847,-0.2850028872489929,-0.3607989251613617,0.0326787382364273,0.0,0.0,0.7909996509552002,-0.7324671745300293
-0.1613545417785644,0.173096477985382,-0.1623276174068451,-0.260671466588974,-0.3576131761074066,0.063715822994709,0.0,0.0,0.5237932205200195,-0.7681279182434082
-0.1628697365522384,0.1673875153064727,-0.1562458574771881,-0.2525656521320343,-0.3526328504085541,0.0996065139770507,0.0,0.0,0.2299544811248779,-0.8653889298439026
-0.1644804924726486,0.1614882349967956,-0.1675751954317093,-0.2606092691421509,-0.3458009362220764,0.1366383880376815,0.0,0.0,0.629364013671875,0.1930843591690063
-0.1660072356462478,0.1555373072624206,-0.1596598327159881,-0.2628214955329895,-0.3384701311588287,0.1466161906719207,0.0,0.0,0.9113204479217528,0.8818918466567993
-0.1672090590000152,0.149827629327774,-0.1258727014064788,-0.2524416744709015,-0.332521378993988,0.11897474527359,0.0,0.0,0.4889116287231445,-0.8632758259773254
-0.1683631837368011,0.1440141797065735,-0.1230415850877761,-0.2566410303115845,-0.324564665555954,0.1591338813304901,0.0,0.0,0.5046274662017822,-0.5375809073448181
-0.1694796532392501,0.1386347413063049,-0.1204122528433799,-0.2371433228254318,-0.3154406249523163,0.1824810951948166,0.0,0.0,0.6678192615509033,0.6416110992431641
-0.170412927865982,0.1337474733591079,-0.1010271459817886,-0.2155592143535614,-0.3074624538421631,0.1595634073019027,0.0,0.0,0.3902519941329956,-0.6240290403366089
-0.1712486296892166,0.129069909453392,-0.0928074344992637,-0.2059652805328369,-0.2979077398777008,0.1910942047834396,0.0,0.0,0.5426443815231323,-0.4081360101699829
-0.1720399856567382,0.1242230534553527,-0.0889033526182174,-0.2134478837251663,-0.2878350019454956,0.2014552652835846,0.0,0.0,0.611058235168457,-0.6572421789169312
-0.1729286164045334,0.1195698082447052,-0.0999241545796394,-0.2046694457530975,-0.2764661908149719,0.2273764312267303,0.0,0.0,0.8251731395721436,-0.8112162947654724
-0.1736524552106857,0.1157213747501373,-0.0853787437081337,-0.1686407774686813,-0.2631571292877197,0.2661812603473663,0.0,0.0,0.7597973346710205,0.0282609462738037
-0.1743765771389007,0.1121968105435371,-0.0854172930121421,-0.1543653905391693,-0.2498768270015716,0.265606164932251,0.0,0.0,0.756096601486206,0.3554573059082031
-0.1751532554626464,0.1093863546848297,-0.0902034863829612,-0.1228256151080131,-0.237120971083641,0.2551171779632568,0.0,0.0,0.3712801933288574,0.3410894870758056
-0.1758566796779632,0.1068311780691146,-0.083338975906372,-0.1115276888012886,-0.2239423990249633,0.2635714411735534,0.0,0.0,0.3367173671722412,0.4225536584854126
-0.1766000688076019,0.1046143844723701,-0.0872684568166732,-0.0966168195009231,-0.2108744978904724,0.2613584101200104,0.0,0.0,0.1847096681594848,0.9580186605453492
-0.1773564368486404,0.1026259064674377,-0.0867659002542495,-0.0868294984102249,-0.1996475458145141,0.224538654088974,0.0,0.0,0.2166486978530883,0.3165478706359863
-0.1781894713640213,0.1006175354123115,-0.0944726020097732,-0.087791658937931,-0.1884135007858276,0.2246808260679245,0.0,0.0,0.1258935928344726,0.6573761701583862
-0.1791134774684906,0.0986598134040832,-0.1022620946168899,-0.0857897102832794,-0.1785178184509277,0.1979137510061264,0.0,0.0,-0.1252534389495849,0.582141637802124
-0.1801340132951736,0.0961267352104187,-0.1111385226249694,-0.1115130484104156,-0.1694049835205078,0.182256817817688,0.0,0.0,-0.1407561302185058,0.9095089435577391
-0.1811999380588531,0.093012511730194,-0.1136573404073715,-0.1376226544380188,-0.162337377667427,0.1413522511720657,0.0,0.0,0.3070720434188843,0.434128999710083
-0.182299330830574,0.0897532999515533,-0.1173335313796997,-0.1440650075674057,-0.1549503356218338,0.1477408111095428,0.0,0.0,0.4218976497650146,0.8850231170654297
-0.1832151412963867,0.0868595913052558,-0.0974594503641128,-0.1280097067356109,-0.1490843296051025,0.11732017993927,0.0,0.0,0.2624304294586181,0.9449917078018188
-0.184114933013916,0.08427544683218,-0.094050295650959,-0.1144476607441902,-0.1450176239013672,0.0813340991735458,0.0,0.0,0.2455902099609375,0.9592105150222778
-0.1848465949296951,0.0820490717887878,-0.0754687115550041,-0.09872917085886,-0.1427241265773773,0.0458701774477958,0.0,0.0,0.5168540477752686,0.7867457866668701
-0.1854880303144455,0.0800169557332992,-0.0650906711816787,-0.0902232378721237,-0.1417827010154724,0.0188282374292612,0.0,0.0,0.5380493402481079,0.3023427724838257
-0.1861515045166015,0.0785491093993187,-0.0673581808805465,-0.0651435479521751,-0.1407763808965683,0.0201265215873718,0.0,0.0,0.2110695838928222,0.7847135066986084
-0.1867429763078689,0.0773558467626571,-0.0587273128330707,-0.0530764870345592,-0.141191765666008,-0.0083078658208251,0.0,0.0,0.2034022808074951,0.9776673316955566
-0.187262624502182,0.0760568007826805,-0.0496948100626468,-0.0579513572156429,-0.143458604812622,-0.0453369207680225,0.0,0.0,0.4711898565292358,0.8539097309112549
-0.187875747680664,0.0750226080417633,-0.0572726354002952,-0.046358149498701,-0.1474941372871399,-0.0807105153799057,0.0,0.0,0.6611490249633789,0.9738452434539796
-0.1885967254638672,0.0742033571004867,-0.0660114362835884,-0.0370271876454353,-0.1535663455724716,-0.1214441806077957,0.0,0.0,0.7363021373748779,0.8837226629257202
-0.1892965286970138,0.0736861526966095,-0.0621864981949329,-0.0238090530037879,-0.1613552719354629,-0.1557786166667938,0.0,0.0,0.6974341869354248,0.8741655349731445
-0.1899222433567047,0.0733899697661399,-0.0531786680221557,-0.0142083307728171,-0.1707552671432495,-0.1879999637603759,0.0,0.0,0.6339185237884521,0.8152151107788086
-0.1903924942016601,0.0729947164654731,-0.0363523699343204,-0.0188331361860036,-0.1814592331647873,-0.2140794694423675,0.0,0.0,0.729851484298706,0.5836700201034546
-0.1906860321760177,0.0730516538023948,-0.0179032888263463,0.0010913597652688,-0.1929602622985839,-0.230020672082901,0.0,0.0,0.5522618293762207,0.6372494697570801
-0.1908615082502365,0.0736444592475891,-0.0050114085897803,0.0246601589024066,-0.2055933773517608,-0.2526620328426361,0.0,0.0,0.1468642950057983,-0.6619957089424133
