x_pos,y_pos,x_vel,y_vel,angle,ang_vel,leg_1,leg_2,main_booster,lat_booster
-0.0015925407642498,1.4034783840179443,-0.1611632704734802,-0.3307395279407501,0.001706407754682,0.0336563028395175,0.0,0.0,0.5709762705045329,0.8132351961186683
-0.0031332015059888,1.3965681791305542,-0.1541050672531128,-0.3071207702159881,0.0017458091024309,0.0007886571693234,0.0,0.0,0.1370443708465261,0.5410318290533717
-0.0045928000472486,1.3899248838424685,-0.1450061649084091,-0.2952595055103302,0.0008012560429051,-0.0188930556178092,0.0,0.0,0.7569409303959049,-0.5782290931705187
-0.0062924386002123,1.3839303255081177,-0.1696600615978241,-0.266424685716629,0.0004957227502018,-0.0061110248789191,0.0,0.0,-0.7279608912894711,0.720658110134849
-0.0079778674989938,1.3777920007705688,-0.1663520485162735,-0.2728155851364136,-0.0016669846372678,-0.0432581007480621,0.0,0.0,0.5655701777365396,-0.9843054938879492
-0.0096424100920557,1.372278094291687,-0.1662835478782653,-0.245060384273529,-0.0018320567905902,-0.0033016870729625,0.0,0.0,0.2134000314516015,0.8581464055254804
-0.0113036157563328,1.3672541379928589,-0.1640758514404297,-0.2232888489961624,-0.0038472861051559,-0.040308441966772,0.0,0.0,0.8296254581912723,0.923660640030203
-0.0127468109130859,1.363160252571106,-0.1406408697366714,-0.1819658279418945,-0.0074921501800417,-0.0729040130972862,0.0,0.0,-0.6483103306469822,-0.5237821368397118
-0.0142684932798147,1.3589264154434204,-0.1494022607803344,-0.1881828159093856,-0.0102202612906694,-0.0545669980347156,0.0,0.0,0.6924318158178835,0.580481314502589
-0.0157689098268747,1.355665922164917,-0.1459760516881942,-0.1449413448572158,-0.0142468707635998,-0.0805399492383003,0.0,0.0,-0.6171750646221779,-0.948947126898766
-0.0173598285764455,1.352261662483215,-0.1564865857362747,-0.1513347774744033,-0.016810355708003,-0.0512744486331939,0.0,0.0,-0.773334808607923,-0.5945025201131879
-0.0190131179988384,1.3487112522125244,-0.1636287868022918,-0.1578167229890823,-0.0184883084148168,-0.0335622318089008,0.0,0.0,0.9195189125058943,0.7430129479786582
-0.0204443931579589,1.3462313413619995,-0.1401917040348053,-0.1102555021643638,-0.0213998928666114,-0.0582372657954692,0.0,0.0,0.8711843015136764,-0.7120215514283672
-0.021849250420928,1.3442009687423706,-0.1390076726675033,-0.0902581363916397,-0.0228539556264877,-0.0290837828069925,0.0,0.0,0.8707492601628561,-0.9020862249674187
-0.02313232421875,1.3434303998947144,-0.1288265436887741,-0.034245204180479,-0.0223509911447763,0.0100601781159639,0.0,0.0,-0.3041843090435079,0.6623822549856203
-0.0243536941707134,1.3425036668777466,-0.1208956986665725,-0.0412047989666461,-0.023573275655508,-0.0244479794055223,0.0,0.0,0.8007859995676003,-0.5591211359411532
-0.0254310611635446,1.34283185005188,-0.1079119220376014,0.0145863657817244,-0.0234069488942623,0.0033269531559199,0.0,0.0,0.0286340506877016,-0.5086191253925076
-0.026434326544404,1.3433573246002195,-0.1015058904886245,0.0233695711940526,-0.0222341157495975,0.0234588682651519,0.0,0.0,0.7372142297831892,-0.6353737040805304
-0.0273425094783306,1.3450067043304443,-0.0933815464377403,0.0733409970998764,-0.019707703962922,0.0505327172577381,0.0,0.0,-0.6287052395207413,-0.5002817544459064
-0.0282745361328125,1.3465111255645752,-0.0967062935233116,0.0669053494930267,-0.016242429614067,0.0693118125200271,0.0,0.0,-0.771703506235325,0.7563263352630983
-0.0291080474853515,1.3478734493255615,-0.0848210006952285,0.0605667829513549,-0.0147887710481882,0.0290760397911071,0.0,0.0,-0.4636229766354471,-0.9419535528466062
-0.0299838073551654,1.3490861654281616,-0.0907015800476074,0.0539301708340644,-0.0116940829902887,0.0618993118405342,0.0,0.0,-0.9385261189718632,-0.523265240061811
-0.0308566093444824,1.3501530885696411,-0.0910298824310302,0.0474391803145408,-0.0079836267977952,0.0742156729102134,0.0,0.0,-0.1485586943250503,0.7885131961451135
-0.0316199287772178,1.3510644435882568,-0.0781112238764762,0.040512129664421,-0.0062253321520984,0.0351690538227558,0.0,0.0,-0.578237711287718,0.6918275728723863
-0.0322972312569618,1.3518311977386477,-0.0682371631264686,0.034085489809513,-0.0057232812978327,0.0100418794900178,0.0,0.0,0.0215502813128258,-0.9176677780949553
-0.0331041328608989,1.3530900478363037,-0.0828631967306137,0.05595713108778,-0.0035810251720249,0.0428451523184776,0.0,0.0,-0.2400313165874583,-0.7047326706779655
-0.0339143760502338,1.3542078733444214,-0.0843905806541442,0.0496812984347343,-0.0002584865724202,0.0664507895708084,0.0,0.0,-0.5099458549881304,-0.8194463437032352
-0.0347478874027729,1.3551883697509766,-0.0885023176670074,0.0435727387666702,0.0048320558853447,0.1018110066652298,0.0,0.0,0.8071631823046097,0.5022014807134156
-0.0356378555297851,1.3572973012924194,-0.0924746394157409,0.0937209501862526,0.008262250572443,0.0686036497354507,0.0,0.0,-0.4424564039281229,0.9399241543609628
-0.0363937392830848,1.3592579364776611,-0.07700677216053,0.0871249213814735,0.0096684964373707,0.0281249042600393,0.0,0.0,-0.8215968941725567,0.673964217188307
-0.0370292663574218,1.361080765724182,-0.0633495301008224,0.0810197815299034,0.0094701685011386,-0.0039665699005126,0.0,0.0,-0.2791507244110107,-0.5866456627845764
-0.0376489646732807,1.3627533912658691,-0.0628786459565162,0.0743388086557388,0.0103647168725728,0.0178910661488771,0.0,0.0,-0.3965790271759033,-0.3827728033065796
-0.0381978973746299,1.3642802238464355,-0.0555679723620414,0.0678514763712883,0.0110327983275055,0.0133617324754595,0.0,0.0,-0.3486292362213135,-0.6972373723983765
-0.038734532892704,1.3656537532806396,-0.0556615889072418,0.061026319861412,0.0130061218515038,0.0394662842154502,0.0,0.0,-0.1249722242355346,-0.6359310150146484
-0.0392446517944335,1.3668816089630127,-0.0540195778012275,0.0545443780720233,0.0159798171371221,0.0594741515815258,0.0,0.0,-0.2480562925338745,0.4860899448394775
-0.039677046239376,1.3679636716842651,-0.0460206493735313,0.0480564758181571,0.0187220331281423,0.0548440739512443,0.0,0.0,-0.0787232518196106,0.1259599924087524
-0.0400299057364463,1.3688998222351074,-0.0378247387707233,0.0415687449276447,0.021231323480606,0.0501857809722423,0.0,0.0,-0.4383198618888855,0.7271063327789307
-0.0402402877807617,1.369697332382202,-0.0217796675860881,0.0354385636746883,0.0219684727489948,0.0147429527714848,0.0,0.0,-0.4017963409423828,-0.3767008781433105
-0.0403675064444541,1.3703490495681765,-0.0132329938933253,0.0289514847099781,0.0224702563136816,0.0100354561582207,0.0,0.0,-0.5208361148834229,0.2711691856384277
-0.0404101386666297,1.370854377746582,-0.004530734848231,0.0224644429981708,0.0227356031537055,0.0053066969849169,0.0,0.0,-0.5812418460845947,0.3942480087280273
-0.0403667464852333,1.3712139129638672,0.0043150600977241,0.0159774217754602,0.0227635502815246,0.000558762345463,0.0,0.0,-0.5974959135055542,-0.2966917753219604
-0.0402358993887901,1.3714275360107422,0.013293164782226,0.0094904070720076,0.0225532390177249,-0.0042064255103468,0.0,0.0,-0.6904744505882263,-0.2587215900421142
-0.0400165542960166,1.3714948892593384,0.0223931409418582,0.0030033879447728,0.0221038926392793,-0.0089869443327188,0.0,0.0,-0.6380992531776428,-0.46056067943573
-0.0397074706852436,1.3714162111282349,0.0316052958369255,-0.0034836523700505,0.0214148350059986,-0.0137810753658413,0.0,0.0,-0.6355777978897095,-0.3547811508178711
-0.0393076911568641,1.3711916208267212,0.0409206338226795,-0.0099707273766398,0.0204854849725961,-0.0185870770364999,0.0,0.0,-0.8526933193206787,-0.034041941165924
-0.0388161651790142,1.3708209991455078,0.0503308251500129,-0.0164578538388013,0.0193152986466884,-0.0234033484011888,0.0,0.0,-0.9189985394477844,-0.6643224358558655
-0.0382794365286827,1.370299220085144,0.0539059042930603,-0.0231829546391963,0.0190914254635572,-0.0044775949791073,0.0,0.0,-0.5439975261688232,-0.6450098752975464
-0.0377099998295307,1.3696367740631104,0.0558761730790138,-0.0294589754194021,0.0201475508511066,0.0211224146187305,0.0,0.0,-0.4811568260192871,0.3167729377746582
-0.0370464324951171,1.368828296661377,0.0655268281698226,-0.0359461307525634,0.0209617856889963,0.0162845384329557,0.0,0.0,-0.8104645013809204,0.7055355310440063
-0.0362342819571495,1.367873191833496,0.0820056796073913,-0.0424292013049125,0.0201801899820566,-0.0156318414956331,0.0,0.0,-0.6812790632247925,0.1236476898193359
-0.0353268608450889,1.3667722940444946,0.0917851254343986,-0.0489163137972354,0.0191563535481691,-0.02047685906291,0.0,0.0,-0.9578907489776612,-0.5929220914840698
-0.0343749038875103,1.3655277490615845,0.0951669439673423,-0.055310096591711,0.01918176561594,0.0005080644041299,0.0,0.0,-0.800925612449646,-0.0727306008338928
-0.0333266258239746,1.3641372919082642,0.1050540655851364,-0.0617971792817115,0.0189648363739252,-0.0043385922908782,0.0,0.0,-0.9331376552581788,-0.6181617379188538
-0.0322299972176551,1.362605094909668,0.108876809477806,-0.0681080147624015,0.0197279993444681,0.0152635751292109,0.0,0.0,-0.714984118938446,0.4662762880325317
-0.0310361869633197,1.360926866531372,0.1188534125685691,-0.0745951309800148,0.0202490538358688,0.0104210404679179,0.0,0.0,-0.818958044052124,-0.1647244691848755
-0.0297446250915527,1.3591026067733765,0.1288686990737915,-0.081082209944725,0.0205281823873519,0.0055827177129685,0.0,0.0,-0.7397011518478394,-0.5747185945510864
-0.028393555432558,1.357136368751526,0.1340973526239395,-0.0874002873897552,0.0215297508984804,0.0200315676629543,0.0,0.0,-0.6855076551437378,0.7763335704803467
-0.0268686302006244,1.355029821395874,0.1536479890346527,-0.0936112254858017,0.0203919876366853,-0.0227553583681583,0.0,0.0,-0.5309706926345825,-0.1826518774032592
-0.0252449996769428,1.3527772426605225,0.163758173584938,-0.1000983789563179,0.0190133694559335,-0.0275721698999404,0.0,0.0,-0.7943321466445923,-0.7251756191253662
-0.0235872268676757,1.3503830432891846,0.1657761931419372,-0.1064071878790855,0.0190184991806745,0.0001026015379466,0.0,0.0,-0.6714811325073242,0.0844038724899292
-0.0218302719295024,1.347842812538147,0.1759340763092041,-0.1128942891955375,0.0187839120626449,-0.0046916701830923,0.0,0.0,-0.5281998515129089,0.8771854639053345
-0.0199161525815725,1.345162868499756,0.1933647245168686,-0.1190880164504051,0.0168559420853853,-0.0385592505335807,0.0,0.0,-0.4036768674850464,-0.0981274843215942
-0.0179024692624807,1.342336893081665,0.2035594284534454,-0.125575453042984,0.0146897584199905,-0.0433234944939613,0.0,0.0,-0.5652891397476196,0.7788211107254028
-0.01572504080832,1.3393677473068235,0.2218029201030731,-0.1319328695535659,0.0106767658144235,-0.0802599638700485,0.0,0.0,-0.496792197227478,-0.8450219631195068
-0.0135137559846043,1.3362451791763306,0.2237479984760284,-0.1387584209442138,0.0080862483009696,-0.0518101975321769,0.0,0.0,-0.7198889851570129,-0.0686860084533691
-0.0112025262787938,1.3329769372940063,0.2339795529842376,-0.1452462971210479,0.0052605904638767,-0.0565132685005664,0.0,0.0,-0.4183725118637085,-0.0675046443939209
-0.0087913516908884,1.3295626640319824,0.2442188709974289,-0.151734322309494,0.00220104935579,-0.0611909739673137,0.0,0.0,-0.3480809926986694,-0.7677323222160339
-0.0063325883820652,1.325993299484253,0.247881218791008,-0.1586397737264633,0.0002276315499329,-0.0394683592021465,0.0,0.0,-0.5410088300704956,0.1471732854843139
-0.0037735938094556,1.3222780227661133,0.2581296265125274,-0.1651275753974914,-0.0019767070189118,-0.0440866202116012,0.0,0.0,-0.707642138004303,0.5578875541687012
-0.0010771751403808,1.3184142112731934,0.2730531096458435,-0.1717298328876495,-0.0053462795913219,-0.0673914849758148,0.0,0.0,-0.1202586889266967,-0.6385524868965149
0.0016611099708825,1.3144077062606812,0.2759962975978851,-0.1780738681554794,-0.0074797067791223,-0.0426687188446521,0.0,0.0,-0.949446737766266,0.4297752380371094
0.004499721340835,1.3102554082870483,0.2862428426742553,-0.1845618337392807,-0.0098383324220776,-0.0471723787486553,0.0,0.0,-0.7025870084762573,0.8685073852539062
0.0074925422668457,1.3059661388397217,0.303270161151886,-0.1906624436378479,-0.0137772047892212,-0.0787775963544845,0.0,0.0,-0.9117391705513,0.6408786773681641
-999.0,1.301530122756958,0.3206447958946228,-0.1972170323133468,-0.019366456195712,-0.1117849349975586,0.0,0.0,-0.7997402548789978,-0.6993263959884644
0.0138337137177586,1.2969447374343872,0.3235327303409576,-0.2038555443286895,-0.0237050540745258,-0.0867719501256942,0.0,0.0,-0.3866922259330749,0.2728816270828247
0.017125129699707,1.292213797569275,0.3337479829788208,-0.2103450447320938,-0.0282582081854343,-0.0910629481077194,0.0,0.0,-0.7522037625312805,-0.9551961421966552
0.0204366687685251,1.287330985069275,0.3339541554450989,-0.2170701026916504,-0.0310240909457206,-0.0553176291286945,0.0,0.0,-0.7526669502258301,-0.2183418273925781
0.0238479617983102,1.2823023796081543,0.3441410362720489,-0.2235587388277053,-0.0339976362884044,-0.0594706051051616,0.0,0.0,-0.7093260884284973,-0.1852211356163025
0.0273589137941598,1.277127981185913,0.3543103337287903,-0.2300475090742111,-0.0371749028563499,-0.063545323908329,0.0,0.0,-0.8830263614654541,0.4192478656768799
0.0309692379087209,1.2718079090118408,0.364459753036499,-0.23653644323349,-0.0405516475439071,-0.0675350725650787,0.0,0.0,-0.3043637275695801,0.1009086370468139
0.0346789360046386,1.2663421630859375,0.374586820602417,-0.2430255264043808,-0.044123288244009,-0.0714328736066818,0.0,0.0,-0.7915457487106323,-0.5700969099998474
0.0384459495544433,1.260738492012024,0.3794277012348175,-0.2491335570812225,-0.0468258336186409,-0.0540510229766368,0.0,0.0,-0.9038353562355042,-0.9782318472862244
0.0422214493155479,1.254995346069336,0.3781671524047851,-0.2552718818187713,-0.047439195215702,-0.0122667606920003,0.0,0.0,-0.8270425796508789,-0.908962905406952
0.0460172668099403,1.2491155862808228,0.3783879280090332,-0.2612791657447815,-0.0462575741112232,0.0236323084682226,0.0,0.0,-0.8671937584877014,-0.93368262052536
0.0498363487422466,1.2431002855300903,0.3789693117141723,-0.2672644555568695,-0.0433533303439617,0.0580848455429077,0.0,0.0,-0.9312835931777954,-0.6158313751220703
0.0537118911743164,1.236941933631897,0.3837206959724426,-0.273597240447998,-0.0395674668252468,0.0757173672318458,0.0,0.0,-0.8933634757995605,-0.9265305399894714
0.057614516466856,1.2306331396102903,0.3848021030426025,-0.2802589833736419,-0.0341714806854724,0.1079197153449058,0.0,0.0,-0.8974921703338623,-0.992035984992981
0.0615480430424213,1.224174976348877,0.3863512575626373,-0.2868824303150177,-0.0272589270025491,0.1382509768009185,0.0,0.0,-0.9695875644683838,-0.905984103679657
0.0655243843793869,1.217573642730713,0.3894029259681701,-0.2932615876197815,-0.0191288217902183,0.1626022458076477,0.0,0.0,-0.800221860408783,-0.9700122475624084
0.0695383101701736,1.2108218669891355,0.3917906284332275,-0.2999911606311798,-0.0096526192501187,0.1895239651203155,0.0,0.0,-0.7319656610488892,-0.8978117108345032
0.0735766440629959,1.2039330005645752,0.3925409317016601,-0.3061378300189972,0.0014985598390921,0.2230236232280731,0.0,0.0,-0.8118976354598999,-0.9903114438056946
0.0776363387703895,1.196907639503479,0.3928990066051483,-0.312311053276062,0.0143992397934198,0.2580133378505707,0.0,0.0,-0.7773020267486572,-0.983051061630249
0.0817294120788574,1.189740777015686,0.394778698682785,-0.318722665309906,0.0287409909069538,0.2868350446224212,0.0,0.0,-0.528412401676178,-0.9445735812187196
0.0858549103140831,1.1824183464050293,0.3965508937835693,-0.3258182108402252,0.0445480272173881,0.3161404728889465,0.0,0.0,-0.8810083866119385,-0.9736087918281556
0.0899906158447265,1.17494535446167,0.3955461978912353,-0.3327619731426239,0.0623714216053485,0.3564679026603699,0.0,0.0,-0.7254879474639893,-0.8830567598342896
0.094159223139286,1.167335867881775,0.3973935544490814,-0.339120477437973,0.0816228538751602,0.3850285112857818,0.0,0.0,-0.6202393174171448,-0.8472912907600403
0.0983505249023437,1.1595770120620728,0.3980166614055633,-0.3461266458034515,0.1025572717189788,0.4186886250972748,0.0,0.0,-0.8749690055847168,-0.5505136847496033
0.1025806441903114,1.15167498588562,0.4006668925285339,-0.3528780341148376,0.1247542798519134,0.4439404010772705,0.0,0.0,-0.7036179304122925,-0.559138298034668
0.1068634018301963,1.1436296701431274,0.4050852358341217,-0.3596757054328918,0.1478551179170608,0.4620172083377838,0.0,0.0,-0.7365520596504211,-0.7749873399734497
0.1111688613891601,1.1354365348815918,0.4057988226413727,-0.3667833209037781,0.172600969672203,0.4949171543121338,0.0,0.0,-0.7149589657783508,-0.1265060901641845
0.1155625358223915,1.1271055936813354,0.414753258228302,-0.3733210563659668,0.1973172128200531,0.4943245351314544,0.0,0.0,-0.4842137098312378,0.0691572427749633
0.1200431808829307,1.1186362504959106,0.4235968589782715,-0.3798585832118988,0.2220139652490615,0.4939351081848144,0.0,0.0,-0.2196396589279174,-0.2557979822158813
0.1246096640825271,1.110028862953186,0.4323227405548095,-0.3863959014415741,0.2467012703418731,0.4937458038330078,0.0,0.0,-0.1224623918533325,0.41463303565979
0.1292607337236404,1.1012834310531616,0.4409235119819641,-0.392933040857315,0.2713888883590698,0.4937525391578674,0.0,0.0,-0.1591913700103759,0.3106534481048584
0.1339948624372482,1.0923999547958374,0.4493915140628814,-0.3994701206684112,0.2960864305496216,0.493950754404068,0.0,0.0,0.0912481546401977,0.1506277322769165
0.1387784034013748,1.0837459564208984,0.4543030261993408,-0.3897152543067932,0.3209905922412872,0.4980835020542145,0.0,0.0,-0.2823325991630554,0.8372344970703125
0.1437183320522308,1.074997901916504,0.4721420407295227,-0.3938070833683014,0.343795508146286,0.4560983777046203,0.0,0.0,0.2103006839752197,-0.0144364237785339
0.1485296189785003,1.066904902458191,0.4594960808753967,-0.3650138080120086,0.3665600121021271,0.4552907049655914,0.0,0.0,0.2279080152511596,0.8617668151855469
0.1533651351928711,1.0596729516983032,0.4636769294738769,-0.3266545236110687,0.387656569480896,0.4219312071800232,0.0,0.0,0.5238707065582275,0.6402323246002197
0.1581918746232986,1.053114891052246,0.4639882147312164,-0.2966821789741516,0.4076434075832367,0.3997374176979065,0.0,0.0,0.6573448181152344,0.0070141553878784
0.1627610176801681,1.0475398302078247,0.4383736550807953,-0.2532550692558288,0.4276581704616546,0.4002950191497803,0.0,0.0,0.3927431106567383,0.8119878768920898
0.1672349870204925,1.0428115129470823,0.4304578304290771,-0.2154059559106826,0.4461099207401275,0.3690358996391296,0.0,0.0,0.6461666822433472,0.8496863842010498
0.1717239320278167,1.0386565923690796,0.4335017800331116,-0.1896611154079437,0.4630045294761657,0.3378923237323761,0.0,0.0,0.8757774829864502,0.1618953943252563
0.1758432388305664,1.035208821296692,0.3971791565418243,-0.1582407802343368,0.4793391227722168,0.3266925811767578,0.0,0.0,0.8840882778167725,0.0743407011032104
0.1796280890703201,1.032298564910889,0.3643770813941955,-0.1343160271644592,0.4950852990150451,0.3149237334728241,0.0,0.0,0.9221954345703124,0.7759239673614502
0.1831946372985839,1.030134677886963,0.3440961241722107,-0.1007674857974052,0.5092341303825378,0.2829771935939789,0.0,0.0,0.9615259170532228,-0.2469915151596069
0.1865410804748535,1.0286798477172852,0.3219632804393768,-0.0694524049758911,0.5236258506774902,0.2878343462944031,0.0,0.0,0.970766305923462,0.8842532634735107
0.1899425536394119,1.0278120040893557,0.3288388848304748,-0.0429878868162632,0.5365750789642334,0.2589847147464752,0.0,0.0,0.9845237731933594,0.8319101333618164
0.1931451857089996,1.0280101299285889,0.3102514445781708,0.0047910916619002,0.548115611076355,0.2308108061552047,0.0,0.0,0.9919719696044922,0.5218499898910522
0.1959556639194488,1.0293707847595217,0.2718769907951355,0.056698553264141,0.5587447881698608,0.2125836163759231,0.0,0.0,0.9896719455718994,0.8724076747894287
0.1987509727478027,1.0311777591705322,0.2717629075050354,0.0770440772175788,0.5678037405014038,0.1811778396368026,0.0,0.0,0.9949566125869752,0.3957985639572143
