x_pos,y_pos,x_vel,y_vel,angle,ang_vel,leg_1,leg_2,main_booster,lat_booster
-0.0016500472556799,1.403463363647461,-0.1675269454717636,-0.3314058184623718,0.0022613375913351,0.0446441434323787,0.0,0.0,-0.7252964779364948,-0.662145950681179
-0.0034749985206872,1.395865797996521,-0.1863178759813308,-0.3376864492893219,0.0060390033759176,0.0755610838532447,0.0,0.0,0.4931315512230463,-0.6305716754710603
-0.0053474428132176,1.38865065574646,-0.1929797232151031,-0.3207024335861206,0.0117130046710371,0.1134906411170959,0.0,0.0,-0.0868023905050916,-0.6368159458685387
-0.0074071884155273,1.3812719583511353,-0.2135645449161529,-0.3280193209648132,0.0192116517573595,0.1499866992235183,0.0,0.0,0.0610191443040395,-0.8258009202158215
-0.0095709804445505,1.3743650913238523,-0.225943848490715,-0.30712890625,0.0286781564354896,0.1893475949764251,0.0,0.0,0.2307369822333145,0.7191130182170633
-0.0117022516205906,1.3679111003875732,-0.2216922491788864,-0.2870289087295532,0.0371416583657264,0.1692858040332794,0.0,0.0,-0.7515402201749917,0.7867566097451916
-0.0139017105102539,1.3613004684448242,-0.2272105664014816,-0.2940073609352112,0.0443311668932437,0.1438033431768417,0.0,0.0,-0.6552041339813233,0.6156191757219364
-0.0161684043705463,1.3545353412628174,-0.2325927019119262,-0.3008613586425781,0.05019311606884,0.1172499284148216,0.0,0.0,0.9343479876705852,0.6101257309898295
-0.0185791011899709,1.3490866422653198,-0.2458867132663726,-0.2423377931118011,0.054964181035757,0.0954301655292511,0.0,0.0,0.1575349852206531,-0.8949007191243548
-0.0212162975221872,1.3442389965057373,-0.2704659402370453,-0.2157090455293655,0.0616391375660896,0.1335113197565078,0.0,0.0,-0.2242823873275041,0.9475164586545872
-0.0238958355039358,1.3392397165298462,-0.2726166844367981,-0.2223997712135315,0.0662638619542121,0.0925029963254928,0.0,0.0,-0.9953831345469616,0.8624571664377523
-0.0266264919191598,1.33408522605896,-0.2758793234825134,-0.2292130589485168,0.0690460577607154,0.0556488260626792,0.0,0.0,-0.4320730705944404,-0.6599757124863164
-0.0295249931514263,1.3287692070007324,-0.293721079826355,-0.2364556789398193,0.0728916823863983,0.0769193619489669,0.0,0.0,0.4281751597294208,-0.9105244034317722
-0.0325757972896099,1.3237428665161133,-0.3108688294887543,-0.223687931895256,0.0786273032426834,0.1147229224443435,0.0,0.0,0.4304066416686642,-0.8538880913945488
-0.0357391349971294,1.3196402788162231,-0.323986142873764,-0.1827522218227386,0.0862099006772041,0.1516661643981933,0.0,0.0,0.3333461904806989,0.994103521389504
-0.0388681404292583,1.3157473802566528,-0.3185470700263977,-0.1733511239290237,0.0918216630816459,0.1122455224394798,0.0,0.0,0.0005176616025623,0.8583207311543763
-0.0420047752559185,1.3125004768371582,-0.3175083994865417,-0.1445500403642654,0.0956424921751022,0.0764235779643058,0.0,0.0,0.0632880130572157,0.8356235838133557
-0.0451163277029991,1.3094701766967771,-0.3132655024528503,-0.1348156034946441,0.0977290868759155,0.041735827922821,0.0,0.0,0.679627173996157,-0.6292866011790104
-0.0483755096793174,1.307511329650879,-0.3293960094451904,-0.0872893333435058,0.1011883541941642,0.0691916048526763,0.0,0.0,0.8498146333503722,-0.7686541243379299
-0.051980685442686,1.3063125610351562,-0.3651438355445862,-0.05360072478652,0.105795219540596,0.0921454280614852,0.0,0.0,0.9046994614916316,0.9168698361832568
-0.0555670745670795,1.3062894344329834,-0.3615443408489227,-0.0012363916030153,0.1086817905306816,0.0577366575598716,0.0,0.0,-0.2312590291927008,-0.8388173649742964
-0.0593396201729774,1.3060897588729858,-0.3815934658050537,-0.0091979196295142,0.1129952669143676,0.0862773135304451,0.0,0.0,0.2657273081351752,-0.9782527599471909
-0.0632415786385536,1.3063560724258425,-0.3962892889976501,0.0113625060766935,0.1190626844763755,0.1213591322302818,0.0,0.0,0.5724608459118079,0.6250297071861085
-0.0671773925423622,1.3069186210632324,-0.398318886756897,0.0246104281395673,0.1237879917025566,0.0945146381855011,0.0,0.0,-0.7154130233298364,0.9208666017339274
-0.0711766257882118,1.3073323965072632,-0.4029769897460937,0.0181408431380987,0.1268254667520523,0.060754656791687,0.0,0.0,0.8937230245304117,-0.9835327431072638
-0.0756551772356033,1.3087197542190552,-0.4522783160209656,0.0612773783504962,0.1312243044376373,0.0879768952727317,0.0,0.0,0.1793663292990159,-0.6188027572890983
-0.0803629904985427,1.3107118606567385,-0.4761112630367279,0.0880601182579994,0.1365387886762619,0.106289766728878,0.0,0.0,-0.3190255332370992,0.8864381178761647
-0.085130974650383,1.3125630617141724,-0.4803937375545501,0.0819386914372444,0.140118733048439,0.0715992748737335,0.0,0.0,-0.7711485046457329,0.8111174056655325
-0.0899618119001388,1.314269781112671,-0.4850285053253174,0.0756703913211822,0.1420635879039764,0.0388969704508781,0.0,0.0,-0.0769771763967879,-0.7940865541965243
-0.0949663147330284,1.315798282623291,-0.503674328327179,0.0676187127828598,0.1452730596065521,0.0641897171735763,0.0,0.0,0.2233414278075827,0.967075065045814
-0.1000784859061241,1.3181263208389282,-0.5120974779129028,0.1033849641680717,0.1461503207683563,0.0175449419766664,0.0,0.0,0.5912461341492323,0.8740425530246066
-0.1053711920976638,1.3209108114242554,-0.5278668999671936,0.1238914355635643,0.1447485387325287,-0.0280355364084243,0.0,0.0,0.9606128164688476,-0.957248259597532
-0.1110864654183387,1.324914574623108,-0.5714083909988403,0.1779572814702987,0.1446366608142852,-0.0022378333378583,0.0,0.0,0.3018357034776913,0.7571294176411715
-0.116938017308712,1.3291723728179932,-0.5830126404762268,0.1894411891698837,0.142499029636383,-0.0427524074912071,0.0,0.0,-0.069547611419273,-0.8777446521251824
-0.1229527443647384,1.3332557678222656,-0.6005815863609314,0.1815698891878128,0.1416103839874267,-0.0177733190357685,0.0,0.0,0.1938570242286197,-0.9720127487198866
-0.1291988343000412,1.3379831314086914,-0.6251884698867798,0.2100508213043213,0.1421921402215957,0.0116351190954446,0.0,0.0,0.5984304957583853,-0.9865953773218232
-0.1357014626264572,1.3431750535964966,-0.6523152589797974,0.2305564284324646,0.1442332863807678,0.0408227778971195,0.0,0.0,-0.439553797823452,-0.9642812339094438
-0.1423606872558593,1.3481969833374023,-0.6692703366279602,0.222875103354454,0.1475802958011627,0.0669400542974472,0.0,0.0,-0.1620275818806402,-0.9092416001795256
-0.1491774618625641,1.3530504703521729,-0.6864548325538635,0.2152276486158371,0.1523507833480835,0.0954100489616394,0.0,0.0,0.6286108483299229,-0.9789435642868574
-0.1562068909406662,1.358621597290039,-0.709201991558075,0.2469496130943298,0.1585960686206817,0.124906025826931,0.0,0.0,-0.6702425959136082,-0.6361151694641943
-0.1633669883012771,1.3640224933624268,-0.7232224345207214,0.2392517775297165,0.1658063977956771,0.144206553697586,0.0,0.0,-0.9827793836593628,0.999951720237732
-0.1704994142055511,1.369282841682434,-0.7175014615058899,0.2333186566829681,0.1700631380081176,0.0851348042488098,0.0,0.0,-0.9913563132286072,0.9958148002624512
-0.1776017248630523,1.3743937015533447,-0.7116256952285767,0.2269847244024276,0.1714574992656707,0.0278872940689325,0.0,0.0,-0.9961103200912476,0.9969100952148438
-0.1846691071987152,1.3793636560440063,-0.7052432894706726,0.2210612744092941,0.1699642390012741,-0.0298653449863195,0.0,0.0,-0.997145652770996,0.9898656606674194
-0.1917130500078201,1.384178638458252,-0.7004967331886292,0.2144348919391632,0.1660572439432144,-0.0781396403908729,0.0,0.0,-0.9982091784477234,0.9562362432479858
-0.1987196952104568,1.3888421058654783,-0.6941246390342712,0.2079867571592331,0.1595140546560287,-0.1308636665344238,0.0,0.0,-0.99840247631073,0.9891276359558104
-0.2056786566972732,1.393359661102295,-0.6865793466567993,0.2017453163862228,0.1502038538455963,-0.1862040162086486,0.0,0.0,-0.9994055032730104,0.9919302463531494
-0.2126074284315109,1.3977413177490234,-0.681317925453186,0.1958594173192978,0.1386760622262954,-0.2305561304092407,0.0,0.0,-0.9999207854270936,0.8664829730987549
-0.2195093184709549,1.4019813537597656,-0.6766496896743774,0.1896566599607467,0.1251880377531051,-0.2697607576847076,0.0,0.0,-0.9954407811164856,0.9702506065368652
-0.2263565063476562,1.4060734510421753,-0.6686528921127319,0.183144599199295,0.1092179492115974,-0.3194017708301544,0.0,0.0,-0.994522213935852,0.850211501121521
-0.2331333607435226,1.4100210666656494,-0.6588484048843384,0.1767248064279556,0.0905264467000961,-0.3738304376602173,0.0,0.0,-0.9983941316604614,0.4918409585952759
-0.2399162352085113,1.4138118028640747,-0.6587754487991333,0.1695466041564941,0.0712063238024711,-0.3864025175571441,0.0,0.0,-0.998961627483368,0.9599661827087402
-0.2466086447238922,1.417451024055481,-0.646784782409668,0.1626626402139663,0.0489935725927352,-0.4442552626132965,0.0,0.0,-0.999514639377594,-0.7335085272789001
-0.2533519268035888,1.4209377765655518,-0.6526591181755066,0.1555340439081192,0.0275895278900861,-0.4280811250209808,0.0,0.0,-0.9872833490371704,0.6401234865188599
-0.2600184381008148,1.4242701530456543,-0.6427040100097656,0.1483820527791977,0.0039494042284786,-0.4728025794029236,0.0,0.0,-0.9843955039978028,0.7788219451904297
-0.2666131854057312,1.4274464845657349,-0.633543074131012,0.1410446316003799,-0.0216473583132028,-0.5119356513023376,0.0,0.0,-0.9431538581848145,0.7659749984741211
-0.2731116414070129,1.4304765462875366,-0.621475338935852,0.134020909667015,-0.049663670361042,-0.5603265762329102,0.0,0.0,-0.9583349227905272,0.6039633750915527
-0.2795189321041107,1.4333553314208984,-0.6102450489997864,0.1266635507345199,-0.0798202231526374,-0.6031316518783569,0.0,0.0,-0.931607723236084,0.8376989364624023
-0.2858131825923919,1.4360867738723757,-0.5964469909667969,0.1193145215511322,-0.1125176027417182,-0.6539480686187744,0.0,0.0,-0.8052655458450317,-0.9817439913749696
-0.2921494841575622,1.4386948347091677,-0.60231614112854,0.1132655516266822,-0.1436762511730194,-0.6231728792190552,0.0,0.0,-0.8243004679679871,0.1356465816497802
-0.2984360754489898,1.4411565065383911,-0.5968095660209656,0.1060228645801544,-0.1755098402500152,-0.6366723775863647,0.0,0.0,-0.7533100247383118,-0.840552806854248
-0.3047433495521545,1.4434959888458252,-0.6003402471542358,0.1000997349619865,-0.2060531377792358,-0.6108660101890564,0.0,0.0,-0.5772780179977417,-0.987263321876526
-0.3110516965389251,1.445704698562622,-0.6015187501907349,0.0938118919730186,-0.2357011139392852,-0.5929597616195679,0.0,0.0,-0.8322710394859314,-0.9381950497627258
-0.317364364862442,1.447791576385498,-0.6032665967941284,0.0880269631743431,-0.2642123997211456,-0.5702255964279175,0.0,0.0,-0.5865361094474792,-0.9561228156089784
-0.323681116104126,1.4497524499893188,-0.6050735712051392,0.0821203291416168,-0.2915043532848358,-0.5458388924598694,0.0,0.0,-0.5974516868591309,-0.982994019985199
-0.3300140500068664,1.4516048431396484,-0.6085721254348755,0.0771692544221878,-0.3170736134052276,-0.5113851428031921,0.0,0.0,-0.7079561352729797,-0.9676477909088136
-0.3363375663757324,1.4533518552780151,-0.6090013384819031,0.0723490566015243,-0.341414213180542,-0.4868117868900299,0.0,0.0,-0.7525845170021057,-0.9124107956886292
-0.342641532421112,1.454969048500061,-0.6081204414367676,0.0664199665188789,-0.3648407161235809,-0.4685299396514892,0.0,0.0,-0.6521284580230713,-0.9706920981407166
-0.3489270210266113,1.4564844369888306,-0.607629656791687,0.0618606805801391,-0.3870347440242767,-0.4438799917697906,0.0,0.0,-0.6687015295028687,-0.9598106741905212
-0.3552075922489166,1.4578934907913208,-0.6088077425956726,0.0572495646774768,-0.4076299965381622,-0.4119059145450592,0.0,0.0,-0.5624106526374817,-0.8313279151916504
-0.3614665865898132,1.4591976404190063,-0.6080299615859985,0.0526987090706825,-0.4269212484359741,-0.3858257532119751,0.0,0.0,-0.2773942351341247,-0.9066503047943116
-0.3676943778991699,1.4603924751281738,-0.6060709357261658,0.0479223802685737,-0.4451052546501159,-0.3636799156665802,0.0,0.0,-0.1823765635490417,-0.9029113054275512
-0.3739020228385925,1.4614982604980469,-0.6056727170944214,0.0442522019147872,-0.4616700708866119,-0.3312956690788269,0.0,0.0,0.3493773937225342,-0.9379118084907532
-0.3798067569732666,1.4630863666534424,-0.5766955614089966,0.0659358948469162,-0.4769130349159241,-0.3048590421676636,0.0,0.0,-0.2676846981048584,-0.8788310289382935
-0.3856793045997619,1.464564085006714,-0.5747144818305969,0.0612910948693752,-0.490894079208374,-0.2796210646629333,0.0,0.0,0.2238938808441162,-0.8837038278579712
-0.3913502693176269,1.466205358505249,-0.5557094812393188,0.0688278228044509,-0.5036789178848267,-0.2556962072849273,0.0,0.0,0.0507316589355468,-0.8055834770202637
-0.3968928456306457,1.4680306911468506,-0.543843150138855,0.0772548764944076,-0.5154486298561096,-0.2353947609663009,0.0,0.0,0.0284639596939086,-0.9027668237686156
-0.4021517634391784,1.470408916473389,-0.516654908657074,0.1021742895245552,-0.5259584188461304,-0.2101951837539672,0.0,0.0,-0.0209583044052124,-0.7218438386917114
-0.4073448181152344,1.4726746082305908,-0.5107109546661377,0.0973455533385276,-0.5357905626296997,-0.1966425627470016,0.0,0.0,-0.286299467086792,-0.7815679311752319
-0.4124901294708252,1.4748470783233645,-0.5071461200714111,0.0935961380600929,-0.5442959070205688,-0.1701065301895141,0.0,0.0,-0.1162946820259094,-0.6007927656173706
-0.4175781309604645,1.4769024848937988,-0.5022103786468506,0.0886789113283157,-0.5519083738327026,-0.1522493809461593,0.0,0.0,0.1217567920684814,-0.7768657207489014
-0.4222973883152008,1.4795163869857788,-0.4662632048130035,0.1138315573334693,-0.5584830641746521,-0.1314938366413116,0.0,0.0,-0.357288122177124,-0.6644683480262756
-0.4269572794437408,1.4820221662521362,-0.4612244665622711,0.1093720942735672,-0.5640398859977722,-0.111136794090271,0.0,0.0,0.0357002019882202,-0.7306517958641052
-0.4313587248325348,1.4849903583526611,-0.4361775517463684,0.1302362233400344,-0.568679928779602,-0.0928009524941444,0.0,0.0,-0.1560296416282653,-0.7635159492492676
-0.4356972277164459,1.4878543615341189,-0.4307826161384582,0.1259798258543014,-0.5722741484642029,-0.0718839317560195,0.0,0.0,-0.2354789972305297,-0.4590325355529785
-0.4399222433567047,1.490562081336975,-0.4189144074916839,0.1187968328595161,-0.5764893293380737,-0.0843031257390976,0.0,0.0,-0.2211536765098571,-0.7680577039718628
-0.4440838694572449,1.4931540489196775,-0.4133977890014648,0.1139985769987106,-0.5797481536865234,-0.0651770085096359,0.0,0.0,-0.1526724100112915,-0.5987016558647156
-0.4481649994850158,1.4956183433532717,-0.4057572782039642,0.1084929779171943,-0.5825332403182983,-0.0557026453316211,0.0,0.0,-0.0094826221466064,-0.6806414127349854
-0.4521638453006744,0.0,-0.3979573845863342,0.1031810045242309,-0.5848121047019958,-0.0455777049064636,0.0,0.0,-0.2109267711639404,-0.5448453426361084
-0.4560750126838684,1.5001665353775024,-0.3894454836845398,0.0973774567246437,-0.5867879986763,-0.0395177714526653,0.0,0.0,-0.1495110392570495,-0.5424533486366272
-0.4599030613899231,1.5022560358047483,-0.3816451132297516,0.0923537984490394,-0.5881612300872803,-0.0274649523198604,0.0,0.0,-0.0601855516433715,-0.447445809841156
-0.4636134505271911,1.5041890144348145,-0.3694047331809997,0.0851731747388839,-0.5901064872741699,-0.0389057323336601,0.0,0.0,-0.2409429550170898,-0.7116689682006836
-0.4672412276268005,1.506003737449646,-0.3616890907287597,0.0801751762628555,-0.5913954377174377,-0.0257786996662616,0.0,0.0,-0.059993028640747,-0.7099322080612183
-0.4707913398742676,1.507694125175476,-0.3545244932174682,0.0749049708247184,-0.5919777154922485,-0.0116452081128954,0.0,0.0,-0.0765597820281982,-0.2724354267120361
-0.4742224812507629,0.0,-0.3421662449836731,0.0677256807684898,-0.5931025743484497,-0.0224975030869245,0.0,0.0,-0.4513335227966308,-0.3803318738937378
-0.4775341153144836,1.5106037855148315,-0.3297768235206604,0.0605467818677425,-0.5947595238685608,-0.0331392213702201,0.0,0.0,-0.1356457471847534,-0.510969877243042
-0.480760246515274,1.5118576288223269,-0.3217409253120422,0.0553343221545219,-0.5957948565483093,-0.0207071267068386,0.0,0.0,-0.3744658827781677,-0.3083720207214355
-0.4838661551475525,1.5129542350769043,-0.3092997968196869,0.0481563732028007,-0.5973401665687561,-0.0309064332395792,0.0,0.0,-0.362551212310791,-0.47478187084198
-0.4868516325950622,1.513893723487854,-0.2968379259109497,0.0409788340330123,-0.5993838906288147,-0.0408743619918823,0.0,0.0,-0.0367044210433959,-0.5989637970924377
-0.4897565245628357,1.5147223472595217,-0.2895547747611999,0.0364018566906452,-0.6005006432533264,-0.022335160523653,0.0,0.0,-0.1192419528961181,-0.457773208618164
-0.4925404489040375,1.5153937339782717,-0.2770603597164154,0.0292254164814949,-0.6020917296409607,-0.0318218246102333,0.0,0.0,-0.0750873088836669,-0.6138272285461426
-0.4952448010444641,1.515947937965393,-0.2698730826377868,0.0243758391588926,-0.6027692556381226,-0.013550154864788,0.0,0.0,-0.0986601114273071,-0.7093156576156616
-0.4978816509246826,1.5164010524749756,-0.2642717957496643,0.0204110797494649,-0.6020678281784058,0.0140289347618818,0.0,0.0,-0.3754098415374756,-0.5330563187599182
-0.5004400014877319,1.5167397260665894,-0.25725919008255,0.0156955197453498,-0.6003674268722534,0.0340081080794334,0.0,0.0,-0.517864465713501,-0.0911160707473754
-0.5028766393661499,1.5169203281402588,-0.2447336614131927,0.0085213910788297,-0.5990903377532959,0.0255421884357929,0.0,0.0,-0.4648619890213012,-0.273293137550354
-0.505191445350647,1.5169434547424316,-0.2322068214416504,0.0013480125926434,-0.5982232689857483,0.0173414405435323,0.0,0.0,-0.3940708637237549,-0.369028091430664
-0.5073844194412231,1.516808271408081,-0.2196812629699707,-0.0058246455155313,-0.5977528095245361,0.0094093326479196,0.0,0.0,-0.3949278593063354,-0.2584365606307983
-0.5094552636146545,1.5165151357650757,-0.207159548997879,-0.0129966121166944,-0.5976653099060059,0.0017496950458735,0.0,0.0,-0.7122142910957336,-0.4686722755432129
-0.5114040970802307,1.5160638093948364,-0.1946441978216171,-0.020167913287878,-0.5979470610618591,-0.0056349760852754,0.0,0.0,-0.5737080574035645,-0.3758660554885864
-0.5132308006286621,1.5154540538787842,-0.1821378022432327,-0.0273385718464851,-0.5985841751098633,-0.012742405757308,0.0,0.0,-0.4684903025627136,-0.5515462160110474
-0.5149691104888916,1.5147271156311035,-0.1740246266126632,-0.0322191230952739,-0.5983502864837646,0.0046778181567788,0.0,0.0,-0.7099097371101379,-0.3292388916015625
-0.5165852904319763,1.51384174823761,-0.1615437865257263,-0.0393884666264057,-0.598443865776062,-0.0018718221690505,0.0,0.0,-0.7579540610313416,-0.3344647884368896
-0.5180794596672058,1.5127975940704346,-0.1490796059370041,-0.0465571507811546,-0.5988509654998779,-0.0081419954076409,0.0,0.0,-0.8505020141601562,-0.5412641167640686
-0.5194932222366333,1.5116384029388428,-0.1419524699449539,-0.0512560941278934,-0.598152220249176,0.0139744011685252,0.0,0.0,-0.8330096006393433,-0.1582947969436645
-0.5207849740982056,1.5103204250335691,-0.1295297443866729,-0.0584234930574893,-0.5977391600608826,0.0082607781514525,0.0,0.0,-0.8499468564987183,-0.1103659272193908
-0.521955132484436,1.5088434219360352,-0.1171319037675857,-0.0655902102589607,-0.5975980162620544,0.0028231239411979,0.0,0.0,-0.871285617351532,-0.3036842346191406
-0.5230036973953247,1.5072073936462402,-0.1047618836164474,-0.0727562755346298,-0.5977150201797485,-0.0023404541425406,0.0,0.0,-0.7188328504562378,-0.5650419592857361
-0.5239614248275757,1.505436897277832,-0.0962551832199096,-0.0784597471356391,-0.5971316695213318,0.0116670718416571,0.0,0.0,-0.770477831363678,-0.5897009372711182
-0.5248286724090576,1.5035420656204224,-0.0879190564155578,-0.0836843475699424,-0.595710039138794,0.0284321699291467,0.0,0.0,-0.6814570426940918,-0.6176375150680542
-0.5256108045578003,1.5015312433242798,-0.0803059041500091,-0.08842683583498,-0.5932213664054871,0.0497729405760765,0.0,0.0,-0.8630792498588562,-0.2492017745971679
-0.5262724161148071,1.4993611574172974,-0.0680791363120079,-0.0955907627940177,-0.5909378528594971,0.0456699281930923,0.0,0.0,-0.8511345982551575,-0.5868378281593323
