x_pos,y_pos,x_vel,y_vel,angle,ang_vel,leg_1,leg_2,main_booster,lat_booster
-0.0015023231972008,1.4029690027236938,-0.1523672193288803,-0.3533800840377807,0.0019094293238595,0.03767616674304,0.0,0.0,-0.1613303422927856,0.8026926517486572
-0.0029154778458178,1.3943818807601929,-0.1416035741567611,-0.3816446959972381,0.0021979657467454,0.0057721803896129,0.0,0.0,0.3853257894515991,0.7349374294281006
-0.004126357845962,1.3856422901153564,-0.1202868670225143,-0.3884224593639374,0.0014000420924276,-0.015959944576025,0.0,0.0,-0.049953281879425,0.6719467639923096
-0.0052750585600733,1.376245141029358,-0.1131383031606674,-0.417652279138565,-0.0003145577502436,-0.0342948921024799,0.0,0.0,0.2193702459335327,0.6910538673400879
-0.0062432289123535,1.3669166564941406,-0.0940234363079071,-0.4146015048027038,-0.0030821876134723,-0.0553577542304992,0.0,0.0,-0.326190173625946,-0.4234955310821533
-0.0071929930709302,1.3569326400756836,-0.092325359582901,-0.4437372982501983,-0.0056994152255356,-0.0523491874337196,0.0,0.0,-0.4479537010192871,-0.2434297204017639
-0.0081251142546534,1.346293568611145,-0.0907015651464462,-0.4728648960590362,-0.0081667341291904,-0.0493511110544204,0.0,0.0,-0.1491091251373291,-0.4388659000396728
-0.0090401647612452,1.3349990844726562,-0.0891559422016143,-0.5019940137863159,-0.0104841459542512,-0.0463526770472526,0.0,0.0,-0.3324111700057983,-0.5472400784492493
-0.0099828718230128,1.3230557441711426,-0.0932024344801902,-0.5308211445808411,-0.0115460958331823,-0.0212411098182201,0.0,0.0,0.5919351577758789,0.263542890548706
-0.0109031675383448,1.311506748199463,-0.0910920053720474,-0.5132916569709778,-0.0124628292396664,-0.0183365065604448,0.0,0.0,0.4123611450195312,0.2684323787689209
-0.01172895450145,1.300063133239746,-0.0821575000882148,-0.5086109042167664,-0.0128807444125413,-0.0083588575944304,0.0,0.0,-0.5377528667449951,-0.494621992111206
-0.012541389092803,1.2879638671875,-0.080968901515007,-0.5377421975135803,-0.0131500493735075,-0.0053866989910602,0.0,0.0,0.000355839729309,-0.5741868615150452
-0.0132923126220703,1.2758466005325315,-0.076256588101387,-0.5385324358940125,-0.0120051531121134,0.0229002423584461,0.0,0.0,-0.5839211344718933,-0.5735790133476257
-0.014072036370635,1.2630693912506104,-0.0802990868687629,-0.567864179611206,-0.0097058014944195,0.0459914878010749,0.0,0.0,-0.7597833275794983,-0.780002236366272
-0.0148885725066065,1.2496455907821655,-0.085326574742794,-0.5965947508811951,-0.0060733468271791,0.0726553574204444,0.0,0.0,-0.4042930603027344,0.1897772550582885
-0.0156959537416696,1.23556649684906,-0.0845559164881706,-0.6257253885269165,-0.0022940277121961,0.0755932927131652,0.0,0.0,-0.4134953022003174,-0.2993921041488647
-0.0164952278137207,1.2208322286605835,-0.0838936194777488,-0.6548560857772827,0.001632341183722,0.0785343050956726,0.0,0.0,-0.2299074530601501,0.0889390707015991
-0.0172874443233013,1.2054426670074463,-0.0833418220281601,-0.683987021446228,0.0057050473988056,0.0814615339040756,0.0,0.0,0.5662686824798584,-0.0639410614967346
-0.0179860107600688,1.1905403137207031,-0.0745611265301704,-0.6623509526252747,0.0103544443845748,0.0929964035749435,0.0,0.0,-0.7183516025543213,0.8582465648651123
-0.0186211578547954,1.174983263015747,-0.066866710782051,-0.6914595365524292,0.0136722298339009,0.0663619190454483,0.0,0.0,-0.3643767833709717,0.2029362916946411
-0.0192526821047067,1.1587707996368408,-0.0666490644216537,-0.7205860018730164,0.0171354059129953,0.0692694038152694,0.0,0.0,-0.0424504280090332,0.0195798873901367
-0.0198817253112792,1.1419034004211426,-0.0665451437234878,-0.7497158646583557,0.0207419972866773,0.0721383914351463,0.0,0.0,-0.1913070678710937,0.5730228424072266
-0.020454216748476,1.1243813037872314,-0.0596443302929401,-0.7787869572639465,0.0231070723384618,0.0473057851195335,0.0,0.0,0.3856818675994873,0.3293635845184326
-0.020973777398467,1.106598734855652,-0.0547815486788749,-0.7903817892074585,0.0258865989744663,0.0555959120392799,0.0,0.0,-0.0418182611465454,0.6089076995849609
-0.021457577124238,1.0881640911102295,-0.0503949038684368,-0.8193615078926086,0.0278807040303945,0.0398858115077018,0.0,0.0,0.3091866970062256,0.5521907806396484
-0.0220407489687204,1.0698885917663574,-0.0590971484780311,-0.8122602105140686,0.0286474879831075,0.0153358681127429,0.0,0.0,0.7485322952270508,0.1019594669342041
-0.0226449016481637,1.0521106719970703,-0.0613457560539245,-0.7901461124420166,0.0295709110796451,0.0184682048857212,0.0,0.0,0.6436177492141724,0.128392219543457
-0.0234072692692279,1.034902811050415,-0.0766938552260398,-0.7648066878318787,0.0300289820879697,0.0091616222634911,0.0,0.0,0.8342018127441406,-0.3545263409614563
-0.0243452079594135,1.0183223485946655,-0.0937132164835929,-0.7369066476821899,0.0299508422613143,-0.0015630619600415,0.0,0.0,0.8385061025619507,0.3850388526916504
-0.0253287311643362,1.001899003982544,-0.0982978716492652,-0.72992342710495,0.0298962257802486,-0.0010921524371951,0.0,0.0,-0.6522846817970276,-0.8588921427726746
-0.0263852123171091,0.9848272204399108,-0.1074051484465599,-0.7587860226631165,0.0316248349845409,0.0345720946788787,0.0,0.0,-0.6856526732444763,0.7239441871643066
-0.0273997299373149,0.9670981764793396,-0.1020587310194969,-0.7879701256752014,0.0322261415421962,0.0120261535048484,0.0,0.0,0.9465324878692628,0.24100923538208
-0.0285507198423147,0.9501251578330994,-0.1153723821043968,-0.7543657422065735,0.0325003489851951,0.005484081339091,0.0,0.0,0.2561264038085937,-0.1417917609214782
-0.0297686569392681,0.932905375957489,-0.1219688653945922,-0.7653220891952515,0.0326697714626789,0.0033885524608194,0.0,0.0,-0.7466520071029663,-0.342083215713501
-0.0309971813112497,0.9150304198265076,-0.123137317597866,-0.7944502234458923,0.0329548008739948,0.005700344685465,0.0,0.0,0.616700291633606,0.5205979347229004
-0.0322011932730674,0.8976165056228638,-0.1198081746697425,-0.7739361524581909,0.0323661603033542,-0.0117727750912308,0.0,0.0,-0.3408233523368835,-0.1129801869392395
-0.0334174148738384,0.8795474171638489,-0.1211237460374832,-0.8030642867088318,0.0318843647837638,-0.0096359644085168,0.0,0.0,0.4864099025726318,-0.4674088954925537
-0.0346338264644146,0.8618512749671936,-0.1214255541563034,-0.7864898443222046,0.0316628590226173,-0.004429961554706,0.0,0.0,0.7849075794219971,0.1521846055984497
-0.0359351150691509,0.8448626399040222,-0.1298021376132965,-0.7550461292266846,0.0313413552939891,-0.0064303800463676,0.0,0.0,0.5116127729415894,0.3431966304779053
-0.0372421257197856,0.8280537128448486,-0.1305879950523376,-0.7470630407333374,0.0312304943799972,-0.0022170746233314,0.0,0.0,0.0659676790237426,0.4105535745620727
-0.0386485084891319,0.8113391995429993,-0.140283316373825,-0.7428525686264038,0.0308860763907432,-0.0068885507062077,0.0,0.0,-0.953632950782776,0.8227517604827881
-0.0399916656315326,0.7939713597297668,-0.1320586949586868,-0.7718605399131775,0.0286488085985183,-0.0447450056672096,0.0,0.0,-0.4410393238067627,0.6584668159484863
-0.0412901863455772,0.7759436368942261,-0.1261235922574997,-0.801167368888855,0.024963654577732,-0.0737032517790794,0.0,0.0,0.9231762886047364,-0.5525712370872498
-0.0425416007637977,0.758185088634491,-0.1229395046830177,-0.7892293334007263,0.0227964147925376,-0.0433447621762752,0.0,0.0,0.3815040588378906,0.7891042232513428
-0.0437911972403526,0.740132212638855,-0.1211795210838317,-0.8022989630699158,0.0190675612539052,-0.0745771080255508,0.0,0.0,0.9273277521133424,-0.1844756603240966
-0.0450120940804481,0.7220103144645691,-0.1186150163412094,-0.8053805232048035,0.0156375709921121,-0.0686000138521194,0.0,0.0,0.9744527339935304,-0.4317178726196289
-0.0461863502860069,0.7040358185768127,-0.1143394708633422,-0.7988364696502686,0.0125881936401128,-0.0609873458743095,0.0,0.0,0.6867144107818604,0.6453852653503418
-0.0474629402160644,0.6866884231567383,-0.1230127662420272,-0.7709609866142273,0.0079994099214673,-0.0917757004499435,0.0,0.0,0.7583973407745361,0.6130850315093994
-0.048868466168642,0.6699485778808594,-0.1343038380146026,-0.7439759969711304,0.0018345415592193,-0.1232975572347641,0.0,0.0,0.0117943286895751,-0.4135669469833374
-0.0503066070377826,0.6530210375785828,-0.1375339031219482,-0.7523421049118042,-0.0043702614493668,-0.1240956932306289,0.0,0.0,-0.1652562618255615,0.4547640085220337
-0.051764391362667,0.6354386210441589,-0.139501079916954,-0.7814731597900391,-0.0105628604069352,-0.1238520741462707,0.0,0.0,0.0463966131210327,-0.0087581872940063
-0.0532734878361225,0.6179017424583435,-0.1444760262966156,-0.7794751524925232,-0.0169198960065841,-0.1271404772996902,0.0,0.0,0.4748415946960449,0.7258540391921997
-0.0546307563781738,0.6002970337867737,-0.1280106753110885,-0.7825330495834351,-0.0245347954332828,-0.1522981077432632,0.0,0.0,0.945031762123108,0.0353318452835083
-0.0559816360473632,0.5834459662437439,-0.1273857057094574,-0.7490834593772888,-0.0321435220539569,-0.152174562215805,0.0,0.0,0.2140552997589111,0.2641580104827881
-0.05723237991333,0.5664721131324768,-0.1178633421659469,-0.7545664310455322,-0.039264477789402,-0.1424191296100616,0.0,0.0,0.9250378608703612,0.0413765907287597
-0.0585938468575477,0.5496730208396912,-0.1283903419971466,-0.7468470931053162,-0.0469265542924404,-0.1532416343688964,0.0,0.0,0.017857551574707,0.0992767810821533
-0.0598957054316997,0.5329509973526001,-0.1226683482527732,-0.7434543967247009,-0.0543539226055145,-0.1485474407672882,0.0,0.0,0.9055273532867432,-0.5476142168045044
-0.0610510818660259,0.516731321811676,-0.1095815151929855,-0.7211037874221802,-0.0602447278797626,-0.1178156957030296,0.0,0.0,0.9133144617080688,-0.2162123918533325
-0.0620843879878521,0.5012764930725098,-0.0977328270673751,-0.6871152520179749,-0.0657820701599121,-0.1107469052076339,0.0,0.0,0.6119661331176758,0.2472233772277832
-0.0631633773446083,0.4863216876983642,-0.1018991619348526,-0.6649338603019714,-0.0717163309454917,-0.1186852306127548,0.0,0.0,0.5611271858215332,0.2656389474868774
-0.0641910582780838,0.4712302982807159,-0.0969449132680893,-0.671017587184906,-0.0774860307574272,-0.1153939217329025,0.0,0.0,0.8372750282287598,-0.5678333640098572
-0.0653439536690712,0.4566724896430969,-0.1102070435881614,-0.6472841501235962,-0.0825164914131164,-0.1006092056632042,0.0,0.0,0.4717123508453369,0.2049194574356079
-0.0663716346025466,0.4421348571777344,-0.0981302559375763,-0.6463823318481445,-0.0871084034442901,-0.0918386057019233,0.0,0.0,0.7118452787399292,-0.6140624284744263
-0.0673886314034462,0.4278949499130249,-0.098297007381916,-0.6330880522727966,-0.0904870778322219,-0.0675733759999275,0.0,0.0,0.931854009628296,0.3100266456604004
-0.0683769211173057,0.4136987924575805,-0.0953802242875099,-0.63114994764328,-0.093903861939907,-0.068335473537445,0.0,0.0,0.9881150722503662,0.658987283706665
-0.0694282501935958,0.3999253809452057,-0.0998617261648178,-0.6124951839447021,-0.0991381183266639,-0.1046851053833961,0.0,0.0,0.8537737131118774,0.7703526020050049
-0.0703201293945312,0.3869264125823974,-0.0823270231485366,-0.5782005190849304,-0.1059376448392868,-0.1359905898571014,0.0,0.0,0.3028836250305176,-0.6072829961776733
-0.0711878761649131,0.3736058473587036,-0.0811868011951446,-0.5924327969551086,-0.1114875972270965,-0.1109994202852249,0.0,0.0,0.2082951068878173,-0.4912260174751282
-0.0719895362854003,0.3605578541755676,-0.0745736584067344,-0.5803395509719849,-0.1170430704951286,-0.1111096292734146,0.0,0.0,0.6912932395935059,-0.921260416507721
-0.0729372948408126,0.3476044237613678,-0.0907798111438751,-0.576026201248169,-0.1210204437375068,-0.0795473903417587,0.0,0.0,0.2644081115722656,-0.7618973851203918
-0.073984146118164,0.3347960710525512,-0.1020130664110183,-0.5694805979728699,-0.1236723512411117,-0.053038515150547,0.0,0.0,0.0532077550888061,0.5436971187591553
-0.0749407783150672,0.3219121694564819,-0.091834545135498,-0.5729382634162903,-0.1274807006120681,-0.076166920363903,0.0,0.0,-0.2062301039695739,-0.6976447701454163
-0.0759863853454589,0.3083937466144562,-0.1023221239447593,-0.6010115742683411,-0.1297036260366439,-0.0444585978984832,0.0,0.0,0.9248778820037842,-0.7252565026283264
-0.0769331008195877,0.2952140271663666,-0.0940073654055595,-0.5858229398727417,-0.1303707361221313,-0.0133421001955866,0.0,0.0,0.8305563926696777,-0.569718599319458
-0.0779313072562217,0.2820357978343963,-0.1000736951828002,-0.58567875623703,-0.1301253885030746,0.0049068601801991,0.0,0.0,0.6840192079544067,0.1606911420822143
-0.0788411125540733,0.2686816155910492,-0.0914282202720642,-0.5934770107269287,-0.1296759098768234,0.0089894663542509,0.0,0.0,0.9735417366027832,-0.5859285593032837
-0.0798079520463943,0.2552863657474518,-0.0980760604143142,-0.5952220559120178,-0.1282906234264373,0.0277058221399784,0.0,0.0,0.988555669784546,0.6530534029006958
-0.0806347876787185,0.2426543086767196,-0.0826154723763465,-0.5614306330680847,-0.1283558458089828,-0.0013044859515503,0.0,0.0,0.5102484226226807,0.4229395389556885
-0.081316664814949,0.2304624170064926,-0.0683435723185539,-0.5418497920036316,-0.1282048374414444,0.0030204206705093,0.0,0.0,0.9672472476959229,-0.4632241725921631
-0.0820297226309776,0.2190887778997421,-0.0707150548696518,-0.5055445432662964,-0.1287957578897476,-0.0118183111771941,0.0,0.0,0.5128281116485596,-0.1397053003311157
-0.082844354212284,0.2075340300798416,-0.080196738243103,-0.5136545896530151,-0.1300599724054336,-0.0252842791378498,0.0,0.0,0.7685856819152832,0.5287383794784546
-0.0834847465157508,0.1965703070163726,-0.0617130808532238,-0.4874786138534546,-0.1323757618665695,-0.0463160052895545,0.0,0.0,0.7860977649688721,-0.7687006592750549
-0.0842449218034744,0.1859123557806015,-0.074851706624031,-0.473792552947998,-0.1335323005914688,-0.0231303945183753,0.0,0.0,0.399725079536438,-0.0588492155075073
-0.0849974602460861,0.1754621863365173,-0.0737444311380386,-0.464585930109024,-0.1350327432155609,-0.0300092548131942,0.0,0.0,0.5764527320861816,0.0514863729476928
-0.0856941193342208,0.1653510481119156,-0.0679797753691673,-0.4495405256748199,-0.1367162466049194,-0.0336697921156883,0.0,0.0,0.3402929306030273,-0.7308301329612732
-0.0863279327750206,0.1552818864583969,-0.0631438493728637,-0.4475409686565399,-0.1369547545909881,-0.0047700735740363,0.0,0.0,-0.0930816531181335,0.4944756031036377
-0.0869842544198036,0.1445575505495071,-0.0652618408203125,-0.476670354604721,-0.1373253762722015,-0.00741254305467,0.0,0.0,0.9738216400146484,0.427118182182312
-0.0874873176217079,0.1338700652122497,-0.0503153577446937,-0.474996268749237,-0.1373163610696792,0.0001802884798962,0.0,0.0,0.9678194522857666,-0.3185596466064453
-0.0877459496259689,0.123502142727375,-0.0265470258891582,-0.4607328772544861,-0.1366305649280548,0.0137159153819084,0.0,0.0,0.9882224798202516,-0.4823079109191894
-0.0877957344055175,0.1131501793861389,-0.0063143386505544,-0.4599678814411163,-0.13530333340168,0.0265445318073034,0.0,0.0,0.9874640703201294,-0.5175623297691345
-0.0877928733825683,0.1034997329115867,-0.0019294221419841,-0.4287076294422149,-0.1330973207950592,0.044120617210865,0.0,0.0,0.9859497547149658,-0.5632478594779968
-0.0876953154802322,0.0945551693439483,0.0064258901402354,-0.3972434997558594,-0.129785805940628,0.0662302747368812,0.0,0.0,0.9741833209991456,-0.2609968185424804
-0.0873685851693153,0.0861123651266098,0.0287880487740039,-0.3749047517776489,-0.1259224563837051,0.0772670954465866,0.0,0.0,0.8910397291183472,-0.1221110820770263
-0.0869017615914344,0.077548824250698,0.0423956885933876,-0.3802445530891418,-0.1216622218489646,0.0852050632238388,0.0,0.0,0.9426417350769044,-0.2177671194076538
-0.0864447578787803,0.0692331194877624,0.0418380126357078,-0.3692753612995147,-0.1178254038095474,0.0767361670732498,0.0,0.0,0.985870361328125,0.5647287368774414
-0.0857346504926681,0.0617870204150676,0.0681077390909195,-0.3307107388973236,-0.1149388402700424,0.0577314682304859,0.0,0.0,0.8891446590423584,-0.0116929411888122
-0.0849970802664756,0.0546602122485637,0.0711135044693946,-0.3165473341941833,-0.1123141944408416,0.0524932220578193,0.0,0.0,0.8406363725662231,-0.4080109596252441
-0.0843184441328048,0.0482225529849529,0.0660078078508377,-0.2859774529933929,-0.1104698851704597,0.0368860550224781,0.0,0.0,0.7938388586044312,0.1990083456039428
-0.0834825485944747,0.0422438718378543,0.0814312696456909,-0.2655635178089142,-0.1083278208971023,0.0428412333130836,0.0,0.0,0.3972115516662597,-0.4420642852783203
-0.0826430320739746,0.0365635268390178,0.0821449011564254,-0.2523297667503357,-0.1065349802374839,0.0358568914234638,0.0,0.0,0.554128885269165,0.0330865383148193
-0.0818256363272667,0.0312910191714763,0.0804313197731971,-0.2342413812875747,-0.1052422598004341,0.0258544795215129,0.0,0.0,0.2197294235229492,0.6163336038589478
-0.0809610337018966,0.0259052142500877,0.0865740031003952,-0.2393759936094284,-0.1053541377186775,-0.0022375038824975,0.0,0.0,0.8524065017700195,0.5093375444412231
-0.0801423043012619,0.0208861213177442,0.083557553589344,-0.2231901139020919,-0.1070306822657585,-0.0335311070084571,0.0,0.0,0.8305191993713379,-0.0545821785926818
-0.0794461220502853,0.0161041356623172,0.0722197964787483,-0.2127223759889602,-0.1096195206046104,-0.0517764016985893,0.0,0.0,0.8724827766418457,-0.3618929386138916
-0.0785600692033767,0.0118616679683327,0.0908014774322509,-0.1887155175209045,-0.1117942407727241,-0.0434947572648525,0.0,0.0,0.6441967487335205,-0.0353540182113647
-0.0775113105773925,0.0082657197490334,0.088158831000328,-0.158655509352684,-0.0951800495386123,0.3323004841804504,1.0,0.0,0.6791126728057861,-0.4440405368804931
-0.076136015355587,0.0057677244767546,0.1036131605505943,-0.1092258840799331,-0.061538890004158,0.6729043126106262,1.0,0.0,0.4661905765533447,-0.3409867286682129
-0.0746889114379882,0.0039468980394303,0.1030789837241172,-0.0797456800937652,-0.0203486252576112,0.8238945007324219,1.0,0.0,0.6305842399597168,-0.265906274318695
-0.0731137245893478,0.0027080392464995,0.1169130578637123,-0.0549963265657424,0.0197403486818075,0.801780104637146,1.0,0.0,0.315317153930664,0.0788660049438476
-0.0714873299002647,0.0015290832379832,0.1217889562249183,-0.053428154438734,0.0601076893508434,0.8073482513427734,0.0,1.0,0.7444318532943726,0.9912171363830566
-0.0700012221932411,0.0014706468209624,0.1241304501891136,-0.0040080645121634,0.0828985869884491,0.4539679586887359,0.0,1.0,-0.3218543529510498,0.9891244173049928
-0.06867466121912,0.0013109659776091,0.1312700659036636,-0.0071830917149782,0.0842191651463508,0.0263558886945247,0.0,1.0,-0.6201714277267456,0.4830057621002197
-0.0675402656197547,0.0009472942329011,0.1283098757266998,-0.0154032139107584,0.0694727599620819,-0.2949727773666382,0.0,1.0,-0.4955463409423828,-0.3235781192779541
-0.0665201172232627,0.0002055025106528,0.1266410648822784,-0.0320176929235458,0.0450790710747242,-0.4879292547702789,0.0,1.0,-0.0707530379295349,-0.3656532764434814
-0.0655406937003135,-0.0010807061335071,0.1261911243200302,-0.0565653331577777,0.0171299967914819,-0.5590399503707886,0.0,1.0,0.1151083707809448,-0.4511587619781494
-0.0645144432783126,-0.001675906125456,0.1141971796751022,-0.0263785030692815,0.0057404479011893,-0.2277535647153854,1.0,1.0,0.3821834325790405,-0.9827948808670044
-0.0635126084089279,-0.0016201520338654,0.1007807403802871,0.0024642103817313,0.0051773302257061,-0.0112293511629104,1.0,1.0,-0.5786398649215698,-0.9588469862937928
-0.0626247376203537,-0.0016936803003773,0.0884146839380264,-0.0032839796040207,0.0055660679936409,0.0078034522011876,1.0,1.0,-0.404970645904541,-0.9891576766967772
-0.0618833526968956,-0.0017374897142872,0.073985181748867,-0.0019629353191703,0.005736163817346,0.0034267164301127,1.0,1.0,-0.4750869274139404,-0.9679416418075562
-0.061314582824707,-0.0016479396726936,0.0577120594680309,0.0039722421206533,0.0049252551980316,-0.0161982849240303,1.0,1.0,-0.3426970243453979,-0.925424873828888
