x_pos,y_pos,x_vel,y_vel,angle,ang_vel,leg_1,leg_2,main_booster,lat_booster
-0.0015295029152184,1.4031422138214111,-0.1556515395641327,-0.3456858694553375,0.0024155350401997,0.0476972237229347,0.0,0.0,0.5928817228435586,-0.9130655046644996
-0.0030816078651696,1.3955681324005127,-0.1601496338844299,-0.3366480469703674,0.0073046330362558,0.0977920740842819,0.0,0.0,0.0330489353521852,-0.9179125607861456
-0.0046137808822095,1.3878839015960691,-0.1606588065624237,-0.3415660262107849,0.0146531425416469,0.1469839215278625,0.0,0.0,-0.2984146941112826,-0.6547388253966671
-0.0062133790925145,1.3797153234481812,-0.1696085780858993,-0.363180011510849,0.024202112108469,0.1909968554973602,0.0,0.0,0.936190618156176,-0.9974867202825576
-0.0077475546859204,1.372218370437622,-0.1660365760326385,-0.3334418833255768,0.0366805717349052,0.2495924681425094,0.0,0.0,0.1910041959703838,-0.8598299964846714
-0.009255027398467,1.3648302555084229,-0.1658273488283157,-0.3288004994392395,0.0516041070222854,0.2984980940818786,0.0,0.0,-0.9269391759654412,0.6492510522658962
-0.010718822479248,1.3569669723510742,-0.1608760058879852,-0.3500418663024902,0.0659500360488891,0.2869450449943542,0.0,0.0,-0.3967511555680039,-0.6412663433486969
-0.0122261047363281,1.348623275756836,-0.1668364703655243,-0.3716195821762085,0.0819173827767372,0.3193766474723816,0.0,0.0,-0.6161863353093779,-0.9451239104006396
-0.0138150211423635,1.339802861213684,-0.1775732785463333,-0.3931427001953125,0.1004608049988746,0.3709027767181396,0.0,0.0,0.1931285359482664,-0.740053168997385
-0.0155209545046091,1.331284999847412,-0.1913869082927703,-0.3801028430461883,0.1211403980851173,0.4136303067207336,0.0,0.0,0.1005319601926233,0.7334613119174375
-0.01715774461627,1.3229038715362549,-0.183693379163742,-0.3742466866970062,0.141095757484436,0.3991442322731018,0.0,0.0,0.5824295283151582,-0.9771391981940144
-0.0188711173832416,1.3147969245910645,-0.1940027773380279,-0.3626115620136261,0.1637661308050155,0.4534491598606109,0.0,0.0,0.5458892360990568,-0.8328660347591534
-0.0206275936216115,1.3072069883346558,-0.2007801532745361,-0.3403053879737854,0.1889877617359161,0.5044787526130676,0.0,0.0,0.6428449618967906,-0.9431163899370812
-0.0224524494260549,1.2996578216552734,-0.2101294696331024,-0.3392842411994934,0.2168865203857422,0.558026134967804,0.0,0.0,-0.7742060776874824,-0.955163629770536
-0.0243412014096975,1.2916303873062134,-0.2184613198041916,-0.3614076375961303,0.2469232827425003,0.6007901430130005,0.0,0.0,-0.7949099441805352,0.7945763958768726
-0.0261632911860942,1.2831518650054932,-0.2103921473026275,-0.3818187713623047,0.2757526636123657,0.5766400098800659,0.0,0.0,-0.1327357786582363,-0.90271393894774
-0.0280466079711914,1.2741925716400146,-0.2182948142290115,-0.4041456282138824,0.3066608011722564,0.6182191371917725,0.0,0.0,-0.5164038123035333,-0.8730708706878079
-0.0299853328615427,1.2647356986999512,-0.2255007475614547,-0.4273290336132049,0.3396096527576446,0.6590372323989868,0.0,0.0,0.4772396385338617,0.810977271668191
-0.0320208556950092,1.2559149265289309,-0.2340021580457687,-0.399530827999115,0.3717091977596283,0.64205002784729,0.0,0.0,0.4913778465041514,0.6389962228325061
-0.0342763885855674,1.24732506275177,-0.2548964321613312,-0.3897185623645782,0.4030103981494903,0.626080334186554,0.0,0.0,-0.0258937190077304,-0.9404370619778846
-0.036594770848751,1.2382408380508425,-0.2628174722194671,-0.4129136204719543,0.436514139175415,0.6701349020004272,0.0,0.0,0.3381346852482931,0.7522941161755967
-0.0390085205435752,1.229218363761902,-0.2710788249969482,-0.4105965793132782,0.4691480100154876,0.6527372598648071,0.0,0.0,-0.4106780037211472,0.9191652165543834
-0.0413516052067279,1.2197871208190918,-0.262057214975357,-0.4288706481456756,0.5001206994056702,0.6195098161697388,0.0,0.0,-0.5433105263110278,0.6479583739577192
-0.0436503402888774,1.2099225521087646,-0.256413996219635,-0.4484118223190307,0.5302562117576599,0.602764904499054,0.0,0.0,0.8905336553663723,0.7335355480988638
-0.0464317314326763,1.2004542350769043,-0.3031462728977203,-0.4308796226978302,0.559120237827301,0.577332079410553,0.0,0.0,-0.8748727876835827,0.8261889422233223
-0.0491724014282226,1.19054114818573,-0.2980915606021881,-0.4508765041828155,0.5873157382011414,0.5639104843139648,0.0,0.0,-0.6408209010834212,0.8111068992752464
-0.0518682487308979,1.1802164316177368,-0.2922569215297699,-0.4692095518112182,0.6144237518310547,0.54216068983078,0.0,0.0,0.8696299773318221,-0.9692527311224004
-0.0553083419799804,1.170369267463684,-0.3683046400547027,-0.4494130313396454,0.6440563797950745,0.5926522612571716,0.0,0.0,-0.3795686706998444,-0.9438426914319036
-0.0588299743831157,1.1599814891815186,-0.3784316182136535,-0.4752379953861236,0.6768477559089661,0.6558278799057007,0.0,0.0,-0.5148036825443985,0.9159369952632982
-0.0623043999075889,1.1491892337799072,-0.3720577657222748,-0.4932230710983276,0.7083722352981567,0.6304889917373657,0.0,0.0,-0.3313181727736289,0.6976709757539532
-0.0657475441694259,1.1379902362823486,-0.3675634264945984,-0.5113839507102966,0.7389561533927917,0.6116781234741211,0.0,0.0,-0.1023430361090809,0.7328123037805103
-0.0691595077514648,1.1263704299926758,-0.3632535934448242,-0.5302008986473083,0.7687872052192688,0.5966216325759888,0.0,0.0,-0.6354958425716484,-0.694383433505748
-0.0726256370544433,1.114224910736084,-0.3697607219219208,-0.5551643371582031,0.8010343313217163,0.6449419260025024,0.0,0.0,0.5633105812557229,-0.9567542739112412
-0.0764397606253624,1.1018121242523191,-0.4056980013847351,-0.5689327716827393,0.8360611796379089,0.7005366086959839,0.0,0.0,0.7029374398628929,0.6504607874085826
-0.0806979164481163,1.08966064453125,-0.4486592411994934,-0.5574573278427124,0.8702874183654785,0.6845258474349976,0.0,0.0,0.116917064196784,-0.9162125376398071
-0.0853962898254394,1.0774792432785034,-0.4934841692447662,-0.5607424378395081,0.9072396755218506,0.7390457391738892,0.0,0.0,-0.1539709773279653,-0.6039358685797818
-0.090133860707283,1.0647753477096558,-0.4975728988647461,-0.5856762528419495,0.946291208267212,0.7810322642326355,0.0,0.0,-0.0583510394272472,0.8016750019995107
-0.0948486328125,1.051689863204956,-0.4932660460472107,-0.6024709343910217,0.9839698076248168,0.753572940826416,0.0,0.0,-0.3686344538275432,0.6476595434144803
-0.0995533913373947,1.0382003784179688,-0.4906290173530578,-0.6204859018325806,1.0208332538604736,0.7372680902481079,0.0,0.0,-0.0602369957921919,-0.7409946709869133
-0.1042984947562217,1.0241777896881104,-0.4946476817131042,-0.6460083723068237,1.0599839687347412,0.7830137610435486,0.0,0.0,0.3940844761187305,-0.709740459996914
-0.1097087860107421,1.009974718093872,-0.560814380645752,-0.6558507084846497,1.1013106107711792,0.8265349268913269,0.0,0.0,-0.8772588968276978,0.994457483291626
-0.1150905638933181,0.9954259991645812,-0.5554481148719788,-0.6703304648399353,1.1403526067733765,0.7808429002761841,0.0,0.0,-0.8828572630882263,0.9905219078063964
-0.120442010462284,0.980523645877838,-0.5501607060432434,-0.6851104497909546,1.1772104501724243,0.7371566295623779,0.0,0.0,-0.952756941318512,0.9851572513580322
-0.1257704794406891,0.965271532535553,-0.5457981824874878,-0.6996133327484131,1.2118526697158811,0.6928433179855347,0.0,0.0,-0.9654739499092102,0.9831340312957764
-0.131077766418457,0.9496421813964844,-0.542000412940979,-0.7155963778495789,1.244831681251526,0.6595805287361145,0.0,0.0,-0.8845062851905823,0.9703545570373536
-0.1363631188869476,0.9336503744125366,-0.5381664037704468,-0.7306578159332275,1.2758095264434814,0.6195578575134277,0.0,0.0,-0.9684279561042786,0.9558877944946288
-0.1416304558515548,0.9172983169555664,-0.5348950028419495,-0.7455192804336548,1.3047385215759275,0.5785797834396362,0.0,0.0,-0.9236255884170532,0.9787551164627076
-0.146896556019783,0.9005626440048218,-0.5335882306098938,-0.7617756128311157,1.3322186470031738,0.5496020317077637,0.0,0.0,-0.927589237689972,0.9030390977859496
-0.1521619856357574,0.8834320902824402,-0.5325359106063843,-0.7786255478858948,1.3584624528884888,0.5248759984970093,0.0,0.0,-0.8740346431732178,0.7380921840667725
-0.1574213057756424,0.8659054636955261,-0.5309759974479675,-0.7954956889152527,1.3834394216537476,0.4995385706424713,0.0,0.0,-0.8008474707603455,0.7813664674758911
-0.1626723259687423,0.8480106592178345,-0.52922523021698,-0.8106486201286316,1.4064913988113403,0.4610406458377838,0.0,0.0,-0.7192142605781555,0.8798787593841553
-0.1679224073886871,0.8297297358512878,-0.5283641815185547,-0.826855480670929,1.4280239343643188,0.4306511282920837,0.0,0.0,-0.6733349561691284,0.8726428747177124
-0.1731622666120529,0.8110868334770203,-0.5266188383102417,-0.84156334400177,1.447433352470398,0.3881909847259521,0.0,0.0,-0.6523035168647766,0.5306011438369751
-0.1784039437770843,0.7920278906822205,-0.5263198614120483,-0.8594831824302673,1.4659414291381836,0.3701619505882263,0.0,0.0,-0.3470305204391479,0.7486076354980469
-0.1836393326520919,0.7725960612297058,-0.5251749157905579,-0.8747793436050415,1.4825257062911987,0.3316855728626251,0.0,0.0,-0.5835868716239929,0.5221848487854004
-0.1888727247714996,0.7527365684509277,-0.5246433615684509,-0.8933413028717041,1.4984050989151,0.3175871074199676,0.0,0.0,-0.5717368125915527,0.3016619682312011
-0.1941083967685699,0.7323998808860779,-0.5246397256851196,-0.9148083329200744,1.5146598815917969,0.3250947594642639,0.0,0.0,-0.4435722231864929,0.3182384967803955
-0.1993464529514312,0.7115857601165771,-0.5246192216873169,-0.936273157596588,1.5312668085098269,0.3321376442909241,0.0,0.0,-0.6531150341033936,0.3140920400619507
-0.2045867890119552,0.6902939081192017,-0.5245827436447144,-0.9577355980873108,1.5482014417648315,0.3386927843093872,0.0,0.0,-0.5165691375732422,0.3271793127059936
-0.2098294198513031,0.6685239672660828,-0.5245314836502075,-0.9791955947875975,1.5654382705688477,0.3447372615337372,0.0,0.0,-0.6392731666564941,0.2893939018249511
-0.2150745391845703,0.6462753415107727,-0.5244665741920471,-1.0006529092788696,1.5829507112503052,0.3502485454082489,0.0,0.0,-0.3970293998718261,0.6812330484390259
-0.2203247100114822,0.6236111521720886,-0.5246939063072205,-1.0183254480361938,1.599283218383789,0.3266489505767822,0.0,0.0,-0.5371894240379333,0.3792593479156494
-0.2255768328905105,0.6004674434661865,-0.5246111750602722,-1.039777159690857,1.6158347129821775,0.3310304880142212,0.0,0.0,-0.669468343257904,0.2524945735931396
-0.2308309078216552,0.5768439173698425,-0.5245183706283569,-1.0612261295318604,1.632575511932373,0.3348156809806824,0.0,0.0,-0.5396636128425598,0.3620064258575439
-0.2360869348049163,0.5527399778366089,-0.5244166851043701,-1.082671880722046,1.649474859237671,0.3379858136177063,0.0,0.0,-0.6136758923530579,0.1303325891494751
-0.2413448840379715,0.5281551480293274,-0.5243073105812073,-1.1041145324707031,1.6665010452270508,0.3405237197875976,0.0,0.0,-0.4975611567497253,0.3144190311431885
-0.2466046810150146,0.5030889511108398,-0.5241914987564087,-1.1255542039871216,1.6836217641830444,0.3424141407012939,0.0,0.0,-0.5684296488761902,0.5654325485229492
-0.2518669664859772,0.4776129722595215,-0.5243464708328247,-1.1427019834518433,1.6991896629333496,0.3113585412502289,0.0,0.0,-0.4892690777778625,0.5058746337890625
-0.2571393549442291,0.4517126977443695,-0.5252919793128967,-1.1606755256652832,1.713463544845581,0.2854765951633453,0.0,0.0,-0.4133360385894775,0.4341217279434204
-0.2624124884605407,0.4253296256065368,-0.5251760482788086,-1.1821064949035645,1.727731466293335,0.2853581011295318,0.0,0.0,-0.3235931396484375,0.4414095878601074
-0.267686516046524,0.398463487625122,-0.5250586271286011,-1.2035343647003174,1.7419592142105105,0.2845543026924133,0.0,0.0,-0.5187622904777527,0.1879032850265503
-0.2729611992835998,0.371113657951355,-0.5249408483505249,-1.2249590158462524,1.7561123371124268,0.2830623090267181,0.0,0.0,-0.3134795427322387,0.3563003540039062
-0.2782364785671234,0.3432795703411102,-0.5248240232467651,-1.2463809251785278,1.7701565027236938,0.2808822691440582,0.0,0.0,-0.403669536113739,0.5153307914733887
-0.2835207879543304,0.3150244653224945,-0.5258538126945496,-1.2640233039855957,1.7826151847839355,0.2491728514432907,0.0,0.0,-0.4081686735153198,0.5776491165161133
-0.2888105809688568,0.2863450050354004,-0.5265988111495972,-1.2818454504013062,1.7935346364974976,0.2183881253004074,0.0,0.0,-0.370216965675354,0.242108941078186
-0.2941000461578369,0.2571802139282226,-0.5264999866485596,-1.3032599687576294,1.8042434453964236,0.2141751050949096,0.0,0.0,-0.1380039453506469,0.466372013092041
-0.299389123916626,0.2275296598672866,-0.5264062881469727,-1.3246713876724243,1.8147085905075075,0.2093028128147125,0.0,0.0,-0.1150872707366943,0.303824782371521
-0.304677665233612,0.197392925620079,-0.5263186693191528,-1.3460805416107178,1.8248978853225708,0.2037851363420486,0.0,0.0,-0.0114535689353942,0.028498888015747
-0.3099656701087951,0.1667696833610534,-0.5262382626533508,-1.3674871921539309,1.8347798585891724,0.1976387798786163,0.0,0.0,-0.0183713436126709,-0.0280508399009704
-0.3152529597282409,0.1356594860553741,-0.5261658430099487,-1.388891339302063,1.8443238735198972,0.1908809691667556,0.0,0.0,0.0307235717773437,-0.0587640404701232
-0.3207165598869324,0.1038616523146629,-0.5439205169677734,-1.4189528226852417,1.853127360343933,0.176069900393486,0.0,0.0,-0.0116264224052429,-0.2699393630027771
-0.3247202336788177,0.0765657052397728,0.3008874952793121,-0.1287270486354828,1.843878030776977,-1.4643328189849854,0.0,0.0,-0.0116264224052429,-0.2699393630027771
