x_pos,y_pos,x_vel,y_vel,angle,ang_vel,leg_1,leg_2,main_booster,lat_booster
-0.0015171051491051,1.403115153312683,-0.1533462256193161,-0.3468855321407318,0.0014722193591296,0.0290191359817981,0.0,0.0,0.0434445142745971,0.281832218170166
-0.0029945373535156,1.39526104927063,-0.1490547209978103,-0.3490675985813141,0.0027693742886185,0.0259460397064685,0.0,0.0,-0.6279438734054565,0.675778865814209
-0.0043991087004542,1.386892557144165,-0.1398189961910247,-0.3719328045845032,0.0021388710010796,-0.0126113425940275,0.0,0.0,0.0073059797286987,0.732344388961792
-0.0058221817016601,1.3784693479537964,-0.1398379802703857,-0.3743685185909271,-0.0002971590147353,-0.0487254485487937,0.0,0.0,0.1153095960617065,-0.0786448121070861
-0.0071488381363451,1.3701969385147097,-0.1303261220455169,-0.3676610887050628,-0.0026108054444193,-0.0462776944041252,0.0,0.0,-0.1958205103874206,0.3001153469085693
-0.0084660528227686,1.3614153861999512,-0.1290750056505203,-0.3902998566627502,-0.0052202441729605,-0.0521934106945991,0.0,0.0,-0.3811776638031006,0.3695284128189087
-0.0097732543945312,1.352124571800232,-0.12779101729393,-0.4129333794116974,-0.0081245154142379,-0.0580911226570606,0.0,0.0,0.2095706462860107,0.1859809160232544
-0.0109572410583496,1.343034029006958,-0.1156837195158004,-0.404048889875412,-0.0108024515211582,-0.0535634644329547,0.0,0.0,0.0604522228240966,0.5786659717559814
-0.0120881078764796,1.3342454433441162,-0.1089110225439071,-0.3906397819519043,-0.0149354087188839,-0.0826669186353683,0.0,0.0,-0.4924221634864807,0.3541748523712158
-0.0132085802033543,1.3249478340148926,-0.1075767502188682,-0.4132803380489349,-0.0193619467318058,-0.0885388404130935,0.0,0.0,-0.031889796257019,-0.4731289148330688
-0.0143186571076512,1.3151414394378662,-0.1062436252832412,-0.4359147250652313,-0.0240826942026615,-0.0944235101342201,0.0,0.0,-0.6878624558448792,0.6302915811538696
-0.0153631214052438,1.3048226833343506,-0.097960777580738,-0.4587218463420868,-0.0304929465055465,-0.1282164901494979,0.0,0.0,0.4073702096939087,0.1122164726257324
-0.016268253326416,1.2948838472366333,-0.0842675566673278,-0.4418708384037018,-0.0366706661880016,-0.1235658749938011,0.0,0.0,-0.7462530136108398,-0.3485453128814697
-0.0171634666621685,1.2844362258911133,-0.0829866081476211,-0.4645171463489532,-0.0431411266326904,-0.1294213086366653,0.0,0.0,-0.6911659836769104,-0.6464467644691467
-0.0180880539119243,1.2734891176223757,-0.0866176262497901,-0.4867153763771057,-0.0489188805222511,-0.1155656948685646,0.0,0.0,-0.7891175150871277,-0.9613654017448424
-0.0190659519284963,1.26202654838562,-0.0932331606745719,-0.5096019506454468,-0.0534280017018318,-0.0901907235383987,0.0,0.0,-0.3384698033332824,-0.4018473029136657
-0.0200353618711233,1.2500553131103516,-0.0920919030904769,-0.5322405099868774,-0.0582272075116634,-0.0959929227828979,0.0,0.0,-0.7609075307846069,-0.6940112709999084
-0.021038819104433,1.2375729084014893,-0.096276506781578,-0.5549371242523193,-0.0622628107666969,-0.0807191506028175,0.0,0.0,-0.4528491497039795,-0.8099342584609985
-0.0220884326845407,1.224594235420227,-0.1019585356116294,-0.5769573450088501,-0.0652341321110725,-0.0594316124916076,0.0,0.0,0.0597047805786132,-0.8818206787109375
-0.023238468915224,1.2116622924804688,-0.1134793981909751,-0.5748196244239807,-0.0667458325624466,-0.0302368365228176,0.0,0.0,0.0695674419403076,-0.6457733511924744
-0.0243081096559762,1.198950171470642,-0.1065663844347,-0.5649983286857605,-0.0671436116099357,-0.0079562868922948,0.0,0.0,-0.2497097253799438,0.3640668392181396
-0.025373363867402,1.185728907585144,-0.10584057867527,-0.5876389145851135,-0.0678246989846229,-0.0136229004710912,0.0,0.0,-0.7177067399024963,-0.2997114658355713
-0.0264352802187204,1.1719987392425537,-0.1052201762795448,-0.610274612903595,-0.0687862262129783,-0.0192323867231607,0.0,0.0,-0.3799211382865906,-0.4719517827033996
-0.027495002374053,1.1577595472335815,-0.1047155261039733,-0.6329103708267212,-0.0700263306498527,-0.0248043444007635,0.0,0.0,-0.0586940646171569,-0.7130681276321411
-0.0286230091005563,1.1430206298828125,-0.1130519285798072,-0.6550522446632385,-0.069787673652172,0.0047736866399645,0.0,0.0,-0.3465566635131836,-0.3769054412841797
-0.0297524444758892,1.127751350402832,-0.112908624112606,-0.6786407828330994,-0.0698230192065239,-0.0007068106206133,0.0,0.0,-0.3048114776611328,-0.4042937755584717
-0.0308836940675973,1.1119729280471802,-0.1128072962164878,-0.7012758255004883,-0.0701291486620903,-0.006122781895101,0.0,0.0,0.1911491155624389,-0.8753891587257385
-0.0321539863944053,1.0966037511825562,-0.1281539797782898,-0.6830241084098816,-0.0690153688192367,0.0222756117582321,0.0,0.0,-0.5412147045135498,0.1002743244171142
-0.0334290489554405,0.0,-0.128362700343132,-0.705659031867981,-0.0681659132242202,0.0169891715049743,0.0,0.0,-0.384743332862854,-0.0116879343986511
-0.03471040725708,1.064338207244873,-0.1287387013435363,-0.7282938361167908,-0.0675771534442901,0.0117752775549888,0.0,0.0,0.2939229011535644,-0.7261906862258911
-0.0359956733882427,1.0484466552734375,-0.1303508132696151,-0.7062103152275085,-0.0657745599746704,0.0360517986118793,0.0,0.0,-0.1257498264312744,-0.3281376957893371
-0.0372908599674701,1.0320461988449097,-0.1310848891735077,-0.7288453578948975,-0.0642245188355445,0.0310008469969034,0.0,0.0,-0.0930120348930358,0.0756765604019165
-0.0385977737605571,1.0151365995407104,-0.1320093423128128,-0.751480221748352,-0.0629224628210067,0.026041317731142,0.0,0.0,-0.3135401010513305,0.0681701898574829
-0.0399183258414268,0.9977179765701294,-0.1331313252449035,-0.7741149067878723,-0.0618634559214115,0.0211800225079059,0.0,0.0,0.6782031059265137,-0.2232207059860229
-0.04119873046875,0.9807426333427428,-0.128944993019104,-0.7544211745262146,-0.060965746641159,0.0179538670927286,0.0,0.0,-0.2833611965179443,-0.456728458404541
-0.0424968712031841,0.9632583856582642,-0.1304824650287628,-0.7770558595657349,-0.0603001117706298,0.0133127644658088,0.0,0.0,0.8274703025817871,-0.7436739206314087
-0.0438748374581337,0.9460232853889464,-0.1396695524454116,-0.7659246921539307,-0.0584508255124092,0.0369860045611858,0.0,0.0,-0.0871357321739196,-0.3944138884544372
-0.045274831354618,0.9282792210578918,-0.1416474729776382,-0.7885593175888062,-0.056820873171091,0.0325992852449417,0.0,0.0,0.1096088886260986,-0.3443524837493896
-0.0466932281851768,0.910875916481018,-0.1431533396244049,-0.7734323740005493,-0.055525429546833,0.0259088091552257,0.0,0.0,0.6351511478424072,-0.1897053122520446
-0.0480768196284771,0.893862247467041,-0.1395909190177917,-0.7561191916465759,-0.0543052740395069,0.0244031157344579,0.0,0.0,0.0650213956832885,-0.2448493838310241
-0.0495306029915809,0.8770968317985535,-0.1460941731929779,-0.7451038360595703,-0.0536000803112983,0.0141038717702031,0.0,0.0,-0.4872792959213257,0.3636125326156616
-0.0510154739022254,0.8598222136497498,-0.1490149497985839,-0.7677381038665771,-0.0530827715992927,0.0103462766855955,0.0,0.0,-0.6602447628974915,-0.2907969951629638
-0.0525338165462017,0.8420385718345642,-0.1521817445755005,-0.7903721928596497,-0.0527440831065177,0.0067740767262876,0.0,0.0,0.0378475189208984,-0.3115344643592834
-0.0540082938969135,0.8242382407188416,-0.14790940284729,-0.7911078929901123,-0.0522855781018734,0.0091701094061136,0.0,0.0,0.6807680130004883,-0.1401494741439819
-0.0555465705692768,0.8063807487487793,-0.1539462208747863,-0.7936589121818542,-0.0521765761077404,0.0021801653783768,0.0,0.0,0.6744322776794434,-0.3872587084770202
-0.0570614822208881,0.7885178327560425,-0.1516686081886291,-0.7939005494117737,-0.0519992262125015,0.0035466861445456,0.0,0.0,0.8297519683837891,0.0419455766677856
-0.0585263259708881,0.7708818912506104,-0.1468406766653061,-0.7838068008422852,-0.0516446232795715,0.0070919441059231,0.0,0.0,-0.174281895160675,0.5582268238067627
-0.0600006096065044,0.7527400255203247,-0.1467510163784027,-0.8063297271728516,-0.0523153021931648,-0.0134132970124483,0.0,0.0,0.8298935890197754,0.5015386343002319
-0.0615928657352924,0.735410213470459,-0.1569678485393524,-0.7702977657318115,-0.0545528195798397,-0.0447503551840782,0.0,0.0,0.8110191822052002,-0.4525803327560425
-0.0632284134626388,0.7184081673622131,-0.1610811054706573,-0.7557370066642761,-0.0569936297833919,-0.0488162823021411,0.0,0.0,-0.3654685020446777,0.2744748592376709
-0.0649168044328689,0.7008971571922302,-0.1662847101688385,-0.7783711552619934,-0.0595161393284797,-0.0504501238465309,0.0,0.0,0.2513855695724487,-0.0167403221130371
-0.0666707009077072,0.6837162375450134,-0.1725720465183258,-0.763706386089325,-0.0623072162270545,-0.05582145601511,0.0,0.0,-0.6713702082633972,-0.0564452409744262
-0.0684822052717208,0.6660262942314148,-0.1782841682434082,-0.7863407731056213,-0.065149687230587,-0.0568492338061332,0.0,0.0,0.9135805368423462,0.8066680431365967
-0.0702255219221115,0.649211049079895,-0.1698094755411148,-0.7475458383560181,-0.0696232765913009,-0.0894716531038284,0.0,0.0,-0.2012566924095153,0.5814976692199707
-0.0719739943742752,0.6318787932395935,-0.1688460856676101,-0.7706120610237122,-0.0755609646439552,-0.1187535747885704,0.0,0.0,0.6527144908905029,-0.3541570901870727
-0.0738467201590538,0.6147536039352417,-0.1808286607265472,-0.7614554762840271,-0.0819434374570846,-0.1276494413614273,0.0,0.0,0.6387467384338379,-0.1238631010055542
-0.0756285637617111,0.5982900261878967,-0.1721962839365005,-0.7320519089698792,-0.0878803208470344,-0.1187374591827392,0.0,0.0,-0.1740568876266479,-0.0604030489921569
-0.0774795562028884,0.5813177227973938,-0.1791337430477142,-0.754688024520874,-0.0937860012054443,-0.1181137710809707,0.0,0.0,0.9229750633239746,-0.6521666646003723
-0.0792698860168457,0.5652683973312378,-0.1746798902750015,-0.7135839462280273,-0.0981003269553184,-0.0862865895032882,0.0,0.0,-0.4129268527030945,0.8540967702865601
-0.0810742378234863,0.5487087965011597,-0.1746577471494674,-0.7363723516464233,-0.1038342341780662,-0.1146780103445053,0.0,0.0,0.6613729000091553,0.3395504951477051
-0.0828641876578331,0.5321877598762512,-0.1735400110483169,-0.7346550822257996,-0.109247863292694,-0.1082726567983627,0.0,0.0,0.7379419803619385,0.0599235296249389
-0.0847558975219726,0.5162752270698547,-0.1833285391330719,-0.7076619863510132,-0.1150506809353828,-0.1160560399293899,0.0,0.0,-0.6020470857620239,-0.3181915283203125
-0.0867269486188888,0.4998537003993988,-0.1913830339908599,-0.7302970886230469,-0.1207383871078491,-0.1137541383504867,0.0,0.0,0.6057333946228027,0.4154336452484131
-0.0886846557259559,0.4838060736656189,-0.1902998983860016,-0.7136809229850769,-0.1261891275644302,-0.1090147942304611,0.0,0.0,0.6995284557342529,-0.0826781392097473
-0.0906657204031944,0.4678613841533661,-0.1928102076053619,-0.7091082334518433,-0.13145612180233,-0.1053400263190269,0.0,0.0,0.6286501884460449,0.7092380523681641
-0.0927319526672363,0.4522897601127624,-0.1998083740472793,-0.6926908493041992,-0.1382515579462051,-0.1359084993600845,0.0,0.0,-0.3823672533035278,0.8559565544128418
-0.0948144942522049,0.4362046718597412,-0.1998426169157028,-0.7156952619552612,-0.1466379463672638,-0.1677279770374298,0.0,0.0,0.0208730697631835,0.5135185718536377
-0.0968636497855186,0.4198517799377441,-0.1957729458808899,-0.7277195453643799,-0.1557703018188476,-0.1826470792293548,0.0,0.0,-0.1350474953651428,-0.6764236092567444
-0.0990523323416709,0.4030097723007202,-0.211233302950859,-0.7493499517440796,-0.1634029150009155,-0.1526518315076828,0.0,0.0,0.5871469974517822,-0.4828572273254394
-0.101347729563713,0.3863540589809418,-0.2217074185609817,-0.7411388754844666,-0.1712387502193451,-0.1567170917987823,0.0,0.0,0.9126174449920654,0.6908583641052246
-0.1036611571907997,0.3703661561012268,-0.2221017330884933,-0.7116633653640747,-0.1805112957954406,-0.1854510009288787,0.0,0.0,0.6508731842041016,0.3246225118637085
-0.1059272736310958,0.3547790050506592,-0.2177415341138839,-0.6938663721084595,-0.1894039958715438,-0.1778538823127746,0.0,0.0,0.5815997123718262,-0.0140551328659057
-0.1082579642534256,0.3399088382720947,-0.2238990813493728,-0.6620928049087524,-0.1986192166805267,-0.1843050122261047,0.0,0.0,0.2078614234924316,0.5399422645568848
-0.1105026230216026,0.3251208066940307,-0.2146288156509399,-0.6586017608642578,-0.2085455805063247,-0.1985273361206054,0.0,0.0,0.6283974647521973,0.2621127367019653
-0.1127984076738357,0.3103998899459839,-0.2198619097471237,-0.6556603312492371,-0.2183591872453689,-0.1962721049785614,0.0,0.0,0.8694672584533691,0.5531642436981201
-0.1149923354387283,0.2956625521183014,-0.2090922892093658,-0.6565534472465515,-0.2287859618663787,-0.2085355967283249,0.0,0.0,0.9371854066848756,-0.2129333019256591
-0.1172327026724815,0.2810104787349701,-0.2138731777667999,-0.6528151035308838,-0.2391016632318496,-0.2063137739896774,0.0,0.0,0.971022367477417,0.1805422306060791
-0.1193603500723838,0.2672321498394012,-0.2028692662715912,-0.614010214805603,-0.2491739392280578,-0.2014456540346145,0.0,0.0,0.9431427717208862,-0.4934771060943603
-0.1212631240487098,0.2543046772480011,-0.1811061054468155,-0.5761326551437378,-0.2585146427154541,-0.1868135184049606,0.0,0.0,0.9244816303253174,-0.8909972310066223
-0.1232315078377723,0.2423393130302429,-0.1895089894533157,-0.5331072807312012,-0.2660115659236908,-0.14993916451931,0.0,0.0,0.9513051509857178,-0.5225328803062439
-0.1253986358642578,0.2305051833391189,-0.2102532386779785,-0.5271490812301636,-0.2726272940635681,-0.1323142796754837,0.0,0.0,0.935559630393982,0.7639021873474121
-0.127313420176506,0.2194606363773346,-0.1839459240436554,-0.4922894239425659,-0.2803570628166199,-0.1545952260494232,0.0,0.0,0.8295853137969971,-0.1600292921066284
-0.1292662620544433,0.2088717073202133,-0.1875655204057693,-0.4721183776855469,-0.2882883250713348,-0.1586252152919769,0.0,0.0,0.8039077520370483,-0.3369277715682983
-0.1311732232570648,0.1988629847764969,-0.1830515712499618,-0.4463653862476349,-0.2961746156215668,-0.157725840806961,0.0,0.0,0.8321068286895752,-0.937573790550232
-0.1330456733703613,0.1895002275705337,-0.1817559897899627,-0.4172530472278595,-0.3018474876880646,-0.1134568825364112,0.0,0.0,0.7439403533935547,-0.5507350564002991
-0.1347918510437011,0.1804822087287902,-0.1707924604415893,-0.4015972912311554,-0.3058066666126251,-0.0791836902499198,0.0,0.0,0.7197357416152954,-0.6099165081977844
-0.1365619599819183,0.1714674830436706,-0.1747641265392303,-0.4011304080486297,-0.3081322610378265,-0.0465119592845439,0.0,0.0,0.8266135454177856,0.2097960710525512
-0.1382093429565429,0.1625317931175232,-0.1632779836654663,-0.3974524736404419,-0.3096476793289184,-0.030308136716485,0.0,0.0,0.9783542156219482,-0.2519561648368835
-0.1395912170410156,0.1539818346500396,-0.1378322094678878,-0.3800704181194305,-0.3100095391273498,-0.0072369733825325,0.0,0.0,0.9739608764648438,-0.8772869110107422
-0.1408336609601974,0.1455360949039459,-0.1262897849082946,-0.3749299049377441,-0.3078931868076324,0.0423277392983436,0.0,0.0,0.8817709684371948,-0.88295978307724
-0.1419999152421951,0.1378440260887146,-0.1207349449396133,-0.3410066366195678,-0.3036409616470337,0.0850443616509437,0.0,0.0,0.7321436405181885,-0.2346609234809875
-0.1430091857910156,0.1307653486728668,-0.1055283546447753,-0.3136560022830963,-0.2988927364349365,0.0949643179774284,0.0,0.0,0.1955971717834472,-0.2398132085800171
-0.1439023911952972,0.1238285899162292,-0.0946644395589828,-0.3072136640548706,-0.2933796048164367,0.1102628856897354,0.0,0.0,0.6760194301605225,-0.8769423961639404
-0.1447711884975433,0.1168290972709655,-0.0944653153419494,-0.3095818758010864,-0.2855686247348785,0.1562193930149078,0.0,0.0,0.844589352607727,-0.0705955624580383
-0.1456487625837326,0.1101628392934799,-0.0954343304038047,-0.2947931289672851,-0.2776773273944855,0.1578262150287628,0.0,0.0,0.9323055744171144,0.4566080570220947
-0.1462673246860504,0.1044018864631652,-0.0703401640057563,-0.2544521689414978,-0.2689747512340545,0.1740517318248748,0.0,0.0,0.6001021862030029,-0.6988483667373657
-0.1469291746616363,0.0989602208137512,-0.0763841345906257,-0.2400096356868744,-0.2585515081882477,0.2084639817476272,0.0,0.0,0.7937126159667969,-0.6576441526412964
-0.1476732194423675,0.0943438112735748,-0.0859437882900238,-0.2031831741333007,-0.2467863857746124,0.2353026121854782,0.0,0.0,0.8495771884918213,0.4078974723815918
-0.1482448577880859,0.0903196409344673,-0.0695364773273468,-0.1768283993005752,-0.2342129796743393,0.2514680027961731,0.0,0.0,0.4515948295593261,-0.0182868242263793
-0.1488222181797027,0.086765319108963,-0.0702876672148704,-0.1560274213552475,-0.2214985191822052,0.2542892098426819,0.0,0.0,0.6969711780548096,0.8995294570922852
-0.1493658125400543,0.0838421434164047,-0.0653666779398918,-0.1283085793256759,-0.2103752344846725,0.2224659621715545,0.0,0.0,0.0391663312911987,0.8116928339004517
-0.1499127447605133,0.0808525159955024,-0.0644452646374702,-0.1315111368894577,-0.2005309909582138,0.1968850195407867,0.0,0.0,-0.128012478351593,-0.2574451565742492
-0.1505724936723709,0.0773540586233139,-0.0761177614331245,-0.1541464030742645,-0.1903253197669983,0.2041132748126983,0.0,0.0,0.2574995756149292,0.0139176845550537
-0.1513820588588714,0.0739663913846015,-0.0909520387649536,-0.1493093967437744,-0.1802873909473419,0.2007588595151901,0.0,0.0,0.3882360458374023,0.9541670083999634
-0.1520205438137054,0.0709185451269149,-0.0723835378885269,-0.1344424188137054,-0.1717216819524765,0.1713141500949859,0.0,0.0,0.2168275117874145,0.9605836868286132
-0.1525989472866058,0.0677219256758689,-0.0648440942168235,-0.1412817686796188,-0.1647100299596786,0.1402326077222824,0.0,0.0,0.0611735582351684,0.964797019958496
-0.1530229598283767,0.0647019743919372,-0.0478167794644832,-0.1336296051740646,-0.159297302365303,0.1082546710968017,0.0,0.0,0.2077635526657104,0.9822864532470704
-0.1534106284379959,0.0620067454874515,-0.0425811298191547,-0.1193848997354507,-0.1554853171110153,0.0762396529316902,0.0,0.0,0.0773372650146484,0.7385289669036865
-0.1536591500043869,0.0595974773168563,-0.0276386439800262,-0.1067913845181465,-0.152702584862709,0.0556545965373516,0.0,0.0,0.2059636116027832,0.944400668144226
-0.1538160294294357,0.0572736822068691,-0.0169631801545619,-0.1031496971845626,-0.1514273583889007,0.0255043990910053,0.0,0.0,-0.036912202835083,0.8355240821838379
-0.154017835855484,0.0544334016740322,-0.0201736949384212,-0.1262353807687759,-0.1514355093240738,-0.0001631161721888,0.0,0.0,0.2006874084472656,0.7264857292175293
-0.1541362702846527,0.0519139133393764,-0.0108067253604531,-0.1120835840702056,-0.1524726301431656,-0.0207426734268665,0.0,0.0,0.0628304481506347,0.6166162490844727
-0.1542135179042816,0.049294363707304,-0.0058826189488172,-0.1166159957647323,-0.1543072611093521,-0.0366926714777946,0.0,0.0,0.1096329689025878,0.8188281059265137
-0.1543652564287185,0.0467888228595256,-0.012015463784337,-0.1116890087723732,-0.1574640870094299,-0.0631366595625877,0.0,0.0,0.2399923801422119,0.6956895589828491
-0.1546165496110916,0.0443564504384994,-0.0207907315343618,-0.1085691973567009,-0.1618009954690933,-0.0867380574345588,0.0,0.0,0.6962711811065674,0.7156387567520142
-0.1548492461442947,0.0422630421817302,-0.0178124345839023,-0.0936454907059669,-0.1672604084014892,-0.1091884523630142,0.0,0.0,0.206372857093811,0.4509041309356689
-0.1551040709018707,0.0402312837541103,-0.0204740446060895,-0.0908714905381202,-0.1722711473703384,-0.1002152189612388,0.0,0.0,0.2141388654708862,0.7974109649658203
-0.1552489250898361,0.0380288697779178,-0.0083425426855683,-0.0986105650663375,-0.1784268766641616,-0.1231144666671752,0.0,0.0,0.5219540596008301,0.5362205505371094
-0.1552482545375824,0.0362121202051639,0.0066701583564281,-0.0815557315945625,-0.1850557625293731,-0.1325776875019073,0.0,0.0,0.1398787498474121,0.0015467405319213
-0.1552304327487945,0.0347015000879764,0.0079481247812509,-0.067920833826065,-0.1912464350461959,-0.1238134354352951,0.0,0.0,0.065761923789978,-0.1083984971046447
