x_pos,y_pos,x_vel,y_vel,angle,ang_vel,leg_1,leg_2,main_booster,lat_booster
-0.00159988400992,1.403010368347168,-0.1620626598596573,-0.3515507578849792,0.0018576559377834,0.036651112139225,0.0,0.0,0.4191492795944214,0.7703969478607178
-0.0031674385536462,1.3951001167297363,-0.1571682095527649,-0.3515594601631164,0.0022607292048633,0.0080630164593458,0.0,0.0,0.1480495929718017,0.4941463470458984
-0.0047204969450831,1.3869966268539429,-0.1561920344829559,-0.3601589202880859,0.0031384797766804,0.0175563562661409,0.0,0.0,0.1044455766677856,0.8771755695343018
-0.0063768387772142,1.378776788711548,-0.1647605150938034,-0.3653255999088287,0.0022673483472317,-0.0174242611974477,0.0,0.0,-0.0517535805702209,0.8851754665374756
-0.0080270767211914,1.369945764541626,-0.1620212197303772,-0.3924892842769623,-0.0007033679867163,-0.0594196990132331,0.0,0.0,0.014234185218811,0.9598047733306884
-0.0095787048339843,1.3609992265701294,-0.1502363085746765,-0.3976313769817352,-0.0055788694880902,-0.0975189357995987,0.0,0.0,0.1227877140045166,-0.0580570101737976
-0.0112222675234079,1.3520276546478271,-0.1593826711177826,-0.3987686336040497,-0.01050541177392,-0.0985396802425384,0.0,0.0,0.0502328872680664,0.8303873538970947
-0.0127640720456838,1.343058466911316,-0.1476043462753296,-0.3986847102642059,-0.0170101840049028,-0.1301074028015136,0.0,0.0,0.5165057182312012,0.8673951625823975
-0.0143160820007324,1.334635853767395,-0.1468857824802398,-0.3744540214538574,-0.0252305772155523,-0.1644228398799896,0.0,0.0,-0.1857178807258606,-0.3016432523727417
-0.0159474369138479,1.3255997896194458,-0.1548380404710769,-0.4017663598060608,-0.0334311686456203,-0.1640273183584213,0.0,0.0,-0.4871564507484436,0.4031186103820801
-0.0176581386476755,1.3159503936767578,-0.1628020703792572,-0.4290677905082702,-0.0416136048734188,-0.163663774728775,0.0,0.0,-0.0297147631645202,0.2493811845779419
-0.0194484703242778,1.305687665939331,-0.1707742661237716,-0.4563726484775543,-0.0497778542339801,-0.1633000671863556,0.0,0.0,-0.140620470046997,0.8835217952728271
-0.0212334636598825,1.2948098182678225,-0.1681225001811981,-0.4838305413722992,-0.0600546300411224,-0.205554574728012,0.0,0.0,0.2165369987487793,0.6444016695022583
-0.0229751579463481,1.2836953401565552,-0.1626211106777191,-0.4944814443588257,-0.0714989751577377,-0.2289075404405594,0.0,0.0,0.4249217510223388,0.7185790538787842
-0.0245538707822561,1.2730190753936768,-0.1451600790023803,-0.475156158208847,-0.0841104611754417,-0.2522529661655426,0.0,0.0,-0.6418800354003906,0.5510430335998535
-0.0261610988527536,1.261717677116394,-0.146731361746788,-0.5031245946884155,-0.0979986265301704,-0.2777888476848602,0.0,0.0,-0.3404911756515503,-0.105849802494049
-0.0278473850339651,1.2498048543930054,-0.1546782702207565,-0.5304375290870667,-0.1118658185005188,-0.2773689031600952,0.0,0.0,0.0512417554855346,-0.3422673940658569
-0.0294959060847759,1.2376201152801514,-0.1513721942901611,-0.5426031947135925,-0.1252868622541427,-0.2684453725814819,0.0,0.0,-0.542024552822113,-0.4157277345657348
-0.031223202124238,1.2248237133026123,-0.1592958122491836,-0.5699231028556824,-0.1386857330799102,-0.268001526594162,0.0,0.0,0.5722510814666748,0.0910232067108154
-0.0330306999385356,1.212231159210205,-0.1669965982437133,-0.5610029697418213,-0.1524192690849304,-0.2746956646442413,0.0,0.0,-0.3010482788085937,-0.6193705201148987
-0.0349540710449218,1.1990396976470947,-0.179620549082756,-0.587638795375824,-0.1651488244533538,-0.2546140551567077,0.0,0.0,0.7135046720504761,-0.5930736660957336
-0.0369136817753315,1.1859198808670044,-0.1845201700925827,-0.584417462348938,-0.1766336560249328,-0.2297175675630569,0.0,0.0,0.0692306756973266,-0.8370997905731201
-0.0388578400015831,1.17269766330719,-0.1847118884325027,-0.5888373255729675,-0.1863843947649002,-0.195031926035881,0.0,0.0,0.6029268503189087,-0.8893820643424988
-0.0408191680908203,1.1592971086502075,-0.1883505284786224,-0.5965759754180908,-0.1942199170589447,-0.1567248851060867,0.0,0.0,0.7054047584533691,-0.8838926553726196
-0.042957879602909,1.1463303565979004,-0.2076292037963867,-0.5771285891532898,-0.2005079537630081,-0.1257723867893219,0.0,0.0,0.921555757522583,-0.0587959289550781
-0.0451794639229774,1.133983135223389,-0.2151813954114914,-0.549726128578186,-0.2075454443693161,-0.1407492607831955,0.0,0.0,0.8439754247665405,0.3377021551132202
-0.0473065376281738,1.122211217880249,-0.205794408917427,-0.5241905450820923,-0.2145269513130188,-0.1396305412054062,0.0,0.0,0.2964251041412353,-0.6594676971435547
-0.0495331771671772,1.1108342409133911,-0.2169226855039596,-0.5064929127693176,-0.2203240692615509,-0.1159422546625137,0.0,0.0,0.6744439601898193,-0.7028923630714417
-0.0518579483032226,1.1000633239746094,-0.2278947532176971,-0.4793959259986877,-0.224965438246727,-0.0928274914622306,0.0,0.0,0.396905779838562,0.0140575170516967
-0.054183293133974,1.0892871618270874,-0.2279194593429565,-0.4796527624130249,-0.2296452075242996,-0.0935955122113227,0.0,0.0,-0.426175057888031,0.5872031450271606
-0.0565357208251953,1.0778872966766355,-0.2294791042804718,-0.5075781941413879,-0.2354935556650161,-0.116966962814331,0.0,0.0,0.0980937480926513,0.1229399442672729
-0.0589445121586322,1.0663161277770996,-0.2349303215742111,-0.5152298212051392,-0.2415314465761184,-0.1207582131028175,0.0,0.0,0.7768683433532715,-0.1876044273376464
-0.0613064765930175,1.0554187297821045,-0.2299160212278366,-0.4853731691837311,-0.2479274421930313,-0.1279192268848419,0.0,0.0,0.1225001811981201,0.3066827058792114
-0.0637228935956955,1.044279932975769,-0.2352272719144821,-0.4961615800857544,-0.2544677257537842,-0.1308057010173797,0.0,0.0,-0.0946123600006103,0.0324403047561645
-0.0662112236022949,1.032526969909668,-0.2424786388874054,-0.5234624147415161,-0.2609485685825348,-0.1296174228191375,0.0,0.0,0.6103432178497314,-0.0015411972999572
-0.0685630813241005,1.0212218761444092,-0.2289993464946746,-0.5035704374313354,-0.267284631729126,-0.1267206370830536,0.0,0.0,0.4765417575836181,-0.0836935639381408
-0.0709003433585167,1.0099005699157717,-0.2275014668703079,-0.5043131113052368,-0.2736626267433166,-0.1275596618652343,0.0,0.0,0.9153333902359008,-0.6274422407150269
-0.0730696693062782,0.9992453455924988,-0.2121444940567016,-0.4744711816310882,-0.2785703539848327,-0.0981544032692909,0.0,0.0,0.4502383470535278,-0.6923635005950928
-0.0751915946602821,0.9890879988670348,-0.2087940424680709,-0.4520868957042694,-0.2820603549480438,-0.0698008835315704,0.0,0.0,0.4931895732879638,-0.3834273815155029
-0.077203556895256,0.9790971279144288,-0.1979888975620269,-0.4446579813957214,-0.2853542864322662,-0.0658779740333557,0.0,0.0,-0.6193444728851318,0.1217782497406005
-0.0792819038033485,0.968492031097412,-0.2047173678874969,-0.4719555079936981,-0.2885661423206329,-0.0642373636364936,0.0,0.0,0.5574429035186768,0.1887760162353515
-0.0811737030744552,0.9579324126243592,-0.1866672337055206,-0.4698177278041839,-0.2911537289619446,-0.0517516210675239,0.0,0.0,0.2301704883575439,0.0701123476028442
-0.0829935073852539,0.9470626711845398,-0.1798777282238006,-0.4835218787193298,-0.2933164834976196,-0.0432549379765987,0.0,0.0,-0.3279788494110107,-0.088921308517456
-0.0848764404654502,0.9355782866477966,-0.1862861812114715,-0.510818600654602,-0.2953848540782928,-0.0413671359419822,0.0,0.0,0.1939910650253296,-0.5683877468109131
-0.0868345275521278,0.9238121509552002,-0.194958359003067,-0.5231146812438965,-0.296263724565506,-0.0175776202231645,0.0,0.0,0.2904113531112671,-0.2324773073196411
-0.0887428298592567,0.911790132522583,-0.190239816904068,-0.5344351530075073,-0.2968738079071045,-0.0122019657865166,0.0,0.0,-0.2985982894897461,-0.9259650707244872
-0.0907743424177169,0.8991773128509521,-0.2042926996946334,-0.560334324836731,-0.2956897914409637,0.0236803572624921,0.0,0.0,-0.7648934125900269,-0.6855393052101135
-0.0929236412048339,0.8859850168228149,-0.2178020775318145,-0.5857471227645874,-0.2927331030368805,0.0591337159276008,0.0,0.0,-0.0796758532524108,-0.1674327850341797
-0.0951297730207443,0.8721781373023987,-0.2235900610685348,-0.6130435466766357,-0.2896608710289001,0.0614448674023151,0.0,0.0,-0.7812255024909973,0.0089324712753295
-0.0973912253975868,0.8577567338943481,-0.229241281747818,-0.6403400301933289,-0.2864688336849212,0.0638405159115791,0.0,0.0,-0.7472693920135498,-0.5534653067588806
-0.0997383147478103,0.8427346348762512,-0.2387724667787552,-0.6668537855148315,-0.2822968661785126,0.083439216017723,0.0,0.0,0.5297635793685913,-0.2164669036865234
-0.1019989997148513,0.8281030654907227,-0.2300152033567428,-0.6495320200920105,-0.2782434225082397,0.0810687392950058,0.0,0.0,0.6178838014602661,-0.2114516496658325
-0.1040880233049392,0.8134410381317139,-0.2134622782468795,-0.6507901549339294,-0.2735625803470611,0.0936166942119598,0.0,0.0,0.191270112991333,-0.8031097650527954
-0.1061278358101844,0.7990269064903259,-0.2102838009595871,-0.6394618153572083,-0.2671087980270386,0.1290760338306427,0.0,0.0,0.5467081069946289,-0.4299269914627075
-0.107960321009159,0.7846037745475769,-0.1903213709592819,-0.6397491097450256,-0.2598696053028106,0.14478400349617,0.0,0.0,0.5097287893295288,-0.1422047615051269
-0.1098124533891677,0.7702245712280273,-0.1920523941516876,-0.6378815770149231,-0.2528902888298034,0.1395864784717559,0.0,0.0,-0.1171940565109252,0.1608027219772339
-0.1117089241743087,0.7552313804626465,-0.1966444700956344,-0.6651809811592102,-0.2457631528377533,0.1425427198410034,0.0,0.0,0.5927560329437256,-0.0102450847625732
-0.1133607849478721,0.7405216097831726,-0.1729514151811599,-0.6524934768676758,-0.2378691583871841,0.1578800529241562,0.0,0.0,0.2214248180389404,0.5554481744766235
-0.1148076057434082,0.7260536551475525,-0.1516355127096176,-0.6419116854667664,-0.2308197766542434,0.1409879624843597,0.0,0.0,-0.2856603860855102,-0.4766061305999756
-0.1162937134504318,0.7109716534614563,-0.1557296812534332,-0.6692112684249878,-0.2236118912696838,0.1441576182842254,0.0,0.0,0.0101075172424316,-0.1001460552215576
-0.1177366226911544,0.6955965161323547,-0.1517237573862075,-0.6822341680526733,-0.2160974442958831,0.1502889096736908,0.0,0.0,0.3102953433990478,-0.175003707408905
-0.1191737204790115,0.6804481148719788,-0.150951087474823,-0.6722272038459778,-0.2087858915328979,0.1462309658527374,0.0,0.0,0.8434587717056274,0.3826396465301513
-0.1203904151916503,0.6654895544052124,-0.1297190338373184,-0.6637070775032043,-0.2006688714027404,0.1623407304286956,0.0,0.0,0.3274542093276977,0.303716778755188
-0.1215226203203201,0.6506356596946716,-0.1215410009026527,-0.6590745449066162,-0.1922933608293533,0.1675102412700653,0.0,0.0,0.5657997131347656,0.665762186050415
-0.1225538253784179,0.6357048749923706,-0.1103089079260826,-0.6626744866371155,-0.1850673109292984,0.1445207595825195,0.0,0.0,0.3740596771240234,0.3037877082824707
-0.1236246079206466,0.6209132075309753,-0.1139699444174766,-0.6565607786178589,-0.1781412214040756,0.1385216414928436,0.0,0.0,0.7909929752349854,0.5180013179779053
-0.1244924515485763,0.6068654656410217,-0.0929187759757042,-0.6236181259155273,-0.1720006614923477,0.122811235487461,0.0,0.0,-0.8161839842796326,0.5917918682098389
-0.1253342628479004,0.592182993888855,-0.0891359373927116,-0.6519888639450073,-0.167030930519104,0.0993943661451339,0.0,0.0,0.4607852697372436,-0.228158414363861
-0.1260504722595214,0.5779966711997986,-0.0768841728568077,-0.6299195885658264,-0.1617674827575683,0.1052690967917442,0.0,0.0,-0.6415665745735168,-0.3838359117507934
-0.1267886161804199,0.5631961822509766,-0.0792611241340637,-0.6572179794311523,-0.1563188284635543,0.1089731007814407,0.0,0.0,0.1862040758132934,0.1342010498046875
-0.1275362968444824,0.5485171675682068,-0.0801079720258712,-0.6518489718437195,-0.1509881466627121,0.1066135168075561,0.0,0.0,0.312469482421875,0.7003393173217773
-0.1281463652849197,0.5339396595954895,-0.065170906484127,-0.6474713683128357,-0.1468276381492614,0.0832098126411438,0.0,0.0,0.4983458518981933,0.8090157508850098
-0.1287260949611663,0.5199078321456909,-0.0605246499180793,-0.6233891248703003,-0.1442845314741134,0.0508624240756034,0.0,0.0,-0.7599641680717468,-0.3775239586830139
-0.1293210983276367,0.5052614808082581,-0.0622465498745441,-0.6506859660148621,-0.1415498852729797,0.0546928942203521,0.0,0.0,0.7965760231018066,0.3294399976730346
-0.1299061775207519,0.4906399250030517,-0.0612705424427986,-0.6495856642723083,-0.1387921273708343,0.0551545992493629,0.0,0.0,0.7801258563995361,0.053952932357788
-0.1303823441267013,0.4759090840816498,-0.0509197898209095,-0.6544014811515808,-0.1355018019676208,0.0658065229654312,0.0,0.0,0.8933055400848389,0.5783612728118896
-0.1308100670576095,0.461134672164917,-0.0450064539909362,-0.6564380526542664,-0.1332823187112808,0.0443896353244781,0.0,0.0,0.9139326810836792,-0.3098290562629699
-0.1311345994472503,0.4471138119697571,-0.0348265245556831,-0.6229377388954163,-0.1309125423431396,0.0473955161869525,0.0,0.0,0.9211852550506592,-0.359233021736145
-0.1312506645917892,0.4338710606098175,-0.0146221620962023,-0.5883066654205322,-0.1279166042804718,0.0599186122417449,0.0,0.0,0.3327735662460327,0.2714431285858154
-0.1313789337873459,0.421012133359909,-0.0156080108135938,-0.5712732672691345,-0.1251434534788131,0.0554630160331726,0.0,0.0,0.618748664855957,0.2329859733581543
-0.1315975189208984,0.4080454111099243,-0.0242545902729034,-0.5760987401008606,-0.1227605938911438,0.0476569570600986,0.0,0.0,0.6266907453536987,-0.0191125273704528
-0.1316852569580078,0.3956156969070434,-0.011546891182661,-0.552207350730896,-0.1199979856610298,0.0552521347999572,0.0,0.0,0.5462815761566162,0.3233662843704223
-0.1318052262067794,0.3833906650543213,-0.0145329134538769,-0.5431325435638428,-0.1174782514572143,0.0503946729004383,0.0,0.0,0.9332284927368164,-0.3805270195007324
-0.1318974494934082,0.3717439472675323,-0.0116513557732105,-0.5174405574798584,-0.1150598004460334,0.0483690574765205,0.0,0.0,0.3727372884750366,-0.0547046065330505
-0.1319331228733062,0.3603502810001373,-0.0061548221856355,-0.5061873197555542,-0.1124924793839454,0.0513467490673065,0.0,0.0,0.1314284801483154,0.2566238641738891
-0.1318640708923339,0.3489260673522949,0.0038453317247331,-0.5075162053108215,-0.1094548106193542,0.0607533529400825,0.0,0.0,0.0103088617324829,0.635035514831543
-0.1317047178745269,0.3371823728084564,0.0139456139877438,-0.5217968225479126,-0.1074760407209396,0.0395751781761646,0.0,0.0,0.8661900758743286,-0.6163809895515442
-0.1314311027526855,0.3254879415035248,0.0236393082886934,-0.5194918513298035,-0.1037823185324668,0.0738747492432594,0.0,0.0,0.7933967113494873,0.6894493103027344
-0.1308634728193283,0.3140683174133301,0.0538268610835075,-0.5073354244232178,-0.1008701026439666,0.0582444593310356,0.0,0.0,0.7540225982666016,-0.5534594058990479
-0.1301359236240387,0.3026379346847534,0.0680820867419242,-0.5077120661735535,-0.0962376371026039,0.0926491171121597,0.0,0.0,0.5588288307189941,-0.0910049676895141
-0.1293405592441558,0.2916524112224579,0.0746970027685165,-0.4879413545131683,-0.0914425477385521,0.095901995897293,0.0,0.0,0.5375809669494629,0.3678878545761108
-0.1284463852643966,0.2811033725738525,0.0842577069997787,-0.4685406386852264,-0.0863288193941116,0.1022747755050659,0.0,0.0,0.1752049922943115,0.2490606307983398
-0.1274167001247406,0.2706378996372223,0.0972052365541458,-0.4648098051548004,-0.0806220322847366,0.1141356602311134,0.0,0.0,-0.040529727935791,-0.1999207735061645
-0.1263802498579025,0.2595584392547607,0.0977052897214889,-0.4921098947525024,-0.0747343599796295,0.1177536100149154,0.0,0.0,0.7836601734161377,0.4586919546127319
-0.1253519058227539,0.2486938536167144,0.096971608698368,-0.4825916588306427,-0.068930834531784,0.1160703748464584,0.0,0.0,0.6485811471939087,0.8697004318237305
-0.1240934357047081,0.2384970337152481,0.1214061975479126,-0.4529942274093628,-0.0645337402820587,0.087941862642765,0.0,0.0,0.0035783052444458,-0.3497019410133362
-0.1228185668587684,0.228204920887947,0.1229262799024581,-0.4572356939315796,-0.0600297823548316,0.0900791063904762,0.0,0.0,0.2129236459732055,0.1456437110900879
-0.1215914711356163,0.2181814759969711,0.1184099465608596,-0.4453219771385193,-0.0557793565094471,0.08500836789608,0.0,0.0,0.2341896295547485,0.1028051376342773
-0.1202617660164833,0.2083191722631454,0.1282030045986175,-0.4381517171859741,-0.0510626584291458,0.0943338871002197,0.0,0.0,0.117634892463684,0.3515915870666504
-0.1189333945512771,0.1986060738563537,0.1280660629272461,-0.4315419793128967,-0.0463517904281616,0.0942174866795539,0.0,0.0,0.2574546337127685,-0.2407398819923401
-0.117632582783699,0.1891371607780456,0.1254468858242035,-0.4207029938697815,-0.0417745299637317,0.0915451943874359,0.0,0.0,0.2265328168869018,-0.4379611015319824
-0.1163257583975792,0.1796094477176666,0.1259760856628418,-0.4233292639255523,-0.0371293798089027,0.0929031372070312,0.0,0.0,0.0686789751052856,-0.7752460241317749
-0.1151441559195518,0.1700599938631057,0.1117988005280494,-0.4242728650569916,-0.0308435931801795,0.1257158070802688,0.0,0.0,0.6078276634216309,0.7699551582336426
-0.1140385642647743,0.160663902759552,0.1058930158615112,-0.417518138885498,-0.026240412145853,0.0920639783143997,0.0,0.0,0.3056013584136963,0.6599991321563721
-0.1127641648054122,0.1515033990144729,0.1238063126802444,-0.4070730805397033,-0.0226545967161655,0.0717163309454917,0.0,0.0,0.1562809944152832,-0.1745398044586181
-0.1114324554800987,0.1421146690845489,0.1292042881250381,-0.4172230362892151,-0.0187369510531425,0.0783530324697494,0.0,0.0,0.5796065330505371,-0.2281549572944641
-0.1099400520324707,0.1332019418478012,0.1444907933473587,-0.39606773853302,-0.0140503151342272,0.0937327221035957,0.0,0.0,0.3180501461029053,-0.752556562423706
-0.1085110679268837,0.1246120035648346,0.1365492790937423,-0.381731629371643,-0.0077729756012558,0.1255468130111694,0.0,0.0,0.6569581031799316,0.8593785762786865
-0.1068403273820877,0.1167009174823761,0.1620629578828811,-0.3515840470790863,-0.0028322723228484,0.0988139510154724,0.0,0.0,-0.4994399547576904,-0.7073447108268738
-0.105211354792118,0.1081764325499534,0.1565379947423935,-0.3788703382015228,0.0034452611580491,0.1255508363246917,0.0,0.0,0.9099267721176147,0.6837562322616577
-0.1035337448120117,0.1004609689116478,0.1626953184604644,-0.3429297804832458,0.0084421942010521,0.0999385938048362,0.0,0.0,0.1897927522659301,-0.5772311687469482
-0.1018522232770919,0.0929876193404197,0.1617460548877716,-0.3322000801563263,0.014767569489777,0.12650728225708,0.0,0.0,-0.1185100078582763,0.2268630266189575
-0.1001651734113693,0.0849005058407783,0.1622145771980285,-0.3595021069049835,0.0211797077208757,0.1282427161931991,0.0,0.0,0.8879587650299072,0.7592544555664062
-0.0985799804329872,0.0772576406598091,0.1538176834583282,-0.3397560119628906,0.0258207637816667,0.0928211212158203,0.0,0.0,0.8180652856826782,0.5674996376037598
-0.097111128270626,0.0698446631431579,0.1436829566955566,-0.3295266926288605,0.0289911888539791,0.0634086281061172,0.0,0.0,0.6835860013961792,0.7678968906402588
-0.095618724822998,0.0626799464225769,0.1475627869367599,-0.3184631764888763,0.0306496955454349,0.0331702157855033,0.0,0.0,0.8413447141647339,0.0343385934829711
-0.0941128730773925,0.0557938925921916,0.1487128883600235,-0.3060882985591888,0.0324956774711608,0.0369196459650993,0.0,0.0,0.9233444929122924,-0.538007915019989
-0.092500016093254,0.0489222146570682,0.1578044593334198,-0.3054885268211365,0.0359281413257122,0.0686493441462516,0.0,0.0,0.9520115852355956,0.095820665359497
-0.0908002853393554,0.0426537133753299,0.1659326702356338,-0.2787009477615356,0.0399286113679409,0.0800095722079277,0.0,0.0,0.930006742477417,-0.430916428565979
-0.0891087502241134,0.0371853671967983,0.1649371832609176,-0.2431564033031463,0.0440902896225452,0.0832336768507957,0.0,0.0,0.7483022212982178,-0.7208476066589355
