x_pos,y_pos,x_vel,y_vel,angle,ang_vel,leg_1,leg_2,main_booster,lat_booster
-0.0016094207530841,1.4033615589141846,-0.1633574217557907,-0.3359338045120239,0.0021541994065046,0.0425228402018547,0.0,0.0,-0.0313934683799743,0.951991319656372
-0.0032233237288892,1.3955589532852173,-0.1617721617221832,-0.3467806875705719,0.002536931540817,0.007656306028366,0.0,0.0,-0.0048626661300659,0.7893455028533936
-0.0048456192016601,1.387487530708313,-0.1610261052846908,-0.3587259948253631,0.0013420394388958,-0.0239000972360372,0.0,0.0,-0.0297231674194335,0.5927722454071045
-0.0065136910416185,1.3791513442993164,-0.1649758219718933,-0.3704944252967834,-0.0004630665061995,-0.0361056700348854,0.0,0.0,-0.1422231197357177,0.8789656162261963
-0.0081796646118164,1.3705551624298096,-0.1629731953144073,-0.382058709859848,-0.0040461048483848,-0.0716673880815506,0.0,0.0,0.4253023862838745,0.7134397029876709
-0.0097369197756052,1.3623969554901123,-0.1512601971626281,-0.3626059591770172,-0.0084607684984803,-0.0883015841245651,0.0,0.0,-0.1248664855957031,0.6819212436676025
-0.0113215446472167,1.3539754152297974,-0.1530263423919677,-0.3743323385715484,-0.0138387745246291,-0.1075701937079429,0.0,0.0,-0.0419650673866272,-0.1113224625587463
-0.0129837039858102,1.3452913761138916,-0.1611209213733673,-0.3860143721103668,-0.0188787020742893,-0.100807711482048,0.0,0.0,-0.0547049045562744,0.223841905593872
-0.0147218704223632,1.336344599723816,-0.1690567582845688,-0.3976980745792389,-0.0235801860690116,-0.0940383151173591,0.0,0.0,-0.8606609106063843,0.813085675239563
-0.0164701454341411,1.3271381855010986,-0.1687913984060287,-0.4092833399772644,-0.0295506045222282,-0.1194192022085189,0.0,0.0,-0.3196098208427429,0.9122347831726074
-0.0182085987180471,1.3176662921905518,-0.1660659909248352,-0.4211428463459015,-0.0372462160885334,-0.1539264470338821,0.0,0.0,-0.3407266139984131,0.6939470767974854
-0.0199563018977642,1.307927489280701,-0.1657843291759491,-0.4330837428569793,-0.0461375154554843,-0.1778425872325897,0.0,0.0,-0.1490130424499511,0.6363930702209473
-0.0217110626399517,1.29792582988739,-0.1652913391590118,-0.4448625147342682,-0.0562215037643909,-0.2016983330249786,0.0,0.0,-0.254887580871582,-0.212870717048645
-0.0235316269099712,1.287662148475647,-0.172227993607521,-0.4565528035163879,-0.065963290631771,-0.1948532313108444,0.0,0.0,-0.2407435178756714,0.5295602083206177
-0.0253640171140432,1.2771371603012085,-0.1724513918161392,-0.4682838022708893,-0.076660007238388,-0.2139537781476974,0.0,0.0,-0.7761734127998352,0.5291576385498047
-0.0272085182368755,1.2663387060165403,-0.1727551370859146,-0.4805673360824585,-0.0882590040564537,-0.2320010662078857,0.0,0.0,-0.3905628323554992,0.8730301856994629
-0.0290263183414936,1.2552781105041504,-0.1682905703783035,-0.4924345314502716,-0.1016463190317154,-0.2677706182003021,0.0,0.0,-0.6705240607261658,0.5354387760162354
-0.0308476444333791,1.24394428730011,-0.1676849275827407,-0.5047762989997864,-0.1160114929080009,-0.2873300015926361,0.0,0.0,-0.3845987319946289,0.7461527585983276
-0.0326526649296283,1.2323448657989502,-0.1646897792816162,-0.5168270468711853,-0.1317600756883621,-0.3150003254413605,0.0,0.0,-0.1127054691314697,-0.5777201652526855
-0.034558106213808,1.220495104789734,-0.1763975322246551,-0.5279737710952759,-0.1458626091480255,-0.2820761799812317,0.0,0.0,0.2434786558151245,-0.4178673028945923
-0.0363318435847759,1.2092028856277466,-0.1640600562095642,-0.5032330751419067,-0.1591808348894119,-0.2663890123367309,0.0,0.0,-0.3592232465744018,-0.6406915783882141
-0.0381973274052143,1.1976571083068848,-0.1748479753732681,,-0.1709092408418655,-0.23458893597126,0.0,0.0,0.3013124465942383,-0.6456682085990906
-0.0399674400687217,1.1864664554595947,-0.1671485006809234,-0.4985283017158508,-0.1808152943849563,-0.1981389969587326,0.0,0.0,-0.4248523712158203,-0.3145625591278076
-0.0417728424072265,1.1750130653381348,-0.1710098981857299,-0.5102230906486511,-0.1903907507658004,-0.1915261000394821,0.0,0.0,-0.7446216344833374,-0.4752836227416992
-0.043609332293272,1.163297414779663,-0.1744740307331085,-0.5219106674194336,-0.1996368318796157,-0.1849382221698761,0.0,0.0,0.4820032119750976,-0.6773847341537476
-0.0455434806644916,1.1522884368896484,-0.185642808675766,-0.4903563261032104,-0.2074690908193588,-0.1566450744867324,0.0,0.0,-0.246619164943695,-0.3005090951919555
-0.0475008003413677,1.1410164833068848,-0.188297227025032,-0.5020372867584229,-0.2149788290262222,-0.150194838643074,0.0,0.0,-0.4681857824325561,-0.2150590419769287
-0.0494771003723144,1.129481554031372,-0.1905129998922348,-0.5137177109718323,-0.222168892621994,-0.1438011229038238,0.0,0.0,-0.0641489624977111,-0.2434003353118896
-0.0514677986502647,1.1176834106445312,-0.1922781765460968,-0.525397539138794,-0.2290421724319458,-0.1374658793210983,0.0,0.0,0.0503381490707397,-0.8799649477005005
-0.053481388837099,1.1061006784439087,-0.1966416388750076,-0.5155335068702698,-0.2338306605815887,-0.095769852399826,0.0,0.0,0.8907151222229004,0.1108450889587402
-0.0552548393607139,1.0956604480743408,-0.1730364859104156,-0.4646914303302765,-0.2382096201181411,-0.0875791311264038,0.0,0.0,-0.537044107913971,0.0096988677978515
-0.0570287704467773,1.0849570035934448,-0.1733916699886322,-0.4763683676719665,-0.2422811388969421,-0.0814305171370506,0.0,0.0,0.6954858303070068,0.3306105136871338
-0.0586832985281944,1.0752182006835938,-0.1613644510507583,-0.4335117638111114,-0.246440514922142,-0.0831875875592231,0.0,0.0,0.1933889389038086,0.7040379047393799
-0.0602625831961631,1.0655874013900757,-0.1526879370212555,-0.428924024105072,-0.2517890632152557,-0.1069710999727249,0.0,0.0,-0.653667688369751,0.6879963874816895
-0.0617736801505088,1.0556739568710327,-0.1447628438472747,-0.4417056739330292,-0.2582670152187347,-0.1295589357614517,0.0,0.0,-0.4688808917999267,-0.5331434607505798
-0.0633046180009841,1.0455164909362793,-0.1480692923069,-0.4523379504680633,-0.2634013593196869,-0.1026868596673011,0.0,0.0,0.2978271245956421,-0.5572185516357422
-0.064783476293087,1.0356365442276,-0.1442013531923294,-0.4397724568843841,-0.267165869474411,-0.0752902552485466,0.0,0.0,0.2676039934158325,-0.0859154462814331
-0.0660514831542968,1.0263264179229736,-0.1235360503196716,-0.4143848419189453,-0.2705079317092895,-0.0668418705463409,0.0,0.0,-0.9515525698661804,-0.7644502520561218
-0.0673466697335243,1.0167863368988037,-0.1281462609767913,-0.424255758523941,-0.2719081342220306,-0.0280041433870792,0.0,0.0,-0.8395646214485168,-0.2983326911926269
-0.0686039924621582,1.0069825649261477,-0.1246436983346939,-0.4359310865402221,-0.2730277776718139,-0.0223927162587642,0.0,0.0,-0.7279592752456665,-0.3051602840423584
-0.0698190703988075,0.9969148635864258,-0.120684266090393,-0.4476063847541809,-0.2738702297210693,-0.0168487541377544,0.0,0.0,-0.887079656124115,-0.8454338312149048
-0.0710387229919433,0.986603021621704,-0.1227422803640365,-0.4581597149372101,-0.2730782032012939,0.015840794891119,0.0,0.0,-0.8767304420471191,-0.8967590928077698
-0.0722663849592208,0.976041853427887,-0.1252770721912384,-0.4689164161682129,-0.2705006897449493,0.0515502467751503,0.0,0.0,0.2124282121658325,-0.8471577167510986
-0.0733189582824707,0.9657694697380066,-0.1097663044929504,-0.4557304084300995,-0.2658872008323669,0.092269517481327,0.0,0.0,-0.0679162740707397,-0.3031706809997558
-0.0743124037981033,0.9552335143089294,-0.1041099652647972,-0.4674077928066253,-0.2610098421573639,0.0975473895668983,0.0,0.0,0.0801759958267211,-0.7566950917243958
-0.0752119049429893,0.944753110408783,-0.0965031012892723,-0.4646438360214233,-0.2543255388736725,0.1336863189935684,0.0,0.0,-0.5776678919792175,-0.00180184841156
-0.0760447531938552,0.9340097308158876,-0.0900918245315551,-0.476323515176773,-0.2473838627338409,0.1388334035873413,0.0,0.0,-0.7842557430267334,0.5394613742828369
-0.0767727866768837,0.922995924949646,-0.0790083557367324,-0.4884653985500335,-0.241069495677948,0.1262871623039245,0.0,0.0,-0.8140000700950623,-0.2902024984359741
-0.0774271935224533,0.9117192029953004,-0.0719100534915924,-0.5001450777053833,-0.2345041930675506,0.1313058137893676,0.0,0.0,-0.9269688129425048,-0.0717155933380127
-0.0780050307512283,0.900179386138916,-0.0644947737455368,-0.5118252038955688,-0.2276911586523056,0.1362608224153518,0.0,0.0,-0.9501924514770508,0.4237563610076904
-0.078503131866455,0.8883768320083618,-0.0567800030112266,-0.5235058665275574,-0.2206335365772247,0.1411523967981338,0.0,0.0,-0.935546875,0.5902820825576782
-0.078877069056034,0.8763011693954468,-0.0435517355799675,-0.5357897877693176,-0.2144065946340561,0.1245390176773071,0.0,0.0,-0.9165275692939758,0.3279716968536377
-0.0791658386588096,0.8639624118804932,-0.0352891124784946,-0.5474700927734375,-0.2079413533210754,0.1293048560619354,0.0,0.0,-0.908827781677246,0.0428074598312377
-0.0793671607971191,0.8513607382774353,-0.0267777144908905,-0.5591509938240051,-0.2012410461902618,0.1340057551860809,0.0,0.0,-0.9550712704658508,0.2269304990768432
-0.0794786438345909,0.8384964466094971,-0.0180335082113742,-0.5708322525024414,-0.1943089514970779,0.1386419534683227,0.0,0.0,-0.9693254828453064,0.7204630374908447
-0.0794516578316688,0.8253521919250488,-0.0032057359348982,-0.5834288001060486,-0.1883678287267685,0.1188228279352188,0.0,0.0,-0.9561832547187804,-0.0332930088043212
-0.079330638051033,0.8119449019432068,0.0059590530581772,-0.595109760761261,-0.1822015047073364,0.1233264058828353,0.0,0.0,-0.8898453116416931,-0.49437415599823
-0.0791137665510177,0.7982747554779053,0.0153125720098614,-0.6067908406257629,-0.1758134663105011,0.1277611255645752,0.0,0.0,-0.9402204155921936,0.2736926078796386
-0.0787994414567947,0.7843419909477234,0.0248415116220712,-0.6184723973274231,-0.169207215309143,0.1321246922016143,0.0,0.0,-0.8679984211921692,0.5827944278717041
-0.0783456787467002,0.7701411843299866,0.039574034512043,-0.6304991841316223,-0.1634034365415573,0.1160756722092628,0.0,0.0,-0.9199124574661256,-0.3303860425949096
-0.0777913108468055,0.7556775808334351,0.0494170561432838,-0.6421805620193481,-0.1573890298604965,0.1202885061502456,0.0,0.0,-0.9587424993515016,-0.4206106662750244
-0.0771349892020225,0.7409510016441345,0.059399913996458,-0.6538622975349426,-0.1511680036783218,0.1244205236434936,0.0,0.0,-0.8268860578536987,-0.2209841012954712
-0.0763754844665527,0.7259619832038879,0.0695121735334396,-0.6655443906784058,-0.1447446197271347,0.1284676045179367,0.0,0.0,-0.8634029030799866,-0.1372894644737243
-0.0755116492509841,0.7107099890708923,0.0797440558671951,-0.6772269606590271,-0.1381233930587768,0.1324247419834137,0.0,0.0,-0.923559069633484,-0.2334420084953308
-0.0745424255728721,0.6951956748962402,0.0900864824652671,-0.6889098286628723,-0.1313090771436691,0.1362864673137664,0.0,0.0,-0.7064334750175476,-0.3144874572753906
-0.0734667778015136,0.6794187426567078,0.1005309671163559,-0.700593113899231,-0.1243067383766174,0.1400465369224548,0.0,0.0,-0.6802539825439453,0.1008026599884033
-0.0722838416695594,0.6633793711662292,0.1110696569085121,-0.7122766971588135,-0.1171218305826187,0.1436982303857803,0.0,0.0,-0.860787570476532,0.0770783424377441
-0.0709927529096603,0.647077739238739,0.1216952428221702,-0.7239607572555542,-0.1097601354122161,0.1472340524196624,0.0,0.0,-0.7369416356086731,0.2370998859405517
-0.0695929527282714,0.6305135488510132,0.1324010044336319,-0.7356451749801636,-0.1022278442978859,0.1506458669900894,0.0,0.0,-0.7817032933235168,0.0208334922790527
-0.0680834800004959,0.6136871576309204,0.1431806236505508,-0.7473300099372864,-0.0945316031575203,0.1539247781038284,0.0,0.0,-0.7815823554992676,0.5388588905334473
-0.0664278045296669,0.5965955257415771,0.1585573852062225,-0.7592010498046875,-0.0875881165266037,0.1388699412345886,0.0,0.0,-0.789154589176178,-0.6943838596343994
-0.0647134780883789,0.5792498588562012,0.1629578918218612,-0.7704461216926575,-0.0791821256279945,0.1681197732686996,0.0,0.0,-0.5006238222122192,-0.5635960698127747
-0.0629414543509483,0.5616549849510193,0.1671870648860931,-0.7814949154853821,-0.0692706555128097,0.1982293426990509,0.0,0.0,-0.4472757577896118,0.3170446157455444
-0.0610578544437885,0.5437985062599182,0.1782083511352539,-0.7931838631629944,-0.0592269636690616,0.2008736878633499,0.0,0.0,-0.4985775351524353,-0.3923728466033935
-0.0590622909367084,0.525680422782898,0.1892787516117096,-0.8048731088638306,-0.0490604154765605,0.203330785036087,0.0,0.0,0.2145142555236816,-0.6190469264984131
-0.0569361671805381,0.5076519846916199,0.2008586823940277,-0.8009194135665894,-0.0374583303928375,0.2320422381162643,0.0,0.0,0.4827721118927002,-0.5765949487686157
-0.0547625534236431,0.4898178577423095,0.2044207155704498,-0.7923547625541687,-0.0246788263320922,0.2555900812149048,0.0,0.0,0.7183005809783936,0.1714687347412109
-0.0524643883109092,0.4729604423046112,0.2168253362178802,-0.7490555644035339,-0.0118487495929002,0.2566015720367431,0.0,0.0,0.1467102766036987,0.5192303657531738
-0.0499441139400005,0.4566948115825653,0.2398685663938522,-0.7228635549545288,0.0001475856843171,0.2399268448352813,0.0,0.0,-0.403504729270935,-0.7822030782699585
-0.0473840720951557,0.4401764869689941,0.241917997598648,-0.7342086434364319,0.0140555845573544,0.2781599164009094,0.0,0.0,0.414982795715332,0.0138536691665649
-0.0448253639042377,0.4238210022449493,0.242252379655838,-0.7270950078964233,0.0275041460990905,0.26897132396698,0.0,0.0,0.5088095664978027,-0.1276273727416992
-0.0421360954642295,0.4082890748977661,0.2551004588603973,-0.6906175017356873,0.0411624461412429,0.2731660902500152,0.0,0.0,0.3876627683639526,-0.1972823739051818
-0.0394380576908588,0.3932160139083862,0.2563538253307342,-0.6703389883041382,0.0544520914554595,0.2657930850982666,0.0,0.0,0.0238318443298339,0.1688206195831298
-0.0366830825805664,0.3785087764263153,0.2622049450874328,-0.6541913151741028,0.0675947815179824,0.2628538906574249,0.0,0.0,-0.0731981992721557,0.0603057146072387
-0.0338143333792686,0.3635408878326416,0.273594856262207,-0.6658872961997986,0.0807323977351188,0.2627521455287933,0.0,0.0,0.6393213272094727,-0.2834969758987427
-0.030792236328125,0.3491862118244171,0.2885701954364776,-0.6387789249420166,0.0942493826150894,0.2703398466110229,0.0,0.0,0.5279293060302734,-0.2003986239433288
-0.0276642795652151,0.3350468873977661,0.299098402261734,-0.6293331980705261,0.1078309491276741,0.2716313302516937,0.0,0.0,0.6254717111587524,-0.2412995100021362
-0.0243746750056743,0.321252703666687,0.3149269521236419,-0.6141488552093506,0.1217816770076751,0.2790142893791199,0.0,0.0,0.7408411502838135,-0.2144734263420105
-0.0208906177431345,0.308122307062149,0.3337421119213104,-0.5848322510719299,0.1363801062107086,0.291968435049057,0.0,0.0,0.7461867332458496,-0.5379304885864258
-0.0172357559204101,0.295370876789093,0.3494276404380798,-0.5682798624038696,0.1524024158716201,0.3204459547996521,0.0,0.0,0.4213252067565918,-0.1274598240852356
-0.0135704036802053,0.283316820859909,0.3506386280059814,-0.5374402403831482,0.1683000922203064,0.3179536163806915,0.0,0.0,0.6315075159072876,-0.2432078123092651
-0.0098871234804391,0.2721184194087982,0.3524541556835174,-0.4995823502540588,0.1842209845781326,0.3184176385402679,0.0,0.0,0.5988647937774658,-0.4298171997070312
-0.0060903551056981,0.2616453468799591,0.3634214997291565,-0.467570424079895,0.2005654275417328,0.3268889784812927,0.0,0.0,0.6040487289428711,-0.638029158115387
-0.0021880150306969,0.2513888776302337,0.372677206993103,-0.4583192765712738,0.2182855457067489,0.3544020056724548,0.0,0.0,0.3498127460479736,-0.4429066777229309
0.0016951560974121,0.2414684146642685,0.3711842596530914,-0.4435353577136993,0.2356426566839218,0.3471421301364898,0.0,0.0,0.6898202896118164,-0.7527186274528503
0.0055180550552904,0.2325971722602844,0.3637340068817138,-0.3973593413829803,0.2545188069343567,0.3775229156017303,0.0,0.0,0.6970276832580566,-0.7273063659667969
0.0092253684997558,0.2242841124534607,0.3510668277740478,-0.3730014562606811,0.2746190130710602,0.4020046293735504,0.0,0.0,0.7317335605621338,-0.1743819117546081
0.0126931192353367,0.2168634086847305,0.3280113637447357,-0.333452045917511,0.2939098179340362,0.3858163058757782,0.0,0.0,0.8497887849807739,-0.4094904661178589
0.0161397941410541,0.2103478461503982,0.3257878422737121,-0.2935083508491516,0.3134327828884125,0.3904590904712677,0.0,0.0,0.8245224952697754,-0.6315203309059143
0.0193340294063091,0.2047079205513,0.2998073399066925,-0.2550371289253235,0.3338487148284912,0.4083189964294433,0.0,0.0,0.5846371650695801,-0.7081239223480225
0.0222683902829885,0.1997620612382888,0.2729731798171997,-0.2246948778629303,0.355297327041626,0.4289723038673401,0.0,0.0,-0.1128789186477661,-0.3025789856910705
0.0253137592226266,0.1945578604936599,0.284484714269638,-0.2364052981138229,0.3764938712120056,0.4239310622215271,0.0,0.0,0.3111463785171509,-0.3211542963981628
0.0282086376100778,0.1897096484899521,0.2702364325523376,-0.2206865847110748,0.3970004618167877,0.4101319313049316,0.0,0.0,-0.2846826910972595,-0.1173976063728332
0.0312142372131347,0.1846023648977279,0.2817311584949493,-0.2323919236660003,0.4172364175319671,0.4047200083732605,0.0,0.0,-0.2924648523330688,-0.0177445411682128
0.0343305580317974,0.1792355179786682,0.2932150959968567,-0.2440954595804214,0.4371935725212097,0.3991430401802063,0.0,0.0,0.3057605028152466,-0.2984945774078369
0.037477683275938,0.1740361750125885,0.2965267896652221,-0.2368797361850738,0.4570884704589844,0.3978988528251648,0.0,0.0,0.024145483970642,-0.312042236328125
0.0406067855656147,0.1692732125520706,0.2948035597801208,-0.2177662700414657,0.4771058559417724,0.4003476500511169,0.0,0.0,-0.2560510635375976,-0.1092268228530883
0.0438458435237407,0.1642501950263977,0.3062445223331451,-0.2294662147760391,0.4968234598636627,0.3943522274494171,0.0,0.0,0.2394112348556518,0.6349495649337769
0.047034740447998,0.159938707947731,0.3027167916297912,-0.1975820809602737,0.5150636434555054,0.3648032546043396,0.0,0.0,0.1104419231414794,0.4449959993362427
0.0501859672367572,0.1559126675128936,0.2991789281368255,-0.1850676983594894,0.5332302451133728,0.3633324801921844,0.0,0.0,-0.4112467765808105,0.1104601621627807
0.0534464828670024,0.1516253501176834,0.3105526566505432,-0.1967596709728241,0.5510814189910889,0.3570238053798675,0.0,0.0,0.0259826183319091,0.2459654808044433
0.056592084467411,0.147731140255928,0.2993510365486145,-0.1794173121452331,0.5687870979309082,0.3541139364242553,0.0,0.0,-0.0795515775680542,0.3249509334564209
0.0598464012145996,0.1435752213001251,0.3106681406497955,-0.1911064237356186,0.5861693024635315,0.3476436734199524,0.0,0.0,-0.1644418239593505,0.5341413021087646
0.0632364302873611,0.1391854137182235,0.3254468739032745,-0.2011981010437011,0.6023080348968506,0.3227748274803161,0.0,0.0,0.3720717430114746,0.4878880977630615
0.0664047226309776,0.1349708437919616,0.3041002750396728,-0.1932342648506164,0.6176238059997559,0.3063152432441711,0.0,0.0,0.1051959991455078,0.8561356067657471
0.0695033073425293,0.1309970170259475,0.2990643084049225,-0.1817956268787384,0.6307538151741028,0.2626005113124847,0.0,0.0,-0.0854316353797912,0.6927485466003418
0.0727556198835372,0.1268077045679092,0.3160780370235443,-0.1906904429197311,0.6419817805290222,0.2245591580867767,0.0,0.0,0.1218699216842651,0.8539990186691284
0.0761080756783485,0.1227932572364807,0.3279253542423248,-0.1821002066135406,0.6510335206985474,0.1810361444950103,0.0,0.0,-0.2829228639602661,0.7653071880340576
0.0796213150024414,0.1185791119933128,0.3458765149116516,-0.1900731027126312,0.6578000783920288,0.1353308409452438,0.0,0.0,0.1527100801467895,0.1267734766006469
0.0829110145568847,0.1147838905453682,0.3237752914428711,-0.1713691800832748,0.6643063426017761,0.1301255375146865,0.0,0.0,0.2791475057601928,0.8402581214904785
0.086257554590702,0.1111135557293891,0.3311716318130493,-0.1649523824453354,0.6686808466911316,0.0874896347522735,0.0,0.0,-0.5934086441993713,0.342623233795166
