x_pos,y_pos,x_vel,y_vel,angle,ang_vel,leg_1,leg_2,main_booster,lat_booster
-0.0014872550964355,1.4034396409988403,-0.1505846977233886,-0.3324789404869079,0.0016619842499494,0.0327764861285686,0.0,0.0,-0.5174410343170166,0.9528043270111084
-0.0028578757774084,1.3957923650741575,-0.1365402638912201,-0.3398746252059936,0.0011514816433191,-0.0102101536467671,0.0,0.0,-0.0537717342376709,0.540569543838501
-0.0041419030167162,1.3879557847976685,-0.1264872401952743,-0.3482962250709533,-0.0007467428222298,-0.0379682518541812,0.0,0.0,-0.3244428634643554,-0.1194006204605102
-0.0053924559615552,1.3799338340759275,-0.1230470910668373,-0.3565281629562378,-0.0027256924659013,-0.0395824983716011,0.0,0.0,-0.2259781956672668,-0.2303049564361572
-0.0066103935241699,1.3717269897460938,-0.1197166889905929,-0.3647574484348297,-0.0047841351479291,-0.0411728508770465,0.0,0.0,0.5160924196243286,0.4157888889312744
-0.0076686860993504,1.364081621170044,-0.1042717844247818,-0.3397992253303528,-0.0063180401921272,-0.0306808948516845,0.0,0.0,-0.6353142261505127,-0.1323825716972351
-0.0086966510862112,1.3562510013580322,-0.101167045533657,-0.3480339348316192,-0.0079281600192189,-0.0322053059935569,0.0,0.0,-0.8127488493919373,0.274038553237915
-0.0096955299377441,1.3482354879379272,-0.0981760174036026,-0.3562602698802948,-0.009611896239221,-0.0336783230304718,0.0,0.0,-0.34542316198349,-0.3079167604446411
-0.0106663703918457,1.3400347232818604,-0.0953002497553825,-0.3644882142543793,-0.0113675855100154,-0.0351169668138027,0.0,0.0,-0.8024349212646484,-0.2087398767471313
-0.0116102220490574,1.3316489458084106,-0.0925406590104103,-0.3727169632911682,-0.0131931528449058,-0.036515150219202,0.0,0.0,-0.7135576009750366,0.2551651000976562
-0.0125284194946289,1.3230780363082886,-0.0898978486657142,-0.3809458315372467,-0.0150865679606795,-0.0378718301653862,0.0,0.0,-0.6133734583854675,-0.3642630577087402
-0.0134220123291015,1.314321994781494,-0.0873722806572914,-0.3891747891902923,-0.0170456860214471,-0.0391860455274581,0.0,0.0,-0.8812394738197327,-0.3458824157714844
-0.0142920492216944,1.3053810596466064,-0.0849641934037208,-0.3974038064479828,-0.0190683342516422,-0.0404567644000053,0.0,0.0,-0.8132920265197754,0.434255838394165
-0.0151399616152048,1.2962548732757568,-0.0826735645532608,-0.405632883310318,-0.021152289584279,-0.0416830107569694,0.0,0.0,-0.8883259892463684,0.7511616945266724
-0.0158933643251657,1.2869491577148438,-0.0713175684213638,-0.4136463403701782,-0.0251334067434072,-0.0796295553445816,0.0,0.0,-0.9258270859718324,-0.4534033536911011
-0.0166266448795795,1.2774587869644165,-0.0692550390958786,-0.4218766391277313,-0.029170224443078,-0.0807436108589172,0.0,0.0,-0.941500723361969,-0.1029911041259765
-0.017341136932373,1.2677831649780271,-0.0673088952898979,-0.4301069378852844,-0.0332615599036216,-0.0818340107798576,0.0,0.0,-0.7956641316413879,-0.8784909844398499
-0.0180909149348735,1.257918119430542,-0.0721362084150314,-0.4385216832160949,-0.0360735394060611,-0.0562444105744361,0.0,0.0,-0.9388036727905272,-0.0813173055648803
-0.0188240054994821,1.2478678226470947,-0.0704227238893508,-0.4467515349388122,-0.0389356315135955,-0.0572471842169761,0.0,0.0,-0.7827853560447693,-0.6286820769309998
-0.0195979122072458,1.2376354932785034,-0.0758816599845886,-0.4548114836215973,-0.0404285602271556,-0.0298611335456371,0.0,0.0,-0.969639539718628,-0.4841746091842651
-0.0203575138002634,1.2272179126739502,-0.074394941329956,-0.4630408585071563,-0.0419670157134532,-0.0307720247656106,0.0,0.0,-0.876857340335846,0.1537269353866577
-0.0211036689579486,1.2166154384613037,-0.0730163976550102,-0.471270203590393,-0.0435477085411548,-0.0316166952252388,0.0,0.0,-0.9464030265808104,-0.741108775138855
-0.0218833927065134,1.2058297395706177,-0.0775095298886299,-0.4793779551982879,-0.0440126545727252,-0.009299848228693,0.0,0.0,-0.8232564330101013,-0.3859407305717468
-0.0226518623530864,1.1948589086532593,-0.0763449519872665,-0.4876070618629455,-0.0445159152150154,-0.0100661218166351,0.0,0.0,-0.8382542729377747,-0.3646470308303833
-0.0234101302921772,1.183703064918518,-0.0752815082669258,-0.4958362877368927,-0.0450543388724327,-0.0107697462663054,0.0,0.0,-0.8883666396141052,-0.908769965171814
-0.0242488868534564,1.172351360321045,-0.085562415421009,-0.5044677257537842,-0.0433793924748897,0.033499002456665,0.0,0.0,-0.6458780765533447,0.5816128253936768
-0.0250328071415424,1.1608151197433472,-0.0788779035210609,-0.512701690196991,-0.0428990349173545,0.0096069416031241,0.0,0.0,-0.8627809286117554,-0.3905200362205505
-0.0258092880249023,1.1490939855575562,-0.0781030654907226,-0.5209285616874695,-0.042446956038475,0.0090414928272366,0.0,0.0,-0.9319601655006408,0.3559960126876831
-0.0265790931880474,1.1371877193450928,-0.0774176642298698,-0.529155433177948,-0.0420208014547824,0.0085230553522706,0.0,0.0,-0.5370340347290039,-0.3750497102737427
-0.0273432731628417,1.1250964403152466,-0.0768182724714279,-0.5373823046684265,-0.0416182838380336,0.0080504491925239,0.0,0.0,-0.8698420524597168,0.1707781553268432
-0.0281023979187011,1.1128199100494385,-0.0763013139367103,-0.5456092357635498,-0.0412371605634689,0.0076227085664868,0.0,0.0,-0.8977035284042358,-0.3577150106430053
-0.0288574211299419,1.100358247756958,-0.0758631005883216,-0.5538360476493835,-0.0408752262592315,0.0072386227548122,0.0,0.0,-0.4192045331001282,-0.4883095026016235
-0.02960891649127,1.0877116918563845,-0.0754998177289962,-0.5620629191398621,-0.0405303724110126,0.0068970299325883,0.0,0.0,-0.8057156801223755,0.3952405452728271
-0.0303576476871967,1.0748800039291382,-0.0752075612545013,-0.5702897310256958,-0.0402005463838577,0.0065965116955339,0.0,0.0,-0.806536853313446,0.7004954814910889
-0.0310474392026662,1.0618610382080078,-0.0678404867649078,-0.5786431431770325,-0.041314773261547,-0.0222847890108823,0.0,0.0,-0.8562146425247192,-0.6089267730712891
-0.0317821502685546,1.0486648082733154,-0.0735242888331413,-0.5865060687065125,-0.0412646755576133,0.0010018731700256,0.0,0.0,-0.9534899592399596,0.0494979619979858
-0.0325160026550293,1.0352833271026611,-0.0734208077192306,-0.5947329998016357,-0.0412238612771034,0.0008160264114849,0.0,0.0,-0.8449611067771912,-0.0166734457015991
-0.0332493782043457,1.021716833114624,-0.0733718946576118,-0.6029598116874695,-0.041190605610609,0.0006652072770521,0.0,0.0,-0.95389986038208,-0.586385190486908
-0.0340320579707622,1.007974624633789,-0.07955302298069,-0.6107271909713745,-0.0399194955825805,0.0254220869392156,0.0,0.0,-0.8956394195556641,-0.0267821550369262
-0.0348153114318847,0.9940474033355712,-0.0796004310250282,-0.6189541220664978,-0.0386526584625244,0.0253366027027368,0.0,0.0,-0.915871798992157,0.2145605087280273
-0.0355994217097759,0.979935109615326,-0.0796894803643226,-0.6271810531616211,-0.0373886004090309,0.0252812169492244,0.0,0.0,-0.5706946849822998,-0.2446190118789672
-0.0363847725093364,0.965637743473053,-0.0798157900571823,-0.6354080438613892,-0.0361258946359157,0.0252541657537221,0.0,0.0,-0.6841557621955872,0.1835825443267822
-0.0371717438101768,0.9511552453041076,-0.0799749568104744,-0.6436349153518677,-0.0348632112145423,0.025253752246499,0.0,0.0,-0.787717342376709,0.3886680603027344
-0.0379606261849403,0.9364877939224244,-0.0801625698804855,-0.6518619060516357,-0.0335992984473705,0.0252780653536319,0.0,0.0,-0.8725521564483643,-0.0466169714927673
-0.0387515053153038,0.921635091304779,-0.0803742110729217,-0.6600887775421143,-0.0323330201208591,0.0253253579139709,0.0,0.0,-0.5269721746444702,0.4983532428741455
-0.0395446792244911,0.906597375869751,-0.0806054547429084,-0.6683156490325928,-0.031063325703144,0.0253937728703022,0.0,0.0,-0.4428130984306335,0.0999473333358764
-0.0403403267264366,0.8913745880126953,-0.0808518826961517,-0.6765424609184265,-0.0297892596572637,0.0254814140498638,0.0,0.0,-0.9197396636009216,-0.0463155508041381
-0.0411384589970111,0.8759667277336121,-0.0811090841889381,-0.6847693920135498,-0.0285099353641271,0.0255864467471838,0.0,0.0,-0.6600321531295776,-0.4263122081756592
-0.0419392585754394,0.8603736758232117,-0.0813726633787155,-0.6929962038993835,-0.027224576100707,0.0257069673389196,0.0,0.0,-0.6714122295379639,-0.5354119539260864
-0.0427864082157611,0.8445958495140076,-0.0871420577168464,-0.7011919021606445,-0.0248303897678852,0.0478836745023727,0.0,0.0,-0.8645014762878418,0.6001861095428467
-0.0435773842036724,0.828630805015564,-0.0800285562872886,-0.7095485329627991,-0.0239069648087024,0.0184683371335268,0.0,0.0,-0.1833645105361938,-0.0988021492958068
-0.0443708412349224,0.812480628490448,-0.0802851542830467,-0.7177753448486328,-0.0229757484048604,0.0186241753399372,0.0,0.0,-0.596233069896698,-0.7330425381660461
-0.0452141761779785,0.7961428761482239,-0.0864926874637603,-0.7260922789573669,-0.0208435077220201,0.0426448807120323,0.0,0.0,-0.7139844298362732,-0.1436281204223632
-0.0460597984492778,0.7796200513839722,-0.0867232233285904,-0.7343194484710693,-0.0187027640640735,0.0428147986531257,0.0,0.0,-0.8265909552574158,0.5272543430328369
-0.0468552596867084,0.7629088163375854,-0.0804071202874183,-0.7427162528038025,-0.0178614873439073,0.0168257281184196,0.0,0.0,-0.6291437149047852,0.4660854339599609
-0.0476526245474815,0.7460123300552368,-0.0805948302149772,-0.7509430646896362,-0.0170113760977983,0.0170023702085018,0.0,0.0,-0.4087653160095215,-0.3242366313934326
-0.0484515205025672,0.7289308905601501,-0.0807550176978111,-0.75916987657547,-0.0161523930728435,0.0171795915812253,0.0,0.0,-0.1013911962509155,0.3504533767700195
-0.0492515563964843,0.7116641402244568,-0.0808836668729782,-0.7673966884613037,-0.0152846295386552,0.0173556022346019,0.0,0.0,0.7972912788391113,0.7263011932373047
-0.0498927123844623,0.6955600380897522,-0.0637446790933609,-0.715748131275177,-0.0156554263085126,-0.0074159642681479,0.0,0.0,-0.5218449234962463,-0.6473764181137085
-0.0505919456481933,0.6792776584625244,-0.0710325986146926,-0.7236483097076416,-0.0145673267543315,0.0217620860785245,0.0,0.0,-0.3386761546134949,0.343551754951477
-0.0512912757694721,0.662810206413269,-0.071043387055397,-0.7318753004074097,-0.0134711321443319,0.0219237431883811,0.0,0.0,0.2409135103225708,-0.2134752869606018
-0.0520584098994731,0.6469494104385376,-0.0774740725755691,-0.7049181461334229,-0.0127156991511583,0.0151087436825037,0.0,0.0,-0.2562335729598999,0.2674312591552734
-0.0528245940804481,0.6309034824371338,-0.0773877426981926,-0.7131449580192566,-0.0119530884549021,0.0152521412819623,0.0,0.0,0.2378123998641967,0.5102787017822266
-0.0535241141915321,0.6153611540794373,-0.069748930633068,-0.6907802224159241,-0.0121566811576485,-0.0040717357769608,0.0,0.0,-0.2980450987815857,0.3107478618621826
-0.0542216300964355,0.599633514881134,-0.0695516243577003,-0.699006974697113,-0.012354340404272,-0.0039532976225018,0.0,0.0,-0.2972296476364136,0.4195821285247803
-0.0549165718257427,0.5837208032608032,-0.0692938715219497,-0.7072336673736572,-0.0125468177720904,-0.0038497876375913,0.0,0.0,0.108256459236145,0.6856904029846191
-0.0555303581058979,0.5684906840324402,-0.0598202459514141,-0.6769067645072937,-0.0140802282840013,-0.0306684523820877,0.0,0.0,-0.6471758484840393,0.3392142057418823
-0.0561401359736919,0.5530756115913391,-0.0594324395060539,-0.685133695602417,-0.0156101966276764,-0.0305994339287281,0.0,0.0,0.2027907371520996,0.8441181182861328
-0.0566460601985454,0.538415253162384,-0.0473602861166,-0.6516091227531433,-0.0188002176582813,-0.0638003051280975,0.0,0.0,-0.5659868121147156,0.5517215728759766
-0.0571098327636718,0.523566484451294,-0.0422125048935413,-0.6600016355514526,-0.0229147337377071,-0.0822904855012893,0.0,0.0,-0.8994014263153076,0.455366849899292
-0.0575675964355468,0.5085328817367554,-0.0416086539626121,-0.6682297587394714,-0.0270289480686187,-0.082284115254879,0.0,0.0,-0.7625269889831543,-0.214057981967926
-0.0580185875296592,0.4933143854141235,-0.040927805006504,-0.676457941532135,-0.0311440173536539,-0.0823014378547668,0.0,0.0,-0.1708009839057922,0.1492558717727661
-0.0584619529545307,0.4779109954833984,-0.0401677303016185,-0.6846860647201538,-0.0352612026035785,-0.0823437273502349,0.0,0.0,0.7269120216369629,-0.2614762783050537
-0.0587988868355751,0.4632235765457153,-0.0298804529011249,-0.6528708338737488,-0.0390265434980392,-0.0753069147467613,0.0,0.0,0.5369343757629395,-0.76823890209198
-0.0592080131173133,0.4488960802555084,-0.038587175309658,-0.6368418335914612,-0.0413288213312625,-0.046045571565628,0.0,0.0,-0.7602414488792419,0.9240285158157348
-0.0595260635018348,0.4343688189983368,-0.0274018086493015,-0.645784318447113,-0.0456846766173839,-0.0871172174811363,0.0,0.0,0.6303763389587402,-0.7450827360153198
-0.0599113479256629,0.4201575517654419,-0.0355453342199325,-0.6317079067230225,-0.0486335344612598,-0.05897693708539,0.0,0.0,0.8663973808288574,0.2960681915283203
-0.0602507591247558,0.4071044027805328,-0.0309028681367635,-0.5802395343780518,-0.0516353286802768,-0.0600358471274375,0.0,0.0,-0.8557255864143372,-0.3799488544464111
-0.0605774894356727,0.3938663005828857,-0.0296308100223541,-0.5884672403335571,-0.0546479262411594,-0.0602518804371356,0.0,0.0,0.2804477214813232,-0.1436318159103393
-0.060943029820919,0.3813991844654083,-0.0330843105912208,-0.5542258024215698,-0.0580752864480018,-0.0685470029711723,0.0,0.0,-0.6680396795272827,0.5333006381988525
-0.061261273920536,0.3687387406826019,-0.0275025274604558,-0.5628586411476135,-0.0623512491583824,-0.0855195745825767,0.0,0.0,0.1560480594635009,-0.7384021878242493
-0.06155576556921,0.3567305207252502,-0.0266259256750345,-0.5338183641433716,-0.0651395916938781,-0.0557665638625621,0.0,0.0,-0.6357116103172302,-0.6366937160491943
-0.0618926994502544,0.3445429801940918,-0.0323619954288005,-0.5417277812957764,-0.0664646998047828,-0.0265020672231912,0.0,0.0,-0.65667325258255,0.0304957628250122
-0.0622126571834087,0.3321703672409057,-0.0306363049894571,-0.5499548316001892,-0.0678090527653694,-0.0268870498985052,0.0,0.0,0.8431134223937988,0.187414288520813
-0.0624750144779682,0.3207814693450928,-0.0247999411076307,-0.5062373280525208,-0.0692361965775489,-0.0285428166389465,0.0,0.0,0.5877904891967773,-0.1090247631072998
-0.062596321105957,0.3100356161594391,-0.0110533945262432,-0.4776459634304046,-0.0702985152602195,-0.0212463699281215,0.0,0.0,0.4790883064270019,0.4619194269180298
-0.0626550689339637,0.2995609939098358,-0.0048836916685104,-0.4655882120132446,-0.0712873414158821,-0.0197762735188007,0.0,0.0,-0.2216421365737915,0.1348057985305786
-0.0626933127641677,0.2889013290405273,-0.0027951644733548,-0.4738152325153351,-0.0723026171326637,-0.0203056465834379,0.0,0.0,-0.187656819820404,-0.4560014009475708
-0.0627100020647049,0.2780565321445465,-0.0006175317685119,-0.4820422828197479,-0.0733462050557136,-0.020871739834547,0.0,0.0,-0.3457662463188171,-0.4337128400802612
-0.0627043694257736,0.2670266628265381,0.0016482041683048,-0.4902693331241607,-0.0744199305772781,-0.0214746911078691,0.0,0.0,0.519363522529602,-0.1352054476737976
-0.0626294165849685,0.2568457722663879,0.0086445175111293,-0.4525400102138519,-0.075549766421318,-0.0225970745086669,0.0,0.0,-0.2236143350601196,-0.8497894406318665
-0.0625935569405555,0.2464935183525085,0.003133479040116,-0.460078626871109,-0.0751063451170921,0.0088684251531958,0.0,0.0,0.29878830909729,-0.1523028016090393
-0.0623958595097065,0.2367295622825622,0.0188978519290685,-0.433910995721817,-0.0742457211017608,0.0172125659883022,0.0,0.0,-0.4469969272613525,-0.7794822454452515
-0.0622241012752056,0.2267780601978302,0.0150364283472299,-0.4421829283237457,-0.0721325054764747,0.0422645136713981,0.0,0.0,-0.1950317025184631,-0.5381829738616943
-0.062072180211544,0.2166450321674347,0.0119194108992815,-0.4501994550228119,-0.0688938423991203,0.0647733062505722,0.0,0.0,-0.1613398194313049,0.1477782726287841
-0.0618929862976074,0.2063271850347519,0.0146835129708051,-0.4584273397922516,-0.0656962916254997,0.0639514178037643,0.0,0.0,-0.2939895987510681,-0.0984391570091247
-0.0616857521235942,0.1958243697881698,0.0175242945551872,-0.4666551947593689,-0.062541589140892,0.0630940720438957,0.0,0.0,0.566009521484375,0.2816948890686035
-0.061520479619503,0.1862764209508896,0.0139343682676553,-0.4242438375949859,-0.0599771291017532,0.0512891635298728,0.0,0.0,-0.0256991982460021,-0.2532247900962829
-0.0613258369266986,0.176543578505516,0.0169218853116035,-0.4324713945388794,-0.0574589893221855,0.0503625199198722,0.0,0.0,0.1184149980545044,-0.4042509794235229
-0.061108112335205,0.1673894524574279,0.0194490104913711,-0.4067628979682922,-0.0551565364003181,0.0460490211844444,0.0,0.0,-0.1967211961746215,-0.1682552099227905
-0.0608595833182334,0.1580502837896347,0.0225736610591411,-0.4149903357028961,-0.0529037490487098,0.0450556129217147,0.0,0.0,-0.1572872996330261,-0.2837277054786682
-0.060579776763916,0.1485260874032974,0.025763040408492,-0.4232177436351776,-0.0507022477686405,0.0440299436450004,0.0,0.0,0.3210053443908691,-0.3658777475357055
-0.0603366866707801,0.1395443975925445,0.022573497146368,-0.3991282284259796,-0.0489851310849189,0.0343421213328838,0.0,0.0,-0.2030324935913086,-0.7584659457206726
-0.0601359382271766,0.1303816139698028,0.0164770241826772,-0.4071240723133087,-0.0454364530742168,0.0709734633564949,0.0,0.0,0.5896077156066895,0.2288193702697754
-0.0597688667476177,0.1220629811286926,0.0326911024749279,-0.3695993423461914,-0.0414722375571727,0.0792844146490097,0.0,0.0,0.0569263696670532,-0.6391852498054504
-0.0593647956848144,0.1139082014560699,0.0351182296872139,-0.3622986376285553,-0.0362425707280635,0.1045931726694107,0.0,0.0,0.2077574729919433,0.6686917543411255
-0.0587346069514751,0.1064005196094513,0.0589591152966022,-0.3335835635662079,-0.0322310589253902,0.080230101943016,0.0,0.0,-0.4608327150344848,-0.5750070810317993
-0.0581170096993446,0.098715029656887,0.05656523630023,-0.3414720594882965,-0.0270918942987918,0.1027832478284835,0.0,0.0,-0.1690984964370727,-0.6511535048484802
-0.0575034134089946,0.0908540785312652,0.0552108660340309,-0.3492763638496399,-0.021025151014328,0.1213349848985672,0.0,0.0,0.4967875480651855,0.7974042892456055
-0.0567031875252723,0.0835915878415107,0.0754275768995285,-0.3227207958698272,-0.0164880063384771,0.0907429307699203,0.0,0.0,-0.0490814447402954,-0.7487024068832397
-0.0559270866215229,0.0761533603072166,0.071557268500328,-0.3305335342884063,-0.0105074159801006,0.1196115612983703,0.0,0.0,0.2096024751663208,0.4737181663513183
-0.0550642982125282,0.0693946927785873,0.0800767391920089,-0.3003540635108948,-0.0043861870653927,0.1224247068166732,0.0,0.0,-0.195011556148529,0.7005983591079712
-0.0541021339595317,0.0624474138021469,0.0916734859347343,-0.3087623417377472,8.954098302638158e-05,0.0895145684480667,0.0,0.0,0.553874135017395,-0.4195850491523742
-0.0532184615731239,0.0561875663697719,0.0844440013170242,-0.2782225012779236,0.0039663231000304,0.0775358974933624,0.0,0.0,-0.0092403292655944,-0.6065334677696228
-0.0523560531437397,0.0497408956289291,0.0809023603796958,-0.2865407168865204,0.0092385997995734,0.1054455190896987,0.0,0.0,0.7395257949829102,0.737946629524231
-0.0514282211661338,0.0439997538924217,0.0890461876988411,-0.2551905214786529,0.0129223866388201,0.0736756920814514,0.0,0.0,0.169809341430664,0.4706939458847046
-0.0504495613276958,0.0386405549943447,0.0941158607602119,-0.2382245063781738,0.0166219007223844,0.0739902704954147,0.0,0.0,-0.0352312326431274,0.0237680673599243
-0.0494335182011127,0.033096395432949,0.0979349240660667,-0.2464523315429687,0.0202513895928859,0.0725896954536438,0.0,0.0,0.5859360694885254,0.3717093467712402
-0.0482995025813579,0.0283545348793268,0.1093543395400047,-0.2108101546764373,0.0242429878562688,0.0798321440815925,0.0,0.0,0.3127052783966064,-0.758272647857666
-0.0471810325980186,0.0243948083370924,0.1063131466507911,-0.1760854721069336,0.0297000706195831,0.1091416850686073,0.0,0.0,-0.0908147096633911,-0.7226592898368835
