x_pos,y_pos,x_vel,y_vel,angle,ang_vel,leg_1,leg_2,main_booster,lat_booster
-0.0015405655140057,1.4030463695526123,-0.1561844795942306,-0.3499380946159363,0.001899960800074,0.0374890081584453,0.0,0.0,-0.5387075047400658,0.7743548708849798
-0.0030318261124193,1.394614338874817,-0.1494738757610321,-0.3747552037239074,0.0022405583877116,0.0068137818016111,0.0,0.0,-0.4091056089806175,-0.6338703159529473
-0.0045779226347804,1.385599136352539,-0.1561324000358581,-0.4006780385971069,0.0037428333889693,0.0300482865422964,0.0,0.0,-0.7529698955547806,-0.8350282689038679
-0.006218337919563,1.3760030269622805,-0.1677716523408889,-0.4265151023864746,0.0074401185847818,0.073952592909336,0.0,0.0,-0.7472482618330853,0.8206079323380433
-0.0077954293228685,1.3658322095870972,-0.1597147285938263,-0.452040821313858,0.0094160987064242,0.0395234413444995,0.0,0.0,0.858254195075981,-0.9833746200191594
-0.0092983245849609,1.3559999465942385,-0.1548407226800918,-0.4370242655277252,0.0139161366969347,0.0900092124938964,0.0,0.0,0.1044957370597772,0.8951402548466161
-0.0107681276276707,1.3461699485778809,-0.1500404775142669,-0.436920553445816,0.0169467777013778,0.0606182403862476,0.0,0.0,-0.6418859661087803,0.6751508706578786
-0.0121851917356252,1.335765719413757,-0.1434317082166671,-0.4624289870262146,0.0186493936926126,0.0340551659464836,0.0,0.0,-0.3261076415343784,-0.7347621827156032
-0.0136745451018214,1.324790120124817,-0.1525246798992157,-0.4878522753715515,0.0222017355263233,0.0710534900426864,0.0,0.0,-0.1998302734636736,0.9246794038346726
-0.0151038169860839,1.3132448196411133,-0.1450714915990829,-0.5131500363349915,0.0243135169148445,0.0422395020723342,0.0,0.0,-0.0869176840859107,-0.6226128960650895
-0.0165874473750591,1.3011209964752195,-0.1519771963357925,-0.5389043688774109,0.0278986878693103,0.0717098414897918,0.0,0.0,-0.1800297088507418,-0.9689083092486854
-0.0181500427424907,1.288414716720581,-0.1620363295078277,-0.5648401975631714,0.0336158014833927,0.1143525689840316,0.0,0.0,-0.5140942580030095,0.9083759111850168
-0.0196369178593158,1.2751400470733645,-0.1527125835418701,-0.5900807976722717,0.0375990830361843,0.0796729102730751,0.0,0.0,0.6982995818703495,0.6092878258382539
-0.0210235603153705,1.261836290359497,-0.1421490013599395,-0.5913649201393127,0.0410501100122928,0.0690269023180008,0.0,0.0,0.3646753711430823,0.6119526585058973
-0.0222723968327045,1.248992681503296,-0.1279171854257583,-0.5709121227264404,0.0440468229353427,0.0599397048354148,0.0,0.0,-0.4737119612038687,0.6060144330925012
-0.0234742164611816,1.2355680465698242,-0.1222911924123764,-0.5967167615890503,0.0461366437375545,0.0418001785874366,0.0,0.0,-0.1468692621664311,-0.6343191424725659
-0.0247239116579294,1.2215707302093506,-0.128593772649765,-0.6222238540649414,0.0497269332408905,0.0718122422695159,0.0,0.0,-0.2100562205801135,0.9166844087143504
-0.0258924476802349,1.206994652748108,-0.1187610477209091,-0.6478888392448425,0.0516111515462398,0.0376877412199974,0.0,0.0,-0.9156966466620038,0.9040731465877287
-0.0269864089787006,1.1918559074401855,-0.1097611188888549,-0.6728424429893494,0.0519673489034175,0.0071248933672904,0.0,0.0,0.7306860713721397,-0.7270648402364486
-0.0282679554075002,1.177015781402588,-0.1303507536649704,-0.6596375703811646,0.0541384443640708,0.0434257015585899,0.0,0.0,0.680139296640442,0.7104540047024299
-0.02940034866333,1.1627646684646606,-0.1149114817380905,-0.6334502100944519,0.0557841174304485,0.0329166427254676,0.0,0.0,-0.3470601337288288,-0.9663101699774092
-0.0306138042360544,1.1479240655899048,-0.1255005896091461,-0.6597386598587036,0.0599086657166481,0.0824983716011047,0.0,0.0,0.4554513132319371,0.6605865135165297
-0.03168411180377,1.1332396268844604,-0.1107253283262252,-0.6527948379516602,0.0635699406266212,0.0732320398092269,0.0,0.0,0.0951661788738482,0.917678859079174
-0.0326451286673545,1.1182894706726074,-0.0985846221446991,-0.664560854434967,0.0660232380032539,0.0490702763199806,0.0,0.0,0.5063290074967617,-0.6002186435847594
-0.0338373184204101,1.1036232709884644,-0.1232076734304428,-0.6520116329193115,0.0699734091758728,0.07901082187891,0.0,0.0,-0.6760554580961908,-0.8419210352075034
-0.0351151451468467,1.0883543491363523,-0.1345200538635254,-0.6789448261260986,0.0766326338052749,0.1331843137741089,0.0,0.0,-0.7249099395322278,-0.9662842406926344
-0.0364725105464458,1.0725064277648926,-0.1450252532958984,-0.7048579454421997,0.0858380049467086,0.1841073632240295,0.0,0.0,0.9602453309729548,-0.770326049721904
-0.0381453521549701,1.0575244426727295,-0.1783739924430847,-0.6665381789207458,0.0968333780765533,0.219907596707344,0.0,0.0,-0.17780626725198,-0.8052258075501646
-0.0398978218436241,1.04196298122406,-0.1889545768499374,-0.6925723552703857,0.1104272305965423,0.2718773484230041,0.0,0.0,-0.353025718227006,-0.982158254816906
-0.0417317375540733,1.0258103609085083,-0.1997555047273636,-0.7191847562789917,0.1267033070325851,0.3255214095115661,0.0,0.0,0.3531988035041544,0.6266396757376621
-0.0435890182852745,1.0101357698440552,-0.2014972865581512,-0.6980651021003723,0.1424146294593811,0.3142260909080505,0.0,0.0,0.447360955098024,0.8712048637997467
-0.0455087646842002,0.9944509863853456,-0.2065461575984954,-0.6985692381858826,0.1569589078426361,0.2908858060836792,0.0,0.0,-0.2598000499143063,0.8951619754746798
-0.0473689064383506,0.9782145023345948,-0.1996728479862213,-0.7231128811836243,0.1706189662218094,0.2732011377811432,0.0,0.0,-0.5644696651007204,0.9295895693608308
-0.0491625778377056,0.9614124298095704,-0.1919994056224823,-0.7482592463493347,0.1832888126373291,0.2533967494964599,0.0,0.0,0.0363696539309927,-0.8205819525676473
-0.0510786995291709,0.944604218006134,-0.206526830792427,-0.748948335647583,0.1982797682285308,0.2998189628124237,0.0,0.0,0.731692487590722,-0.6966444052436751
-0.0531834587454795,0.9283840656280518,-0.2274401932954788,-0.7232633233070374,0.2153887301683426,0.3421792089939117,0.0,0.0,0.5854873732060275,-0.9838029659409406
-0.0554822906851768,0.9121937155723572,-0.2493842542171478,-0.7225428819656372,0.2351300865411758,0.3948273956775665,0.0,0.0,-0.3859762485203697,-0.8404193931359357
-0.057840060442686,0.8954176306724548,-0.2573971152305603,-0.7492088079452515,0.257135272026062,0.4401034712791443,0.0,0.0,-0.6080188097760528,0.6425119286923878
-0.0601502433419227,0.8780969977378845,-0.2519923448562622,-0.7736302614212036,0.2786024808883667,0.4293442666530609,0.0,0.0,-0.0163147918400541,0.7381313391128209
-0.0623984336853027,0.8602326512336731,-0.2448132485151291,-0.797921359539032,0.2991863191127777,0.4116769433021545,0.0,0.0,0.7045360880905502,-0.948915864163941
-0.0650703459978103,0.8428705334663391,-0.2894105613231659,-0.776386559009552,0.3222116529941559,0.4605075418949127,0.0,0.0,0.1018804311752319,0.9910192489624025
-0.0676808357238769,0.8255183100700378,-0.2817862033843994,-0.7759877443313599,0.3438705503940582,0.433178573846817,0.0,0.0,-0.5020411014556885,0.9827654361724854
-0.0701992064714431,0.8076316118240356,-0.270874947309494,-0.79963618516922,0.3638935089111328,0.4004596173763275,0.0,0.0,-0.5225836038589478,0.955014944076538
-0.0726298317313194,0.7892196178436279,-0.2604525685310364,-0.8228321671485901,0.3823230862617492,0.3685913980007171,0.0,0.0,-0.1382734179496765,0.9955627918243408
-0.07498349994421,0.7702669501304626,-0.2515035569667816,-0.8467585444450378,0.3995450437068939,0.3444384038448334,0.0,0.0,0.2067142724990844,0.9740147590637208
-0.077315904200077,0.7511391043663025,-0.2480476349592209,-0.8543758988380432,0.4154594242572784,0.3182873725891113,0.0,0.0,0.0515996217727661,0.9827165603637696
-0.0796410590410232,0.7319004535675049,-0.2459574192762375,-0.8590825796127319,0.4300087690353393,0.2909868955612182,0.0,0.0,0.2522224187850952,0.9918787479400636
-0.0822445899248123,0.7129471898078918,-0.2724403738975525,-0.8461100459098816,0.4431649148464203,0.2631229758262634,0.0,0.0,-0.1123871207237243,0.9912967681884766
-0.0847875624895095,0.6934689283370972,-0.2654562890529632,-0.869285523891449,0.4553909301757812,0.2445202320814132,0.0,0.0,-0.1531821489334106,0.955646276473999
-0.0872558578848838,0.6734633445739746,-0.2568065524101257,-0.8924304246902466,0.466387540102005,0.2199323624372482,0.0,0.0,0.199957013130188,0.9374487400054932
-0.0897267311811447,0.6535723805427551,-0.2558903396129608,-0.8870271444320679,0.4761288166046142,0.1948255002498626,0.0,0.0,0.4432141780853271,0.7087836265563965
-0.0924840942025184,0.6339706778526306,-0.2837035953998565,-0.8739454746246338,0.4849788248538971,0.1770010590553283,0.0,0.0,-0.1790472269058227,0.8370335102081299
-0.0951613411307334,0.6138462424278259,-0.2743985950946808,-0.8967914581298828,0.4924497902393341,0.1494201719760894,0.0,0.0,-0.2521812915802002,0.869239330291748
-0.097770020365715,0.5932040810585022,-0.2664941251277923,-0.9194552898406982,0.4987614750862121,0.1262339651584625,0.0,0.0,0.1472632884979248,0.8781424760818481
-0.1003623008728027,0.5725675821304321,-0.2638213336467743,-0.9188600182533264,0.5039393305778503,0.1035576313734054,0.0,0.0,0.0250227451324462,0.957399845123291
-0.1030793190002441,0.5517407059669495,-0.2751641273498535,-0.9269152283668518,0.5078409910202026,0.0780335813760757,0.0,0.0,0.3641202449798584,0.6164677143096924
-0.1059897392988205,0.5313051342964172,-0.2940841019153595,-0.9093788266181946,0.5112782716751099,0.0687454044818878,0.0,0.0,-0.2698827981948852,0.5821114778518677
-0.1088399887084961,0.5103392601013184,-0.2873201370239258,-0.9326806664466858,0.5138891935348511,0.0522179193794727,0.0,0.0,0.2056812047958374,0.4118504524230957
-0.111925221979618,0.4896252453327179,-0.3116635978221893,-0.9218088388442992,0.5174413919448853,0.0710443705320358,0.0,0.0,-0.3613133430480957,0.1498231887817382
-0.1149976700544357,0.4683379530906677,-0.3109701573848724,-0.9475241303443908,0.5216814875602722,0.0848020315170288,0.0,0.0,-0.222139835357666,-0.6982046365737915
-0.1180981621146202,0.4464351832866668,-0.3155576884746551,-0.975584864616394,0.5279713869094849,0.1257975101470947,0.0,0.0,-0.3689999580383301,-0.3915811777114868
-0.121185302734375,0.4239594936370849,-0.3148100078105926,-1.0013025999069214,0.5349461436271667,0.1394946724176406,0.0,0.0,-0.5517672300338745,-0.7313877940177917
-0.1242974251508712,0.4008750915527344,-0.3189500570297241,-1.029057264328003,0.5438424944877625,0.1779267489910125,0.0,0.0,-0.4291995763778686,-0.6303231716156006
-0.1274369210004806,0.3771827518939972,-0.3233408033847809,-1.0568209886550903,0.5547081828117371,0.2173132002353668,0.0,0.0,-0.447435200214386,-0.7019210457801819
-0.1306071281433105,0.3528719246387481,-0.3281974196434021,-1.085161805152893,0.5677400231361389,0.2606372535228729,0.0,0.0,-0.6078289747238159,-0.4485743045806885
-0.1337641775608062,0.3279900550842285,-0.3273538947105407,-1.110890507698059,0.5814486145973206,0.2741718888282776,0.0,0.0,-0.7223168611526489,0.0855342149734497
-0.1369078606367111,0.3025373220443725,-0.3264907002449035,-1.1366206407546997,0.5958314538002014,0.287657082080841,0.0,0.0,-0.6521491408348083,-0.1279948949813842
-0.1400382965803146,0.2765140831470489,-0.3256091773509979,-1.1623523235321045,0.6108859181404114,0.301088809967041,0.0,0.0,-0.7786269187927246,0.3090312480926513
-0.1431555747985839,0.2499205917119979,-0.3247105479240417,-1.1880860328674316,0.6266090273857117,0.314462661743164,0.0,0.0,-0.7397147417068481,0.6117243766784668
-0.1462261229753494,0.2227900177240371,-0.319531112909317,-1.2119096517562866,0.6418824791908264,0.305470734834671,0.0,0.0,-0.5943333506584167,0.736923336982727
-0.1492460221052169,0.19513501226902,-0.3137473464012146,-1.235053300857544,0.6564531326293945,0.2914130091667175,0.0,0.0,-0.2979720830917358,0.7572195529937744
-0.1522043198347091,0.1669670939445495,-0.306592047214508,-1.2575130462646484,0.6699413061141968,0.2697631120681762,0.0,0.0,0.1345316171646118,0.9218289852142334
-0.1555388420820236,0.1388880163431167,-0.343036413192749,-1.2530815601348877,0.682068943977356,0.242552250623703,0.0,0.0,0.3055408000946045,0.9202107191085817
-0.1590400636196136,0.1108994781970977,-0.358575165271759,-1.248548984527588,0.6928468346595764,0.2155574858188629,0.0,0.0,0.5033892393112183,0.8341155052185059
-0.1627286970615387,0.0827743411064148,-0.3762905895709991,-1.2541518211364746,0.7024059891700745,0.1911825984716415,0.0,0.0,0.872760534286499,0.850735068321228
-0.1665226966142654,0.0546382516622543,-0.3859447240829468,-1.2542084455490112,0.7108887434005737,0.1696545183658599,0.0,1.0,0.9996246099472046,0.9998250007629396
-0.1678618490695953,0.0508590564131736,-0.2217831164598465,-0.2433243095874786,0.7945101261138916,1.5943925380706787,0.0,1.0,-0.9178667664527892,0.8007700443267822
-0.1686304062604904,0.0571804866194725,-0.1925307661294937,0.1580869257450103,0.8839089274406433,1.6319780349731443,0.0,0.0,-0.9989290237426758,0.2029700279235839
-0.1699403822422027,0.062318455427885,-0.1988960802555084,0.1333574950695037,0.9659698009490968,1.5531270503997805,0.0,0.0,-0.9978101849555968,0.3494956493377685
-0.1714758872985839,0.065890222787857,-0.1972652822732925,0.1071573048830032,1.0445833206176758,1.5664341449737549,0.0,1.0,-0.996631920337677,-0.3993475437164306
-0.173061653971672,0.0689031705260276,-0.1965076029300689,0.0814405605196952,1.1232588291168213,1.5665771961212158,0.0,1.0,-0.9924430847167968,-0.5763799548149109
-0.1747247725725174,0.0713121518492698,-0.1984894275665283,0.0523919053375721,1.2031869888305664,1.5917829275131226,0.0,1.0,-0.9979517459869384,-0.660584032535553
-0.1764679849147796,0.073072537779808,-0.2005657851696014,0.0217219293117523,1.2849104404449463,1.6289033889770508,0.0,1.0,-0.9938373565673828,-0.7289847135543823
-0.178290456533432,0.0741645172238349,-0.2022674083709716,-0.0091103026643395,1.3684685230255127,1.6676098108291626,0.0,0.0,-0.996094048023224,0.336711049079895
-0.1801567077636718,0.0746444538235664,-0.2005138397216797,-0.0345504060387611,1.4524413347244265,1.680419921875,0.0,1.0,-0.9911459684371948,-0.7050558924674988
-0.1820926666259765,0.0744877457618713,-0.2004720866680145,-0.0644137859344482,1.537876844406128,1.7095880508422852,0.0,0.0,-0.9911845922470092,0.03300142288208
-0.1840843260288238,0.0737611129879951,-0.1986298263072967,-0.0903104171156883,1.623883605003357,1.7210075855255127,0.0,0.0,-0.9785521626472472,-0.0898392796516418
-0.1861325204372406,0.0724559873342514,-0.1967455893754959,-0.1161592230200767,1.7104544639587402,1.7322969436645508,0.0,0.0,-0.9817389249801636,-0.3336700797080993
-0.1882378607988357,0.0705632045865058,-0.1948276907205581,-0.1419565379619598,1.7975813150405884,1.7434327602386477,0.0,0.0,-0.9798412919044496,-0.2416845560073852
-0.1904001235961914,0.0680736899375915,-0.1928839385509491,-0.167698934674263,1.885256290435791,1.7544113397598269,0.0,0.0,-0.9546727538108826,-0.5691670775413513
-0.1926093101501464,0.0649153292179107,-0.1894240379333496,-0.1970708072185516,1.9748886823654173,1.7935950756072998,0.0,0.0,-0.9531881213188172,-0.5538040995597839
-0.194863885641098,0.0610834211111068,-0.185634896159172,-0.2259732037782669,2.066330671310425,1.8298190832138064,0.0,0.0,-0.9491780400276184,-0.5752230882644653
-0.1971614807844162,0.0565764531493186,-0.1815867125988006,-0.2542332708835602,2.1593830585479736,1.8620681762695312,0.0,0.0,-0.9468302726745604,-0.6075924038887024
-0.1994909346103668,0.0513845533132553,-0.1764162480831146,-0.2823411524295807,2.2541162967681885,1.8957303762435915,0.0,0.0,-0.9459635615348816,-0.7367237210273743
-0.201835960149765,0.0454698167741298,-0.1692620366811752,-0.3117981851100921,2.351180076599121,1.942390203475952,0.0,0.0,-0.9594911932945251,-0.8202340006828308
-0.2042003124952316,0.0388245210051536,-0.1627857387065887,-0.3407323658466339,2.450323343276977,1.9840492010116575,0.0,0.0,-0.8693077564239502,-0.8806194067001343
-0.2065590918064117,0.031431995332241,-0.1537920534610748,-0.3697994649410248,2.5519375801086426,2.0335421562194824,0.0,0.0,-0.9061653017997742,-0.926227331161499
-0.2088933438062667,0.0232664924114942,-0.1429448276758194,-0.3993429541587829,2.656410217285156,2.0907833576202397,0.0,0.0,-0.8385209441184998,-0.9599976539611816
-0.2112105339765548,0.0143438912928104,-0.1340096294879913,-0.4270712435245514,2.7630395889282227,2.1339774131774902,0.0,0.0,-0.7885361313819885,-0.9776244759559632
-0.213787704706192,0.0067985509522259,-0.145495519042015,-0.3021734654903412,2.895819664001465,2.9005019664764404,0.0,0.0,-0.7885361313819885,-0.9776244759559632
