x_pos,y_pos,x_vel,y_vel,angle,ang_vel,leg_1,leg_2,main_booster,lat_booster
-0.0016128539573401,1.4030412435531616,-0.1636302173137664,-0.3501783907413482,0.0020980504341423,0.0414110496640205,0.0,0.0,0.3818254216941328,0.7029478096478156
-0.0032128333114087,1.3951776027679443,-0.161040261387825,-0.3494941592216491,0.003124131122604,0.0205246172845363,0.0,0.0,0.3052471642993009,-0.6124102334845388
-0.0048353197053074,1.3872047662734983,-0.1650451123714447,-0.3543587028980255,0.0058953934349119,0.0554305203258991,0.0,0.0,-0.2972918527960451,0.6981398467689286
-0.0065029142424464,1.3786466121673584,-0.1687611937522888,-0.380371481180191,0.0078666005283594,0.0394276492297649,0.0,0.0,-0.4914237848706506,-0.5028032893120185
-0.0082908626645803,1.3695064783096311,-0.181902676820755,-0.4062483012676239,0.0109448367729783,0.0615704730153083,0.0,0.0,0.1935862774422274,-0.7349116318967532
-0.0101176258176565,1.360371470451355,-0.1877375096082687,-0.4060398936271667,0.0159578882157802,0.1002700701355934,0.0,0.0,-0.6926555039628757,-0.7970141319172083
-0.0120981214568018,1.3506523370742798,-0.2051371783018112,-0.4320615828037262,0.0229576863348484,0.1400090903043747,0.0,0.0,-0.4752076078402607,0.7456209850529937
-0.0140942577272653,1.3403550386428833,-0.2051912099123001,-0.4577540457248688,0.0284782312810421,0.1104211211204528,0.0,0.0,0.5620381935193814,-0.5053842266502534
-0.0162532813847064,1.3306646347045898,-0.2228493690490722,-0.4308337569236755,0.035342164337635,0.1372917294502258,0.0,0.0,-0.2193233681766844,0.5985974825083031
-0.0184536930173635,1.3203976154327393,-0.22616608440876,-0.456470787525177,0.0414081178605556,0.1213300973176956,0.0,0.0,0.2502966234529888,0.5490413623416815
-0.0206460002809762,1.3102296590805054,-0.2248201072216034,-0.452071875333786,0.0469397120177745,0.1106422767043113,0.0,0.0,-0.3662137418569529,-0.7957166191721815
-0.022981071844697,1.299473524093628,-0.2409308403730392,-0.4782994389533996,0.0542755424976348,0.1467301845550537,0.0,0.0,-0.8778646109923314,0.9141944452830688
-0.0253164283931255,1.288146734237671,-0.2391337603330612,-0.5036259293556213,0.059825349599123,0.1110064163804054,0.0,0.0,-0.4753258306545387,-0.7000126432418251
-0.0277873035520315,1.27622652053833,-0.254368782043457,-0.5300925970077515,0.0670398697257042,0.1443032175302505,0.0,0.0,0.1686920672273173,-0.505860357812512
-0.0303152091801166,1.2646092176437378,-0.2617624402046203,-0.5167519450187683,0.07593285292387,0.177875742316246,0.0,0.0,-0.2181961884015066,0.7827469054588247
-0.0328563675284385,1.2524086236953735,-0.2616846561431885,-0.5426406264305115,0.0834399163722992,0.1501549184322357,0.0,0.0,0.2176102794424506,0.6786968569380762
-0.0353697761893272,1.2405974864959717,-0.2581803798675537,-0.5253427028656006,0.0902238488197326,0.135691225528717,0.0,0.0,0.0298826697833627,0.5242044136551686
-0.0378502830862998,1.228567123413086,-0.2544749081134796,-0.5350815653800964,0.0966037884354591,0.127610296010971,0.0,0.0,-0.3683851536427538,0.702764495334211
-0.0403523445129394,1.215970516204834,-0.2554709613323211,-0.5602033734321594,0.1018327325582504,0.104588434100151,0.0,0.0,-0.6718753254285046,0.8806393508693628
-0.042879294604063,1.2028000354766846,-0.2569084465503692,-0.5856435894966125,0.1060265377163887,0.0838834643363952,0.0,0.0,0.853303082044216,0.8876143467251181
-0.0453534126281738,1.1903479099273682,-0.250632643699646,-0.5536630749702454,0.1092331781983375,0.0641384571790695,0.0,0.0,0.477353792279632,-0.5261587221299862
-0.0479843132197856,1.1778950691223145,-0.2678911089897156,-0.5538173913955688,0.1140150502324104,0.0956459119915962,0.0,0.0,0.558216717108833,-0.6058123673055297
-0.0506724342703819,1.1656389236450195,-0.2756519615650177,-0.5452495217323303,0.1208166182041168,0.1360435038805008,0.0,0.0,-0.6045066675585595,0.5721912346796053
-0.0533928871154785,1.1528035402297974,-0.2780981957912445,-0.5709633231163025,0.126854583621025,0.1207693368196487,0.0,0.0,0.0580721672575488,0.7893121010006378
-0.0562907233834266,1.13999342918396,-0.2947232723236084,-0.5697710514068604,0.1317804157733917,0.0985257178544998,0.0,0.0,-0.3631370583485933,0.7083416836581979
-0.0592263229191303,1.1265919208526611,-0.2979525625705719,-0.596023440361023,0.1361519545316696,0.0874303430318832,0.0,0.0,0.6861941210369917,-0.5507613222237515
-0.062382698059082,1.1137053966522217,-0.321655809879303,-0.5732926726341248,0.1421574801206588,0.1201105862855911,0.0,0.0,0.4961171635689594,0.7933993165941102
-0.0657941848039627,1.1013401746749878,-0.3459041714668274,-0.5500268340110779,0.1468973606824875,0.0947975367307663,0.0,0.0,0.9709616721111628,0.8382110592006695
-0.0695236176252365,1.0897481441497805,-0.3761761784553528,-0.5155267119407654,0.1501318365335464,0.0646895691752433,0.0,0.0,0.4763817295833903,-0.8161157195676358
-0.0734807029366493,1.0781980752944946,-0.4010991156101227,-0.5138895511627197,0.1555052250623703,0.107467733323574,0.0,0.0,0.1748969729566276,0.983000977333613
-0.0775176063179969,1.066990852355957,-0.4076307415962219,-0.4985137581825256,0.1594433188438415,0.0787617638707161,0.0,0.0,-0.7365610003471375,0.993476629257202
-0.0815629959106445,1.0552122592926023,-0.4072901606559753,-0.5237933993339539,0.1621931791305542,0.0549971535801887,0.0,0.0,-0.7933288216590881,0.9991958141326904
-0.0856178253889083,1.042877197265625,-0.4070481657981872,-0.5483940243721008,0.163753941655159,0.0312152113765478,0.0,0.0,-0.4787172079086303,0.9745070934295654
-0.0896783843636512,1.0299681425094604,-0.4064214825630188,-0.5737755298614502,0.1641198396682739,0.0073181325569748,0.0,0.0,-0.5081184506416321,0.9940526485443116
-0.0937331169843673,1.0164988040924072,-0.4043397307395935,-0.5985139608383179,0.1629868447780609,-0.0226598475128412,0.0,0.0,-0.7354196906089783,0.999260663986206
-0.0977808013558387,1.0024745464324951,-0.4021155834197998,-0.6230131387710571,0.1603365987539291,-0.053004790097475,0.0,0.0,-0.7153785228729248,0.994210958480835
-0.1018247604370117,0.9878811836242676,-0.4004007875919342,-0.6481654047966003,0.1563355773687362,-0.0800203531980514,0.0,0.0,-0.8601036071777344,0.9975543022155762
-0.1058567017316818,0.972733199596405,-0.3976068794727325,-0.6726694107055664,0.1507588475942611,-0.1115345209836959,0.0,0.0,-0.8455244898796082,0.9980216026306152
-0.1098853126168251,0.957030951976776,-0.3959524929523468,-0.6971902251243591,0.1438623815774917,-0.1379294693470001,0.0,0.0,-0.8936370015144348,0.9936037063598632
-0.1138998046517372,0.9407662749290466,-0.3929894566535949,-0.7220839262008667,0.1354385465383529,-0.1684763431549072,0.0,0.0,-0.9647171497344972,0.9968039989471436
-0.1179162040352821,0.9239417910575868,-0.392090231180191,-0.7469189763069153,0.1259258091449737,-0.1902551352977752,0.0,0.0,-0.9735069870948792,0.9828488826751708
-0.1219035163521766,0.9065517783164978,-0.3873373866081238,-0.7719717621803284,0.1146034747362136,-0.2264467775821685,0.0,0.0,-0.9845232963562012,0.9937193393707277
-0.1258613616228103,0.8885858058929443,-0.3826319873332977,-0.7975253462791443,0.1015374213457107,-0.2613212168216705,0.0,0.0,-0.977420449256897,0.9898016452789308
-0.1297887861728668,0.8700518012046814,-0.3778113424777984,-0.8227862119674683,0.0867277383804321,-0.2961934804916382,0.0,0.0,-0.9599893093109132,0.9938236474990844
-0.1337010413408279,0.8509360551834106,-0.3749714493751526,-0.8487250208854675,0.0706298425793647,-0.321958065032959,0.0,0.0,-0.6372044682502747,0.9973208904266356
-0.137584775686264,0.8312400579452515,-0.3704912662506103,-0.8746253848075867,0.0529515855014324,-0.3535654246807098,0.0,0.0,0.5860645771026611,0.894645094871521
-0.1414091140031814,0.8116141557693481,-0.3633939921855926,-0.871694028377533,0.0341383591294288,-0.3762648701667785,0.0,0.0,0.9263992309570312,0.9952211380004884
-0.1453862190246582,0.7928751707077026,-0.3769652247428894,-0.8325029015541077,0.0136606227606534,-0.4095551073551178,0.0,0.0,0.4482666254043579,0.9957929849624634
-0.1494776755571365,0.7746028304100037,-0.3868498206138611,-0.8120498061180115,-0.0083470810204744,-0.4401540756225586,0.0,0.0,0.829477071762085,0.9912853240966796
-0.1535597741603851,0.756595253944397,-0.3844465017318725,-0.8006361722946167,-0.0318136438727378,-0.4693315029144287,0.0,0.0,0.4269548654556274,0.9939970970153807
-0.1574501991271972,0.7387406229972839,-0.363952100276947,-0.7942638397216797,-0.0566047132015228,-0.4958218038082123,0.0,0.0,0.865919828414917,0.6097841262817383
-0.1613574028015136,0.7215625643730164,-0.3647968173027038,-0.7646517157554626,-0.0822441130876541,-0.5127881169319153,0.0,0.0,0.7994614839553833,0.9957683086395264
-0.1650534570217132,0.7045020461082458,-0.3424907028675079,-0.7599642872810364,-0.1091303452849388,-0.5377252697944641,0.0,0.0,0.94011127948761,0.9574410915374756
-0.1686044633388519,0.6882595419883728,-0.3267040252685547,-0.7241984009742737,-0.1373697072267532,-0.5647875070571899,0.0,0.0,0.7445752620697021,0.9423930644989014
-0.171871468424797,0.6721540093421936,-0.2973403632640838,-0.7187758684158325,-0.1666878163814544,-0.5863627195358276,0.0,0.0,0.8440711498260498,0.6859734058380127
-0.1751429587602615,0.6562657356262207,-0.2968256771564483,-0.7098327875137329,-0.197114422917366,-0.6085328459739685,0.0,0.0,0.9786840677261353,-0.988947570323944
-0.1782086342573166,0.6412028670310974,-0.2791488468647003,-0.6733471751213074,-0.2247970700263977,-0.5536527633666992,0.0,0.0,0.8022804260253906,-0.0347568392753601
-0.1809891760349273,0.6265901923179626,-0.2520088255405426,-0.6536439657211304,-0.2512455880641937,-0.5289701223373413,0.0,0.0,0.894343376159668,-0.9807536005973816
-0.1835388243198394,0.6127752065658569,-0.2316907942295074,-0.6181606650352478,-0.2750177383422851,-0.4754428267478943,0.0,0.0,0.936234712600708,-0.1958517432212829
-0.1859441697597503,0.5997477173805237,-0.2175410985946655,-0.5834938883781433,-0.2986705601215362,-0.4730566143989563,0.0,0.0,0.8479382991790771,-0.7381565570831299
-0.1882420480251312,0.5867274403572083,-0.2090585231781005,-0.5830880403518677,-0.320161759853363,-0.4298233985900879,0.0,0.0,0.6625185012817383,-0.9926451444625854
-0.1905136108398437,0.5742272138595581,-0.2088741958141327,-0.5597236752510071,-0.3392247259616852,-0.3812590539455414,0.0,0.0,0.9175248146057128,-0.8293132781982422
-0.1925114691257476,0.56194669008255,-0.1840318143367767,-0.5495941638946533,-0.355754405260086,-0.3305936753749847,0.0,0.0,0.9302191734313964,-0.987134337425232
-0.1943127661943435,0.5501161217689514,-0.1669283807277679,-0.5291351079940796,-0.3696882128715515,-0.2786761820316314,0.0,0.0,0.9806978702545166,-0.9420090317726136
-0.1960080116987228,0.5384019613265991,-0.1587176471948623,-0.5234664678573608,-0.3811574578285217,-0.2293846607208252,0.0,0.0,0.9739425182342528,-0.9768463373184204
-0.1976675987243652,0.5272210836410522,-0.157297745347023,-0.4992681741714477,-0.3903689086437225,-0.1842289417982101,0.0,0.0,0.9686604738235474,-0.9663521647453308
-0.1989811956882476,0.5169070363044739,-0.1251419186592102,-0.4601210057735443,-0.3970134556293487,-0.1328906863927841,0.0,0.0,0.99200439453125,-0.9160223603248596
-0.2001258879899978,0.5064638257026672,-0.1106816902756691,-0.465209424495697,-0.4010721445083618,-0.0811736583709716,0.0,0.0,0.9776684045791626,-0.9721264839172364
-0.2009017020463943,0.4968799352645874,-0.0762120857834816,-0.4263416230678558,-0.402542769908905,-0.0294126477092504,0.0,0.0,0.9874403476715088,-0.9654926061630248
-0.2016335427761078,0.4876100122928619,-0.0739384442567825,-0.4117810130119324,-0.4017331302165985,0.0161926392465829,0.0,0.0,0.9784398078918456,-0.8346706032752991
-0.2022085636854171,0.4789856076240539,-0.0601085647940635,-0.3825712502002716,-0.3989420533180237,0.0558217167854309,0.0,0.0,0.9702248573303224,-0.7464128136634827
-0.2025003433227539,0.4708136618137359,-0.0337667539715766,-0.3619146645069122,-0.3940236866474151,0.0983673781156539,0.0,0.0,0.9015145301818848,-0.9150609374046326
-0.2026188373565673,0.4635475277900696,-0.0184375457465648,-0.321129709482193,-0.3869962096214294,0.1405496299266815,0.0,0.0,0.5785012245178223,-0.9510833024978638
-0.202507734298706,0.4564602673053741,0.0021374225616455,-0.3125782310962677,-0.3774387836456299,0.1911483705043792,0.0,0.0,0.0058901309967041,-0.7297871708869934
-0.2023658752441406,0.4491603076457977,0.0033130839001387,-0.3216134011745453,-0.3659184575080871,0.2304059565067291,0.0,0.0,0.4304343461990356,-0.2635077238082886
-0.2020463049411773,0.4416391849517822,0.0203329250216484,-0.3313538134098053,-0.3536536395549774,0.2452964335680008,0.0,0.0,-0.3247328996658325,-0.0045744776725769
-0.2017023116350174,0.4335343837738037,0.0222653821110725,-0.3572782278060913,-0.3409219980239868,0.2546331584453583,0.0,0.0,-0.2820006012916565,0.2155122756958007
-0.2013318985700607,0.4248463213443756,0.024414088577032,-0.3832042515277862,-0.3277292251586914,0.2638554871082306,0.0,0.0,0.2514902353286743,0.1023991107940673
-0.2006766349077224,0.4164236783981323,0.0521354265511035,-0.3713686168193817,-0.3138010799884796,0.2785632014274597,0.0,0.0,-0.093273639678955,0.657893180847168
-0.1999493539333343,0.4074048995971679,0.0598861463367939,-0.3981134593486786,-0.3005086779594421,0.2658488154411316,0.0,0.0,-0.3691754341125488,0.3741248846054077
-0.1991898566484451,0.3978034257888794,0.0626348033547401,-0.4240427613258362,-0.2867743670940399,0.2746859788894653,0.0,0.0,-0.2909469604492187,0.4896531105041504
-0.1983962059020996,0.3876194953918457,0.0655664056539535,-0.4499737322330475,-0.2726054489612579,0.2833784520626068,0.0,0.0,0.2493722438812255,0.3103535175323486
-0.1975234001874923,0.3775128424167633,0.0733578130602836,-0.4466531872749328,-0.2583640515804291,0.2848279774188995,0.0,0.0,-0.3853652477264404,0.6556200981140137
-0.1965674459934234,0.366808533668518,0.0824011117219924,-0.4734766781330108,-0.2449070364236831,0.2691404223442077,0.0,0.0,0.0634013414382934,0.6271007061004639
-0.1954233199357986,0.3561651110649109,0.1020106822252273,-0.4710293412208557,-0.2323142290115356,0.2518562376499176,0.0,0.0,-0.0933250188827514,0.6430867910385132
-0.1941825896501541,0.3449189960956573,0.1127118095755577,-0.4980780780315399,-0.2208050787448883,0.2301830053329467,0.0,0.0,0.5026328563690186,0.2484034299850464
-0.1928111016750335,0.3335387110710144,0.1252616345882415,-0.5040566921234131,-0.2088053226470947,0.239995390176773,0.0,0.0,0.4588409662246704,0.471220850944519
-0.1912432610988617,0.3220723867416382,0.1441297680139541,-0.5078795552253723,-0.196046382188797,0.2551791667938232,0.0,0.0,-0.2886431217193603,0.7541863918304443
-0.1895588934421539,0.3100017309188843,0.1572546660900116,-0.5350323915481567,-0.1848034113645553,0.2248590737581253,0.0,0.0,0.5087860822677612,0.2675607204437256
-0.1876382827758789,0.297844648361206,0.1799060404300689,-0.5388475060462952,-0.1726146191358566,0.2437761723995208,0.0,0.0,0.5912312269210815,0.2278159856796264
-0.1855528801679611,0.2861760556697845,0.1960388123989105,-0.5172004699707031,-0.1601068973541259,0.2501543164253235,0.0,0.0,0.6302292346954346,-0.277357816696167
-0.1832713186740875,0.2750265598297119,0.2151656448841095,-0.4941833615303039,-0.147127479314804,0.2595883011817932,0.0,0.0,-0.3930060863494873,-0.2526126503944397
-0.1809420585632324,0.263295441865921,0.2195809632539749,-0.5201196074485779,-0.1338320523500442,0.2659085392951965,0.0,0.0,0.027313232421875,-0.3457964658737182
-0.1784753799438476,0.2512721419334411,0.2327189892530441,-0.5331777930259705,-0.1199460923671722,0.277719110250473,0.0,0.0,0.2539129257202148,-0.0370250940322876
-0.1759530007839203,0.2392502576112747,0.2381590157747268,-0.5332328677177429,-0.1059605851769447,0.2797102928161621,0.0,0.0,0.784382700920105,0.0561589002609252
-0.173191636800766,0.228022888302803,0.2613458335399627,-0.498012900352478,-0.0912857949733734,0.2934957444667816,0.0,0.0,-0.049842357635498,0.0057562589645385
-0.1703802049160003,0.2162148058414459,0.2660800814628601,-0.5239551067352295,-0.0763628184795379,0.2984595894813537,0.0,0.0,0.3324474096298218,0.2262279987335205
-0.1675694435834884,0.2047970443964004,0.2662369608879089,-0.506764829158783,-0.0616753101348876,0.293750137090683,0.0,0.0,0.4049611091613769,0.1533763408660888
-0.1645973175764084,0.193680390715599,0.2817941308021545,-0.4935103058815002,-0.046437207609415,0.3047618269920349,0.0,0.0,0.7253818511962891,-0.1524277925491333
-0.1615936309099197,0.1831613332033157,0.2850183248519897,-0.4671110808849334,-0.0312708616256713,0.3033268749713897,0.0,0.0,0.540742039680481,0.0601441860198974
-0.158593937754631,0.1731124967336654,0.2848073840141296,-0.4463717639446258,-0.0162968412041664,0.2994803786277771,0.0,0.0,0.7665508985519409,-0.1958675384521484
-0.1555607765913009,0.1632824540138244,0.2881359457969665,-0.4367964565753937,-0.0013046176172792,0.2998444736003876,0.0,0.0,0.8561729192733765,-0.0978748798370361
-0.1526062041521072,0.1538856327533722,0.2807618081569671,-0.4176855981349945,0.0131984697654843,0.2900619804859161,0.0,0.0,0.6261196136474609,-0.0233683586120605
-0.1497550904750824,0.1446784287691116,0.2710250914096832,-0.4093897044658661,0.0271088201552629,0.2782068848609924,0.0,0.0,0.637141227722168,-0.1266134977340698
-0.1467668563127517,0.1359626799821853,0.2841793000698089,-0.3876959681510925,0.0415712222456932,0.2892478108406067,0.0,0.0,0.5900448560714722,-0.4538780450820923
-0.1436831504106521,0.1272023767232895,0.2934269607067108,-0.3898303806781769,0.0563471429049968,0.2955184578895569,0.0,0.0,0.9074815511703492,-0.1270532011985778
-0.1404306441545486,0.1191950142383575,0.3095191419124603,-0.3565463125705719,0.0719113126397132,0.3112832605838775,0.0,0.0,0.6464793682098389,-0.3395566344261169
-0.1372054070234298,0.1117620766162872,0.3069186806678772,-0.3311720788478851,0.0873567909002304,0.3089095950126648,0.0,0.0,0.4865080118179321,0.1160604953765869
-0.133868783712387,0.1049147248268127,0.317527711391449,-0.3053455650806427,0.1033556386828422,0.3199770152568817,0.0,0.0,0.6581556797027588,0.1435532569885254
-0.1304657906293869,0.0983671993017196,0.323909729719162,-0.2922157943248749,0.1196411028504371,0.3257089257240295,0.0,0.0,0.5976881980895996,-0.4353221654891968
-0.1271140128374099,0.092414267361164,0.318944364786148,-0.2659542262554168,0.1357996314764022,0.32317054271698,0.0,0.0,0.5803892612457275,-0.2403856515884399
-0.1237571686506271,0.087012730538845,0.3193317651748657,-0.2416390627622604,0.1521050631999969,0.3261085152626037,0.0,0.0,0.3152792453765869,-0.1893447637557983
-0.120343305170536,0.0815868005156517,0.3249334692955017,-0.2429152280092239,0.1685592979192733,0.3290844559669494,0.0,0.0,0.0500764846801757,-0.0404660105705261
-0.1170234680175781,0.0761421993374824,0.3161033689975738,-0.243861973285675,0.184480220079422,0.3184187114238739,0.0,0.0,-0.1034711599349975,-0.0667524933815002
-0.1136556640267372,0.0701170265674591,0.321143239736557,-0.2698060274124145,0.2002022117376327,0.3144401609897613,0.0,0.0,0.0903996229171752,-0.1125444769859314
-0.1103282943367958,0.0640538036823272,0.3174267113208771,-0.2716200053691864,0.2156350165605545,0.3086566925048828,0.0,0.0,0.1908462047576904,0.0028876066207885
-0.1070180907845497,0.0579789243638515,0.3159165978431701,-0.2722665965557098,0.2309073507785797,0.3054468035697937,0.0,0.0,0.0420762300491333,-0.0113232135772705
-0.1036335974931716,0.0516826026141643,0.3233022391796112,-0.2822890877723694,0.2462909370660781,0.3076722919940948,0.0,0.0,0.5532753467559814,-0.1904872059822082
-0.1002714186906814,0.045773658901453,0.3209896981716156,-0.265244573354721,0.2618069648742676,0.3103205561637878,0.0,0.0,0.3730072975158691,-0.0638520121574401
-0.0970179587602615,0.0402627550065517,0.3103979229927063,-0.2476730942726135,0.2771073579788208,0.3060081005096435,0.0,0.0,0.0263352394104003,-0.2174562215805053
-0.0937354117631912,0.0344661809504032,0.3135081231594085,-0.2604957520961761,0.2922593355178833,0.3030398786067962,0.0,0.0,0.3365669250488281,-0.0672942996025085
