x_pos,y_pos,x_vel,y_vel,angle,ang_vel,leg_1,leg_2,main_booster,lat_booster
-0.0014794350136071,1.403091311454773,-0.1495570987462997,-0.3479510247707367,0.0014358966145664,0.0283000208437442,0.0,0.0,-0.2306184768676757,0.4012781381607055
-0.0029170035850256,1.3947522640228271,-0.1448771506547927,-0.3706240653991699,0.0025385948829352,0.0220570620149374,0.0,0.0,0.2177187204360962,0.8071959018707275
-0.0041398047469556,1.386320948600769,-0.1216120719909668,-0.3747253715991974,0.0018788428278639,-0.0131960315629839,0.0,0.0,-0.1325379610061645,0.6328692436218262
-0.0052855489775538,1.3773542642593384,-0.1126056686043739,-0.3985188603401184,-5.966089884168469e-05,-0.0387738347053527,0.0,0.0,0.3545892238616943,0.536588191986084
-0.0062396051362156,1.3686580657958984,-0.0923922881484031,-0.3864996135234833,-0.0030429917387664,-0.0596724450588226,0.0,0.0,-0.432594895362854,0.5701596736907959
-0.0071068764664232,1.3594276905059814,-0.0820534378290176,-0.4102581441402435,-0.0076622492633759,-0.092393472790718,0.0,0.0,-0.6708770394325256,-0.0340712666511535
-0.007945155724883,1.3496642112731934,-0.0789195373654365,-0.4339571595191955,-0.0125195486471056,-0.0971546545624733,0.0,0.0,-0.758841872215271,-0.7776254415512085
-0.0088035585358738,1.3393712043762207,-0.0818773135542869,-0.4575110375881195,-0.0164442993700504,-0.0785020366311073,0.0,0.0,-0.3410475254058838,-0.5715004205703735
-0.0096851345151662,1.3285523653030396,-0.085139974951744,-0.4808735251426697,-0.019427603110671,-0.0596716180443763,0.0,0.0,-0.0398676991462707,-0.3537464141845703
-0.0105471611022949,1.3172004222869873,-0.0829926207661628,-0.5045756101608276,-0.0226109065115451,-0.0636715814471244,0.0,0.0,-0.0795232057571411,-0.8442274332046509
-0.0114500997588038,1.3053178787231443,-0.0883435979485511,-0.528143048286438,-0.0245458241552114,-0.038701731711626,0.0,0.0,0.2720124721527099,-0.7262642979621887
-0.0123266223818063,1.2935101985931396,-0.087064728140831,-0.5247867107391357,-0.0251248329877853,-0.0115811051800847,0.0,0.0,-0.2443636059761047,-0.2840456962585449
-0.0131940841674804,1.2811695337295532,-0.0859995931386947,-0.5484926700592041,-0.0258620809763669,-0.0147464517503976,0.0,0.0,-0.0062383413314819,-0.7734741568565369
-0.0141101833432912,1.2682905197143557,-0.0920948758721351,-0.5723950862884521,-0.0253843870013952,0.0095547372475266,0.0,0.0,-0.155602216720581,-0.5960097312927246
-0.0150604248046875,1.2548856735229492,-0.0962957888841629,-0.5957458019256592,-0.0241294000297784,0.0251021273434162,0.0,0.0,-0.053974449634552,-0.0001540184020996
-0.0160126686096191,1.240947723388672,-0.0963782370090484,-0.6194471120834351,-0.0229879710823297,0.0228305384516716,0.0,0.0,-0.7255987524986267,-0.3543322086334228
-0.0169705394655466,1.2264763116836548,-0.0968501716852188,-0.6431486010551453,-0.0219446197152137,0.0208691172301769,0.0,0.0,0.1834433078765869,-0.7143174409866333
-0.0178731922060251,1.2118664979934692,-0.092817798256874,-0.6492947340011597,-0.0194233823567628,0.0504293255507946,0.0,0.0,0.1573858261108398,-0.5972992777824402
-0.018749713897705,1.1975715160369873,-0.0914605557918548,-0.6352860331535339,-0.0156571064144372,0.075332224369049,0.0,0.0,-0.8068050742149353,0.0212345123291015
-0.0196434017270803,1.1827433109283447,-0.0931173712015152,-0.6589936017990112,-0.0119436997920274,0.07427479326725,0.0,0.0,-0.4624910354614258,-0.1703653931617736
-0.0205578804016113,1.1673822402954102,-0.0951629430055618,-0.6826938390731812,-0.0082672275602817,0.0735358744859695,0.0,0.0,-0.158754825592041,-0.1340117454528808
-0.0214968677610158,1.1514880657196045,-0.0975941866636276,-0.7063947319984436,-0.0046128020621836,0.0730951502919197,0.0,0.0,0.2172447443008422,0.7966768741607666
-0.0222899429500103,1.1356600522994995,-0.081498697400093,-0.7034608721733093,-0.0024450160562992,0.0433595068752765,0.0,0.0,0.2747848033905029,-0.0807711482048034
-0.0230601318180561,1.1196599006652832,-0.0794815570116043,-0.7111185193061829,-1.8307280697626996e-05,0.0485385134816169,0.0,0.0,-0.134996235370636,0.0293583869934082
-0.0238656047731637,1.1031265258789062,-0.0830279514193534,-0.7348206639289856,0.0024309456348419,0.0489897057414054,0.0,0.0,0.3026463985443115,-0.1287373304367065
-0.0248258598148822,1.0868706703186035,-0.0980133414268493,-0.7224829196929932,0.0043863919563591,0.0391091629862785,0.0,0.0,-0.0095090270042419,0.102237582206726
-0.0258280746638774,1.0700818300247192,-0.1022538989782333,-0.7461824417114258,0.0063935946673154,0.040144108235836,0.0,0.0,-0.1670161485671997,-0.1507415175437927
-0.0268754009157419,1.0527597665786743,-0.1068285480141639,-0.7698819637298584,0.0084661077708005,0.0414503552019596,0.0,0.0,0.642676830291748,0.7786624431610107
-0.0280588157474994,1.0360649824142456,-0.1186885610222816,-0.7419890761375427,0.0088037345558404,0.0067528062500059,0.0,0.0,-0.1582061648368835,-0.7875608801841736
-0.02935791015625,1.0188331604003906,-0.1319850981235504,-0.7658676505088806,0.01085343118757,0.0409938208758831,0.0,0.0,0.0252759456634521,0.5828335285186768
-0.0306575782597064,1.0018638372421265,-0.1309869140386581,-0.7541992664337158,0.011865135282278,0.020234202966094,0.0,0.0,0.1167565584182739,-0.5477603077888489
-0.0321188941597938,0.9848007559776306,-0.1482726484537124,-0.7583820223808289,0.0139792561531066,0.0422822013497352,0.0,0.0,-0.3885425925254822,0.6993603706359863
-0.0335918441414833,0.9672120213508606,-0.1483406126499176,-0.7817339301109314,0.0150199327617883,0.020813588052988,0.0,0.0,0.1397038698196411,0.2919105291366577
-0.0351740829646587,0.949462115764618,-0.1592134237289428,-0.7888901233673096,0.0159952826797962,0.0195068977773189,0.0,0.0,0.0034582614898681,0.4517977237701416
-0.0368165969848632,0.9317506551742554,-0.1654305756092071,-0.7871856689453125,0.0171649940311908,0.0233941040933132,0.0,0.0,-0.0112637877464294,0.4966301918029785
-0.0385252013802528,0.9135062098503112,-0.172209158539772,-0.8108851313591003,0.0184934716671705,0.0265696458518505,0.0,0.0,-0.1045000553131103,0.720057487487793
-0.0402474403381347,0.8947262763977051,-0.1723607331514358,-0.8346642255783081,0.0186210051178932,0.0025510429404675,0.0,0.0,0.6492791175842285,0.3939574956893921
-0.0420160293579101,0.8765539526939392,-0.1773469895124435,-0.8076684474945068,0.0191019605845212,0.0096190925687551,0.0,0.0,0.739199161529541,0.5904929637908936
-0.0438713058829307,0.8591852188110352,-0.1848992556333542,-0.7719339728355408,0.0184795781970024,-0.0124478796496987,0.0,0.0,-0.7111238241195679,-0.0954921245574951
-0.0458002090454101,0.84128338098526,-0.1924607753753662,-0.7956334948539734,0.0180518496781587,-0.0085547538474202,0.0,0.0,0.5311645269393921,0.5613470077514648
-0.0478798858821392,0.8239335417747498,-0.2063390761613845,-0.771081268787384,0.016450110822916,-0.0320348218083381,0.0,0.0,-0.8084861636161804,0.2780195474624634
-0.0500361435115337,0.806050717830658,-0.2142204791307449,-0.7947809100151062,0.0150582706555724,-0.0278367884457111,0.0,0.0,-0.3949344754219055,0.8994114398956299
-0.0521878227591514,0.7876266241073608,-0.2118653059005737,-0.8188181519508362,0.0118066444993019,-0.0650326162576675,0.0,0.0,-0.6251745223999023,0.9616048336029052
-0.0543300621211528,0.7686691880226135,-0.2089007645845413,-0.8425182700157166,0.0065509504638612,-0.1051138490438461,0.0,0.0,0.6349666118621826,0.930974006652832
-0.0565261840820312,0.7496054768562317,-0.2125827521085739,-0.8472611308097839,-0.0003873189853038,-0.1387655287981033,0.0,0.0,0.2882280349731445,0.4728890657424927
-0.0587679855525493,0.7303998470306396,-0.2175560444593429,-0.8535951972007751,-0.0069245640188455,-0.1307447850704193,0.0,0.0,0.5959295034408569,0.9145002365112304
-0.0609506592154502,0.7113029360771179,-0.2101466357707977,-0.8488139510154724,-0.0149514665827155,-0.160537913441658,0.0,0.0,0.5355789661407471,0.3161208629608154
-0.0633098632097244,0.6928380727767944,-0.2275460958480835,-0.8207609057426453,-0.023215964436531,-0.1652900278568267,0.0,0.0,0.3072681427001953,0.761600136756897
-0.0657968521118164,0.6747851371765137,-0.2388906925916671,-0.8025389313697815,-0.0328963212668895,-0.1936074495315551,0.0,0.0,-0.947231113910675,0.8586826324462891
-0.0683034881949424,0.6561945080757141,-0.2394548207521438,-0.8265355825424194,-0.0439705625176429,-0.2214848548173904,0.0,0.0,-0.4823980331420898,0.92667555809021
-0.0708053559064865,0.6370663046836853,-0.2369326800107956,-0.8505889773368835,-0.0570693910121917,-0.2619765400886535,0.0,0.0,0.6267906427383423,0.1213154792785644
-0.0734089836478233,0.6184979677200317,-0.2471203058958053,-0.8258149027824402,-0.0701685771346092,-0.2619839012622833,0.0,0.0,-0.21414715051651,0.2013545036315918
-0.0760997757315635,0.5993984341621399,-0.2561197280883789,-0.8495268225669861,-0.083002746105194,-0.2566832304000854,0.0,0.0,0.9818515777587892,0.3158767223358154
-0.078795239329338,0.5811973810195923,-0.2568802237510681,-0.8096855878829956,-0.095551311969757,-0.2509714663028717,0.0,0.0,-0.0316002368927001,0.7850228548049927
-0.0815020576119422,0.5624510645866394,-0.2563367486000061,-0.8341451287269592,-0.1097826063632965,-0.2846260666847229,0.0,0.0,0.9584274291992188,0.759947657585144
-0.0842988938093185,0.5440138578414917,-0.2638304829597473,-0.8206706643104553,-0.1255421191453933,-0.3151905536651611,0.0,0.0,0.8642840385437012,0.4847738742828369
-0.0869670882821083,0.5263645648956299,-0.2517542839050293,-0.7857483625411987,-0.1405364573001861,-0.299886405467987,0.0,0.0,-0.023552656173706,0.3511610031127929
-0.0897247344255447,0.5081844329833984,-0.2610182166099548,-0.8094629049301147,-0.1552548259496688,-0.2943675220012665,0.0,0.0,0.7759491205215454,0.8265197277069092
-0.0922825783491134,0.490757942199707,-0.2398677617311477,-0.7762505412101746,-0.1711790114641189,-0.3184840679168701,0.0,0.0,0.9792976379394532,0.3749196529388428
-0.0948601737618446,0.4742156267166137,-0.241741269826889,-0.737136960029602,-0.187247097492218,-0.3213618397712707,0.0,0.0,0.384259819984436,-0.2122504711151123
-0.0974285155534744,0.4575880169868469,-0.2413251847028732,-0.7410373091697693,-0.2028379887342453,-0.311817467212677,0.0,0.0,0.5110979080200195,-0.342046856880188
-0.1000481620430946,0.4413999319076538,-0.2463704794645309,-0.7216848731040955,-0.2185739427804947,-0.3147195279598236,0.0,0.0,-0.269693911075592,0.4510326385498047
-0.1027588844299316,0.4246809482574463,-0.255808413028717,-0.7453992366790771,-0.2340306490659713,-0.3091345131397247,0.0,0.0,0.8416574001312256,0.4090319871902466
-0.1053770035505294,0.4084187746047973,-0.2469898164272308,-0.7251909375190735,-0.249086782336235,-0.3011229932308197,0.0,0.0,0.9352140426635742,0.1278032064437866
-0.1079620346426963,0.3923044204711914,-0.2440547943115234,-0.7187102437019348,-0.263821929693222,-0.2947031855583191,0.0,0.0,0.9502650499343872,-0.6863015294075012
-0.1106608361005783,0.3767518103122711,-0.2567428350448608,-0.6936522722244263,-0.2772799432277679,-0.269160121679306,0.0,0.0,0.964845895767212,-0.9298588633537292
-0.1132144927978515,0.362164169549942,-0.2444368302822113,-0.6504541635513306,-0.2885141670703888,-0.2246847450733184,0.0,0.0,0.578913688659668,-0.6976245045661926
-0.1157530769705772,0.3474243283271789,-0.2447549104690551,-0.6569329500198364,-0.2978942394256592,-0.1876014918088913,0.0,0.0,0.904284119606018,-0.906271517276764
-0.1181286796927452,0.3335882723331451,-0.2306074351072311,-0.6163767576217651,-0.3050847351551056,-0.1438106894493103,0.0,0.0,0.8864233493804932,-0.9407921433448792
-0.1206199675798416,0.3200747966766357,-0.2441010475158691,-0.6016642451286316,-0.3102890253067016,-0.1040855199098587,0.0,0.0,0.99277925491333,-0.6179289817810059
-0.1231133490800857,0.307272732257843,-0.2454814612865448,-0.5698120594024658,-0.3142807781696319,-0.0798352882266044,0.0,0.0,0.9754505157470704,-0.7038885354995728
-0.1254845559597015,0.2950064539909363,-0.2350177466869354,-0.5456253290176392,-0.3164701461791992,-0.0437865629792213,0.0,0.0,0.9026250839233398,-0.078449010848999
-0.1277875006198883,0.2836615741252899,-0.2277863770723343,-0.5047661662101746,-0.3190785944461822,-0.0521690845489501,0.0,0.0,0.8754912614822388,-0.0932156443595886
-0.129899114370346,0.2726768851280212,-0.209281250834465,-0.4886250495910644,-0.3210364282131195,-0.0391564294695854,0.0,0.0,0.8421630859375,0.1339002847671508
-0.1320025473833084,0.2617964148521423,-0.2085362374782562,-0.483977735042572,-0.3229058682918548,-0.0373885259032249,0.0,0.0,0.2620007991790771,-0.4737764000892639
-0.1340715438127517,0.2507100105285644,-0.205582782626152,-0.4930196404457092,-0.3242754340171814,-0.0273913890123367,0.0,0.0,0.9681729078292848,-0.5835019946098328
-0.1361882239580154,0.2396999448537826,-0.2116313874721527,-0.4893471598625183,-0.3243148624897003,-0.0007882982608862,0.0,0.0,0.979625940322876,0.6058729887008667
-0.1380596160888672,0.2294943183660507,-0.1861337721347808,-0.4538090825080871,-0.3253611028194427,-0.020925085991621,0.0,0.0,0.9528284072875975,0.5152983665466309
-0.1395822465419769,0.2200623154640197,-0.150788739323616,-0.4195327460765838,-0.3269060552120209,-0.0308989435434341,0.0,0.0,0.976048231124878,-0.7620760798454285
-0.1410778015851974,0.211590901017189,-0.1494845449924469,-0.3765214681625366,-0.326969712972641,-0.0012730646412819,0.0,0.0,0.925507426261902,-0.3236333131790161
-0.142685979604721,0.2032062411308288,-0.1603260636329651,-0.3727647662162781,-0.3274876475334167,-0.0103585543110966,0.0,0.0,0.8814027309417725,-0.5177760720252991
-0.1440900862216949,0.1955663710832595,-0.1412948966026306,-0.3393496572971344,-0.3265616297721863,0.0185204707086086,0.0,0.0,0.5950675010681152,-0.659848690032959
-0.1455599814653396,0.1882578283548355,-0.1491807550191879,-0.3243287205696106,-0.3242780864238739,0.0456707887351512,0.0,0.0,0.7266521453857422,-0.6465663909912109
-0.1470044106245041,0.1814789921045303,-0.1479895710945129,-0.3004946410655975,-0.3205848038196563,0.0738658607006073,0.0,0.0,0.6949310302734375,-0.5880922675132751
-0.1483723670244217,0.1752183586359024,-0.1416980475187301,-0.2771762311458587,-0.3154938817024231,0.1018183007836341,0.0,0.0,-0.1334820389747619,0.0918196439743042
-0.1498342454433441,0.1684238463640213,-0.1513053327798843,-0.3008716404438019,-0.310180127620697,0.1062748059630394,0.0,0.0,0.3956891298294067,0.4972652196884155
-0.1512825936079025,0.1614996045827865,-0.1502592861652374,-0.3065978586673736,-0.3045554459095001,0.1124938577413559,0.0,0.0,0.5708475112915039,0.3481501340866089
-0.152625560760498,0.1545498222112655,-0.1403466910123825,-0.3076273202896118,-0.2983090579509735,0.1249276623129844,0.0,0.0,0.3033859729766845,0.4605870246887207
-0.1538188010454177,0.1476612687110901,-0.1261074542999267,-0.3047852218151092,-0.29131680727005,0.1398445516824722,0.0,0.0,0.6491045951843262,0.792349100112915
-0.1547868698835373,0.1407059729099273,-0.10248963534832,-0.3079994916915893,-0.285465657711029,0.1170230731368064,0.0,0.0,0.7132860422134399,-0.0794381499290466
-0.1556346863508224,0.1343409866094589,-0.0906345546245575,-0.2817557752132416,-0.2794426083564758,0.1204610094428062,0.0,0.0,0.6638275384902954,0.2544835805892944
-0.1563350707292556,0.1285310387611389,-0.0762388259172439,-0.2570475339889526,-0.2730814814567566,0.1272229999303817,0.0,0.0,0.1105252504348754,-0.7735364437103271
-0.1569730788469314,0.1228239387273788,-0.0717917010188102,-0.2521755695343017,-0.2648980915546417,0.1636678874492645,0.0,0.0,0.2139968872070312,-0.5399160981178284
-0.1576048880815506,0.1169106364250183,-0.0725950524210929,-0.2611401379108429,-0.2552835941314697,0.1922897100448608,0.0,0.0,0.798241138458252,0.2673385143280029
-0.1582448035478592,0.1112907975912094,-0.0733424574136734,-0.2481716424226761,-0.245755523443222,0.1905611902475357,0.0,0.0,0.6693718433380127,0.2421226501464843
-0.1586822569370269,0.1063756346702575,-0.0536690540611743,-0.2168244868516922,-0.2356591373682022,0.2019276618957519,0.0,0.0,0.4332066774368286,0.4836114645004272
-0.1591162681579589,0.1016551554203033,-0.0534320399165153,-0.2082240581512451,-0.2254890948534011,0.2034010887145996,0.0,0.0,0.4747830629348755,0.6776344776153564
-0.1595496237277984,0.0974694117903709,-0.0519620366394519,-0.1847362220287323,-0.2167495042085647,0.1747914999723434,0.0,0.0,0.5636968612670898,0.4887059926986694
-0.1598521173000335,0.0936920046806335,-0.0394387952983379,-0.1665623635053634,-0.2074727267026901,0.1855356842279434,0.0,0.0,0.0555781126022338,0.9851216077804564
-0.1601104736328125,0.0900811776518821,-0.0332464724779129,-0.1594603359699249,-0.2000033855438232,0.1493871510028839,0.0,0.0,0.257662296295166,0.797457218170166
-0.1603544205427169,0.0867834165692329,-0.0303038991987705,-0.1457793712615966,-0.1940587013959884,0.1188933476805687,0.0,0.0,0.1533372402191162,0.8417296409606934
-0.1605771034955978,0.0834479629993438,-0.0266214367002248,-0.1476789563894271,-0.1896776258945465,0.087621696293354,0.0,0.0,0.1773278713226318,0.6112351417541504
-0.1608527153730392,0.0802235230803489,-0.0306845661252737,-0.1429116427898407,-0.1865364760160446,0.0628227740526199,0.0,0.0,0.2164728641510009,0.2450428009033203
-0.1612555533647537,0.0770648792386055,-0.0430323258042335,-0.1400406956672668,-0.1837801039218902,0.0551273003220558,0.0,0.0,0.1233043670654296,0.8545808792114258
-0.1615090370178222,0.0740568041801452,-0.0265434924513101,-0.1335457414388656,-0.1825813502073288,0.0239754319190979,0.0,0.0,0.1093729734420776,0.8967907428741455
-0.1616900414228439,0.0708404406905174,-0.0176259987056255,-0.1430063396692276,-0.1830629855394363,-0.0096325734630227,0.0,0.0,-0.0081701278686523,0.2346655130386352
-0.1619593650102615,0.0670907124876976,-0.0265551395714283,-0.1667038053274154,-0.1834340393543243,-0.0074210735037922,0.0,0.0,0.7572705745697021,0.8369293212890625
-0.1621260643005371,0.0640208348631858,-0.0146820694208145,-0.136683776974678,-0.1854234039783477,-0.0397874452173709,0.0,0.0,0.5333988666534424,0.829887866973877
-0.1620219200849533,0.0615373216569423,0.0137197002768516,-0.1107992604374885,-0.1887543350458145,-0.0666184574365615,0.0,0.0,0.2950992584228515,0.412229061126709
-0.161859706044197,0.0591730438172817,0.0191704537719488,-0.1054587885737419,-0.1917148977518081,-0.0592113733291626,0.0,0.0,-0.1309540271759033,-0.2286453247070312
-0.1617822647094726,0.056275401264429,0.0105964113026857,-0.1291572451591491,-0.1945872604846954,-0.0574476346373558,0.0,0.0,0.4394118785858154,0.0663501024246215
-0.1616042107343673,0.0538388825953006,0.0203455127775669,-0.1086243465542793,-0.1971323788166046,-0.0509027540683746,0.0,0.0,-0.036184549331665,-0.0883201956748962
-0.1615086495876312,0.0508690699934959,0.0120024578645825,-0.1323227435350418,-0.1996001452207565,-0.0493554063141346,0.0,0.0,0.5697674751281738,-0.3419665098190307
-0.1614918708801269,0.0482641085982322,0.0045840782113373,-0.1161693036556243,-0.2025334239006042,-0.0586654245853424,0.0,0.0,0.2945096492767334,0.0326473712921142
-0.1615725457668304,0.0457489117980003,-0.0047602048143744,-0.1122432053089141,-0.2058650553226471,-0.0666330456733703,0.0,0.0,0.4615675210952759,-0.4566985368728637
-0.1616483628749847,0.0434385649859905,-0.0042538614943623,-0.1031502038240432,-0.2092231214046478,-0.0671613067388534,0.0,0.0,0.1140238046646118,-0.0519922971725463
-0.161709114909172,0.0411172732710838,-0.0028909358661621,-0.1036234572529792,-0.2124435305595398,-0.0644081234931945,0.0,0.0,0.4153263568878174,-0.276941180229187
-0.1616705954074859,0.0386789664626121,0.0064723864197731,-0.1087463796138763,-0.2150947302579879,-0.0530239455401897,0.0,0.0,0.6109988689422607,-0.4360977411270141
-0.1614700257778167,0.0366540774703025,0.0221997704356908,-0.0903088599443435,-0.2172594666481018,-0.0432945787906646,0.0,0.0,0.326366662979126,-0.2528942823410034
-0.1611810624599456,0.0350378863513469,0.0308950804173946,-0.0721261501312255,-0.2192890644073486,-0.0405920967459678,0.0,0.0,0.3175379037857055,-0.3942547440528869
