x_pos,y_pos,x_vel,y_vel,angle,ang_vel,leg_1,leg_2,main_booster,lat_booster
-0.0015581131447106,1.40305757522583,-0.157494455575943,-0.3494451940059662,0.0014963379362598,0.0294975489377975,0.0,0.0,-0.4447200686044636,-0.9748434866518558
-0.0032205581665039,1.394646406173706,-0.169187992811203,-0.3738322854042053,0.0044175363145768,0.05842986702919,0.0,0.0,-0.423273502296621,0.5239762153380199
-0.0048656463623046,1.3856643438339231,-0.1658812463283538,-0.3992015123367309,0.0057732881978154,0.0271175652742385,0.0,0.0,-0.593584762454985,0.873476007677976
-0.0064876554533839,1.3761131763458252,-0.1618655920028686,-0.4245000183582306,0.0054441876709461,-0.0065825977362692,0.0,0.0,-0.0053032418894303,-0.8193818354668435
-0.008191299624741,1.365997076034546,-0.1710220724344253,-0.4496037065982818,0.0060914005152881,0.0129454489797353,0.0,0.0,0.4259537528936525,-0.7707534072364237
-0.0098562240600585,1.3560168743133545,-0.1686080992221832,-0.4435759484767914,0.0081833032891154,0.0418421439826488,0.0,0.0,0.0846799581268447,-0.7270239991729203
-0.0116273881867527,1.3460376262664795,-0.1803687214851379,-0.4435503780841827,0.0113969771191477,0.0642792508006095,0.0,0.0,-0.0728250151290161,-0.7131714088817509
-0.013468837365508,1.335492730140686,-0.1881555616855621,-0.4686956107616424,0.0153728704899549,0.0795248448848724,0.0,0.0,0.8119040990780189,-0.9142575192568928
-0.0154377939179539,1.32576584815979,-0.2024202793836593,-0.4323787689208984,0.0208315197378397,0.1091830730438232,0.0,0.0,-0.1467086242380535,0.6693198426600309
-0.0173798557370901,1.3154776096343994,-0.1980815827846527,-0.457309365272522,0.0246641486883163,0.0766594856977462,0.0,0.0,-0.5854742166884963,0.984375386372131
-0.019257640466094,1.304626703262329,-0.1890990734100341,-0.4822853505611419,0.0259672980755567,0.026065781712532,0.0,0.0,-0.2599434243740295,0.5776485474210227
-0.0211075786501169,1.2932095527648926,-0.1847201436758041,-0.5074220895767212,0.0256915241479873,-0.0055158743634819,0.0,0.0,-0.1982256326850349,-0.8797289644494597
-0.0230337139219045,1.2812278270721436,-0.1934190243482589,-0.5325336456298828,0.0264827534556388,0.0158263258635997,0.0,0.0,0.8363196960024966,0.5237205461304162
-0.0248680114746093,1.2692711353302002,-0.1831211745738983,-0.5314069986343384,0.0261778384447097,-0.0060990611091256,0.0,0.0,-0.0039333613771017,-0.7721280227402894
-0.0267683025449514,1.2567534446716309,-0.1905986964702606,-0.5563529133796692,0.0267459414899349,0.0113630276173353,0.0,0.0,-0.5395306430422255,0.9547261669349276
-0.0285971648991107,1.2436610460281372,-0.1808951050043106,-0.5818439722061157,0.0247754752635955,-0.0394128635525703,0.0,0.0,0.7694768092348225,0.5812264334519772
-0.0302613265812397,1.231390118598938,-0.1633895337581634,-0.5453271269798279,0.0217817891389131,-0.0598796010017395,0.0,0.0,0.0910751871106005,-0.888918910053548
-0.031905461102724,1.218916893005371,-0.162883311510086,-0.5543440580368042,0.0202776733785867,-0.0300849266350269,0.0,0.0,-0.6829667535727411,0.552577044763877
-0.0335125923156738,1.205883502960205,-0.157606154680252,-0.5792190432548523,0.0171990022063255,-0.0615791268646717,0.0,0.0,0.6398163471987277,-0.8523345749202065
-0.0352982506155967,1.1931215524673462,-0.1767049580812454,-0.5671833753585815,0.0153678832575678,-0.0366253294050693,0.0,0.0,0.7374269760028669,0.96002543264017
-0.0368808731436729,1.1809906959533691,-0.1544090211391449,-0.5391165018081665,0.0115523533895611,-0.07631766051054,0.0,0.0,0.1352536581430576,-0.958908769718177
-0.0385429374873638,1.1687421798706057,-0.1639702171087265,-0.5443573594093323,0.0093457708135247,-0.0441354922950267,0.0,0.0,-0.8632673863433005,-0.9544781775300992
-0.0402725227177143,1.1559247970581057,-0.1719264388084411,-0.5696563720703125,0.0083291307091712,-0.0203348137438297,0.0,0.0,0.3671523469357858,-0.5698268040409544
-0.0419932380318641,1.1429219245910645,-0.1720248758792877,-0.5779079794883728,0.0082854898646473,-0.0008730804547667,0.0,0.0,-0.9739792101584436,-0.5515008975760756
-0.0437735542654991,1.1293528079986572,-0.1790605336427688,-0.6030752062797546,0.0093005402013659,0.0203028656542301,0.0,0.0,0.4047446814313218,0.7306808752791445
-0.0456438064575195,1.116096019744873,-0.1860595196485519,-0.5891806483268738,0.0083456365391612,-0.0190981142222881,0.0,0.0,-0.1174540501014576,0.8205817636588617
-0.0474519729614257,1.102278470993042,-0.1778749674558639,-0.6141001582145691,0.0054542096331715,-0.0578286573290824,0.0,0.0,-0.8784795975299793,-0.7139352216585095
-0.0493306145071983,1.0879011154174805,-0.1863917112350464,-0.6389955878257751,0.003997285850346,-0.0291387401521205,0.0,0.0,0.6778778921090252,-0.7186912151206846
-0.0514148697257041,1.074141263961792,-0.2077841460704803,-0.6115376353263855,0.0033742375671863,-0.0124609842896461,0.0,0.0,-0.549735415026807,0.7179313602169454
-0.0534435287117958,1.0598124265670776,-0.2005487233400344,-0.6368351578712463,0.0010830651735886,-0.0458234325051307,0.0,0.0,0.6505544916749664,-0.7234284659762087
-0.0555081367492675,1.0461935997009275,-0.2053453028202057,-0.6052812933921814,-1.6523557860637084e-05,-0.021991703659296,0.0,0.0,-0.9821617007255554,-0.5474008321762085
-0.0576186180114746,1.032004714012146,-0.210898607969284,-0.6306162476539612,-0.0001738366117933,-0.0031458945013582,0.0,0.0,-0.821152925491333,0.2974320650100708
-0.0597251877188682,1.0172489881515503,-0.2102048695087433,-0.655809223651886,-0.0006159261101856,-0.0088419187813997,0.0,0.0,-0.0270405411720275,-0.0096563696861267
-0.0618266090750694,1.0019265413284302,-0.2094050645828247,-0.6810022592544556,-0.0013405873905867,-0.0144933462142944,0.0,0.0,-0.9630928635597228,0.3028955459594726
-0.0639218315482139,0.9860371351242064,-0.2085029333829879,-0.7061951756477356,-0.0023453957401216,-0.0200960636138916,0.0,0.0,-0.9861953258514404,0.0412105321884155
-0.0660098046064376,0.9695809483528136,-0.2075022906064987,-0.73138827085495,-0.0036276916507631,-0.0256456173956394,0.0,0.0,-0.9691272974014282,-0.197340726852417
-0.0680896788835525,0.9525579810142516,-0.2064069807529449,-0.7565813660621643,-0.0051845703274011,-0.0311374068260192,0.0,0.0,-0.9206658601760864,0.2599132061004638
-0.0701603889465332,0.9349681735038756,-0.2052208930253982,-0.7817745804786682,-0.0070129027590155,-0.0365666337311267,0.0,0.0,-0.7381547093391418,0.5247735977172852
-0.0721822753548622,0.9168171286582948,-0.1990749835968017,-0.8067315816879272,-0.0100845731794834,-0.0614335425198078,0.0,0.0,-0.6985421180725098,-0.1278318166732788
-0.0741932839155197,0.8980993032455444,-0.1977192610502243,-0.8319253921508789,-0.0134207298979163,-0.0667230263352394,0.0,0.0,-0.0740508437156677,-0.0314888358116149
-0.0761925727128982,0.8788149952888489,-0.196284681558609,-0.8571195602416992,-0.0170174781233072,-0.0719349533319473,0.0,0.0,0.8485525846481323,-0.2494233846664428
-0.0780312567949295,0.8598389625549316,-0.180616021156311,-0.8434197902679443,-0.0202318802475929,-0.0642881393432617,0.0,0.0,0.8183834552764893,-0.6646180152893066
-0.0797870606184005,0.8408047556877136,-0.1736890971660614,-0.8459965586662292,-0.0220957044512033,-0.0372766479849815,0.0,0.0,0.8537033796310425,0.7102738618850708
-0.081338882446289,0.8220859169960022,-0.1519021689891815,-0.8320006132125854,-0.0253372117877006,-0.0648300573229789,0.0,0.0,0.8794150352478027,-0.2077831029891967
-0.0829138755798339,0.8033044338226318,-0.1537471264600753,-0.8347939848899841,-0.0290349666029214,-0.0739552751183509,0.0,0.0,0.8021905422210693,-0.7546828389167786
-0.0844680815935134,0.7844956517219543,-0.153076633810997,-0.8359991908073425,-0.0313523784279823,-0.0463480353355407,0.0,0.0,0.8894269466400146,-0.5158217549324036
-0.085957333445549,0.7658818364143372,-0.1476069688796997,-0.8273065090179443,-0.0326569564640522,-0.0260915551334619,0.0,0.0,0.9639052152633668,0.5306388139724731
-0.0874970406293869,0.7481978535652161,-0.1509213298559188,-0.786023736000061,-0.0356631912291049,-0.0601248070597648,0.0,0.0,-0.2298674583435058,-0.6785160303115845
-0.0890849083662033,0.7299566864967346,-0.1571969091892242,-0.8107566237449646,-0.0372413955628871,-0.0315638110041618,0.0,0.0,0.8067519664764404,0.7622864246368408
-0.0905996337532997,0.7119786143302917,-0.1480641812086105,-0.7991179823875427,-0.0406034067273139,-0.0672404766082763,0.0,0.0,0.7057342529296875,0.8243383169174194
-0.0918437018990516,0.6943034529685974,-0.1194257140159607,-0.785706102848053,-0.0455177128314971,-0.0982863008975982,0.0,0.0,0.8135190010070801,-0.2381434440612793
-0.0930954962968826,0.6772779822349548,-0.1197108253836631,-0.7568643093109131,-0.0509241931140422,-0.1081297174096107,0.0,0.0,-0.4698883295059204,-0.76955646276474
-0.0943782776594162,0.6596856713294983,-0.1238860040903091,-0.7820385098457336,-0.055270817130804,-0.0869323685765266,0.0,0.0,0.8685176372528076,-0.6117891073226929
-0.0956362709403038,0.64288729429245,-0.1224510222673416,-0.7467213273048401,-0.0585737898945808,-0.0660595968365669,0.0,0.0,0.7350538969039917,0.6745142936706543
-0.0966219902038574,0.6262668967247009,-0.0940865501761436,-0.7388594150543213,-0.0630057603120803,-0.0886396989226341,0.0,0.0,-0.0196475386619567,-0.5658104419708252
-0.0976394638419151,0.6090826392173767,-0.0984239280223846,-0.7638933658599854,-0.0663030594587326,-0.0659460499882698,0.0,0.0,0.7734148502349854,0.165529727935791
-0.0984793677926063,0.5926020741462708,-0.0809632092714309,-0.7326052784919739,-0.0692951828241348,-0.0598425976932048,0.0,0.0,0.751988410949707,-0.002801775932312
-0.0991031676530838,0.5766099095344543,-0.0598823353648185,-0.7108780145645142,-0.0717637091875076,-0.0493705794215202,0.0,0.0,0.4501698017120361,-0.2358561158180236
-0.0995888710021972,0.5611253380775452,-0.0462359338998794,-0.6883162260055542,-0.074073813855648,-0.0462017729878425,0.0,0.0,0.4918086528778076,-0.6327970623970032
-0.1001255065202713,0.5461549162864685,-0.0523107349872589,-0.6654204726219177,-0.0754174888134002,-0.0268733687698841,0.0,0.0,0.5227317810058594,-0.4340014457702636
-0.1005681976675987,0.5311230421066284,-0.0430028364062309,-0.6681511402130127,-0.0766705423593521,-0.0250611640512943,0.0,0.0,0.4656691551208496,0.7366925477981567
-0.1009818091988563,0.5164635181427002,-0.038331352174282,-0.6516915559768677,-0.0796758607029914,-0.0601062700152397,0.0,0.0,0.0278246402740478,-0.8487222790718079
-0.1013250350952148,0.5017135739326477,-0.0328947640955448,-0.655632734298706,-0.0810925066471099,-0.0283327139914035,0.0,0.0,0.4766626358032226,0.1765662431716919
-0.1015811935067176,0.4872133433818817,-0.024188719689846,-0.6445319056510925,-0.0825126692652702,-0.0284031089395284,0.0,0.0,0.3356850147247314,-0.3152704834938049
-0.101782701909542,0.4726300537586212,-0.0186508931219577,-0.6482274532318115,-0.0839954689145088,-0.0296562574803829,0.0,0.0,0.6671195030212402,-0.1945804953575134
-0.1020368561148643,0.4583872556686401,-0.0232475455850362,-0.6331366300582886,-0.0861389860510826,-0.042870458215475,0.0,0.0,0.3941388130187988,-0.3964118957519531
-0.1021889671683311,0.4446547031402588,-0.0130551876500248,-0.6104638576507568,-0.0882725715637207,-0.0426718592643737,0.0,0.0,0.0534766912460327,-0.6857289671897888
-0.1022977828979492,0.4306250214576721,-0.0100982263684272,-0.623584508895874,-0.0890513956546783,-0.0155763151124119,0.0,0.0,0.7817085981369019,-0.5282219052314758
-0.1023133248090744,0.417411595582962,-0.0018552911933511,-0.5872426629066467,-0.0887440145015716,0.0061474447138607,0.0,0.0,0.3203804492950439,0.4194962978363037
-0.1023483276367187,0.4042066931724548,-0.0034158215858042,-0.586891233921051,-0.0888316184282302,-0.001751966192387,0.0,0.0,0.6815028190612793,0.5776015520095825
-0.102354809641838,0.3914742767810821,0.0008944254368543,-0.5659759044647217,-0.0903645753860473,-0.0306590758264064,0.0,0.0,0.772845983505249,-0.5766642689704895
-0.102289579808712,0.3791752457618713,0.0068452581763267,-0.546643853187561,-0.0906836614012718,-0.0063816756010055,0.0,0.0,0.3666319847106933,-0.4950361847877502
-0.1022456139326095,0.3673675060272217,0.0052328356541693,-0.5248425602912903,-0.0915167853236198,-0.016662310808897,0.0,0.0,-0.0432002544403076,0.1893088817596435
-0.1021803840994834,0.3549928665161133,0.0073847784660756,-0.5500356554985046,-0.0923626124858856,-0.016916885972023,0.0,0.0,0.6265178918838501,-0.2221948504447937
-0.1020913124084472,0.3426311016082763,0.0099146869033575,-0.5494750738143921,-0.0933665484189987,-0.0200785603374242,0.0,0.0,0.6753957271575928,-0.5452615022659302
-0.1019203215837478,0.3301847279071808,0.0168172642588615,-0.5531529188156128,-0.0930859148502349,0.0056124697439372,0.0,0.0,0.8202788829803467,-0.1757676005363464
-0.1017283424735069,0.3177349865436554,0.0190638806670904,-0.5533164739608765,-0.0929550603032112,0.0026172802317887,0.0,0.0,0.7375643253326416,-0.2350215315818786
-0.1014471054077148,0.305965393781662,0.0280175767838954,-0.5230837464332581,-0.0928459838032722,0.0021813893690705,0.0,0.0,0.5888814926147461,-0.6647675037384033
-0.1010410338640213,0.2948029637336731,0.0389515347778797,-0.4960051476955414,-0.0912035778164863,0.0328481383621692,0.0,0.0,0.3918887376785278,-0.6731804013252258
-0.1007086783647537,0.2841306328773498,0.0303713083267211,-0.4741551280021667,-0.0883712992072105,0.0566455721855163,0.0,0.0,0.2008031606674194,0.4073925018310547
-0.1004289612174034,0.2732636034488678,0.0255079325288534,-0.4828342795372009,-0.0859336331486702,0.048753447830677,0.0,0.0,0.1385433673858642,0.3226407766342163
-0.1000554114580154,0.2626403570175171,0.0347267426550388,-0.4719958305358886,-0.0833202302455902,0.0522679276764392,0.0,0.0,0.3777961730957031,0.2910194396972656
-0.0997068434953689,0.2521783113479614,0.0325576514005661,-0.4648568332195282,-0.0810441821813583,0.045521080493927,0.0,0.0,0.2416675090789795,0.6618639230728149
-0.0992916077375412,0.2419129461050033,0.0405584424734115,-0.4561875164508819,-0.0800966024398803,0.0189516991376876,0.0,0.0,0.3918596506118774,-0.6148250102996826
-0.0988702774047851,0.2319717556238174,0.0399029999971389,-0.4417099952697754,-0.0778800696134567,0.0443307757377624,0.0,0.0,-0.3122118711471557,-0.4691245555877685
-0.0984307304024696,0.2214637845754623,0.041633877903223,-0.466902881860733,-0.0755921378731727,0.0457589402794837,0.0,0.0,0.5694514513015747,-0.5543502569198608
-0.0979690551757812,0.2108722031116485,0.0426147319376468,-0.470563530921936,-0.0720641165971756,0.0705602914094924,0.0,0.0,0.5830718278884888,-0.0295769572257995
-0.0973735824227333,0.200281411409378,0.0554801896214485,-0.4705095887184143,-0.0680428817868232,0.0804249569773674,0.0,0.0,0.7758357524871826,0.6568479537963867
-0.0964972525835037,0.1900196373462677,0.0843766406178474,-0.4559369087219238,-0.0648304671049118,0.0642485171556472,0.0,0.0,0.3811156749725342,-0.1369292736053466
-0.0954670906066894,0.1796731799840927,0.099133014678955,-0.4596764743328094,-0.0609872713685035,0.0768638402223587,0.0,0.0,0.4791724681854248,-0.7129020094871521
-0.0944416970014572,0.1697780489921569,0.0971239656209945,-0.4395723938941955,-0.0556379929184913,0.106985904276371,0.0,0.0,0.3220084905624389,-0.7091077566146851
-0.0933955162763595,0.1602333933115005,0.0976381748914718,-0.4239659309387207,-0.0487340800464153,0.1380781382322311,0.0,0.0,0.3089815378189087,0.2802947759628296
-0.0922101959586143,0.1509070247411728,0.1109833717346191,-0.4142752885818481,-0.041269451379776,0.1492924839258194,0.0,0.0,0.2652857303619385,0.2067987918853759
-0.0909230262041091,0.1413845419883728,0.1206910461187362,-0.423022449016571,-0.0333395488560199,0.1585980802774429,0.0,0.0,0.6664566993713379,-0.6583346724510193
-0.0897145271301269,0.1320698410272598,0.1115119829773902,-0.4138093590736389,-0.0241198595613241,0.1843936443328857,0.0,0.0,0.864526629447937,0.6343555450439453
-0.0883163437247276,0.1236514151096344,0.1313660442829132,-0.3740397691726684,-0.0157820042222738,0.1667571365833282,0.0,0.0,-0.2297525405883789,-0.7884236574172974
-0.0869703292846679,0.1146684512495994,0.1243843212723732,-0.3991651535034179,-0.0056978901848196,0.201682299375534,0.0,0.0,0.8792036771774292,0.6353058815002441
-0.0857086181640625,0.1064837798476219,0.1175103038549423,-0.3637545704841614,0.0028497448656708,0.1709528863430023,0.0,0.0,0.5338459014892578,0.6966397762298584
-0.0842932686209678,0.0987090915441513,0.133979395031929,-0.3455757200717926,0.0103086503222584,0.1491783112287521,0.0,0.0,0.2684820890426636,-0.0770891308784484
-0.0829139724373817,0.0912316665053367,0.1304439008235931,-0.332399308681488,0.0177028570324182,0.1478841304779052,0.0,0.0,0.126003623008728,-0.5889905095100403
-0.0816426277160644,0.0839550122618675,0.1184285134077072,-0.3235338926315307,0.0262956898659467,0.1718568056821823,0.0,0.0,0.6304867267608643,0.5131237506866455
-0.080359935760498,0.0768482312560081,0.1205415353178978,-0.3160127401351928,0.0339261814951896,0.1526096761226654,0.0,0.0,0.6870768070220947,0.0079046487808227
-0.0792078003287315,0.0700899213552475,0.1079098731279373,-0.3005496859550476,0.0411367304623127,0.1442110538482666,0.0,0.0,0.613817572593689,0.9172494411468506
-0.0781603828072547,0.0635243728756904,0.0993807092308998,-0.2919577360153198,0.0464314557611942,0.1058945804834365,0.0,0.0,0.4379564523696899,0.9241433143615724
-0.0769560784101486,0.0573474280536174,0.1167011708021164,-0.2746528387069702,0.0501234829425811,0.0738405659794807,0.0,0.0,0.277712345123291,0.8142285346984863
-0.075639821588993,0.0510331504046916,0.1293334662914276,-0.2807148098945617,0.0523860193789005,0.0452510230243206,0.0,0.0,0.6802144050598145,0.0822107791900634
-0.0742097869515419,0.0453259795904159,0.1398809999227523,-0.2537629008293152,0.0554668568074703,0.0616168454289436,0.0,0.0,0.5970501899719238,0.9126932621002196
-0.0727679282426834,0.0401871539652347,0.1428077965974807,-0.2284428030252456,0.0568330287933349,0.0273233391344547,0.0,0.0,0.1987643241882324,-0.8972302675247192
-0.071306511759758,0.0354248397052288,0.142768993973732,-0.2117904871702194,0.0601755827665329,0.0668510049581527,0.0,0.0,0.1496492624282837,-0.1043733954429626
-0.0698108673095703,0.0307046510279178,0.1457962691783905,-0.20994234085083,0.0639010965824127,0.0745102018117904,0.0,0.0,0.6561325788497925,-0.9482440948486328
-0.0684459656476974,0.0266447160392999,0.1306835711002349,-0.180698812007904,0.06963861733675,0.1147504299879074,0.0,0.0,0.2906064987182617,0.6745946407318115
-0.0670141205191612,0.022956071421504,0.1385347694158554,-0.1641643196344375,0.0742527320981025,0.0922823101282119,0.0,0.0,0.2260180711746215,-0.411882996559143
-0.065543845295906,0.0192166417837142,0.1419402658939361,-0.166458398103714,0.0792805477976799,0.1005564332008361,0.0,0.0,0.1796092987060547,0.0229840278625488
-0.0641922950744628,0.0155605413019657,0.1303434371948242,-0.162755087018013,0.0840410366654396,0.0952098816633224,0.0,0.0,0.5166906118392944,0.3078266382217407
-0.0629949569702148,0.0120295379310846,0.1153342127799987,-0.1571864336729049,0.088392436504364,0.087028183043003,0.0,0.0,0.45180344581604,0.754335880279541
-0.0618005767464637,0.0086768483743071,0.1164658293128013,-0.1491864025592804,0.0913422554731369,0.0589962713420391,0.0,0.0,0.4723052978515625,0.8770498037338257
-0.0606428161263465,0.0062275980599224,0.1332641392946243,-0.1079442948102951,0.0738235190510749,-0.3506325185298919,0.0,1.0,0.1207815408706665,-0.1714097261428833
-0.0595026016235351,0.0041566467843949,0.1458725780248642,-0.0909561365842819,0.041787464171648,-0.641422688961029,0.0,1.0,0.4744830131530761,-0.7124401330947876
-0.0583370216190815,0.0024217581376433,0.1464038044214248,-0.0765354111790657,0.0123105170205235,-0.5895401835441589,0.0,1.0,0.3281686305999756,-0.8317288160324097
-0.057222556322813,0.0011108017060905,0.1396099776029586,-0.0582679584622383,-0.0154870394617319,-0.5559512972831726,0.0,0.0,-0.2885134220123291,-0.9408246278762816
-0.0560841560363769,-6.929874507477507e-05,0.1211473941802978,-0.0525397770106792,-0.0227101165801286,-0.1444635093212127,1.0,0.0,0.0902836322784423,-0.7737572193145752
