x_pos,y_pos,x_vel,y_vel,angle,ang_vel,leg_1,leg_2,main_booster,lat_booster
-0.0014681816101074,1.4032127857208252,-0.1491064578294754,-0.3425502479076385,0.0020484051201492,0.0404275879263877,0.0,0.0,-0.0557096600532531,0.8417408466339111
-0.0028090476989746,1.3951128721237185,-0.1346007138490677,-0.359992504119873,0.0025604164693504,0.0102418456226587,0.0,0.0,-0.0295042991638183,0.5513818264007568
-0.0040413858368992,1.3865970373153689,-0.1227338910102844,-0.3784826397895813,0.0020723142661154,-0.0097630163654685,0.0,0.0,-0.2055649161338806,0.6705353260040283
-0.0051758764311671,1.3776674270629885,-0.1122198328375816,-0.3968760669231415,0.0008597742998972,-0.02425292506814,0.0,0.0,0.0922677516937255,0.5043308734893799
-0.006122016813606,1.3689743280410769,-0.0929243862628936,-0.3863562643527984,-0.0008071694755926,-0.0333423987030983,0.0,0.0,-0.7505342960357666,-0.2431226968765258
-0.0070130350068211,1.359869360923767,-0.0877756029367446,-0.404661625623703,-0.0021185767836868,-0.0262306369841098,0.0,0.0,0.0137453079223632,-0.4663406610488891
-0.0078623769804835,1.3508843183517456,-0.0839041024446487,-0.3993344008922577,-0.0031340322457253,-0.0203109793365001,0.0,0.0,-0.4657900333404541,-0.0319962501525878
-0.0086571695283055,1.3414874076843262,-0.0788258463144302,-0.417638748884201,-0.0037810611538589,-0.0129418419674038,0.0,0.0,-0.6598423719406128,-0.0268855094909667
-0.0093977926298975,1.3316789865493774,-0.0737873464822769,-0.4359372854232788,-0.0040541808120906,-0.0054630194790661,0.0,0.0,-0.45855712890625,-0.2397655248641967
-0.0100845340639352,1.3214586973190308,-0.0687917619943618,-0.4542364180088043,-0.0039482652209699,0.0021186987869441,0.0,0.0,-0.7787197828292847,-0.7672660946846008
-0.0107698440551757,1.3108274936676023,-0.0703430920839309,-0.4724952280521393,-0.0021555088460445,0.035858679562807,0.0,0.0,-0.7079519629478455,0.1656650304794311
-0.0114022251218557,1.2997846603393557,-0.0654479637742042,-0.4907954335212707,2.4533370378776453e-05,0.0436044707894325,0.0,0.0,-0.8980637192726135,-0.4605907201766968
-0.0119823459535837,1.2883299589157104,-0.0606066472828388,-0.5090957880020142,0.002596576930955,0.0514456555247306,0.0,0.0,-0.8656406402587891,-0.4640114307403564
-0.0125106815248727,1.276463747024536,-0.0558235459029674,-0.5273964405059814,0.0055639501661062,0.0593527145683765,0.0,0.0,-0.6832153797149658,-0.677422821521759
-0.0130286216735839,1.2641925811767578,-0.0562418475747108,-0.5454050898551941,0.0099590811878442,0.0879105478525161,0.0,0.0,-0.8355662822723389,-0.0919638872146606
-0.0134961130097508,1.2515101432800293,-0.0515928491950035,-0.563707172870636,0.014755330979824,0.0959333330392837,0.0,0.0,-0.8095343112945557,-0.1484730839729309
-0.0139136314392089,1.2384164333343506,-0.0470166578888893,-0.5820095539093018,0.0199561193585395,0.1040254607796669,0.0,0.0,-0.8110938668251038,0.3554246425628662
-0.0142821315675973,1.2249112129211426,-0.0425191707909107,-0.6003124117851257,0.0255639292299747,0.1121663004159927,0.0,0.0,-0.9028114080429076,0.1455503702163696
-0.014602375216782,1.210995078086853,-0.0381062738597393,-0.6186161041259766,0.0315811708569526,0.1203555315732956,0.0,0.0,-0.8362147808074951,0.2406479120254516
-0.0148752210661768,1.1966676712036133,-0.0337842293083667,-0.6369203925132751,0.0380101017653942,0.1285900026559829,0.0,0.0,-0.8830307126045227,0.6007848978042603
-0.0150443073362112,1.1819369792938232,-0.0223577860742807,-0.654848039150238,0.04340560734272,0.1079199761152267,0.0,0.0,-0.900048553943634,0.7416863441467285
-0.0151080135256052,1.1667946577072144,-0.0107290344312787,-0.6731230020523071,0.0477154105901718,0.0862038284540176,0.0,0.0,-0.602937638759613,0.4960334300994873
-0.0151274679228663,1.1512411832809448,-0.0067118415609002,-0.6914273500442505,0.052443791180849,0.0945757776498794,0.0,0.0,-0.4556225538253784,0.6489359140396118
-0.0150461196899414,1.1352736949920654,0.0043878150172531,-0.7098009586334229,0.0561526678502559,0.0741841420531272,0.0,0.0,-0.3859472274780273,0.6556488275527954
-0.0148833272978663,1.1189000606536863,0.0131220147013664,-0.7278382778167725,0.0592868253588676,0.0626884847879409,0.0,0.0,-0.7594830989837646,0.197494626045227
-0.0146787641569972,1.1020936965942385,0.0168501492589712,-0.7470940947532654,0.0628451704978942,0.0711670964956283,0.0,0.0,-0.6936289668083191,0.6146464347839355
-0.0143862720578908,1.0848846435546875,0.0264743212610483,-0.7649683356285095,0.0655978545546531,0.055053599178791,0.0,0.0,-0.4791239500045776,0.8111097812652588
-0.0140060428529977,1.0672775506973269,0.0360912084579467,-0.7826204299926758,0.0675126761198043,0.0382963195443153,0.0,0.0,-0.0013539195060729,0.5905947685241699
-0.0135530475527048,1.0492677688598633,0.0438550971448421,-0.8004984259605408,0.0689357370138168,0.028461318463087,0.0,0.0,0.1487365961074829,-0.26804119348526
-0.0131031991913914,1.031352400779724,0.043168269097805,-0.7963158488273621,0.0707236751914024,0.0357588529586792,0.0,0.0,-0.0197279453277587,0.5044572353363037
-0.012579726986587,1.013036012649536,0.0511551722884178,-0.814121425151825,0.0719088315963745,0.0237031672149896,0.0,0.0,0.6294182538986206,0.2157323360443115
-0.0121325496584177,0.9949467778205872,0.0434359088540077,-0.8040331602096558,0.0731752663850784,0.0253285653889179,0.0,0.0,0.5502340793609619,0.091833472251892
-0.011788273230195,0.9775629043579102,0.0330631248652935,-0.7726829051971436,0.0745213329792022,0.0269214566797018,0.0,0.0,-0.2141695022583007,0.7992844581604004
-0.0113598825410008,0.9597668051719666,0.042467288672924,-0.7909536957740784,0.0748860239982605,0.007293744944036,0.0,0.0,0.0402519702911376,0.1149510145187377
-0.0109255788847804,0.9421513080596924,0.0425742715597152,-0.7829514741897583,0.0757397785782814,0.0170752424746751,0.0,0.0,-0.2305736541748047,0.7658953666687012
-0.0104060173034667,0.9241374731063844,0.0522346384823322,-0.8006030321121216,0.075464054942131,-0.0055146175436675,0.0,0.0,0.247584581375122,0.3699010610580444
-0.0099110603332519,0.9062244296073914,0.0494204647839069,-0.7961431741714478,0.0755418837070465,0.0015564325731247,0.0,0.0,0.4163947105407715,0.5865957736968994
-0.0093648908659815,0.8888897895812988,0.0551914349198341,-0.7703943252563477,0.0749742463231086,-0.0113529404625296,0.0,0.0,0.1553965806961059,0.6319931745529175
-0.008827400393784,0.8720346689224243,0.0551926791667938,-0.7490485906600952,0.073549598455429,-0.0284930206835269,0.0,0.0,-0.423715591430664,0.4595444202423095
-0.0082754138857126,0.8547680974006653,0.0561788380146026,-0.767349898815155,0.0725752562284469,-0.0194868948310613,0.0,0.0,-0.0632357001304626,0.5805416107177734
-0.0076738358475267,0.8370994329452515,0.0616414472460746,-0.7852048277854919,0.071100428700447,-0.0294965002685785,0.0,0.0,-0.6892387270927429,0.5534408092498779
-0.0070097921416163,0.8190239071846008,0.068776823580265,-0.8032478094100952,0.0687515065073967,-0.0469785667955875,0.0,0.0,0.4000951051712036,0.7056854963302612
-0.006209373474121,0.8009421229362488,0.0832276493310928,-0.8034867644309998,0.0656085833907127,-0.062858261168003,0.0,0.0,0.2497899532318115,-0.5273469090461731
-0.005389594938606,0.7830507159233093,0.0834529548883438,-0.7951126098632812,0.0641464218497276,-0.0292432252317667,0.0,0.0,0.3829708099365234,0.321952223777771
-0.0046166419051587,0.7651136517524719,0.0784688219428062,-0.7971515655517578,0.0629846155643463,-0.0232363194227218,0.0,0.0,0.4579348564147949,0.7448856830596924
-0.0037573813460767,0.7472089529037476,0.0880514979362487,-0.7956736087799072,0.0608751587569713,-0.0421890392899513,0.0,0.0,0.1977510452270507,0.7291746139526367
-0.0028117180336266,0.7293840646743774,0.0976453870534896,-0.7920982837677002,0.0578329302370548,-0.060844600200653,0.0,0.0,-0.3591154813766479,0.1281085014343261
-0.001869773841463,0.7111479043960571,0.0968068391084671,-0.8103996515274048,0.055252056568861,-0.0516174212098121,0.0,0.0,0.0429881811141967,-0.1375013589859008
-0.0010446548694744,0.6932386159896851,0.0850367397069931,-0.795874834060669,0.0527460686862468,-0.0501199550926685,0.0,0.0,0.2829877138137817,-0.7825400233268738
-0.0003287315485067,0.6755011081695557,0.072105273604393,-0.7883177399635315,0.0522396378219127,-0.0101285772398114,0.0,0.0,0.1592772006988525,0.7939698696136475
0.0005345344543457,0.6579660773277283,0.0878795236349105,-0.7792771458625793,0.0507065095007419,-0.0306624807417392,0.0,0.0,-0.657802939414978,-0.562721848487854
0.0013370513916015,0.6400198340415955,0.0800922363996505,-0.7976178526878357,0.0508642047643661,0.0031536687165498,0.0,0.0,0.2925379276275635,0.8640018701553345
0.002274417784065,0.6221911311149597,0.0947563201189041,-0.7923545837402344,0.0498522333800792,-0.0202393233776092,0.0,0.0,0.427208662033081,-0.9236200451850892
0.0030916214454919,0.6049865484237671,0.0804168134927749,-0.7646887302398682,0.0511451624333858,0.0258583836257457,0.0,0.0,-0.731268048286438,0.8903375864028931
0.0039793970063328,0.5873740315437317,0.0892359986901283,-0.7827621698379517,0.0506945587694644,-0.0090122241526842,0.0,0.0,-0.2766073942184448,-0.2223804593086242
0.0048481943085789,0.5693502426147461,0.0868631452322006,-0.8010624647140503,0.0507100224494934,0.0003092463011853,0.0,0.0,0.3563822507858276,-0.5656059980392456
0.0057024001143872,0.5519033670425415,0.0836139544844627,-0.7754781246185303,0.0524973236024379,0.0357458852231502,0.0,0.0,-0.4237102270126343,0.4092845916748047
0.0065344809554517,0.5340452194213867,0.0809310525655746,-0.793778657913208,0.0547504611313343,0.0450627021491527,0.0,0.0,0.1921731233596801,0.3982930183410644
0.0073643685318529,0.5166699886322021,0.0799868926405906,-0.7723437547683716,0.057718425989151,0.0593593120574951,0.0,0.0,0.506397008895874,0.5994157791137695
0.0080998418852686,0.499959260225296,0.0714569091796875,-0.742781937122345,0.0597867704927921,0.0413669422268867,0.0,0.0,0.1929234266281128,0.1434180736541748
0.0088300704956054,0.4832409620285034,0.0702863708138465,-0.7431488633155823,0.0624902881681919,0.0540703646838665,0.0,0.0,0.1229467391967773,0.3243577480316162
0.0094349859282374,0.4668187499046325,0.0576151497662067,-0.729998767375946,0.0653417706489563,0.0570294559001922,0.0,0.0,-0.3035699725151062,0.7958719730377197
0.0100872041657567,0.4499907195568084,0.063801422715187,-0.7479747533798218,0.0667464882135391,0.0280941072851419,0.0,0.0,0.7047058343887329,0.489882230758667
0.0106918336823582,0.4337004125118255,0.0584644190967083,-0.7241031527519226,0.0687244534492492,0.0395592674612998,0.0,0.0,0.5173110961914062,0.6302547454833984
0.0112982746213674,0.4175510704517364,0.0594325549900531,-0.7178049087524414,0.0699248611927032,0.0240081660449504,0.0,0.0,0.8355776071548462,0.3243348598480224
0.01168994884938,0.4019585847854614,0.0381410680711269,-0.6930472254753113,0.0709464401006698,0.0204314738512039,0.0,0.0,0.4469063282012939,0.4588249921798706
0.0120147708803415,0.3870782554149627,0.0309012345969676,-0.6614227294921875,0.0725103393197059,0.0312778949737548,0.0,0.0,0.187307596206665,0.8633458614349365
0.0124277118593454,0.3721056580543518,0.0409532040357589,-0.6654646992683411,0.0728493705391883,0.0067806616425514,0.0,0.0,0.7481598854064941,0.607046365737915
0.0128189083188772,0.3580887913703918,0.0394720956683158,-0.6229560375213623,0.0725061669945716,-0.0068642548285424,0.0,0.0,0.2062717676162719,0.5515103340148926
0.0131185529753565,0.3441717624664306,0.0311093628406524,-0.6184766292572021,0.0713667050004005,-0.0227892361581325,0.0,0.0,0.0371537208557128,0.6697686910629272
0.0133393285796046,0.3304809927940368,0.0241933576762676,-0.6083806753158569,0.0692739337682724,-0.0418552197515964,0.0,0.0,0.6001780033111572,0.4465532302856445
0.0135118486359715,0.3172840178012848,0.0187789853662252,-0.5864618420600891,0.0677598491311073,-0.0302815251052379,0.0,0.0,0.2559801340103149,0.5349315404891968
0.0135390283539891,0.304636001586914,0.0051257899031043,-0.5620264410972595,0.0653910487890243,-0.0473760403692722,0.0,0.0,-0.196849524974823,0.6399521827697754
0.0135855674743652,0.2915823757648468,0.0080527570098638,-0.5800168514251709,0.0620255582034587,-0.0673098713159561,0.0,0.0,0.7166695594787598,0.1764910221099853
0.0135338781401515,0.2787226438522339,-0.0020346795208752,-0.5714170932769775,0.0589261390268802,-0.0619883425533771,0.0,0.0,0.7902662754058838,0.7112468481063843
0.0135592464357614,0.2659837305545807,0.0064967260695993,-0.5660255551338196,0.0550167560577392,-0.0781876593828201,0.0,0.0,0.8729503154754639,-0.1949910521507263
0.01348876953125,0.2534069716930389,-0.0033512995578348,-0.5588380098342896,0.0513592176139354,-0.0731507390737533,0.0,0.0,0.7926435470581055,0.145930528640747
0.0133256912231445,0.2417074590921402,-0.0129932407289743,-0.5198675990104675,0.0480712279677391,-0.0657597854733467,0.0,0.0,0.5902869701385498,0.1654529571533203
0.0131617542356252,0.2307786345481872,-0.0138261243700981,-0.4856446385383606,0.0455447807908058,-0.0505289323627948,0.0,0.0,0.9226940870285034,-0.0144620537757873
0.0127839092165231,0.2208548188209533,-0.0350171774625778,-0.4409762322902679,0.0428123883903026,-0.0546482317149639,0.0,0.0,-0.0521761775016784,0.14223313331604
0.0123655321076512,0.2105195820331573,-0.0394747406244277,-0.4592765867710113,0.0404707081615924,-0.046833612024784,0.0,0.0,0.7146598100662231,0.3768346309661865
0.011914825066924,0.2010051757097244,-0.0432874225080013,-0.422819435596466,0.0387053191661834,-0.0353078469634056,0.0,0.0,0.3235424757003784,0.6453952789306641
0.0113662723451852,0.1917679458856582,-0.0519812330603599,-0.4104701578617096,0.0358705297112464,-0.0566960200667381,0.0,0.0,0.1452860832214355,0.5843997001647949
0.0107633592560887,0.1828263849020004,-0.0565458759665489,-0.3973167538642883,0.0321676395833492,-0.0740577280521392,0.0,0.0,0.1581237316131591,0.3225529193878174
0.0100943567231297,0.1742079108953476,-0.0634643957018852,-0.3829726278781891,0.0287808626890182,-0.0677356719970703,0.0,0.0,0.1821463108062744,0.4752123355865478
0.0094337463378906,0.1658048778772354,-0.0632768794894218,-0.3734171092510223,0.0260270945727825,-0.0550754889845848,0.0,0.0,-0.1905746459960937,0.1140758991241455
0.0087306024506688,0.1569904237985611,-0.0678504705429077,-0.3917168080806732,0.023606602102518,-0.0484101809561252,0.0,0.0,-0.1233771443367004,0.7702109813690186
0.0080554960295557,0.1477612555027008,-0.0636024996638298,-0.4101279973983764,0.0197402127087116,-0.0773276090621948,0.0,0.0,0.3541686534881592,0.5657702684402466
0.0075045586563646,0.1388277113437652,-0.0506366714835166,-0.3969937860965729,0.015340550802648,-0.0879933163523674,0.0,0.0,0.192530870437622,-0.2861964702606201
0.0070068361237645,0.1299120485782623,-0.0460825115442276,-0.3962197601795196,0.0117022069171071,-0.0727666765451431,0.0,0.0,0.3850127458572387,-0.2214548587799072
0.0064538954757153,0.1215294003486633,-0.051874540746212,-0.3725393116474151,0.0083239423111081,-0.0675652250647544,0.0,0.0,0.1934708356857299,-0.2650543451309204
0.0058753965422511,0.113557368516922,-0.0548051483929157,-0.3542973101139068,0.0053167417645454,-0.060144055634737,0.0,0.0,0.487332820892334,-0.1593331694602966
0.0053622247651219,0.1060754358768463,-0.0490433536469936,-0.3325239419937134,0.0030808560550212,-0.0447179302573204,0.0,0.0,-0.0916392803192138,-0.2726173400878906
0.0048054694198071,0.0981819480657577,-0.0536490008234977,-0.3508227467536926,0.0010820736642926,-0.0399755164980888,0.0,0.0,0.5796656608581543,0.5486184358596802
0.0041938782669603,0.0906055271625518,-0.058118563145399,-0.3367309272289276,-0.0019239397952333,-0.0601203851401805,0.0,0.0,0.2620836496353149,0.2922557592391968
0.0036043166182935,0.0836059674620628,-0.0564238838851451,-0.3110986053943634,-0.0044265841133892,-0.0500528141856193,0.0,0.0,0.4429731369018554,0.7197439670562744
0.0030073164962232,0.0769399255514144,-0.0558628141880035,-0.2962846159934997,-0.0082121109589934,-0.0757107585668563,0.0,0.0,0.1257702112197876,-0.444121241569519
0.0022858618758618,0.0706764310598373,-0.0680781453847885,-0.2784035503864288,-0.0122202616184949,-0.0801630467176437,0.0,0.0,0.3380270004272461,0.416344404220581
0.0015976906288415,0.0648478865623474,-0.0652367994189262,-0.2590824961662292,-0.0157505292445421,-0.0706056356430053,0.0,0.0,0.0496172904968261,-0.0551807284355163
0.0008388519054278,0.0593233928084373,-0.0722826868295669,-0.2455746531486511,-0.0193045176565647,-0.0710796937346458,0.0,0.0,0.167410135269165,0.6327179670333862
3.0803679692326114e-05,0.0541859231889247,-0.0759479627013206,-0.2284030467271804,-0.024098852649331,-0.0958867892622947,0.0,0.0,-0.3718841075897217,-0.1843335628509521
-0.0008214950794354,0.0486370436847209,-0.0804735496640205,-0.2467030882835388,-0.0287964139133691,-0.0939512550830841,0.0,0.0,0.2917391061782837,0.3196200132369995
-0.0017956733936443,0.0433856360614299,-0.0923157632350921,-0.2335016578435897,-0.033837791532278,-0.100827433168888,0.0,0.0,0.3969478607177734,0.7742106914520264
-0.0028803825844079,0.0383892878890037,-0.1016637682914733,-0.2222291976213455,-0.0405636392533779,-0.1345168501138687,0.0,0.0,0.1377098560333252,0.7541940212249756
-0.0038460730575025,0.0337193831801414,-0.0883620828390121,-0.2077956050634384,-0.048674751073122,-0.162222221493721,0.0,0.0,0.2075276374816894,0.4422898292541504
-0.0047980309464037,0.029039392247796,-0.0872211158275604,-0.2082805633544922,-0.0565557889640331,-0.1576208472251892,0.0,0.0,0.1629062891006469,0.5186636447906494
-0.0056106569245457,0.024743853136897,-0.0724866911768913,-0.1912696361541748,-0.065240204334259,-0.1736886352300644,0.0,0.0,0.054654836654663,-0.0110796689987182
-0.0064496039412915,0.0207804776728153,-0.0750312879681587,-0.176558718085289,-0.0740056410431861,-0.1753090471029281,0.0,0.0,0.0511040687561035,-0.3050553798675537
-0.0072016716003417,0.0172096341848373,-0.0667377039790153,-0.159146562218666,-0.0823822617530822,-0.1675320863723755,0.0,0.0,-0.3237517476081848,0.13862144947052
-0.007997321896255,0.0132280923426151,-0.071062333881855,-0.177451029419899,-0.0908071473240852,-0.1684978306293487,0.0,0.0,0.1223185062408447,-0.4011349678039551
-0.0087910648435354,0.0096649387851357,-0.0707862898707389,-0.1589037775993347,-0.0993198528885841,-0.1702542752027511,0.0,0.0,0.3474476337432861,-0.1236834526062011
-0.0094293598085641,0.0073992228135466,-0.0743427723646164,-0.1000619158148765,-0.0887985005974769,0.2105458080768585,1.0,0.0,0.2183126211166381,0.7297435998916626
-0.0098177911713719,0.005822226870805,-0.0639197081327438,-0.068950280547142,-0.06349927932024,0.5066211223602295,1.0,0.0,0.00421142578125,0.3689813613891601
-0.0101984022185206,0.0047244881279766,-0.0719023719429969,-0.0477009490132331,-0.0300138350576162,0.6697556972503662,1.0,0.0,0.0762794017791748,0.9475986957550048
-0.010621165856719,0.0036880469415336,-0.0726527497172355,-0.0457286238670349,-3.0505356335197572e-05,0.5996667146682739,1.0,0.0,0.0315282344818115,0.9919651746749878
-0.0109816547483205,0.0027783846016973,-0.0644326582551002,-0.0406657420098781,0.0279878601431846,0.5603681802749634,0.0,0.0,-0.866591215133667,0.9824934005737304
-0.01139497756958,0.0021703816018998,-0.0485207960009574,-0.027172653004527,0.0350899882614612,0.1420412063598632,0.0,1.0,-0.9019904732704164,0.8358814716339111
-0.0118364337831735,0.0017769909463822,-0.0316179543733596,-0.017235504463315,0.0227155406028032,-0.2474910765886306,0.0,1.0,-0.076495885848999,0.1783826351165771
-0.0122676845639944,0.0009577369783073,-0.0312175545841455,-0.0362727008759975,0.0109600024297833,-0.2351106852293014,0.0,1.0,-0.1601136922836303,0.1773910522460937
-0.0126988412812352,-0.0002713942667469,-0.0312173925340175,-0.0545827485620975,-0.0007954215980134,-0.2351084500551223,0.0,0.0,-0.5131699442863464,0.4243090152740478
-0.0130585674196481,-0.0012336277868598,-0.0427618324756622,-0.0428477190434932,0.0061401296406984,0.1389897763729095,1.0,0.0,0.2846760749816894,0.5445754528045654
