x_pos,y_pos,x_vel,y_vel,angle,ang_vel,leg_1,leg_2,main_booster,lat_booster
-0.001471996307373,1.4033050537109375,-0.1494154632091522,-0.3384515643119812,0.0019904165528714,0.0392794795334339,0.0,0.0,-0.0792810765650298,-0.5870763654302649
-0.0029341697227209,1.395390510559082,-0.1494935154914856,-0.3517591059207916,0.0052322801202535,0.0648439079523086,0.0,0.0,0.692355213129251,0.7834980546535438
-0.0041342736221849,1.3877729177474976,-0.1222746521234512,-0.3385704755783081,0.0074660582467913,0.0446799099445343,0.0,0.0,0.6928849800098833,0.6108301495016804
-0.0053695677779614,1.3806004524230957,-0.1244337558746337,-0.3187721967697143,0.0083606075495481,0.0178926475346088,0.0,0.0,0.298579686146158,-0.9546925229697016
-0.0065146447159349,1.3738811016082764,-0.1176034063100814,-0.2986626923084259,0.0114295035600662,0.0613833479583263,0.0,0.0,-0.7798597653857153,-0.7227432544666479
-0.0076514245010912,1.366840362548828,-0.1180883422493934,-0.3129560351371765,0.0157910175621509,0.0872382223606109,0.0,0.0,-0.8298579722305719,-0.931615037862447
-0.0088121416047215,1.3594789505004885,-0.1225943192839622,-0.3272558450698852,0.0222400538623332,0.1289925873279571,0.0,0.0,-0.6352887163292056,-0.9116331158506394
-0.0099748615175485,1.351799726486206,-0.1243322491645813,-0.3414426445960998,0.0302056223154068,0.1593262553215026,0.0,0.0,0.45251009837563,0.7830332462446259
-0.0110583305358886,1.344915509223938,-0.1149571985006332,-0.3061131238937378,0.0367423892021179,0.1307476907968521,0.0,0.0,0.4167305025866099,0.9478179326581768
-0.0120390895754098,1.338655710220337,-0.1029156669974327,-0.2783385813236236,0.0415272861719131,0.0957067683339119,0.0,0.0,0.8801017478782753,0.5460519801841652
-0.012848949059844,1.3331000804901123,-0.0851547569036483,-0.247037872672081,0.0456511005759239,0.0824834555387497,0.0,0.0,-0.5655333443004924,-0.8798485198034954
-0.0136681552976369,1.3272192478179932,-0.0877396091818809,-0.2615595757961273,0.0514083728194236,0.1151559725403785,0.0,0.0,-0.000157708152833,0.7732290647523385
-0.0143620492890477,1.3210289478302002,-0.0733816772699356,-0.2752657830715179,0.0553736537694931,0.0793126821517944,0.0,0.0,0.4980667573926545,-0.5576890597480585
-0.0149982450529932,1.3149985074996948,-0.0689724907279014,-0.2682240903377533,0.060673039406538,0.1059975400567054,0.0,0.0,-0.1261772192981991,0.7095354356383492
-0.0155145647004246,1.3086625337600708,-0.0552552565932273,-0.2817557752132416,0.0642685815691948,0.0719171538949012,0.0,0.0,-0.0599268877711316,0.9336689442671272
-0.0158920288085937,1.3020044565200806,-0.0391990356147289,-0.2959752380847931,0.0656938105821609,0.0285073164850473,0.0,0.0,-0.9980249287697668,0.8888382966114592
-0.0161330215632915,1.2950457334518433,-0.0233340822160244,-0.3092436790466308,0.0649453401565551,-0.0149707002565264,0.0,0.0,-0.7585344018014906,0.7697993847632212
-0.0162474624812603,1.2877683639526367,-0.0087688853964209,-0.3233273923397064,0.0622850507497787,-0.0532106049358844,0.0,0.0,0.9721707903596456,-0.9293454775017418
-0.0163167957216501,1.2816197872161863,-0.0063134036026895,-0.2732428610324859,0.0616715252399444,-0.0122715402394533,0.0,0.0,0.0789973340453558,0.7087389474990771
-0.016362477093935,1.2757041454315186,-0.002389770001173,-0.2628308236598968,0.059524767100811,-0.0429390743374824,0.0,0.0,-0.266057947836396,0.5188656327360421
-0.0163079258054494,1.269477128982544,0.0089610116556286,-0.2766155302524566,0.0560414940118789,-0.0696716457605362,0.0,0.0,-0.92296442518163,0.9556033298504272
-0.0161259658634662,1.262932062149048,0.0237760171294212,-0.2906940281391144,0.0505134724080562,-0.1105704084038734,0.0,0.0,-0.8601951414998743,0.5903300379593681
-0.0158370975404977,1.2560714483261108,0.0360443703830242,-0.3046935498714447,0.0434283129870891,-0.141715720295906,0.0,0.0,-0.4560910004710767,0.760349048861775
-0.0154309272766113,1.2488878965377808,0.0496428273618221,-0.319029688835144,0.034503947943449,-0.1785036623477935,0.0,0.0,-0.1389284556038257,-0.9457368862130502
-0.0150673864409327,1.2413835525512695,0.0432095974683761,-0.3333874046802521,0.0277286488562822,-0.1355178356170654,0.0,0.0,-0.2312144310958226,-0.5981014966603133
-0.0147128105163574,1.2335392236709597,0.0410310700535774,-0.348540723323822,0.0222305450588464,-0.1099621430039405,0.0,0.0,-0.1094530936827558,-0.9388588973595284
-0.0143829341977834,1.2253791093826294,0.0369020402431488,-0.3626190721988678,0.0183653477579355,-0.0773043036460876,0.0,0.0,-0.0066476756813076,0.6033561298181126
-0.0139669422060251,1.2169069051742554,0.0467233285307884,-0.3764834403991699,0.0133159477263689,-0.1009881645441055,0.0,0.0,-0.2085858374978746,0.8284095458154517
-0.0134508134797215,1.2081235647201538,0.0582963339984416,-0.3903233110904693,0.0067093749530613,-0.1321315467357635,0.0,0.0,0.3046720064427151,-0.6309583245742398
-0.0129571910947561,1.199595928192139,0.0551090165972709,-0.3789994120597839,0.0010361680760979,-0.1134642735123634,0.0,0.0,-0.5775775933103293,0.6262704036901098
-0.0123642925173044,1.1907563209533691,0.0666493922472,-0.3928830325603485,-0.0062313075177371,-0.1453492045402526,0.0,0.0,-0.8712869882583618,-0.9838197827339172
-0.0118114473298192,1.1815929412841797,0.0607405826449394,-0.4072963893413543,-0.0116214100271463,-0.1078021377325058,0.0,0.0,-0.942641258239746,-0.9481433033943176
-0.0112963672727346,1.1721205711364746,0.0551612861454486,-0.4210199117660522,-0.015219947323203,-0.0719707161188125,0.0,0.0,-0.6753262281417847,-0.9147027730941772
-0.0108139989897608,1.1623226404190063,0.0502216331660747,-0.4354882538318634,-0.0171808563172817,-0.0392182394862175,0.0,0.0,-0.6448097825050354,-0.6632031202316284
-0.0103356363251805,1.152207851409912,0.0489205047488212,-0.4495536983013153,-0.018252208828926,-0.0214269869029521,0.0,0.0,-0.8614903688430786,-0.6718285083770752
-0.0098620411008596,1.1417803764343262,0.0475530326366424,-0.4634513556957245,-0.0184411220252513,-0.0037783668376505,0.0,0.0,-0.9634008407592772,-0.6105812788009644
-0.0093923565000295,1.1310316324234009,0.0463078916072845,-0.4777125120162964,-0.0177959688007831,0.0129032135009765,0.0,0.0,-0.9333529472351074,-0.1992056369781494
-0.0088766096159815,1.1199634075164795,0.0513808503746986,-0.4919125139713287,-0.0176024157553911,0.0038711514789611,0.0,0.0,-0.7918434739112854,-0.4504934549331665
-0.0083149913698434,1.1085760593414309,0.0564409606158733,-0.5061125755310059,-0.0178786199539899,-0.0055241035297513,0.0,0.0,-0.9016238451004028,-0.8625956177711487
-0.0077729225158691,1.0968719720840454,0.0533264353871345,-0.5201666355133057,-0.0170071981847286,0.0174286197870969,0.0,0.0,-0.8680396676063538,-0.3088833093643188
-0.0071856500580906,1.0848485231399536,0.0583562478423118,-0.53436678647995,-0.016640055924654,0.0073428489267826,0.0,0.0,-0.9167141914367676,-0.4371391534805298
-0.0065534589812159,1.0725059509277344,0.0633683800697326,-0.5485668778419495,-0.016793442890048,-0.0030675667803734,0.0,0.0,-0.9483397006988524,-0.7996051907539368
-0.0059300423599779,1.0598363876342771,0.0616934821009635,-0.5630853176116943,-0.0161499306559562,0.0128703285008668,0.0,0.0,-0.9500688314437866,-0.5515694618225098
-0.0052988054230809,1.0468471050262451,0.0620902106165885,-0.577286422252655,-0.0151415858417749,0.0201668534427881,0.0,0.0,-0.9311644434928894,-0.5002222657203674
-0.0046663284301757,1.0335336923599243,0.0617300271987915,-0.5916966199874878,-0.0136371105909347,0.0300897620618343,0.0,0.0,-0.903493344783783,-0.1353996992111206
-0.0039903642609715,1.0199007987976074,0.0666512176394462,-0.6058967709541321,-0.0127116842195391,0.0185085777193307,0.0,0.0,-0.9678759574890136,-0.8234495520591736
-0.0033302307128906,1.0059452056884766,0.0641926676034927,-0.6202347278594971,-0.0109069040045142,0.0360954739153385,0.0,0.0,-0.980054259300232,-0.3093994855880737
-0.0026274682022631,0.991670310497284,0.0690539330244064,-0.6344349384307861,-0.0097065009176731,0.0240080580115318,0.0,0.0,-0.9807308316230774,-0.738743007183075
-0.0019540786743164,0.9770835638046264,0.0649344995617866,-0.6482872366905212,-0.0073293028399348,0.0475441440939903,0.0,0.0,-0.8922044634819031,-0.0533298254013061
-0.0012391090858727,0.9621773362159728,0.0697241052985191,-0.6624873876571655,-0.0055792001076042,0.0350019186735153,0.0,0.0,-0.9813556671142578,-0.6745771765708923
-0.0005237579462118,0.946951985359192,0.0693704634904861,-0.6766764521598816,-0.0034448115620762,0.0426879413425922,0.0,0.0,-0.9355446100234984,-0.4303354024887085
0.000232028964092,0.9314073324203492,0.074074849486351,-0.6908762454986572,-0.0019577937200665,0.0297402702271938,0.0,0.0,-0.9641385078430176,-0.7093467712402344
0.0009818077087402,0.9155393838882446,0.0729657486081123,-0.7052438855171204,2.7012411010218784e-05,0.0396962352097034,0.0,0.0,-0.972539722919464,-0.846036970615387
0.0017043113475665,0.8993597030639648,0.0692134946584701,-0.7190967798233032,0.0030198758468031,0.0598572120070457,0.0,0.0,-0.9508156180381776,-0.1238030791282653
0.002465343568474,0.8828606009483337,0.0737599581480026,-0.7332966923713684,0.0053393021225929,0.0463884882628917,0.0,0.0,-0.8143050074577332,0.1795940399169922
0.0032644271850585,0.8660420775413513,0.078244611620903,-0.7474961876869202,0.0069776950404047,0.0327678695321083,0.0,0.0,-0.6166217923164368,-0.6451942920684814
0.0040575983002781,0.8489095568656921,0.0772537589073181,-0.7614566683769226,0.0090104639530181,0.0406554862856864,0.0,0.0,-0.9008706212043762,0.1959528923034668
0.0048871040344238,0.8314574956893921,0.0815991312265396,-0.7756558656692505,0.010348548181355,0.0267616808414459,0.0,0.0,-0.8711631894111633,-0.7296158075332642
0.0057016373611986,0.8136926889419556,0.0795161351561546,-0.7895644903182983,0.0122563615441322,0.0381563380360603,0.0,0.0,-0.5134741067886353,0.642310380935669
0.0065951347351074,0.7956146001815796,0.0892657786607742,-0.803468644618988,0.0123416809365153,0.0017062472179532,0.0,0.0,-0.8751308917999268,-0.5016763210296631
0.0074860574677586,0.7772119045257568,0.0888044536113739,,0.0126283410936594,0.0057334913872182,0.0,0.0,-0.8547565937042236,-0.4134166836738586
0.0084097860381007,0.7584896683692932,0.0927998051047325,-0.8320968151092529,0.0121985897421836,-0.0085948836058378,0.0,0.0,-0.567354142665863,-0.6057453155517578
0.0093269348144531,0.7394453883171082,0.0919115990400314,-0.8464022874832153,0.012005609460175,-0.0038594522047787,0.0,0.0,-0.1971660256385803,-0.810757040977478
0.0102128982543945,0.7200818657875061,0.0879558324813842,-0.860609233379364,0.0126369250938296,0.0126265715807676,0.0,0.0,0.0317853689193725,-0.5365862846374512
0.0110878944396972,0.7007695436477661,0.0865116864442825,-0.8583368062973022,0.0136158112436532,0.0195777136832475,0.0,0.0,0.4305226802825928,-0.6414810419082642
0.0118155479431152,0.6819021105766296,0.0714568793773651,-0.8385685086250305,0.0149050410836935,0.0257846359163522,0.0,0.0,-0.4276195764541626,-0.3633346557617187
0.0125697134062647,0.6627147793769836,0.0748566538095474,-0.8527669906616211,0.01545977499336,0.0110945254564285,0.0,0.0,0.302310585975647,-0.745123565196991
0.0133593557402491,0.6435453295707703,0.0775448307394981,-0.8519967794418335,0.0168570093810558,0.0279445834457874,0.0,0.0,0.4352388381958008,-0.7399497032165527
0.0141274454072117,0.6251761317253113,0.0746165215969085,-0.8164348006248474,0.0190283730626106,0.0434271618723869,0.0,0.0,0.0274009704589843,-0.2203560471534729
0.0148534774780273,0.606927216053009,0.0714293867349624,-0.8110834360122681,0.0201877169311046,0.0231870524585247,0.0,0.0,0.0847426652908325,-0.7506423592567444
0.0154621126130223,0.5890244841575623,0.0589788556098938,-0.7957028150558472,0.0220454055815935,0.0371536426246166,0.0,0.0,0.0732132196426391,-0.4166245460510254
0.0161003116518259,0.5714090466499329,0.0626028329133987,-0.782927930355072,0.0232512429356575,0.0241163820028305,0.0,0.0,-0.3413363099098205,-0.3781827688217163
0.0167552940547466,0.5534738302230835,0.0650316327810287,-0.7971259355545044,0.0237116776406765,0.0092087145894765,0.0,0.0,0.058978796005249,-0.6828926801681519
0.0174160003662109,0.5357740521430969,0.0649327263236045,-0.7866775393486023,0.0248361155390739,0.0224887914955616,0.0,0.0,0.6144671440124512,-0.5753882527351379
0.0179991722106933,0.5183200836181641,0.0568687133491039,-0.7757566571235657,0.0262700803577899,0.028679434210062,0.0,0.0,0.621152400970459,-0.7326604723930359
0.0186003688722848,0.5010175704956055,0.0577993802726268,-0.7690430283546448,0.0285587944090366,0.0457744039595127,0.0,0.0,-0.0809884071350097,-0.2330008745193481
0.0192104335874319,0.483395367860794,0.0594415850937366,-0.7832410931587219,0.0301001202315092,0.0308264680206775,0.0,0.0,0.6893539428710938,-0.5122140049934387
0.0197531692683696,0.4666717648506164,0.0524574890732765,-0.7433065176010132,0.0318868607282638,0.0357348658144474,0.0,0.0,0.2804362773895263,-0.2436100840568542
0.0203423500061035,0.4505793750286102,0.0575730726122856,-0.715250551700592,0.0332134142518043,0.0265308823436498,0.0,0.0,-0.0017797946929931,-0.4726449251174927
0.0209339149296283,0.4341671168804168,0.0585767328739166,-0.7294479012489319,0.0337932668626308,0.0115971136838197,0.0,0.0,0.4826588630676269,-0.7944563031196594
0.0213235858827829,0.4178627133369446,0.0377386286854743,-0.7246691584587097,0.035010676831007,0.0243479721248149,0.0,0.0,0.6319582462310791,-0.2509695291519165
0.0217239372432231,0.4024111032485962,0.0393708907067775,-0.6867533922195435,0.0356670133769512,0.0131268557161092,0.0,0.0,0.6402449607849121,-0.231774091720581
0.0219993591308593,0.3874907493591308,0.0281011648476123,-0.6631115674972534,0.035113550722599,-0.0110690891742706,0.0,0.0,0.4363367557525635,-0.733997106552124
0.022136878222227,0.3731312751770019,0.0136711914092302,-0.6382027864456177,0.0351887382566928,0.0015039696590974,0.0,0.0,0.7522581815719604,-0.3759645223617553
0.0222271922975778,0.3595630824565887,0.009770093485713,-0.6030157208442688,0.0344630554318428,-0.0145137039944529,0.0,0.0,-0.1407312154769897,-0.5658190250396729
0.0222688671201467,0.3456730842590332,0.0046686343848705,-0.6173187494277954,0.0339590236544609,-0.0100803961977362,0.0,0.0,0.3391398191452026,-0.1350432634353637
0.0223075859248638,0.3318803310394287,0.0050480784848332,-0.6129881739616394,0.032804537564516,-0.0230902004987001,0.0,0.0,0.7110611200332642,-0.6023757457733154
0.022373866289854,0.3183912336826324,0.007071194704622,-0.5995065569877625,0.0323707647621631,-0.0086753936484456,0.0,0.0,0.4000763893127441,-0.7318940162658691
0.022488784044981,0.3053115010261535,0.0109793301671743,-0.5813300013542175,0.0328777804970741,0.0101401451975107,0.0,0.0,-0.3670775890350342,-0.2878355979919433
0.0225852020084857,0.2919120490550995,0.009867088869214,-0.5955272912979126,0.0326505899429321,-0.0045437132939696,0.0,0.0,0.414020299911499,0.0853891372680664
0.0226353649049997,0.2791564464569092,0.0060061095282435,-0.5668915510177612,0.0316687002778053,-0.0196377765387296,0.0,0.0,0.2250139713287353,-0.5153614282608032
0.0226295478641986,0.2669275999069214,6.761866097804159e-05,-0.5434941053390503,0.0310346968472003,-0.012680135667324,0.0,0.0,0.671222448348999,-0.6390877366065979
0.0226647369563579,0.2553969621658325,0.0032803625799715,-0.5124773383140564,0.031263418495655,0.0045744650997221,0.0,0.0,-0.23977792263031,-0.1790966391563415
0.0226741787046194,0.2435465157032013,0.0014489939203485,-0.5266748070716858,0.0307665690779685,-0.009937047958374,0.0,0.0,0.3925919532775879,-0.2769646644592285
0.0225988384336233,0.2320178896188736,-0.0060833930037915,-0.5123564004898071,0.0293417293578386,-0.0284969694912433,0.0,0.0,0.7013640403747559,-0.2880488634109497
0.0225558280944824,0.2215054780244827,-0.0025320176500827,-0.4671843647956848,0.0275995433330535,-0.0348438844084739,0.0,0.0,0.4861271381378174,-0.5158367156982422
0.0224052425473928,0.2114382535219192,-0.013555958867073,-0.4474081397056579,0.0261082891374826,-0.0298248827457427,0.0,0.0,0.4563207626342773,-0.3819330930709839
0.0220950134098529,0.2020985186100006,-0.0282729174941778,-0.4150557816028595,0.0233949199318885,-0.0542673654854297,0.0,0.0,-0.0091804265975952,-0.7487891316413879
0.0217011459171772,0.1924410611391067,-0.0372077487409114,-0.4291857481002807,0.0212436225265264,-0.0430261977016925,0.0,0.0,0.4196289777755737,0.1762864589691162
0.021213436499238,0.1834294945001602,-0.0456554479897022,-0.4004769623279571,0.0181713216006755,-0.0614458099007606,0.0,0.0,0.1835324764251709,0.1534391641616821
0.0206214897334575,0.1749012023210525,-0.0550921969115734,-0.3789896368980407,0.014120252802968,-0.0810212641954422,0.0,0.0,0.0677036046981811,-0.6514155268669128
0.0199189186096191,0.166532501578331,-0.0667385086417198,-0.3719114065170288,0.0106430444866418,-0.0695443004369735,0.0,0.0,0.2275416851043701,-0.8579233288764954
0.0190064422786235,0.1585127711296081,-0.0886773020029068,-0.3564158082008362,0.0081045972183346,-0.0507689714431762,0.0,0.0,-0.6404487490653992,0.5980799198150635
0.0180911067873239,0.1501727402210235,-0.0873558670282363,-0.3706510365009308,0.0039816871285438,-0.0824583619832992,0.0,0.0,-0.4190868139266968,-0.2871274948120117
0.0171365737915039,0.1415134966373443,-0.0905833914875984,-0.3848515450954437,-0.0008289134129881,-0.0962118878960609,0.0,0.0,-0.3519009351730346,-0.4081917405128479
0.0161418914794921,0.1325351148843765,-0.093898631632328,-0.3990528285503387,-0.0063221836462616,-0.1098652929067611,0.0,0.0,-0.0833544731140136,-0.1784805655479431
0.0151064870879054,0.1232377141714096,-0.0972960442304611,-0.4132550358772278,-0.0124927414581179,-0.1234112232923507,0.0,0.0,0.4689518213272095,-0.0134661793708801
0.014017772860825,0.1146568655967712,-0.101844809949398,-0.3814469873905182,-0.0194289665669202,-0.1387245208024978,0.0,0.0,0.3306156396865845,-0.8468226194381714
0.0129641536623239,0.1067972779273986,-0.099502108991146,-0.3494015038013458,-0.0252132918685674,-0.1156867295503616,0.0,0.0,0.0805912017822265,-0.8063340783119202
0.0118715288117527,0.0991875231266021,-0.1043931692838668,-0.3382991254329681,-0.0300249885767698,-0.0962338671088218,0.0,0.0,0.2969915866851806,-0.1521027088165283
0.0107491491362452,0.0922202169895172,-0.1066817864775657,-0.3097795248031616,-0.035514336079359,-0.1097869127988815,0.0,0.0,-0.0183939933776855,-0.5797542333602905
0.0095417974516749,0.084941491484642,-0.1155769675970077,-0.3236340880393982,-0.0406096763908863,-0.1019069328904151,0.0,0.0,0.6410679817199707,-0.3618184328079223
0.0083886142820119,0.0780215337872505,-0.1098924726247787,-0.3077086508274078,-0.0459701307117939,-0.10720906406641,0.0,0.0,0.487189769744873,-0.2616900205612182
0.007106399629265,0.0716245770454406,-0.1216548308730125,-0.2845253646373749,-0.0524662248790264,-0.1299218088388443,0.0,0.0,0.2915196418762207,0.3545104265213012
0.0057000159285962,0.0655198693275451,-0.1329798549413681,-0.2716065645217895,-0.060043029487133,-0.151536151766777,0.0,0.0,-0.0461360812187194,-0.1233393549919128
0.0042481422424316,0.059097085148096,-0.1369086652994156,-0.2858137786388397,-0.0682258009910583,-0.16365547478199,0.0,0.0,0.6984591484069824,-0.312301754951477
0.0028145790565758,0.0531741939485073,-0.1345987617969513,-0.2636625468730926,-0.0768797323107719,-0.1730787903070449,0.0,0.0,0.4152171611785888,0.202610969543457
0.0014704704517498,0.0473811253905296,-0.1256069988012313,-0.2579432129859924,-0.0855985730886459,-0.1743770539760589,0.0,0.0,0.5225722789764404,-0.5954880714416504
0.0001845359802246,0.0422081798315048,-0.1206506043672561,-0.230384811758995,-0.0934759601950645,-0.1575475633144378,0.0,0.0,0.3286082744598388,-0.7159951329231262
-0.0011206626659259,0.0376974903047084,-0.1234947070479393,-0.2009286880493164,-0.1004451885819435,-0.1393844187259674,0.0,0.0,-0.0320625305175781,0.1155848503112793
-0.0024723052047193,0.0328687988221645,-0.1275955587625503,-0.2151365727186203,-0.1079540699720382,-0.1501774340867996,0.0,0.0,0.3605380058288574,0.3818107843399048
