x_pos,y_pos,x_vel,y_vel,angle,ang_vel,leg_1,leg_2,main_booster,lat_booster
-0.0014842987293377,1.4035149812698364,-0.1508754789829254,-0.3291205167770386,0.0021865318994969,0.0431630313396453,0.0,0.0,0.3184317190921222,-0.7797249301966386
-0.0029469490982592,1.3965718746185305,-0.1504947394132614,-0.3085959553718567,0.0063728573732078,0.083735242486,0.0,0.0,-0.3079386994115558,0.838349672455444
-0.0042942999862134,1.3895134925842283,-0.1373777091503143,-0.3137231469154358,0.0089845582842826,0.0522388219833374,0.0,0.0,0.5021747180086218,-0.8461010117879674
-0.0058014867827296,1.383021593093872,-0.1553205549716949,-0.2885548770427704,0.0135394735261797,0.0911065340042114,0.0,0.0,0.6731983314701764,-0.8394890573324055
-0.0072093964554369,1.377415657043457,-0.1478151977062225,-0.2492382079362869,0.0204882342368364,0.1389878690242767,0.0,0.0,0.0278677787992118,-0.951767716431094
-0.0085700033232569,1.3722071647644043,-0.1454430073499679,-0.2316453754901886,0.0297685097903013,0.1856225579977035,0.0,0.0,-0.5368027197346095,-0.8861639285650051
-0.009979248046875,1.3668873310089111,-0.1526205241680145,-0.2367027401924133,0.0413420163094997,0.2314917147159576,0.0,0.0,0.8826782808284912,-0.9836588825963644
-0.0112863536924123,1.3625755310058594,-0.1451973021030426,-0.1921014636754989,0.0556704029440879,0.2865941226482391,0.0,0.0,0.4689147859615437,-0.9135732796541284
-0.0127018932253122,1.3592747449874878,-0.158317282795906,-0.1474118530750274,0.0722742527723312,0.3321078419685364,0.0,0.0,0.138196801224961,-0.9911393673171944
-0.0142183303833007,1.3566153049468994,-0.1708508431911468,-0.1192357167601585,0.0913291946053505,0.3811339735984802,0.0,0.0,-0.193182237499097,-0.8264797451193814
-0.015779685229063,1.3538453578948977,-0.1772176772356033,-0.1245383843779563,0.112280897796154,0.4190720021724701,0.0,0.0,0.7681207423543777,0.6777035505046203
-0.0172623638063669,1.3518362045288086,-0.1686641275882721,-0.090956337749958,0.1325798779726028,0.4060172438621521,0.0,0.0,-0.2458565543495536,-0.9786059029601832
-0.0188017841428518,1.349717140197754,-0.176287904381752,-0.0963202863931655,0.154903769493103,0.4465188384056091,0.0,0.0,0.8342264430507389,-0.6716056373974009
-0.0203716270625591,1.3480819463729858,-0.1813092678785324,-0.0753923207521438,0.1792807132005691,0.4875832498073578,0.0,0.0,-0.5940896434439722,0.730460791994878
-0.0218761451542377,1.346372127532959,-0.1733641326427459,-0.0789330080151557,0.2023543864488601,0.4615158438682556,0.0,0.0,0.3822412074577836,-0.8401282921766934
-0.0233992580324411,1.344928741455078,-0.1774234771728515,-0.0677851065993309,0.2277546972036361,0.5080527663230896,0.0,0.0,0.9110256715255394,0.6178612119900798
-0.0249440185725688,1.3449125289916992,-0.1791798770427703,-0.004732078872621,0.2528807520866394,0.5025671720504761,0.0,0.0,-0.2906727085568177,0.9860368674722784
-0.0264086723327636,1.344823718070984,-0.1691033542156219,-0.0080260913819074,0.2760691344738006,0.4638095796108246,0.0,0.0,0.9362806407565762,-0.7331591286665906
-0.028085421770811,1.3460257053375244,-0.1923952549695968,0.0485515519976615,0.3015473484992981,0.509610652923584,0.0,0.0,0.9857276011472496,0.8479095647531377
-0.0300227161496877,1.3480840921401978,-0.2168735563755035,0.0864966139197349,0.3255983293056488,0.4810628294944763,0.0,0.0,-0.8696890504605512,-0.7897655559016434
-0.0320319160819053,1.3500244617462158,-0.2255888432264328,0.0804791823029518,0.3514367938041687,0.5168153643608093,0.0,0.0,0.2248732979120593,0.7190450902426804
-0.0341187492012977,1.3523578643798828,-0.2322406023740768,0.0977540984749794,0.3763408660888672,0.4981269836425781,0.0,0.0,0.3773288449307339,0.8137449934624772
-0.0362300872802734,1.3553259372711182,-0.2335299700498581,0.1258308291435241,0.4002399742603302,0.478024959564209,0.0,0.0,0.5491521484996664,-0.6716987827517642
-0.0384701713919639,1.3586030006408691,-0.2480803281068802,0.138634979724884,0.4262081086635589,0.5194093585014343,0.0,0.0,0.2196636417367483,-0.9243354264736036
-0.041122056543827,1.3623125553131104,-0.2911733090877533,0.156736671924591,0.4545877575874328,0.5676437616348267,0.0,0.0,0.3935817997734556,0.9662330177494148
-0.0441292747855186,1.3666667938232422,-0.3249730765819549,0.1853844076395034,0.4813915193080902,0.536075234413147,0.0,0.0,0.2236824544393643,0.7401775120912779
-0.047375489026308,1.3716847896575928,-0.3476356565952301,0.2147879600524902,0.5071689486503601,0.5155489444732666,0.0,0.0,-0.7127012609583558,0.6282477791050979
-0.050635527819395,1.3766379356384275,-0.3482373058795929,0.2116868793964386,0.5324299931526184,0.5052206516265869,0.0,0.0,-0.7229202375769201,-0.9536717543321844
-0.0540244095027446,1.3814313411712646,-0.3633553981781006,0.2031456679105758,0.5606757998466492,0.5649164915084839,0.0,0.0,-0.0359626121716045,0.9221729747433078
-0.0574042312800884,1.386179804801941,-0.3608602583408355,0.2012042850255966,0.5875564217567444,0.5376125574111938,0.0,0.0,-0.7727643948386917,0.6191849651500643
-0.0607982650399208,1.3908774852752686,-0.3611755967140198,0.1988668143749237,0.6135831475257874,0.5205342173576355,0.0,0.0,-0.345101039206281,0.7344905344377612
-0.0642048865556716,1.395516037940979,-0.3613592982292175,0.1962133049964904,0.6387629508972168,0.5035960674285889,0.0,0.0,0.3662195965612498,-0.7048390579611965
-0.0681715980172157,1.4007433652877808,-0.4185163378715515,0.2212352901697158,0.6658867597579956,0.5424762964248657,0.0,0.0,0.1348543980739365,0.7290811963055083
-0.0723424926400184,1.406166434288025,-0.4376445710659027,0.2300008088350296,0.6919177174568176,0.5206189751625061,0.0,0.0,0.1719801670185277,-0.9190100493893474
-0.0769040137529373,1.411952257156372,-0.4782101511955261,0.2446481436491012,0.7204912304878235,0.5714702606201172,0.0,0.0,0.4392561644506643,-0.761206256273372
-0.0819980651140213,1.4183483123779297,-0.5325532555580139,0.270330935716629,0.7512844800949097,0.6158652901649475,0.0,0.0,0.6029649651283688,-0.6395890153845597
-0.0875149741768837,1.425052523612976,-0.5755578279495239,0.2826608419418335,0.7839728593826294,0.653768002986908,0.0,0.0,0.5024437595755018,0.8801919047095916
-0.0935172066092491,1.4325143098831177,-0.6223066449165344,0.3165332973003387,0.8152145147323608,0.6248330473899841,0.0,0.0,-0.8362370557748429,-0.8095267513410126
-0.0996396988630294,1.4398150444030762,-0.6352603435516357,0.3076816499233246,0.8489035367965698,0.6737812161445618,0.0,0.0,0.7655279727378859,-0.9225446539549222
-0.106347844004631,1.4476251602172852,-0.6946886777877808,0.328425258398056,0.8852424621582031,0.7267793416976929,0.0,0.0,0.4682673983979237,0.6510999082128575
-0.1137036308646202,1.4559390544891355,-0.757693350315094,0.3509032130241394,0.9203965067863464,0.7030805945396423,0.0,0.0,-0.995958149433136,0.9999375343322754
-0.1210782080888748,1.4642664194107056,-0.7572199106216431,0.3522511422634125,0.9532497525215148,0.657065212726593,0.0,0.0,-0.9990859627723694,0.995802879333496
-0.1284714639186859,1.4725985527038574,-0.7569719552993774,0.3532804846763611,0.9839054942131042,0.613115668296814,0.0,0.0,-0.998059093952179,0.9995224475860596
-0.1358906775712967,1.4809422492980957,-0.7575531601905823,0.3547307848930359,1.0123071670532229,0.5680333375930786,0.0,0.0,-0.9998833537101746,0.9999268054962158
-0.1433419287204742,1.4892711639404297,-0.7591732144355774,0.3547710478305816,1.038998007774353,0.5338174104690552,0.0,0.0,-0.9997143149375916,0.999992609024048
-0.1508223563432693,1.497600793838501,-0.7604438066482544,0.3557780981063843,1.063615083694458,0.4923403263092041,0.0,0.0,-0.9999964237213136,0.991607666015625
-0.158335879445076,1.5059353113174438,-0.7622145414352417,0.3570842742919922,1.0860944986343384,0.4495874047279358,0.0,0.0,-0.9998361468315125,0.9988641738891602
-0.1659038513898849,1.5142549276351929,-0.7665214538574219,0.357168972492218,1.1070655584335327,0.419424295425415,0.0,0.0,-0.9997811317443848,0.9998390674591064
-0.1735278069972992,1.522555589675903,-0.7710844874382019,0.3570667803287506,1.1265969276428225,0.3906272649765014,0.0,0.0,-0.9999775290489196,0.9999880790710448
-0.1811956465244293,1.5308513641357422,-0.7743493318557739,0.3578942418098449,1.1442439556121826,0.3529397845268249,0.0,0.0,-0.9999722838401794,0.9998762607574464
-0.1889019012451172,1.5391714572906494,-0.7768531441688538,0.3604794442653656,1.1593260765075684,0.3016456067562103,0.0,0.0,-0.9999927878379822,0.9999873638153076
-0.1966621428728103,1.5474843978881836,-0.7813377976417542,0.3612078726291656,1.1726305484771729,0.26609006524086,0.0,0.0,-0.9999822378158568,0.9998106956481934
-0.2044615298509597,1.555814504623413,-0.7841588258743286,0.3634541630744934,1.1834864616394043,0.2171180546283722,0.0,0.0,-0.9990755915641784,0.9997540712356568
-0.2123153209686279,1.5641486644744873,-0.7887184023857117,0.3649018704891205,1.1922919750213623,0.1761113703250885,0.0,0.0,-0.9999251961708068,0.9987300634384156
-0.2202095091342926,1.5725080966949463,-0.791709303855896,0.3676454126834869,1.1984639167785645,0.1234393492341041,0.0,0.0,-0.9997721314430236,0.99841570854187
-0.2281553298234939,1.580849528312683,-0.7962401509284973,0.3678825199604034,1.2029842138290403,0.090406946837902,0.0,0.0,-0.9996474385261536,0.9998455047607422
-0.2361533641815185,1.589210867881775,-0.8005508184432983,0.3703133165836334,1.205053210258484,0.0413805320858955,0.0,0.0,-0.995148777961731,0.9999122619628906
-0.2441987544298172,1.5975980758666992,-0.8043330907821655,0.3731227815151214,1.2044886350631714,-0.0112915756180882,0.0,0.0,-0.8325651288032532,0.9968876838684082
-0.2522985339164734,1.6060017347335815,-0.8089082837104797,0.375356525182724,1.2015397548675537,-0.0589783564209938,0.0,0.0,-0.9990877509117126,0.9942771196365356
-0.260458767414093,1.6143946647644043,-0.8142837285995483,0.3759931921958923,1.1968170404434204,-0.0944538041949272,0.0,0.0,-0.9989502429962158,0.9999041557312012
-0.268662691116333,1.6227935552597046,-0.8177739381790161,0.3776793479919433,1.189805269241333,-0.1402359306812286,0.0,0.0,-0.9999995231628418,0.9994914531707764
-0.2769258618354797,1.631176233291626,-0.823003888130188,0.3780182301998138,1.1810956001281738,-0.174193650484085,0.0,0.0,-0.9997923970222472,0.8945462703704834
-0.285236656665802,1.6395655870437622,-0.8267918825149536,0.3797225058078766,1.170093297958374,-0.2200465649366378,0.0,0.0,-0.9999768137931824,0.9998204708099364
-0.2935981750488281,1.647958755493164,-0.8308638334274292,0.3812201917171478,1.1568835973739624,-0.2641947269439697,0.0,0.0,-0.990347385406494,0.9999680519104004
-0.3020055294036865,1.6563489437103271,-0.8343805074691772,0.3823628425598144,1.1415371894836426,-0.3069289624691009,0.0,0.0,-0.9999974966049194,0.99996018409729
-0.3104698061943054,1.664716720581055,-0.8391557931900024,0.3822821378707886,1.124569535255432,-0.3393524587154388,0.0,0.0,-0.9995471835136414,0.7966129779815674
-0.31899493932724,1.673068284988403,-0.8442069888114929,0.3825142681598663,1.105890154838562,-0.3735867142677307,0.0,0.0,-0.9999186992645264,0.983130931854248
-0.3275580406188965,1.681423902511597,-0.8465598821640015,0.3840223252773285,1.0848222970962524,-0.4213573336601257,0.0,0.0,-0.9992173910140992,0.9179565906524658
-0.3361771702766418,1.689777135848999,-0.8507639765739441,0.3849823176860809,1.0617125034332275,-0.4621962010860443,0.0,0.0,-0.9904795289039612,0.9954557418823242
-0.3448469638824463,1.698108792304993,-0.854475200176239,0.38485848903656,1.036868691444397,-0.4968783259391784,0.0,0.0,-0.9997402429580688,0.6457363367080688
-0.3535820841789245,1.7063932418823242,-0.859897792339325,0.3831414580345154,1.0109755992889404,-0.5178623795509338,0.0,0.0,-0.9966599941253662,0.967258095741272
-0.3623626232147217,1.714674711227417,-0.8626620173454285,0.3840000927448272,0.9829207062721252,-0.5610977411270142,0.0,0.0,-0.997444212436676,-0.6702514290809631
-0.3712669909000397,1.7227818965911863,-0.8756206631660461,0.3747624456882477,0.9570053219795228,-0.5183075666427612,0.0,0.0,-0.999647319316864,0.5999741554260254
-0.3802269399166107,1.7308499813079834,-0.8798122406005859,0.373506098985672,0.9297419786453248,-0.5452674031257629,0.0,0.0,-0.9940555691719056,0.9512823820114136
-0.3892275691032409,1.7388951778411863,-0.8821158409118652,0.3731735050678253,0.9006199240684509,-0.5824408531188965,0.0,0.0,-0.9951056241989136,0.8003373146057129
-0.3982678353786468,1.7469151020050049,-0.8842062950134277,0.3726537823677063,0.8696620464324951,-0.6191583871841431,0.0,0.0,-0.9723967909812928,-0.1683685779571533
-0.4073945879936218,1.754836082458496,-0.8922461271286011,0.3677217662334442,0.8389032483100891,-0.6151761412620544,0.0,0.0,-0.9994939565658568,0.9785951375961304
-0.4165631830692291,1.7627464532852173,-0.8942984342575073,0.3678235411643982,0.8061178922653198,-0.6557076573371887,0.0,0.0,-0.990375816822052,-0.3888866901397705
-0.4258186221122741,1.7705589532852173,-0.902330219745636,0.3628830313682556,0.7735130190849304,-0.6520974040031433,0.0,0.0,-0.9998944997787476,0.0552121400833129
-0.4351606369018554,1.778273344039917,-0.9103633165359496,0.3579418957233429,0.7410792708396912,-0.6486746072769165,0.0,0.0,-0.9998595118522644,0.9950857162475586
-0.4445401728153229,1.7859443426132202,-0.9121952056884766,0.3561649918556213,0.7070848345756531,-0.6798884272575378,0.0,0.0,-0.984054148197174,-0.9526185393333436
-0.454061895608902,1.7934575080871582,-0.9273139238357544,0.3476707637310028,0.675193190574646,-0.6378328204154968,0.0,0.0,-0.9984682202339172,0.9751541614532472
-0.4636205732822418,1.8009324073791504,-0.9290388822555542,0.346091479063034,0.6416657567024231,-0.6705494523048401,0.0,0.0,-0.9799357056617736,-0.165712833404541
-0.4732651114463806,1.8083103895187376,-0.9370587468147278,0.3411417305469513,0.6082736849784851,-0.6678410768508911,0.0,0.0,-0.9990530610084534,-0.4100877046585083
-0.4829952716827392,1.8155921697616575,-0.9450746774673462,0.336191326379776,0.5750085115432739,-0.66530442237854,0.0,0.0,-0.990895688533783,0.984304666519165
-0.4927375912666321,1.822849988937378,-0.9436826705932616,0.3353123664855957,0.5394451022148132,-0.7112682461738586,0.0,0.0,-0.9995861053466796,-0.3989758491516113
-0.502565324306488,1.8300137519836424,-0.9516760110855104,0.3303491175174713,0.5039926767349243,-0.7090495824813843,0.0,0.0,-0.999992847442627,0.2164691686630249
-0.512478232383728,1.8370829820632932,-0.9596624374389648,0.3253850936889648,0.4686432778835296,-0.7069886922836304,0.0,0.0,-0.9999451637268066,0.5152924060821533
-0.5224312543869019,1.844091892242432,-0.9619474411010742,0.3223348259925842,0.4320454597473144,-0.7319567799568176,0.0,0.0,-0.9937400221824646,-0.7168883085250854
-0.5325061678886414,1.8509761095047,-0.9747316241264344,0.3156107068061828,0.3966900706291199,-0.7071092128753662,0.0,0.0,-0.999928653240204,0.9642232656478882
-0.5425978302955627,1.8578174114227293,-0.9741093516349792,0.3133774697780609,0.3594318330287933,-0.7451652884483337,0.0,0.0,-0.997602641582489,0.903350591659546
-0.5527051091194153,1.8646131753921509,-0.9733681678771972,0.310897558927536,0.3202892541885376,-0.782852292060852,0.0,0.0,-0.9995135068893432,-0.229704201221466
-0.5628957152366638,1.871318817138672,-0.9812830686569214,0.3059059977531433,0.2812152504920959,-0.7814808487892151,0.0,0.0,-0.7991124987602234,-0.2871508598327636
-0.5731691122055054,1.87793493270874,-0.9891823530197144,0.3009136319160461,0.2422035038471222,-0.7802356481552124,0.0,0.0,-0.9776408076286316,-0.5160911083221436
-0.5835670828819275,1.884443283081055,-1.0024521350860596,0.2949654459953308,0.2043820917606353,-0.7564288377761841,0.0,0.0,-0.9713250994682312,0.1154389381408691
-0.5940462350845337,1.8908607959747317,-1.0103157758712769,0.2899788916110992,0.1666107475757599,-0.7554273009300232,0.0,0.0,-0.9538499712944032,0.02618408203125
-0.6046056747436523,1.8971877098083496,-1.018155813217163,0.2849918901920318,0.1288839727640152,-0.7545360326766968,0.0,0.0,-0.9858893752098083,0.9527802467346193
-0.615186333656311,1.9034444093704224,-1.0185976028442385,0.2810316979885101,0.0896825790405273,-0.7840287685394287,0.0,0.0,-0.9503373503684998,0.9532067775726318
-0.6257602572441101,1.9096299409866333,-1.0156166553497314,0.2768943905830383,0.0483401268720626,-0.8268500566482544,0.0,0.0,-0.9463375210762024,0.0872435569763183
-0.6364121437072754,1.9157288074493408,-1.0233652591705322,0.2718823552131653,0.0070286076515913,-0.8262311816215515,0.0,0.0,-0.9608302116394044,-0.8431409001350403
-0.6472170948982239,1.9217449426651,-1.040604829788208,0.267094612121582,-0.0323493927717208,-0.7875605225563049,0.0,0.0,-0.9935149550437928,0.2470803260803222
-0.6580981016159058,1.9276719093322756,-1.0482792854309082,0.2620956599712372,-0.0717055574059486,-0.7871241569519043,0.0,0.0,-0.9555389285087584,-0.252476692199707
-0.6690540909767151,1.933509826660156,-1.0559090375900269,0.257097065448761,-0.1110437288880348,-0.7867642641067505,0.0,0.0,-0.9920645356178284,0.2183647155761718
-0.6800841093063354,1.939258694648743,-1.0634890794754028,0.2520989179611206,-0.1503674685955047,-0.7864752411842346,0.0,0.0,-0.9839546084403992,-0.2928370237350464
-0.6911869049072266,1.944918394088745,-1.0710140466690063,0.2471014112234115,-0.1896799951791763,-0.7862515449523926,0.0,0.0,-0.9954381585121156,-0.3309756517410278
-0.7023612856864929,1.950488805770874,-1.07847797870636,0.2421046942472458,-0.2289843559265136,-0.786087691783905,0.0,0.0,-0.907041072845459,-0.2106267213821411
-0.7136061191558838,1.9559696912765503,-1.085874319076538,0.2371089160442352,-0.2682831883430481,-0.7859781384468079,0.0,0.0,-0.978070855140686,-0.1749934554100036
-0.7249200344085693,1.9613606929779053,-1.093196153640747,0.2321142703294754,-0.307578980922699,-0.785917341709137,0.0,0.0,-0.9693825840950012,-0.3648157715797424
-0.7363015413284302,1.96666157245636,-1.100435495376587,0.2271209061145782,-0.3468739092350006,-0.7858999371528625,0.0,0.0,-0.943917155265808,-0.339705228805542
-0.7477493286132812,1.971872329711914,-1.1075842380523682,0.2221290320158004,-0.3861699104309082,-0.7859205007553101,0.0,0.0,-0.8870043754577637,-0.9085954427719116
-0.7593265175819397,1.9770405292510984,-1.122872829437256,0.2198086231946945,-0.4235598444938659,-0.747799277305603,0.0,0.0,-0.9399159550666808,-0.9818836450576782
-0.7710281014442444,1.9821662902832031,-1.1375718116760254,0.2175873965024948,-0.4591082036495209,-0.7109667062759399,0.0,0.0,-0.9001965522766113,-0.8500469326972961
-0.7828453183174133,1.9872312545776367,-1.151063084602356,0.2146161496639251,-0.4931282699108124,-0.6804019808769226,0.0,0.0,-0.8334322571754456,-0.9635410904884338
-0.794803261756897,1.9922648668289185,-1.1678305864334106,0.2133637219667434,-0.5247108936309814,-0.6316527128219604,0.0,0.0,-0.7342275381088257,-0.9571298360824584
-0.8069009184837341,1.9972659349441528,-1.184417486190796,0.2121820300817489,-0.5538430213928223,-0.5826421976089478,0.0,0.0,-0.5142052173614502,-0.9050288200378418
-0.8191200494766235,2.002223491668701,-1.1987040042877195,0.2105021029710769,-0.5809838771820068,-0.5428177118301392,0.0,0.0,-0.0751056671142578,-0.834067165851593
-0.8314493298530579,2.007128953933716,-1.2115519046783447,0.2084293514490127,-0.6064222455024719,-0.5087679624557495,0.0,0.0,-0.0794306993484497,-0.9503470063209534
-0.8438856601715088,2.01197361946106,-1.2239222526550293,0.2060119807720184,-0.6302763819694519,-0.4770826399326324,0.0,0.0,0.102100133895874,-0.9717658162117004
-0.8561041951179504,2.0172693729400635,-1.204155683517456,0.2265758365392685,-0.6520618796348572,-0.435709148645401,0.0,0.0,-0.1599762439727783,-0.9760535955429076
-0.8684289455413818,2.022533416748047,-1.2166931629180908,0.2257742434740066,-0.6717960834503174,-0.3946840167045593,0.0,0.0,-0.0507740974426269,-0.9808688163757324
-0.8808619379997253,2.0277464389801025,-1.229245901107788,0.2241228073835373,-0.6896316409111023,-0.3567110300064087,0.0,0.0,0.1799031496047973,-0.8163612484931946
