x_pos,y_pos,x_vel,y_vel,angle,ang_vel,leg_1,leg_2,main_booster,lat_booster
-0.0015110969543457,1.4030157327651978,-0.1530284732580185,-0.3512994647026062,0.0017118708929046,0.0337647832930088,0.0,0.0,-0.1135679483413696,0.9361345767974854
-0.0029295920394361,1.394521713256836,-0.1414870321750641,-0.3775120079517364,0.0013525806134566,-0.0071856663562357,0.0,0.0,-0.2636842727661133,0.2952773571014404
-0.0043348311446607,1.38541841506958,-0.1401666551828384,-0.4045844674110412,0.0010100458748638,-0.0068516181781888,0.0,0.0,-0.0260403156280517,0.7468094825744629
-0.0056791305541992,1.375704288482666,-0.1329315155744552,-0.4317413866519928,-0.00046841808944,-0.0295719597488641,0.0,0.0,0.4315868616104126,0.7594938278198242
-0.0068246843293309,1.3662313222885132,-0.1118475943803787,-0.4210208356380462,-0.0031510090921074,-0.0536572411656379,0.0,0.0,-0.2419950366020202,0.619570255279541
-0.0078959465026855,1.356148600578308,-0.1030126586556434,-0.4481326639652252,-0.007221495732665,-0.0814170539379119,0.0,0.0,0.2047258615493774,0.7256331443786621
-0.0089108468964695,1.346089005470276,-0.096044510602951,-0.4471327662467956,-0.0126037867739796,-0.1076556667685508,0.0,0.0,0.2353518009185791,-0.2866010665893554
-0.0097927097231149,1.3361444473266602,-0.083461232483387,-0.4420304000377655,-0.0172729417681694,-0.0933917462825775,0.0,0.0,-0.7174926996231079,-0.4160870313644409
-0.0106590269133448,1.3255913257598877,-0.0821263939142227,-0.469084233045578,-0.0217324811965227,-0.0891989022493362,0.0,0.0,-0.8521855473518372,-0.195538580417633
-0.0115097044035792,1.314429759979248,-0.0807924047112464,-0.496132344007492,-0.025952523574233,-0.0844087526202201,0.0,0.0,-0.4732218980789184,-0.3219823837280273
-0.0123441694304347,1.3026599884033203,-0.0794600546360015,-0.5231823921203613,-0.029905617237091,-0.0790687128901481,0.0,0.0,-0.1576604843139648,-0.841772735118866
-0.0132211688905954,1.2902822494506836,-0.085477665066719,-0.5501630902290344,-0.0320923589169979,-0.0437388829886913,0.0,0.0,0.3023680448532104,-0.9241662621498108
-0.014018153771758,1.2781250476837158,-0.0797598212957382,-0.540317177772522,-0.0320387817919254,0.0010719352867454,0.0,0.0,-0.7149783968925476,-0.4978166818618774
-0.0147986412048339,1.2653590440750122,-0.0784444957971572,-0.5673719048500061,-0.0316441394388675,0.0078933043405413,0.0,0.0,-0.2929952144622803,-0.6871136426925659
-0.0156035423278808,1.2519934177398682,-0.0823224484920501,-0.5939915776252747,-0.0298397801816463,0.0360904149711132,0.0,0.0,-0.5439968705177307,-0.2945659756660461
-0.0163915641605854,1.2380189895629885,-0.0810148864984512,-0.6210402846336365,-0.0276508145034313,0.0437833443284034,0.0,0.0,-0.0704395174980163,-0.6391995549201965
-0.0172012336552143,1.2234450578689575,-0.0845771953463554,-0.6476682424545288,-0.0240773856639862,0.0714750364422798,0.0,0.0,0.0344431400299072,-0.3266876339912414
-0.0178988464176654,1.208611249923706,-0.0742188021540641,-0.6592187881469727,-0.0196630880236625,0.0882940888404846,0.0,0.0,-0.6988470554351807,0.162400484085083
-0.0185790061950683,1.193168878555298,-0.0729240328073501,-0.6862715482711792,-0.0148085802793502,0.0970984473824501,0.0,0.0,-0.6023480892181396,0.2698605060577392
-0.0192416198551654,1.1771183013916016,-0.0716320425271987,-0.7133223414421082,-0.0094975382089614,0.1062304824590683,0.0,0.0,-0.2614147663116455,0.5098896026611328
-0.0198376663029193,1.1604621410369873,-0.0642153471708297,-0.7402469515800476,-0.0049424115568399,0.0911107659339904,0.0,0.0,-0.2250469923019409,0.0548055171966552
-0.020415972918272,1.1431976556777954,-0.0629261881113052,-0.7672981023788452,9.849784692050888e-05,0.1008273735642433,0.0,0.0,-0.2923648357391357,0.6160461902618408
-0.0209171287715435,1.1253241300582886,-0.0542121939361095,-0.7943872213363647,0.0041491170413792,0.0810194462537765,0.0,0.0,0.0353055000305175,0.598167896270752
-0.0213045123964548,1.107129454612732,-0.0422074757516384,-0.8086623549461365,0.0075868288986384,0.0687601268291473,0.0,0.0,0.2106990814208984,0.4458427429199219
-0.0217814445495605,1.0890326499938965,-0.0511987321078777,-0.8043245673179626,0.0110632823780179,0.0695349350571632,0.0,0.0,-0.3653923273086548,0.6417772769927979
-0.0222013480961322,1.0703099966049194,-0.0450711250305175,-0.8321441411972046,0.0141039341688156,0.0608131401240825,0.0,0.0,0.3366507291793823,0.74465012550354
-0.0225487705320119,1.0518665313720703,-0.0368757285177707,-0.8197354674339294,0.0162097178399562,0.0421156361699104,0.0,0.0,0.3149324655532837,-0.3179086446762085
-0.0229923240840435,1.0337971448898315,-0.0465601570904254,-0.803106963634491,0.018384501338005,0.043495737016201,0.0,0.0,-0.3099470138549804,0.5878341197967529
-0.023380946367979,1.0151252746582031,-0.0407057777047157,-0.8298838138580322,0.020201439037919,0.0363387055695056,0.0,0.0,0.6881630420684814,0.549230694770813
-0.0237405784428119,0.9965908527374268,-0.0372034907341003,-0.8237736821174622,0.0214306972920894,0.0245851203799247,0.0,0.0,-0.3654700517654419,-0.0214295983314514
-0.0240814201533794,0.9774479269981384,-0.0359182581305503,-0.8508223295211792,0.0232324693351984,0.0360353961586952,0.0,0.0,0.7393038272857666,0.7963074445724487
-0.0244413372129201,0.9583829045295716,-0.0366185009479522,-0.8473430871963501,0.0238554198294878,0.012458948418498,0.0,0.0,0.633598804473877,0.5412592887878418
-0.0248461719602346,0.9399017095565796,-0.0403762720525264,-0.821388840675354,0.0237559210509061,-0.0019900342449545,0.0,0.0,0.6943774223327637,-0.3693418502807617
-0.0253063198179006,0.9213642477989196,-0.0462040454149246,-0.8238834142684937,0.023943904787302,0.0037594672758132,0.0,0.0,0.8759605884552002,0.0087435245513916
-0.0257462505251169,0.9032871723175048,-0.0448700413107872,-0.8034377694129944,0.0248120371252298,0.0173629056662321,0.0,0.0,0.8045610189437866,0.500849723815918
-0.0261271484196186,0.8858466744422913,-0.0386340729892253,-0.7751457095146179,0.0253447163850069,0.0106536103412508,0.0,0.0,0.7442158460617065,0.4264771938323974
-0.0265291221439838,0.8685174584388733,-0.0412185750901699,-0.7702040076255798,0.0263525694608688,0.020157229155302,0.0,0.0,-0.4022998809814453,0.383541464805603
-0.0269122123718261,0.8505798578262329,-0.0399494431912899,-0.797252893447876,0.0279675591737031,0.0322998240590095,0.0,0.0,0.5589754581451416,0.9083245992660522
-0.0272688865661621,0.8332374691963196,-0.0360336378216743,-0.7707771062850952,0.0283316727727651,0.0072822547517716,0.0,0.0,0.6325879096984863,0.5047392845153809
-0.0275539401918649,0.8161911964416504,-0.0285658482462167,-0.7576188445091248,0.0283875409513711,0.0011173954699188,0.0,0.0,0.3506656885147095,0.5010123252868652
-0.0278928764164447,0.7994927167892456,-0.0333445593714714,-0.7421407699584961,0.0278358813375234,-0.0110329296439886,0.0,0.0,0.057962417602539,0.1965311765670776
-0.0281434059143066,0.7826918959617615,-0.0254906769841909,-0.7467100620269775,0.0282690171152353,0.0086626410484313,0.0,0.0,-0.2823748588562011,0.6866534948348999
-0.0283119194209575,0.7652780413627625,-0.0163098741322755,-0.7739471197128296,0.0277384109795093,-0.0106121879070997,0.0,0.0,-0.5798285007476807,-0.3145370483398437
-0.0284615512937307,0.7472555637359619,-0.0150628490373492,-0.8009960055351257,0.0278315022587776,0.0018620199989527,0.0,0.0,0.533766508102417,0.8784985542297363
-0.0285727493464946,0.7290255427360535,-0.0100251659750938,-0.810204267501831,0.0267473720014095,-0.021682608872652,0.0,0.0,0.556748628616333,0.2027188539505005
-0.0286303516477346,0.7106609344482422,-0.005504734814167,-0.8161964416503906,0.0264908708631992,-0.0051297275349497,0.0,0.0,-0.5074025392532349,0.7280251979827881
-0.028605842962861,0.6916866302490234,0.0036920229904353,-0.843281626701355,0.0252690706402063,-0.0244362503290176,0.0,0.0,0.2426890134811401,-0.1371669173240661
-0.0286629684269428,0.673041045665741,-0.0047209216281771,-0.8286699056625366,0.0242865290492773,-0.0196507908403873,0.0,0.0,0.6280026435852051,0.7128344774246216
-0.028807258233428,0.6549550890922546,-0.0123363211750984,-0.8037912845611572,0.0222248192876577,-0.0412342362105846,0.0,0.0,0.270915150642395,0.151461124420166
-0.0289579387754201,0.6368469595909119,-0.0135452393442392,-0.8047849535942078,0.0207204539328813,-0.0300870183855295,0.0,0.0,0.5309869050979614,0.3976225852966308
-0.0289682392030954,0.6189281344413757,-0.0007704130839556,-0.7963879108428955,0.0204645935446023,-0.0051172962412238,0.0,0.0,0.473599910736084,0.0102553367614746
-0.0290249828249216,0.6013848185539246,-0.0058133024722337,-0.779706597328186,0.0206055901944637,0.0028195707127451,0.0,0.0,0.0823653936386108,0.8400213718414307
-0.0289192199707031,0.5836697816848755,0.0114560117945075,-0.787321150302887,0.0197393856942653,-0.017324112355709,0.0,0.0,0.6623580455780029,0.3481060266494751
-0.0288078300654888,0.5665501952171326,0.0113541474565863,-0.760867714881897,0.019523674622178,-0.0043143141083419,0.0,0.0,0.0277900695800781,0.5235819816589355
-0.0285399444401264,0.5492793917655945,0.027244871482253,-0.7675871253013611,0.0190739706158638,-0.0089939599856734,0.0,0.0,0.476895809173584,0.5365033149719238
-0.0283117294311523,0.5320280194282532,0.0239361263811588,-0.7667121887207031,0.0179679244756698,-0.0221209917217493,0.0,0.0,0.1225379705429077,0.3024533987045288
-0.0280117038637399,0.5149821639060974,0.0301878098398447,-0.7575927972793579,0.0177938435226678,-0.003481863765046,0.0,0.0,0.3535507917404175,0.0278269052505493
-0.0275906566530466,0.4981595277786255,0.041101511567831,-0.7476822733879089,0.0187792722135782,0.0197086967527866,0.0,0.0,0.6351568698883057,0.2451348304748535
-0.0270936004817485,0.4819527864456177,0.0477250106632709,-0.7203272581100464,0.0207432359457016,0.0392792522907257,0.0,0.0,0.31367027759552,-0.1635888814926147
-0.0266526229679584,0.4660727977752685,0.0417457818984985,-0.7058109641075134,0.0230633188039064,0.0464017800986766,0.0,0.0,-0.3048752546310425,0.5756134986877441
-0.0261450763791799,0.4495812356472015,0.0490192845463752,-0.7329867482185364,0.0247776992619037,0.034287579357624,0.0,0.0,0.778151273727417,0.3165078163146972
-0.0257472991943359,0.4336093664169311,0.0379125103354454,-0.7098924517631531,0.0266284327954053,0.0370144918560981,0.0,0.0,0.8644969463348389,-0.1369004249572754
-0.0252089500427246,0.4179099202156067,0.050662737339735,-0.6978094577789307,0.029758982360363,0.0626109391450882,0.0,0.0,0.9523558616638184,-0.0590694546699523
-0.0246479995548725,0.4026896953582763,0.0521593205630779,-0.676539421081543,0.0336527824401855,0.077875830233097,0.0,0.0,0.3719325065612793,0.6062941551208496
-0.024026870727539,0.3873586356639862,0.0587331652641296,-0.6814599633216858,0.0369891412556171,0.0667269974946975,0.0,0.0,0.8184199333190918,0.1665163040161132
-0.0235501285642385,0.3723869621753692,0.0442910864949226,-0.6654929518699646,0.0403279401361942,0.0667762458324432,0.0,0.0,0.8311002254486084,0.3471150398254394
-0.0230724327266216,0.3582303524017334,0.043643482029438,-0.6292999386787415,0.0444085635244846,0.0816121771931648,0.0,0.0,0.7969366312026978,0.8894808292388916
-0.0224243160337209,0.3439429700374603,0.0616642124950885,-0.6350896954536438,0.0475235544145107,0.0623000152409076,0.0,0.0,0.9215339422225952,0.5203768014907837
-0.021734332665801,0.330546498298645,0.0661540254950523,-0.595489501953125,0.050330314785242,0.0561352856457233,0.0,0.0,0.6968486309051514,0.3913427591323852
-0.021151065826416,0.3172630667686462,0.0553049333393573,-0.5904790759086609,0.0533178932964801,0.0597515031695365,0.0,0.0,0.7214388847351074,0.6254897117614746
-0.0206452365964651,0.3044267296791076,0.0484417639672756,-0.570582926273346,0.0554337203502655,0.0423167571425437,0.0,0.0,0.8578708171844482,0.8821053504943848
-0.0200571063905954,0.2920410633087158,0.0577537305653095,-0.5505129098892212,0.0564886294305324,0.0210979375988245,0.0,0.0,0.2950203418731689,0.5806479454040527
-0.0195583347231149,0.2800397276878357,0.049570757895708,-0.5334047079086304,0.0567893907427787,0.0060151484794914,0.0,0.0,0.5634255409240723,0.701392650604248
-0.0189465526491403,0.2682598829269409,0.0614992976188659,-0.5235362648963928,0.0564661063253879,-0.0064653507433831,0.0,0.0,0.4993143081665039,-0.146168828010559
-0.0183735843747854,0.2564008831977844,0.0571417026221752,-0.5270730257034302,0.0566196888685226,0.0030714177992194,0.0,0.0,0.6819345951080322,0.0574746131896972
-0.017738914117217,0.2444352209568023,0.0623578913509845,-0.5318478345870972,0.0577094033360481,0.0217945519834756,0.0,0.0,0.8680284023284912,0.4767566919326782
-0.0171515457332134,0.2324331551790237,0.0571870580315589,-0.5334863066673279,0.0592471063137054,0.0307537354528903,0.0,0.0,0.6254608631134033,0.7009536027908325
-0.0165541656315326,0.2210019379854202,0.058992862701416,-0.5080812573432922,0.0599798411130905,0.0146548524498939,0.0,0.0,0.9030828475952148,-0.0351281762123107
-0.0159117691218853,0.210378035902977,0.0624525733292102,-0.4722476005554199,0.0617462396621704,0.0353279784321785,0.0,0.0,0.7382563352584839,-0.4673432111740112
-0.0154316900297999,0.2004226744174957,0.0461696572601795,-0.4425413012504577,0.0635702386498451,0.0364798456430435,0.0,0.0,0.8808002471923828,-0.1310799717903137
-0.0151144983246922,0.1904096007347107,0.0299510397017002,-0.4450995624065399,0.0653129443526268,0.0348544344305992,0.0,0.0,0.8116436004638672,0.5764456987380981
-0.0147542003542184,0.1811002641916275,0.0346954688429832,-0.4138083755970001,0.0666306614875793,0.0263543389737606,0.0,0.0,0.8397810459136963,0.0046671628952026
-0.0145426746457815,0.1721308082342147,0.0197505373507738,-0.3987064957618713,0.0680182576179504,0.0277519561350345,0.0,0.0,0.7541905641555786,-0.5314993858337402
-0.0144782066345214,0.1636219769716262,0.0035544061101973,-0.3783023059368133,0.070877730846405,0.0571894235908985,0.0,0.0,0.5000436305999756,0.2222180366516113
-0.0144645692780613,0.1554541140794754,-0.0020582699216902,-0.3631825745105743,0.0742691755294799,0.067828744649887,0.0,0.0,0.3725309371948242,-0.6459766030311584
-0.0144537929445505,0.1474048495292663,-0.004382443614304,-0.3580254018306732,0.0796726495027542,0.1080692782998085,0.0,0.0,-0.3095744848251343,0.6381083726882935
-0.0143869398161768,0.1387479603290558,0.0019942510407418,-0.3850082457065582,0.0843279808759689,0.0931064635515213,0.0,0.0,0.4823739528656006,0.7883660793304443
-0.0141925811767578,0.1300372183322906,0.0156046506017446,-0.3873651921749115,0.0881224125623703,0.0758886784315109,0.0,0.0,0.6637104749679565,0.4804366827011108
-0.013899135403335,0.1215976327657699,0.0242597367614507,-0.3754015266895294,0.0931605324149131,0.1007625460624694,0.0,0.0,0.6778236627578735,0.0800286531448364
-0.013500690460205,0.1131684854626655,0.0335545763373374,-0.3750326931476593,0.099404789507389,0.1248849257826805,0.0,0.0,0.8751161098480225,0.1326329708099365
-0.0131925586611032,0.1054038852453231,0.0240086894482374,-0.3455649316310882,0.1061629503965377,0.1351630985736847,0.0,0.0,0.504845380783081,0.758105993270874
-0.0128672597929835,0.0980826020240783,0.0266558472067117,-0.3258152902126312,0.1119951382279396,0.1166437044739723,0.0,0.0,0.6633937358856201,0.8257887363433838
-0.0124149322509765,0.0911924690008163,0.0402482263743877,-0.3066117465496063,0.1169447973370552,0.0989930480718612,0.0,0.0,0.4300316572189331,-0.6147497296333313
-0.0119498251006007,0.0841176584362983,0.0395728014409542,-0.314991682767868,0.1238402426242828,0.1379092037677765,0.0,0.0,0.6568629741668701,0.6330115795135498
-0.0115565303713083,0.0771928429603576,0.0332939773797988,-0.3082835376262665,0.1298473328351974,0.1201421394944191,0.0,0.0,0.8580679893493652,0.7748088836669922
-0.0111285205930471,0.0711451396346092,0.0376071259379386,-0.2692462205886841,0.1350232362747192,0.1035178899765014,0.0,0.0,0.6474707126617432,0.2593098878860473
-0.0108030317351222,0.0653290376067161,0.0269825253635644,-0.2590092718601227,0.1405787020921707,0.1111090406775474,0.0,0.0,0.3933827877044678,0.7598459720611572
-0.0106324199587106,0.0598968118429183,0.0127095077186822,-0.2418476939201355,0.144915759563446,0.0867411941289901,0.0,0.0,0.6036288738250732,0.9477770328521729
-0.0103957178071141,0.0549041144549846,0.0206388942897319,-0.2221954464912414,0.1479356586933136,0.0603978522121906,0.0,0.0,0.5810909271240234,0.6886250972747803
-0.0102716442197561,0.0503736101090908,0.0104309804737567,-0.201552927494049,0.1499120146036148,0.0395273007452487,0.0,0.0,0.3203091621398926,0.8738534450531006
-0.0102490428835153,0.0461277104914188,0.0016589213628321,-0.1887663006782531,0.1505089402198791,0.0119384629651904,0.0,0.0,0.430375337600708,0.9128353595733644
-0.0102492328733205,0.0419212207198143,0.0008110216003842,-0.1868718415498733,0.1496810168027877,-0.016558339819312,0.0,0.0,0.5853004455566406,0.8534460067749023
-0.0103983879089355,0.0379509069025516,-0.0126025285571813,-0.1762266159057617,0.1473676711320877,-0.0462669730186462,0.0,0.0,0.6642760038375854,0.9569382667541504
-0.0107250213623046,0.0341327302157878,-0.0286026559770107,-0.1692982316017151,0.1433128714561462,-0.0810960009694099,0.0,0.0,0.6708636283874512,0.9216296672821044
-0.0109720230102539,0.030832752585411,-0.0193340498954057,-0.1461604386568069,0.1379626095294952,-0.1070050150156021,0.0,0.0,0.3061830997467041,0.9343922138214112
-0.0111370086669921,0.0273774955421686,-0.0096479952335357,-0.1529497057199478,0.1311454772949218,-0.136342778801918,0.0,0.0,0.5940861701965332,0.932990550994873
-0.0111768720671534,0.0244623273611068,0.0041843974031507,-0.1288667917251587,0.1230052635073661,-0.1628040224313736,0.0,0.0,0.1627140045166015,0.5132802724838257
-0.0112693784758448,0.0217615216970443,-0.0003298935771454,-0.1193249151110649,0.1141312196850776,-0.1774809509515762,0.0,0.0,0.0344301462173461,0.678356409072876
-0.0112771987915039,0.019285449758172,0.0091162947937846,-0.1093189567327499,0.1043034791946411,-0.1965547055006027,0.0,0.0,-0.3683160543441772,0.4818472862243652
-0.0112936971709132,0.0162025541067123,0.0079586459323763,-0.1363770067691803,0.0947682186961174,-0.1907052546739578,0.0,0.0,0.4922236204147339,0.083147644996643
-0.0113955494016408,0.0136128282174468,-0.0008074952056631,-0.1145306453108787,0.085476703941822,-0.1858303844928741,0.0,0.0,-0.1918232440948486,0.206314206123352
-0.0115067483857274,0.0104159926995635,-0.0019932738505303,-0.1415871232748031,0.0764401108026504,-0.1807318031787872,0.0,0.0,0.5163407325744629,0.6007980108261108
-0.0115321157500147,0.0072529888711869,0.007384595926851,-0.1401010900735855,0.0666254237294197,-0.1962940692901611,0.0,0.0,0.1841167211532592,0.0737322568893432
-0.0117449760437011,0.0045909499749541,0.0007140886737033,-0.11747707426548,0.0448680371046066,-0.4351482391357422,0.0,1.0,0.7550468444824219,0.5311185121536255
-0.0120857236906886,0.0021381950937211,-0.0105677330866456,-0.1084721386432647,0.0216492880135774,-0.4643753170967102,0.0,1.0,0.2554001808166504,0.1962964534759521
-0.012452220544219,-0.0002741122152656,-0.0130507256835699,-0.1070368960499763,-0.0016443107742816,-0.4658721387386322,0.0,1.0,0.4475231170654297,0.3599560260772705
-0.0127951623871922,-0.0025867843069136,-0.0108031099662184,-0.1029734313488006,-0.0248318240046501,-0.4637504518032074,1.0,0.0,0.7012083530426025,0.0283864736557006
-0.0129408836364746,-0.0044658328406512,-0.0038397635798901,-0.0840237438678741,-0.0339915193617343,-0.1813537031412124,1.0,0.0,0.6322304010391235,0.0956251621246337
-0.0128458021208643,-0.0053912308067083,0.0017898970982059,-0.040981113910675,-0.026330629363656,0.1532705128192901,1.0,0.0,-0.0974423885345459,0.2776440382003784
-0.0127763748168945,-0.0057369852438569,0.001036545378156,-0.0153102772310376,-0.0205596424639225,0.1153587475419044,1.0,1.0,-0.2301061749458313,0.4816005229949951
-0.01275978051126,-0.0055903578177094,-0.0029251489322632,0.0065792789682745,-0.0160402376204729,0.0903761535882949,1.0,1.0,-0.4612462520599365,0.4317543506622314
