x_pos,y_pos,x_vel,y_vel,angle,ang_vel,leg_1,leg_2,main_booster,lat_booster
-0.0015214920276775,1.4031939506530762,-0.1546320617198944,-0.3433849513530731,0.0022249214816838,0.0439229868352413,0.0,0.0,-0.4921019077301025,0.9383482933044434
-0.0029601096175611,1.3950562477111816,-0.1444804370403289,-0.3616802990436554,0.0028318362310528,0.012140386737883,0.0,0.0,0.1126002073287963,0.920534610748291
-0.0042176246643066,1.3868895769119265,-0.1250031292438507,-0.362961083650589,0.0020990842022001,-0.014656757004559,0.0,0.0,0.1867496967315673,0.2505724430084228
-0.0055570602416992,1.3788304328918457,-0.1332367360591888,-0.3581874668598175,0.0014066874282434,-0.0138490553945302,0.0,0.0,-0.4281708598136902,0.7951505184173584
-0.0068154335021972,1.3703433275222778,-0.1236598268151283,-0.3772054314613342,-0.000744956487324,-0.0430371314287185,0.0,0.0,-0.09212327003479,0.4846740961074829
-0.0080679897218942,1.3614256381988523,-0.1235305815935134,-0.3963380455970764,-0.0024463648442178,-0.0340313240885734,0.0,0.0,0.348413348197937,0.364111065864563
-0.0093312263488769,1.352784514427185,-0.1249733194708824,-0.3840486407279968,-0.0037874220870435,-0.0268235560506582,0.0,0.0,-0.0525797605514526,0.7504520416259766
-0.0105135915800929,1.3437145948410034,-0.1154654994606971,-0.4031151235103607,-0.0065341633744537,-0.0549400076270103,0.0,0.0,-0.318729043006897,0.0436649322509765
-0.011688232421875,1.3342143297195437,-0.1151352077722549,-0.4222470819950104,-0.008832836523652,-0.0459774248301982,0.0,0.0,-0.5153999924659729,0.7681033611297607
-0.0127939227968454,1.3242875337600708,-0.1071610450744628,-0.4412134885787964,-0.0122050708159804,-0.0674513429403305,0.0,0.0,-0.1736484766006469,0.7816039323806763
-0.0138201713562011,1.3139296770095823,-0.0978759676218032,-0.4603958129882812,-0.0169012658298015,-0.0939323604106903,0.0,0.0,0.480388879776001,0.3588563203811645
-0.0147653575986623,1.303849697113037,-0.090524822473526,-0.4480486512184143,-0.0208523776382207,-0.0790293216705322,0.0,0.0,-0.8427119255065918,-0.3328113555908203
-0.0157004352658987,1.2933390140533447,-0.0899554938077926,-0.4671898782253265,-0.0243606399744749,-0.0701716914772987,0.0,0.0,-0.7193294167518616,0.1797578334808349
-0.0166246406733989,1.282397985458374,-0.0893342047929763,-0.4863228797912597,-0.0274266321212053,-0.0613251850008964,0.0,0.0,-0.1809473633766174,-0.8124054074287415
-0.0175868030637502,1.2710367441177368,-0.0948060601949691,-0.504971444606781,-0.0288163479417562,-0.0277965404093265,0.0,0.0,-0.7102052569389343,0.1588239669799804
-0.0185373313724994,1.2592447996139526,-0.0940941721200943,-0.5241057276725769,-0.0297673884779214,-0.0190221909433603,0.0,0.0,-0.3166053891181946,-0.6886457204818726
-0.0195176117122173,1.2470319271087646,-0.0985812395811081,-0.5427795052528381,-0.0292252041399478,0.0108446152880787,0.0,0.0,-0.3085116147994995,-0.6104025840759277
-0.0205224994570016,1.2343847751617432,-0.1024145931005477,-0.5620545744895935,-0.0273226536810398,0.0380545146763324,0.0,0.0,-0.3883953094482422,0.3354856967926025
-0.0215147025883197,1.2213071584701538,-0.1015871539711952,-0.581188976764679,-0.0249862745404243,0.046731986105442,0.0,0.0,-0.0152286887168884,-0.4424099922180176
-0.0224939342588186,1.2077988386154177,-0.1007243618369102,-0.6003233194351196,-0.022217521443963,0.0553800575435161,0.0,0.0,-0.2008083462715149,0.2596766948699951
-0.0234599113464355,1.1938600540161133,-0.099828653037548,-0.619458019733429,-0.0190186016261577,0.0639841705560684,0.0,0.0,-0.6271601915359497,0.0631608963012695
-0.0244123451411724,1.1794908046722412,-0.0989026948809623,-0.6385930776596069,-0.0153916161507368,0.0725460052490234,0.0,0.0,-0.6515753865242004,0.3815481662750244
-0.0253508575260639,1.1646910905838013,-0.0979486182332038,-0.6577285528182983,-0.0113388756290078,0.0810619443655014,0.0,0.0,-0.2117801904678344,0.8768570423126221
-0.0261979103088378,1.1494498252868652,-0.0872655659914016,-0.6773713231086731,-0.0088085727766156,0.0506106615066528,0.0,0.0,0.4198634624481201,0.4442729949951172
-0.0271476749330759,1.134609341621399,-0.0974012017250061,-0.6595655679702759,-0.0064225541427731,0.0477248430252075,0.0,0.0,-0.795093834400177,0.0610898733139038
-0.02808303758502,1.1193166971206665,-0.096376284956932,-0.6796578168869019,-0.0036182792391628,0.0560854487121105,0.0,0.0,0.0096985101699829,0.2057536840438842
-0.0289996154606342,1.1042598485946655,-0.0949294418096542,-0.6691940426826477,-0.0003876996634062,0.0646116286516189,0.0,0.0,-0.3240939378738403,0.7990777492523193
-0.0298516266047954,1.0887807607650757,-0.0876333862543106,-0.6879606246948242,0.0020110553596168,0.0479750409722328,0.0,0.0,-0.1224111318588256,0.0950064659118652
-0.0306884758174419,1.0728713274002075,-0.0865316167473793,-0.707094132900238,0.0048187691718339,0.0561543926596641,0.0,0.0,0.6222354173660278,0.5707054138183594
-0.0314893722534179,1.057247519493103,-0.0821372494101524,-0.6943954825401306,0.006840999238193,0.0404443144798278,0.0,0.0,-0.7612088918685913,0.2143225669860839
-0.0322749130427837,1.0411934852600098,-0.0810018256306648,-0.7135290503501892,0.0092643816024065,0.0484675951302051,0.0,0.0,-0.1325100660324096,0.0224759578704834
-0.0330448150634765,1.0247089862823486,-0.079851433634758,-0.7326628565788269,0.0120844952762126,0.0564021840691566,0.0,0.0,0.1289584636688232,0.4157629013061523
-0.0338622108101844,1.0086148977279663,-0.0847247540950775,-0.7153244614601135,0.0150354402139782,0.0590189509093761,0.0,0.0,-0.4329083561897278,0.7042669057846069
-0.0346138961613178,0.9920850396156312,-0.0772891193628311,-0.7346802353858948,0.0171210300177335,0.0417119972407817,0.0,0.0,-0.3793849349021911,0.8222684860229492
-0.0352831855416297,0.9751283526420592,-0.06771782040596,-0.7536422610282898,0.0179079566150903,0.0157381631433963,0.0,0.0,0.4717795848846435,-0.1032828092575073
-0.0359323509037494,0.9587520956993104,-0.0661784633994102,-0.7278462052345276,0.0191443003714084,0.0247271284461021,0.0,0.0,0.0725841522216796,0.1860437393188476
-0.0365884788334369,0.942388355731964,-0.0671567171812057,-0.727298378944397,0.0206696037203073,0.0305059440433979,0.0,0.0,-0.4792929291725158,0.3779891729354858
-0.037228774279356,0.9255942702293396,-0.0659369751811027,-0.7464321255683899,0.0225552562624216,0.0377129018306732,0.0,0.0,-0.0999534130096435,-0.1273750066757202
-0.0378532409667968,0.908369779586792,-0.0647083520889282,-0.7655659914016724,0.0247931592166423,0.0447582900524139,0.0,0.0,0.1649420261383056,0.7057942152023315
-0.0383940711617469,0.8913617134094238,-0.0553003028035163,-0.7559416890144348,0.0259969905018806,0.0240763109177351,0.0,0.0,0.1679884195327758,0.8101937770843506
-0.0389561653137207,0.8747543692588806,-0.0560723133385181,-0.7380975484848022,0.0258591454476118,-0.0027569984085857,0.0,0.0,0.0096473693847656,-0.2133891582489013
-0.0394353866577148,0.8581994771957397,-0.0484597980976104,-0.7357864379882812,0.0263938046991825,0.0106934774667024,0.0,0.0,0.4994492530822754,0.5225064754486084
-0.0397699363529682,0.8416404128074646,-0.0335161350667476,-0.7359540462493896,0.0264424979686737,0.0009740148670971,0.0,0.0,0.0221805572509765,0.3375060558319092
-0.0400362014770507,0.8251440525054932,-0.0272615011781454,-0.7331879138946533,0.027075819671154,0.0126661639660596,0.0,0.0,-0.3146323561668396,-0.0325883030891418
-0.0402867309749126,0.8082171082496643,-0.0259901173412799,-0.7523215413093567,0.0279966406524181,0.0184166207909584,0.0,0.0,0.1537402868270874,-0.0889884829521179
-0.040496252477169,0.7912110686302185,-0.0223086830228567,-0.7558476328849792,0.0293394699692726,0.0268566701561212,0.0,0.0,0.0860222578048706,0.6922773122787476
-0.0405983924865722,0.7742158770561218,-0.0104916719719767,-0.7553511261940002,0.0296104662120342,0.0054201520979404,0.0,0.0,-0.1772300601005554,0.4238426685333252
-0.0406851768493652,0.7567902207374573,-0.0092037366703152,-0.7744846343994141,0.0301243364810943,0.0102775422856211,0.0,0.0,0.3471723794937134,-0.1155459284782409
-0.0408843047916889,0.7398928999900818,-0.0201511327177286,-0.7510004043579102,0.0303637143224477,0.004787519108504,0.0,0.0,-0.3368465900421142,0.0605380535125732
-0.0410682670772075,0.7225649356842041,-0.0188533831387758,-0.770133912563324,0.0308112185448408,0.0089499345049262,0.0,0.0,0.0593620538711547,0.5283093452453613
-0.0411049835383892,0.7053622007369995,-0.0034224067348986,-0.7645609974861145,0.0305723156780004,-0.0047783683985471,0.0,0.0,-0.0556476712226867,0.2279514074325561
-0.041126824915409,0.6877291202545166,-0.0021156545262783,-0.783694326877594,0.0305028818547725,-0.0013886842643842,0.0,0.0,0.4517602920532226,-0.4957315325736999
-0.0410500541329383,0.670255720615387,0.0071570621803402,-0.7766101360321045,0.0310265813022851,0.0104739591479301,0.0,0.0,-0.0082337856292724,0.4982180595397949
-0.040958784520626,0.6523517370223999,0.0084720831364393,-0.7957433462142944,0.0316775925457477,0.0130200879648327,0.0,0.0,0.1705838441848755,0.9006969928741455
-0.0406696312129497,0.6345411539077759,0.0299137625843286,-0.7915603518486023,0.03068751655519,-0.0198015011847019,0.0,0.0,0.2509838342666626,0.6600627899169922
-0.0404056534171104,0.6168307065963745,0.0287676211446523,-0.787077784538269,0.0283406171947717,-0.0469377264380455,0.0,0.0,0.7667151689529419,-0.0595297217369079
-0.0400514602661132,0.599972128868103,0.0372603237628936,-0.7492354512214661,0.0265175104141235,-0.0364621877670288,0.0,0.0,-0.066666841506958,0.5213449001312256
-0.0396330840885639,0.5826873183250427,0.0449469536542892,-0.7681620717048645,0.0234546232968568,-0.0612579211592674,0.0,0.0,0.531111478805542,0.5051958560943604
-0.03910493850708,0.5661255717277527,0.0567201562225818,-0.73601895570755,0.01959297247231,-0.0772327929735183,0.0,0.0,-0.1525817513465881,-0.4296303391456604
-0.0385635383427143,0.5491335988044739,0.058055430650711,-0.7551531195640564,0.0157180558890104,-0.0774982571601867,0.0,0.0,0.75887131690979,-0.6074927449226379
-0.0380048751831054,0.5322974920272827,0.0584559813141822,-0.7482459545135498,0.0131634408608078,-0.0510921999812126,0.0,0.0,0.1025643348693847,-0.2168234586715698
-0.0375063903629779,0.5157318115234375,0.0528036579489707,-0.7362310290336609,0.0102377859875559,-0.0585130751132965,0.0,0.0,0.8516873121261597,-0.0322111845016479
-0.0368629470467567,0.4996071457862854,0.0667479336261749,-0.7166337966918945,0.0078673129901289,-0.0474094077944755,0.0,0.0,0.6809530258178711,-0.7327139973640442
-0.0362438187003135,0.4839881658554077,0.062897652387619,-0.6941688656806946,0.0068993349559605,-0.0193600095808506,0.0,0.0,-0.0694778561592102,-0.351357638835907
-0.0356125831604003,0.4679388403892517,0.064242884516716,-0.7133017778396606,0.0058003216981887,-0.021980196237564,0.0,0.0,0.4849774837493896,-0.749866247177124
-0.0351552963256835,0.4522545635700226,0.0457013882696628,-0.6970773339271545,0.0058311484754085,0.0006166337407194,0.0,0.0,0.220792531967163,-0.0726246833801269
-0.0346740707755088,0.4370884895324707,0.0481936000287532,-0.67404705286026,0.0057610520161688,-0.0014020467642694,0.0,0.0,-0.0144202709197998,-0.2285014390945434
-0.0341813080012798,0.4214919209480285,0.0495407804846763,-0.6931799054145813,0.0054963584989309,-0.0052937543950974,0.0,0.0,0.7755175828933716,-0.1116466522216796
-0.0336532592773437,0.4068411886692047,0.0531553849577903,-0.6511411666870117,0.0051519321277737,-0.0068886219523847,0.0,0.0,0.5823924541473389,-0.1639472246170044
-0.0332064628601074,0.3924393653869629,0.0456786714494228,-0.6400789022445679,0.0041579459793865,-0.0198795180767774,0.0,0.0,0.6400065422058105,-0.4163689613342285
-0.0328427329659462,0.3786146938800812,0.0380587801337242,-0.6144263744354248,0.0024922071024775,-0.0333148501813411,0.0,0.0,0.7775413990020752,0.2886369228363037
-0.0324368476867675,0.3653640151023865,0.042392861098051,-0.5889148712158203,0.000712948734872,-0.0355852469801902,0.0,0.0,0.2721997499465942,-0.3707499504089355
-0.0321200378239154,0.3526583611965179,0.0342358760535717,-0.5646979212760925,-0.0018072723178192,-0.050404418259859,0.0,0.0,0.1474050283432006,-0.3744921684265136
-0.0317410454154014,0.3401236534118652,0.0405132919549942,-0.5571003556251526,-0.0043880087323486,-0.0516147911548614,0.0,0.0,0.4703145027160644,-0.8169737458229065
-0.0314486511051654,0.3276749849319458,0.0305759999901056,-0.5532810091972351,-0.0057022445835173,-0.0262849424034357,0.0,0.0,-0.1135389804840087,-0.2440659999847412
-0.0311461444944143,0.3147957921028137,0.0319092646241188,-0.5724142789840698,-0.0073391422629356,-0.03273781016469,0.0,0.0,0.6932957172393799,-0.7471744418144226
-0.0309258457273244,0.3020015954971313,0.0225965064018964,-0.5686339139938354,-0.0078966729342937,-0.0111505817621946,0.0,0.0,0.8197401762008667,-0.5020126700401306
-0.030738353729248,0.2900924980640411,0.0186843164265155,-0.5292919278144836,-0.0078297993168234,0.0013375455746427,0.0,0.0,0.5322583913803101,0.0244309902191162
-0.030461024492979,0.2788869440555572,0.0276739839464426,-0.4980247914791107,-0.0077747013419866,0.0011021324899047,0.0,0.0,0.1820019483566284,-0.1381773352622985
-0.0302499774843454,0.2681289315223694,0.0217922534793615,-0.4781360328197479,-0.0084552774205803,-0.0136117041110992,0.0,0.0,0.4554401636123657,-0.4530995488166809
-0.0301411636173725,0.2573796510696411,0.0124835260212421,-0.4777559041976928,-0.0100358314812183,-0.0316110961139202,0.0,0.0,0.4314451217651367,0.2369701862335205
-0.0299813263118267,0.2472267299890518,0.0178048610687255,-0.4512537121772766,-0.0118351783603429,-0.0359868593513965,0.0,0.0,-0.284234881401062,-0.5529847741127014
-0.0298636443912982,0.236644297838211,0.0126833710819482,-0.4703387320041656,-0.0127373710274696,-0.0180439967662096,0.0,0.0,0.5699324607849121,-0.3163787126541137
-0.0297809597104787,0.2265984565019607,0.0098254885524511,-0.4464939534664154,-0.0142746390774846,-0.0307452771812677,0.0,0.0,0.0726652145385742,-0.5156958699226379
-0.0297325141727924,0.2168069034814834,0.0057909088209271,-0.435189813375473,-0.015201823785901,-0.0185437761247158,0.0,0.0,0.4142568111419678,-0.2337347269058227
-0.0295932777225971,0.2073301821947097,0.0149285700172185,-0.4211970865726471,-0.016189182177186,-0.019747057929635,0.0,0.0,0.0526617765426635,-0.7665703296661377
-0.0294853206723928,0.197743758559227,0.0106569472700357,-0.4260649979114532,-0.0160530693829059,0.0027222183998674,0.0,0.0,0.5835826396942139,-0.7874065041542053
-0.0293268207460641,0.1882990151643753,0.0143753290176391,-0.4197489619255066,-0.0145962443202734,0.0291364677250385,0.0,0.0,0.144315481185913,-0.0738271474838256
-0.0290526393800973,0.1790149956941604,0.0258961878716945,-0.4126117527484894,-0.0130870584398508,0.0301837529987096,0.0,0.0,0.3469340801239013,0.0015970468521118
-0.0286526679992675,0.1697804778814315,0.0383665449917316,-0.4104059934616089,-0.0114749139174819,0.0322430506348609,0.0,0.0,0.4745969772338867,-0.9011382460594176
-0.0283142086118459,0.1611293107271194,0.0308324489742517,-0.3844758868217468,-0.0085033131763339,0.0594319328665733,0.0,0.0,0.2308411598205566,-0.5888885855674744
-0.027984619140625,0.152900293469429,0.0291551910340785,-0.3657190203666687,-0.0047434023581445,0.0751979500055313,0.0,0.0,-0.1824608445167541,-0.8603637218475342
-0.0277015678584575,0.1442445665597915,0.0235511995851993,-0.3846884071826935,-5.8532634284347296e-05,0.0936977788805961,0.0,0.0,0.305801510810852,0.0648847818374633
-0.0273318290710449,0.1355457603931427,0.0323046781122684,-0.3866230249404907,0.0045604747720062,0.0923801288008689,0.0,0.0,0.253761887550354,-0.148651123046875
-0.0269966125488281,0.1269959509372711,0.0294638071209192,-0.3800062537193298,0.0085580572485923,0.0799518376588821,0.0,0.0,0.4574432373046875,-0.0210503935813903
-0.0265865325927734,0.1191584691405296,0.0370462946593761,-0.3483607172966003,0.0124619854614138,0.078078493475914,0.0,0.0,0.2639387845993042,-0.8310558795928955
-0.0262616164982318,0.1115418523550033,0.0273289792239666,-0.338567852973938,0.0175590831786394,0.1019420251250267,0.0,0.0,0.0035398006439208,0.0468499660491943
-0.0260145179927349,0.1042176336050033,0.0203508976846933,-0.3255777955055237,0.0218639448285102,0.0860971435904502,0.0,0.0,0.0598359107971191,0.3393611907958984
-0.0257153511047363,0.0971362441778183,0.0257431622594594,-0.3147966265678406,0.0259829815477132,0.0823807567358017,0.0,0.0,-0.0560998916625976,0.3649184703826904
-0.0254104621708393,0.0896244123578071,0.0267672948539257,-0.3339300453662872,0.0296566076576709,0.0734727308154106,0.0,0.0,0.4069638252258301,0.9209533929824828
-0.0251267440617084,0.0826443061232566,0.0270368456840515,-0.3102529644966125,0.030976764857769,0.02640300989151,0.0,0.0,0.6022863388061523,-0.3871979713439941
-0.02487688139081,0.0759565234184265,0.0242155063897371,-0.2972512543201446,0.0317376032471656,0.0152166960760951,0.0,0.0,0.2308326959609985,0.822767972946167
-0.0246707908809185,0.0695089921355247,0.0220400746911764,-0.2865278124809265,0.0303280912339687,-0.0281901713460683,0.0,0.0,0.5298174619674683,-0.3905690908432007
-0.0246140472590923,0.0633516386151313,0.0082090944051742,-0.2736113667488098,0.0278245154768228,-0.0500713661313056,0.0,0.0,0.0040106773376464,0.9049537181854248
-0.0244167335331439,0.0574301816523075,0.0245633199810981,-0.2630936503410339,0.0230514053255319,-0.0954620093107223,0.0,0.0,0.0186632871627807,-0.5585124492645264
-0.0242225639522075,0.0514145940542221,0.0235217250883579,-0.267302930355072,0.019000494852662,-0.0810184329748153,0.0,0.0,-0.0922130346298217,0.0465402603149414
-0.024024773389101,0.0449686385691165,0.0243377909064292,-0.2864365577697754,0.014498327858746,-0.0900432914495468,0.0,0.0,0.749413013458252,-0.4911764860153198
-0.0238598827272653,0.0393243394792079,0.0216217897832393,-0.2508176565170288,0.0094323316588997,-0.1013198941946029,0.0,0.0,0.0334922075271606,-0.7390509843826294
-0.0236525535583496,0.0340607017278671,0.0247678309679031,-0.2339188307523727,0.0054482202976942,-0.0796823054552078,0.0,0.0,0.0486079454421997,-0.7012913823127747
-0.0234447475522756,0.0289185140281915,0.0238116718828678,-0.2285306006669998,0.0024536144919693,-0.0598922260105609,0.0,0.0,0.2596749067306518,-0.4428029060363769
-0.0232419017702341,0.0242798663675785,0.0238077286630868,-0.2061636000871658,-0.0010189731838181,-0.0694517940282821,0.0,0.0,0.1513371467590332,-0.6538041830062866
-0.0230409614741802,0.0200397595763206,0.0226896628737449,-0.1884512156248092,-0.0035795308649539,-0.0512113757431507,0.0,0.0,0.0734686851501464,0.0619404315948486
-0.0227852817624807,0.0158158876001834,0.0283794794231653,-0.1877370923757553,-0.0063505745492875,-0.0554208979010582,0.0,0.0,-0.0460116863250732,-0.5611093640327454
-0.0225819591432809,0.0111630773171782,0.0222288239747285,-0.2067999243736267,-0.0082318233326077,-0.0376248434185981,0.0,0.0,0.6800097227096558,-0.0216303467750549
-0.022504424676299,0.006866643205285,0.0107310991734266,-0.1909698992967605,-0.0111694391816854,-0.0587522983551025,0.0,0.0,0.5560989379882812,0.301835298538208
-0.0224411971867084,0.0029367066454142,0.0098617356270551,-0.174694687128067,-0.014653293415904,-0.0696772411465644,0.0,0.0,0.5188183784484863,0.0920910835266113
-0.022347068414092,-0.0006884598988108,0.0132840853184461,-0.1611614674329757,-0.018478974699974,-0.0765136703848838,1.0,0.0,0.830486536026001,0.1359086036682129
-0.0220592506229877,-0.0037644528783857,0.0221842899918556,-0.1368108093738556,-0.0113609386608004,0.1431322395801544,1.0,0.0,0.9574258327484132,-0.1658270359039306
-0.021641444414854,-0.0048666619695723,0.0375520326197147,-0.0489855781197547,-0.0072296094149351,0.0825833231210708,1.0,1.0,-0.1937326192855835,-0.4358371496200561
-0.021332835778594,-0.0052685644477605,0.0281632393598556,-0.0178505051881074,-0.0045535615645349,0.0535316988825798,1.0,1.0,-0.5958660244941711,-0.2615307569503784
-0.0211370475590229,-0.0049572135321795,0.0175217539072036,0.013828745111823,-0.0025587622076272,0.0398511514067649,1.0,1.0,-0.6509770750999451,-0.0188956260681152
