x_pos,y_pos,x_vel,y_vel,angle,ang_vel,leg_1,leg_2,main_booster,lat_booster
-0.0015273094177246,1.4033963680267334,-0.1546725928783416,-0.3343894779682159,0.0017419353825971,0.0343596450984478,0.0,0.0,-0.4955694079399109,0.834564208984375
-0.0029867172706872,1.3956637382507324,-0.145816683769226,-0.3436708748340606,0.0016231574118137,-0.0023752611596137,0.0,0.0,-0.5267982482910156,0.523606538772583
-0.0043983459472656,1.3876988887786863,-0.1397541463375091,-0.3539955019950866,0.000223340888624,-0.0279987789690494,0.0,0.0,-0.2252190113067627,-0.0885604619979858
-0.0058121681213378,1.3795057535171509,-0.1399508416652679,-0.3641378283500671,-0.0011853004107251,-0.0281754378229379,0.0,0.0,-0.1191151738166809,0.0798491239547729
-0.0072275162674486,1.371084451675415,-0.1401054561138153,-0.3742775917053222,-0.0025959538761526,-0.0282158646732568,0.0,0.0,-0.0758892297744751,0.3617341518402099
-0.0086439130827784,1.3624351024627686,-0.1402168869972229,-0.3844166398048401,-0.0040013086982071,-0.0281097032129764,0.0,0.0,-0.4396603107452392,0.4635084867477417
-0.0100608821958303,1.3535577058792114,-0.1402854770421981,-0.3945557177066803,-0.0053945914842188,-0.0278682522475719,0.0,0.0,-0.3785039186477661,0.7813211679458618
-0.0114010814577341,1.3444539308547974,-0.1306842714548111,-0.4046285450458526,-0.0086993230506777,-0.0661005973815918,0.0,0.0,0.3716322183609009,0.0849771499633789
-0.0127447126433253,1.3361642360687256,-0.131010353565216,-0.3684477806091308,-0.0120259271934628,-0.0665380507707595,0.0,0.0,0.1769161224365234,0.2848967313766479
-0.014081859961152,1.328422784805298,-0.1303765773773193,-0.3441011309623718,-0.0153247071430087,-0.0659813582897186,0.0,0.0,-0.1509357690811157,-0.1502243876457214
-0.015417480841279,1.3204530477523804,-0.1302706897258758,-0.3542431592941284,-0.018587127327919,-0.0652540847659111,0.0,0.0,0.0851005315780639,0.3884518146514892
-0.0166983604431152,1.3127745389938354,-0.1250562816858291,-0.3413087427616119,-0.0215881466865539,-0.0600259192287921,0.0,0.0,-0.7140263319015503,0.3136873245239258
-0.017976950854063,1.30486798286438,-0.1248706802725792,-0.3514528572559356,-0.0245430376380682,-0.059103138744831,0.0,0.0,-0.522539496421814,0.3581995964050293
-0.0192526821047067,1.2967333793640137,-0.1246460080146789,-0.3615913689136505,-0.0274471119046211,-0.0580865629017353,0.0,0.0,-0.4762897491455078,0.5295400619506836
-0.0204736702144145,1.288373947143555,-0.1179092675447464,-0.3716060519218445,-0.0315921306610107,-0.0829079896211624,0.0,0.0,-0.8985646963119507,0.327986478805542
-0.0216910354793071,1.2797865867614746,-0.1176065430045127,-0.3817466795444488,-0.0356779359281063,-0.0817233324050903,0.0,0.0,-0.8031912446022034,0.1086010932922363
-0.0229043960571289,1.270971417427063,-0.1172689199447631,-0.3918872773647308,-0.0397020354866981,-0.0804894119501113,0.0,0.0,-0.3448843955993652,0.5684092044830322
-0.0240581519901752,1.26192045211792,-0.1099546998739242,-0.4024266302585602,-0.045057438313961,-0.1071177870035171,0.0,0.0,-0.936245858669281,0.6279265880584717
-0.0251492504030466,1.252643585205078,-0.1023114547133445,-0.412521481513977,-0.051792174577713,-0.1347067505121231,0.0,0.0,-0.9073439240455629,0.2323627471923828
-0.0262352935969829,1.2431392669677734,-0.1018685325980186,-0.4226646721363067,-0.0584567710757255,-0.1333041191101074,0.0,0.0,-0.8189070224761963,-0.0619059801101684
-0.0273158065974712,1.2334071397781372,-0.1013963669538497,-0.4328079521656036,-0.0650502070784568,-0.1318806260824203,0.0,0.0,-0.9800984859466552,-0.798888623714447
-0.0284525863826274,1.2234489917755127,-0.1086682081222534,-0.4428152441978454,-0.0700139626860618,-0.0992839187383651,0.0,0.0,-0.9289479851722716,0.6472607851028442
-0.029521370306611,1.213255524635315,-0.1003641933202743,-0.4533604681491852,-0.0764709264039993,-0.1291510313749313,0.0,0.0,-0.9241411089897156,-0.530595064163208
-0.0306212417781353,1.2028326988220217,-0.1044827103614807,-0.4635282456874847,-0.0819210037589073,-0.1090113967657089,0.0,0.0,-0.9217644929885864,-0.6727716326713562
-0.0317798629403114,1.1921918392181396,-0.112125277519226,-0.473137766122818,-0.0856417119503021,-0.0744205042719841,0.0,0.0,-0.6620095372200012,0.3701826333999634
-0.0329333320260047,1.181301474571228,-0.1116558909416198,-0.4842287600040436,-0.0892901644110679,-0.0729688107967376,0.0,0.0,0.362045407295227,0.1530412435531616
-0.0340232849121093,1.1710774898529053,-0.1054120287299156,-0.4546171128749847,-0.0928528383374214,-0.0712538212537765,0.0,0.0,-0.741273045539856,-0.7972087860107422
-0.0351822860538959,1.16064453125,-0.1143303960561752,-0.4637931883335113,-0.0944093614816665,-0.0311301685869693,0.0,0.0,-0.6386131048202515,-0.2795566320419311
-0.0363341346383094,1.1499831676483154,-0.1136878952383995,-0.473930150270462,-0.0958979055285453,-0.0297709908336401,0.0,0.0,-0.5555234551429749,-0.0708308219909668
-0.0374788269400596,1.1390936374664309,-0.113027311861515,-0.4840671122074127,-0.0973208174109458,-0.0284583661705255,0.0,0.0,-0.5600383281707764,0.2040919065475464
-0.0386160835623741,1.1279761791229248,-0.1123497113585472,-0.4942041039466858,-0.0986808836460113,-0.0272014886140823,0.0,0.0,-0.2496456503868103,0.4694066047668457
-0.0397457107901573,1.1166303157806396,-0.1116561442613601,-0.5043410658836365,-0.0999813824892044,-0.0260097682476043,0.0,0.0,0.2759449481964111,0.1068434715270996
-0.0408694259822368,1.1059900522232056,-0.1108137145638465,-0.473006933927536,-0.1015210002660751,-0.0307925380766391,0.0,0.0,-0.76241135597229,-0.0759170055389404
-0.0419853217899799,1.0951216220855713,-0.1100910678505897,-0.4831440150737762,-0.1030089631676673,-0.0297593921422958,0.0,0.0,-0.7559836506843567,-0.1715648770332336
-0.0430933944880962,1.0840251445770264,-0.1093552336096763,-0.4932810962200165,-0.1044499427080154,-0.0288196243345737,0.0,0.0,-0.8110566139221191,0.4808814525604248
-0.0441935546696186,1.0727003812789917,-0.1086070537567138,-0.5034182071685791,-0.1058490946888923,-0.0279828216880559,0.0,0.0,-0.759203314781189,-0.1050300598144531
-0.0452857986092567,1.061147689819336,-0.1078472882509231,-0.5135553479194641,-0.1072119921445846,-0.0272583179175853,0.0,0.0,-0.750415027141571,-0.0727264881134033
-0.0463700294494628,1.0493667125701904,-0.1070766597986221,-0.5236924886703491,-0.1085447594523429,-0.0266555603593587,0.0,0.0,-0.8793904781341553,-0.8261743783950806
-0.0475146286189556,1.037378191947937,-0.1149184331297874,-0.5327930450439453,-0.1080948039889335,0.0089992759749293,0.0,0.0,-0.902255654335022,0.7149546146392822
-0.0485923774540424,1.0251529216766355,-0.106731966137886,-0.5434246063232422,-0.109120987355709,-0.0205235574394464,0.0,0.0,-0.9646220803260804,-0.4471677541732788
-0.049661923199892,1.0126992464065552,-0.1059328094124794,-0.5535619854927063,-0.1101380810141563,-0.020342007279396,0.0,0.0,-0.9205976724624634,-0.7727331519126892
-0.0507718101143837,1.0000240802764893,-0.1112016662955284,-0.5633295178413391,-0.1099292114377021,0.004177669994533,0.0,0.0,-0.919559895992279,0.4594134092330932
-0.0518736839294433,0.9871207475662231,-0.1103864535689354,-0.5734668970108032,-0.109727568924427,0.0040328782051801,0.0,0.0,-0.7151815295219421,-0.2673929333686828
-0.0529674515128135,0.973989188671112,-0.1095639839768409,-0.5836042761802673,-0.1095419898629188,0.0037115574814379,0.0,0.0,-0.986289381980896,0.095664381980896
-0.054053209722042,0.9606298208236694,-0.1087347865104675,-0.5937418341636658,-0.109381727874279,0.0032050595618784,0.0,0.0,-0.9974179863929749,0.3331358432769775
-0.0551309585571289,0.9470422267913818,-0.107899285852909,-0.6038795113563538,-0.1092564836144447,0.0025050994008779,0.0,0.0,-0.9267341494560242,-0.5152817964553833
-0.0562373176217079,0.933229923248291,-0.111649289727211,-0.6138075590133667,-0.1082536876201629,0.0200557149946689,0.0,0.0,-0.8965266942977905,-0.0238894820213317
-0.0573357567191123,0.9191896319389344,-0.1108025163412094,-0.6239454746246338,-0.1073064804077148,0.0189444385468959,0.0,0.0,-0.9473236799240112,0.7199645042419434
-0.0583817474544048,0.9049203991889954,-0.1043630987405777,-0.6342006325721741,-0.1075429320335388,-0.0047291191294789,0.0,0.0,-0.5408540964126587,-0.2138074040412902
-0.0594199188053607,0.8904232978820801,-0.1035066395998001,-0.6443386077880859,-0.1078570559620857,-0.0062820529565215,0.0,0.0,-0.99226576089859,-0.5902933478355408
-0.06048583984375,0.875703752040863,-0.1070863828063011,-0.6541633605957031,-0.1073635220527648,0.0098705533891916,0.0,0.0,-0.9673346281051636,-0.3434065580368042
-0.0615441314876079,0.8607563376426697,-0.1062216982245445,-0.6643016338348389,-0.1069711148738861,0.0078480588272213,0.0,0.0,-0.8757799863815308,-0.500560998916626
-0.0626272186636924,0.8455834984779358,-0.1094180941581726,-0.6742736101150513,-0.1058760061860084,0.0219022799283266,0.0,0.0,-0.8769722580909729,-0.5717438459396362
-0.0637473091483116,0.8301950693130493,-0.1141251772642135,-0.683781087398529,-0.1037705242633819,0.042109627276659,0.0,0.0,-0.4616378545761108,-0.1958693861961364
-0.064859963953495,0.8145788908004761,-0.1132507920265197,-0.6939200758934021,-0.1018036156892776,0.0393380373716354,0.0,0.0,-0.8696608543395996,0.1511101722717285
-0.0659653693437576,0.7987346649169922,-0.1123737692832946,-0.7040589451789856,-0.0999882966279983,0.0363066084682941,0.0,0.0,-0.8367244005203247,-0.3389562368392944
-0.0670636147260665,0.7826627492904663,-0.1114944368600845,-0.7141979932785034,-0.09833774715662,0.0330111607909202,0.0,0.0,-0.6808643341064453,-0.0331636667251586
-0.0681550055742263,0.7663630843162537,-0.1106131076812744,-0.7243369817733765,-0.0968653410673141,0.0294479429721832,0.0,0.0,-0.6221364140510559,-0.2903549671173095
-0.0692393332719802,0.7498354911804199,-0.1097301021218299,-0.7344760298728943,-0.0955846458673477,0.0256139189004898,0.0,0.0,-0.7726778388023376,-0.4878487586975097
-0.0703169852495193,0.7330800890922546,-0.1088457107543945,-0.7446150183677673,-0.0945093184709549,0.0215064920485019,0.0,0.0,-0.3834292888641357,-0.1361515522003173
-0.0713878646492958,0.7160967588424683,-0.1079602688550949,-0.7547541856765747,-0.0936531573534011,0.0171236433088779,0.0,0.0,-0.3447735905647278,-0.0307005047798156
-0.0724523514509201,0.6988858580589294,-0.1070740818977356,-0.7648933529853821,-0.0930299460887909,0.0124639943242073,0.0,0.0,0.5125740766525269,-0.0900347828865051
-0.0733538642525672,0.6821383833885193,-0.0910560935735702,-0.744270920753479,-0.0921305418014526,0.0179882142692804,0.0,0.0,0.6202559471130371,0.3688980340957641
-0.074170783162117,0.6660580039024353,-0.0824435949325561,-0.7146407961845398,-0.091384969651699,0.0149111319333314,0.0,0.0,-0.5031585097312927,-0.5066656470298767
-0.0750212669372558,0.6497514843940735,-0.0865247920155525,-0.7246440052986145,-0.089918665587902,0.0293260179460048,0.0,0.0,-0.3132144212722778,-0.433235764503479
-0.0758657455444336,0.6332173347473145,-0.0856388732790947,-0.7347837686538696,-0.0887408033013343,0.0235572047531604,0.0,0.0,0.3975510597229004,0.4691334962844848
-0.0766222029924392,0.6175346374511719,-0.0766115933656692,-0.6969537138938904,-0.087781123816967,0.019193772226572,0.0,0.0,-0.3885120749473572,-0.28624027967453
-0.0773730278015136,0.6016241908073425,-0.0757278054952621,-0.7070934176445007,-0.0871372371912002,0.0128774121403694,0.0,0.0,-0.2013584375381469,-0.2388269901275634
-0.0781182274222374,0.5854860544204712,-0.0748456194996833,-0.7172331213951111,-0.0868227109313011,0.0062908753752708,0.0,0.0,0.5097783803939819,-0.5774482488632202
-0.0789591819047927,0.5697820782661438,-0.0849985629320144,-0.6978981494903564,-0.0859191343188285,0.0180716030299663,0.0,0.0,0.1725530624389648,0.0111410617828369
-0.0798185318708419,0.554577112197876,-0.0861840546131134,-0.6757633090019226,-0.0856729000806808,0.0049247690476477,0.0,0.0,-0.533685028553009,-0.0515917539596557
-0.080672837793827,0.5391443967819214,-0.0853088721632957,-0.6859033107757568,-0.085795447230339,-0.0024509797804057,0.0,0.0,0.5563530921936035,-0.333965539932251
-0.0815749168395996,0.5246886014938354,-0.0891410261392593,-0.6425397396087646,-0.0868609324097633,-0.021309670060873,0.0,0.0,-0.8355396389961243,-0.5092776417732239
-0.0825077071785926,0.5100098252296448,-0.0926956459879875,-0.6524232625961304,-0.0874295234680175,-0.0113719636574387,0.0,0.0,-0.2325161695480346,0.6664861440658569
-0.0833866149187088,0.4950917959213257,-0.0856371968984603,-0.6631577014923096,-0.0896596536040306,-0.0446024015545845,0.0,0.0,0.2033190727233886,-0.1775973439216613
-0.0841905623674392,0.4802932441234588,-0.0779544562101364,-0.6578598618507385,-0.0920788049697876,-0.0483829751610755,0.0,0.0,0.7448346614837646,-0.111421525478363
-0.0849905014038086,0.4658073186874389,-0.0769692286849021,-0.6440090537071228,-0.0950821042060852,-0.0600660145282745,0.0,0.0,0.6381363868713379,-0.4542660713195801
-0.0857199653983116,0.452269583940506,-0.0694371238350868,-0.6019060611724854,-0.0985648781061172,-0.069655641913414,0.0,0.0,0.0017329454421997,0.228330373764038
-0.0863486304879188,0.4392356276512146,-0.0591206066310405,-0.5795367956161499,-0.1022752597928047,-0.0742073133587837,0.0,0.0,-0.8640376329421997,-0.9732142686843872
-0.0870635956525802,0.4259980320930481,-0.0696210786700248,-0.5884665250778198,-0.1041426211595535,-0.0373471714556217,0.0,0.0,-0.2891305088996887,-0.267173171043396
-0.0877750366926193,0.4125330448150635,-0.0687895193696022,-0.598608136177063,-0.106483019888401,-0.0468079596757888,0.0,0.0,-0.0258715152740478,-0.2853341102600097
-0.0884831398725509,0.3988407850265503,-0.0679651349782943,-0.6087502241134644,-0.1093064248561859,-0.05646812915802,0.0,0.0,0.8546500205993652,-0.3009562492370605
-0.0892306342720985,0.3859032392501831,-0.0708757415413856,-0.5752912759780884,-0.1131486371159553,-0.076844610273838,0.0,0.0,0.6044100522994995,-0.8575860857963562
-0.0900267586112022,0.3737446069717407,-0.076879434287548,-0.54059237241745,-0.1158707961440086,-0.0544430240988731,0.0,0.0,-0.7200905084609985,0.7805073261260986
-0.0907596573233604,0.3613523542881012,-0.0685029551386833,-0.5511448979377747,-0.1206287890672683,-0.0951600074768066,0.0,0.0,-0.8935901522636414,-0.2957266569137573
-0.0914897918701171,0.3487332463264465,-0.067712552845478,-0.5612892508506775,-0.1259061247110366,-0.1055464372038841,0.0,0.0,0.7151994705200195,-0.7709782123565674
-0.0922072380781173,0.3364149034023285,-0.0675011128187179,-0.5478464961051941,-0.1301217228174209,-0.0843120217323303,0.0,0.0,0.3868436813354492,-0.7802273631095886
-0.0928533524274826,0.3243615627288818,-0.0615325942635536,-0.5359761118888855,-0.1331968009471893,-0.0615011937916278,0.0,0.0,-0.0114999413490295,-0.9178208112716676
-0.093551829457283,0.3120919167995453,-0.0676014125347137,-0.5455214381217957,-0.1354292333126068,-0.0446490719914436,0.0,0.0,-0.7604324817657471,-0.3210057616233825
-0.0942482948303222,0.2995951771736145,-0.0668528750538826,-0.5556653141975403,-0.1382116228342056,-0.0556478612124919,0.0,0.0,0.7144200801849365,-0.6672113537788391
-0.0948936492204666,0.2880468070507049,-0.0625083297491073,-0.5134533643722534,-0.1402296423912048,-0.0403604432940483,0.0,0.0,-0.162699818611145,-0.8931826949119568
-0.0956030860543251,0.276292085647583,-0.0700525566935539,-0.5225153565406799,-0.1411139369010925,-0.0176858995109796,0.0,0.0,0.0232927799224853,-0.758357584476471
-0.0962233543395996,0.2649205029010772,-0.0621369183063507,-0.5053929090499878,-0.1410069018602371,0.0021404211875051,0.0,0.0,-0.4429649710655212,-0.2440413832664489
-0.0968424826860427,0.2533219158649444,-0.0614388287067413,-0.5155369639396667,-0.1414749175310135,-0.009360427968204,0.0,0.0,0.7850027084350586,-0.5566473603248596
-0.0974865928292274,0.2423339486122131,-0.0643170624971389,-0.4883647263050079,-0.1415770798921585,-0.0020433103200048,0.0,0.0,0.0690613985061645,-0.0747342109680175
-0.0979969948530197,0.2319364100694656,-0.0505999140441417,-0.462153285741806,-0.1420115381479263,-0.0086893290281295,0.0,0.0,-0.6974906921386719,-0.3789555430412292
-0.0985067337751388,0.221311941742897,-0.0499450713396072,-0.4722976088523865,-0.1430364549160003,-0.0204983949661254,0.0,0.0,-0.4699450731277466,-0.7237670421600342
-0.0990837067365646,0.2104818224906921,-0.0578271560370922,-0.4813270568847656,-0.1429070830345153,0.0025877743028104,0.0,0.0,-0.4523262977600097,0.1390606164932251
-0.0996604934334755,0.1994246840476989,-0.0572035312652587,-0.4914714992046356,-0.143376886844635,-0.0093961805105209,0.0,0.0,0.5454574823379517,0.1225514411926269
-0.1001864448189735,0.18919338285923,-0.0512900128960609,-0.45485320687294,-0.1446814984083175,-0.0260923858731985,0.0,0.0,0.1457319259643554,-0.2704721689224243
-0.1006943732500076,0.1795183271169662,-0.0486220978200435,-0.4302157163619995,-0.1468583345413208,-0.0435364916920661,0.0,0.0,-0.5123766660690308,-0.7818194627761841
-0.1012667641043663,0.1696280539035797,-0.056071437895298,-0.4396867454051971,-0.1480186581611633,-0.0232064146548509,0.0,0.0,0.4586114883422851,-0.108441948890686
-0.1018632873892784,0.160321369767189,-0.0573929063975811,-0.4138565957546234,-0.1502686887979507,-0.0450005009770393,0.0,0.0,-0.204991340637207,-0.9323633909225464
-0.1025518402457237,0.1508064568042755,-0.0683176666498184,-0.4229393899440765,-0.1508049070835113,-0.0107242846861481,0.0,0.0,0.0543004274368286,0.1351079940795898
-0.1031057387590408,0.1417295038700103,-0.0545365884900093,-0.4035049378871918,-0.1516470611095428,-0.0168434046208858,0.0,0.0,0.0612115859985351,-0.5327974557876587
-0.1036238670349121,0.132772147655487,-0.0514847114682197,-0.3981356620788574,-0.1519731432199478,-0.0065217041410505,0.0,0.0,0.5171957015991211,-0.3679770231246948
-0.1039055809378624,0.1245965585112571,-0.0278422627598047,-0.3633936047554016,-0.1523060649633407,-0.0066582849249243,0.0,0.0,0.3023676872253418,-0.7511300444602966
-0.1041741371154785,0.1171254217624664,-0.027383467182517,-0.3319973647594452,-0.151784062385559,0.0104399342089891,0.0,0.0,0.2204101085662841,-0.8417935371398926
-0.104294016957283,0.1103606820106506,-0.0136679466813802,-0.3004863858222961,-0.1501106321811676,0.0334685668349266,0.0,0.0,-0.4544514417648315,-0.6075565218925476
-0.1044574752449989,0.1033785641193389,-0.0184500850737094,-0.3101040720939636,-0.1480035334825515,0.0421415939927101,0.0,0.0,-0.0182325839996337,-0.3720591068267822
-0.1046230345964431,0.0961696505546569,-0.0180420018732547,-0.3202494978904724,-0.1465251892805099,0.0295669250190258,0.0,0.0,0.4700074195861816,-0.3559029102325439
-0.1046353355050087,0.0897619575262069,-0.0023297937586903,-0.2846795618534088,-0.1454267352819442,0.0219692829996347,0.0,0.0,0.3357908725738525,-0.2762141227722168
-0.1045320481061935,0.0836633294820785,0.0095573123544454,-0.2709726095199585,-0.1446570754051208,0.0153932366520166,0.0,0.0,0.2992880344390869,-0.5518382787704468
-0.1045084968209266,0.0780927762389183,0.0013315759133547,-0.2474830150604248,-0.1436349749565124,0.0204423163086175,0.0,0.0,0.1792569160461425,0.1242828369140625
-0.1045259460806846,0.0728603899478912,-0.0017186978366225,-0.2325518876314163,-0.1436673253774643,-0.0006467731436714,0.0,0.0,-0.0620085000991821,-0.1243053078651428
-0.1045466437935829,0.0674011334776878,-0.00140508916229,-0.2426967620849609,-0.1443301141262054,-0.0132558988407254,0.0,0.0,0.6372971534729004,0.3706419467926025
-0.1044691056013107,0.0624941922724247,0.0089226141571998,-0.2181997001171112,-0.1455039530992508,-0.0234766788780689,0.0,0.0,0.4250130653381347,-0.4351069927215576
-0.1042387932538986,0.0577962510287761,0.0243204403668642,-0.2089236825704574,-0.1467861533164978,-0.0256440006196498,0.0,0.0,-0.0018690228462219,0.1099812984466552
-0.1040122061967849,0.052871499210596,0.024579020217061,-0.2190688252449035,-0.1486968696117401,-0.0382146425545215,0.0,0.0,0.5486922264099121,-0.8439653515815735
-0.1037164703011512,0.0488585568964481,0.0303745474666357,-0.1784335672855377,-0.1495043784379959,-0.016150239855051,0.0,0.0,0.234332799911499,-0.3177752494812011
