x_pos,y_pos,x_vel,y_vel,angle,ang_vel,leg_1,leg_2,main_booster,lat_booster
-0.0015052795642986,1.4032515287399292,-0.152064561843872,-0.3408264219760895,0.0013728811172768,0.0270521435886621,0.0,0.0,0.3523561853743575,0.7896087739694575
-0.0028813362587243,1.395795822143555,-0.1370470523834228,-0.3313620686531067,0.0008158726268447,-0.0111405234783887,0.0,0.0,0.94901127668002,0.8626927705551015
-0.003995990846306,1.3886754512786863,-0.1091315895318985,-0.3164579272270202,-0.001487569999881,-0.046073168516159,0.0,0.0,0.5238842334857148,-0.7423909245458965
-0.0052666664123535,1.3818713426589966,-0.1255439519882202,-0.3024064600467682,-0.0029961317777633,-0.0301740057766437,0.0,0.0,0.7263379836223354,-0.8734624309236443
-0.0064301490783691,1.3757187128067017,-0.1163890734314918,-0.2734499871730804,-0.0029531300533562,0.0008603336173109,0.0,0.0,0.6512776442769355,-0.6579305145851998
-0.0074689863249659,1.3700059652328491,-0.1051387563347816,-0.2539015114307403,-0.00171712518204,0.0247223433107137,0.0,0.0,-0.3010445323291091,-0.8509488931054554
-0.0085502620786428,1.3639204502105713,-0.1106547489762306,-0.2704703211784363,0.0007830773829482,0.0500088334083557,0.0,0.0,0.3694255432018365,0.8134308359839557
-0.0093997959047555,1.358268976211548,-0.0855412483215332,-0.2511760592460632,0.0013665955048054,0.0116711426526308,0.0,0.0,-0.6130076310210089,0.7076501058034661
-0.0101649286225438,1.3522522449493408,-0.0752004161477088,-0.2674104571342468,6.686060078209266e-05,-0.0259970817714929,0.0,0.0,-0.8455635659993785,-0.6890183905165285
-0.0109533313661813,1.3458667993545532,-0.078386053442955,-0.2837927639484405,-0.0003888736246153,-0.0091156726703047,0.0,0.0,-0.541894149352997,-0.9667361107116196
-0.0117749217897653,1.339109182357788,-0.0828161388635635,-0.3003361821174621,0.0002607786736916,0.0129941506311297,0.0,0.0,0.9713293613991204,-0.9778771705550346
-0.0125470161437988,1.332922101020813,-0.079447753727436,-0.2749814093112945,0.0024728721473366,0.0442460961639881,0.0,0.0,-0.5859699465922454,0.7495662570930973
-0.0132129667326807,1.3263660669326782,-0.0664325505495071,-0.2913804352283478,0.0023182400036603,-0.0030929252970963,0.0,0.0,0.6051334419375203,0.8815448875850332
-0.0136995315551757,1.3199471235275269,-0.0462763160467147,-0.2852901518344879,-3.596449823817238e-05,-0.0470883473753929,0.0,0.0,0.5735645393647044,0.8027616439706682
-0.0139369014650583,1.3143411874771118,-0.0194300878793001,-0.2491564154624939,-0.0043007964268326,-0.0853043645620346,0.0,0.0,-0.9292054442668852,-0.9379090587619084
-0.0141973495483398,1.308351755142212,-0.022678904235363,-0.2662095725536346,-0.0076316157355904,-0.066622145473957,0.0,0.0,0.0535628049272682,0.7498617544440118
-0.0142544750124216,1.3028149604797363,-0.0003146323142573,-0.2461164891719818,-0.0129760913550853,-0.1068990975618362,0.0,0.0,0.6098873426268294,0.7849189749450524
-0.0140522001311182,1.2974424362182615,0.0275381449609994,-0.2388580292463302,-0.0202013775706291,-0.1445187777280807,0.0,0.0,-0.5661016739448592,0.892032296696774
-0.0137276649475097,1.2917040586471558,0.0424565002322196,-0.2552048861980438,-0.0300962496548891,-0.1979153752326965,0.0,0.0,0.5186938073406897,0.9507057214644123
-0.0133553501218557,1.2863746881484983,0.0498588606715202,-0.2371624410152435,-0.042593378573656,-0.2499652653932571,0.0,0.0,0.2808043957419028,-0.6108577383431802
-0.0128553388640284,1.2815486192703247,0.0618277676403522,-0.2148697227239608,-0.0542983189225196,-0.2341198921203613,0.0,0.0,0.5027121241463033,0.7144016725705756
-0.0122228618711233,1.2769452333450315,0.0771243348717689,-0.2051520943641662,-0.0680381655693054,-0.2748216688632965,0.0,0.0,0.2998772232863,-0.8440562595246559
-0.0114681245759129,1.2726067304611206,0.0881671980023384,-0.1934526115655899,-0.0806252211332321,-0.2517637312412262,0.0,0.0,0.5773952778287803,0.7026137828632019
-0.0105175971984863,1.2683205604553225,0.1096603646874427,-0.1913509368896484,-0.0951139405369758,-0.2898002564907074,0.0,0.0,-0.3327993412455576,0.8032997674676949
-0.009473705664277,1.2636604309082031,0.1208510249853134,-0.2082405984401703,-0.1114762499928474,-0.3272754549980163,0.0,0.0,0.0962632010216206,-0.9111209594397875
-0.008519172668457,1.2593427896499634,0.110771931707859,-0.1931116133928299,-0.1266844123601913,-0.3041632771492004,0.0,0.0,-0.56578436639355,-0.8951453384022927
-0.0075881956145167,1.254675030708313,0.1072402372956276,-0.2087218910455703,-0.140777587890625,-0.2818631529808044,0.0,0.0,0.1519042673574251,0.7305844981257101
-0.0065752984955906,1.250510334968567,0.1176480799913406,-0.1867246925830841,-0.1570998877286911,-0.3264459669589996,0.0,0.0,-0.5605132265146302,0.7422901319083909
-0.0054697035811841,1.2459733486175537,0.1286972463130951,-0.2036630660295486,-0.1752543449401855,-0.3630887866020202,0.0,0.0,0.5808584869492621,-0.6366281740185127
-0.0043069841340184,1.2417747974395752,0.1338020861148834,-0.188769981265068,-0.1928579658269882,-0.3520723283290863,0.0,0.0,-0.1934565599242337,-0.9327930724953448
-0.0031655312050133,1.2372395992279053,0.1304932683706283,-0.203774869441986,-0.2093184888362884,-0.3292107582092285,0.0,0.0,0.6184834515863884,0.7896137194131255
-0.0019088744884356,1.2329699993133545,0.1443342119455337,-0.1925277858972549,-0.2281998097896576,-0.3776267468929291,0.0,0.0,-0.5319595352853668,0.6365822741322541
-0.0005606651538982,1.228325366973877,0.1551795303821563,-0.2097082734107971,-0.2488680630922317,-0.4133653044700622,0.0,0.0,-0.8776329231440616,-0.8652954456620472
0.0007620811229571,1.22333562374115,0.1513106822967529,-0.2251096069812774,-0.2682967782020569,-0.3885740637779236,0.0,0.0,-0.188167492837135,-0.8342263479044466
0.0020728111267089,1.2180070877075195,0.1490702331066131,-0.2402303665876388,-0.2867692112922668,-0.3694490790367126,0.0,0.0,-0.8375114089505655,-0.8218333082343215
0.0033740042708814,1.2123448848724363,0.1471244841814041,-0.2550928294658661,-0.3043088018894195,-0.3507919013500213,0.0,0.0,0.728139913332907,0.9622089831967328
0.0049098012968897,1.2069737911224363,0.1730865538120269,-0.2429312169551849,-0.324547529220581,-0.4047752022743225,0.0,0.0,-0.9593867887698018,0.7330915659660746
0.0065555572509765,1.2012146711349487,0.1861275434494018,-0.2609653770923614,-0.3470668196678161,-0.4503861367702484,0.0,0.0,-0.1847187731518158,0.9254522120211696
0.0083190919831395,1.1950674057006836,0.2000415623188018,-0.2791188955307007,-0.3720432817935943,-0.4995291233062744,0.0,0.0,-0.695550364097145,-0.9417437616925246
0.0100688934326171,1.1885976791381836,0.1973739117383957,-0.293552041053772,-0.3958683013916015,-0.4765006601810455,0.0,0.0,0.184536390932982,-0.7600564376297614
0.0119523052126169,1.1826287508010864,0.2097607105970382,-0.2714300453662872,-0.4188882112503052,-0.4603990614414215,0.0,0.0,-0.8762199878692627,-0.9981034994125366
0.0138303758576512,1.1763325929641724,0.2081445455551147,-0.286021888256073,-0.4409635365009308,-0.4415067732334137,0.0,0.0,-0.9471402168273926,-0.9970582723617554
0.015698242932558,1.1697053909301758,0.20598204433918,-0.3007367253303528,-0.4620115160942077,-0.4209597706794739,0.0,0.0,-0.9896023273468018,-0.9991447925567628
0.0175594333559274,1.162756085395813,0.2041780054569244,-0.3149868845939636,-0.4820168316364288,-0.4001063406467438,0.0,0.0,-0.9756442904472352,-0.980524480342865
0.0193968769162893,1.155489206314087,0.2002952843904495,-0.3288604319095611,-0.5005410313606262,-0.3704839646816253,0.0,0.0,-0.9484811425209044,-0.999410092830658
0.0212201122194528,1.1479008197784424,0.1976275146007537,-0.3429492712020874,-0.5178349018096924,-0.3458772301673889,0.0,0.0,-0.93193519115448,-0.995043933391571
0.0230333320796489,1.1399943828582764,0.1954440325498581,-0.3568503558635711,-0.5339456796646118,-0.3222156465053558,0.0,0.0,-0.9824556112289428,-0.9996502995491028
0.0248231887817382,1.1318020820617676,0.1913839280605316,-0.3690589666366577,-0.5482209920883179,-0.2855062782764435,0.0,0.0,-0.9566064476966858,-0.9996017813682556
0.0265874862670898,1.1233255863189695,0.1870779246091842,-0.3811274766921997,-0.5605841279029846,-0.2472630441188812,0.0,0.0,-0.924104630947113,-0.9950845241546632
0.0283349994570016,1.114544153213501,0.1840523034334182,-0.394220232963562,-0.5714523196220398,-0.2173643410205841,0.0,0.0,-0.7796692848205566,-0.9985881447792052
0.0300848968327045,1.1054435968399048,0.1834388077259063,-0.4081160426139831,-0.581392765045166,-0.1988090574741363,0.0,0.0,-0.8034679889678955,-0.9974527359008788
0.0318184867501258,1.0960519313812256,0.1803623139858245,-0.4205012321472168,-0.5896767377853394,-0.1656806468963623,0.0,0.0,-0.8385292887687683,-0.98383367061615
0.0335502624511718,1.0863409042358398,0.1792738586664199,-0.4343456625938415,-0.5969383716583252,-0.1452313959598541,0.0,0.0,-0.8875371813774109,-0.999157965183258
0.0352738387882709,1.0763351917266846,0.1772147417068481,-0.4469112455844879,-0.6027428507804871,-0.1160890683531761,0.0,0.0,-0.9080988764762878,-0.9994304180145264
0.0369999893009662,1.066008687019348,0.1766858845949173,-0.460830807685852,-0.6076299548149109,-0.0977419689297676,0.0,0.0,-0.9403029084205629,-0.9953165650367736
0.0387029647827148,1.0553879737854004,0.1728749722242355,-0.473234474658966,-0.6107316613197327,-0.0620343089103698,0.0,0.0,-0.9343360662460328,-0.9991825819015504
0.040407944470644,1.0444633960723877,0.1721298098564148,-0.4862999022006988,-0.6126922369003296,-0.0392112396657466,0.0,0.0,-0.8934199810028076,-0.9842060804367064
0.0421183593571186,1.0332252979278564,0.1718832701444625,-0.4998680055141449,-0.6137012243270874,-0.020179234445095,0.0,0.0,-0.9339807629585266,-0.9989555478096008
0.0438294410705566,1.021686315536499,0.1709322035312652,-0.512758195400238,-0.6134944558143616,0.0041359034366905,0.0,0.0,-0.9538936018943788,-0.9984341263771056
0.0455245971679687,1.0098624229431152,0.1678836345672607,-0.5247527956962585,-0.6115330457687378,0.039228655397892,0.0,0.0,-0.9738962650299072,-0.9950995445251464
0.047210406512022,0.9977245330810548,0.1658997684717178,-0.5382078886032104,-0.6083089709281921,0.0644813776016235,0.0,0.0,-0.916237771511078,-0.9992181062698364
0.048875905573368,0.98530113697052,0.1623350083827972,-0.5502073168754578,-0.6032472252845764,0.1012351363897323,0.0,0.0,-0.9337918162345886,-0.9958972334861756
0.0505416877567768,0.972560703754425,0.1615009158849716,-0.5639292597770691,-0.5971686840057373,0.1215718016028404,0.0,0.0,-0.9527824521064758,-0.9924777150154114
0.0521987900137901,0.95951646566391,0.1594467312097549,-0.5769270658493042,-0.5897175073623657,0.1490239351987838,0.0,0.0,-0.8911921381950378,-0.9943967461586
0.0538414008915424,0.9461626410484314,0.1567844301462173,-0.5901889204978943,-0.5808495283126831,0.1773594915866851,0.0,0.0,-0.9643476605415344,-0.9976928234100342
0.0554579719901084,0.9325193762779236,0.1525125205516815,-0.6024011969566345,-0.5700778365135193,0.2154334336519241,0.0,0.0,-0.8478938937187195,-0.999802827835083
0.0570676811039447,0.9185799360275269,0.1505506634712219,-0.6151260733604431,-0.5578985810279846,0.2435856163501739,0.0,0.0,-0.9538192749023438,-0.9994672536849976
0.0586680397391319,0.9043177366256714,0.1485243886709213,-0.6291610598564148,-0.5445681214332581,0.2666091918945312,0.0,0.0,-0.9255120158195496,-0.9969372153282166
0.0602606758475303,0.8897566795349121,0.1464790254831314,-0.6420667767524719,-0.5298609137535095,0.2941439747810364,0.0,0.0,-0.9436062574386596,-0.9989990592002868
0.061825942248106,0.874894380569458,0.1420573890209198,-0.6549810767173767,-0.5133740901947021,0.3297370374202728,0.0,0.0,-0.9392569661140442,-0.9996047616004944
0.0633662194013595,0.8597370982170105,0.1378271132707595,-0.667689323425293,-0.4951051771640777,0.3653785586357116,0.0,0.0,-0.972736120223999,-0.9942901134490968
0.0648940056562423,0.8442692756652832,0.1352180540561676,-0.6812692284584045,-0.4755019545555115,0.3920644521713257,0.0,0.0,-0.9586089849472046,-0.9843965768814088
0.0663939490914344,0.8285114765167236,0.1305487155914306,-0.6938349604606628,-0.4540261328220367,0.4295163154602051,0.0,0.0,-0.9443336725234984,-0.9905470609664916
0.067884162068367,0.81243497133255,0.1283067315816879,-0.7079395055770874,-0.431378960609436,0.4529428482055664,0.0,0.0,-0.9535959362983704,-0.9820069074630736
0.0693498626351356,0.796039879322052,0.1242258325219154,-0.7220116853713989,-0.4072248339653015,0.4830825328826904,0.0,0.0,-0.9291226267814636,-0.9793983697891236
0.0708012580871582,0.7793136239051819,0.1214843988418579,-0.7367947101593018,-0.3819182813167572,0.5061308741569519,0.0,0.0,-0.8205862641334534,-0.9882944226264954
0.0722252875566482,0.7622625231742859,0.1170699447393417,-0.7512765526771545,-0.3551056683063507,0.5362524390220642,0.0,0.0,-0.8197415471076965,-0.9731014370918274
0.0736291855573654,0.7448995113372803,0.1134599596261978,-0.7652857303619385,-0.3268760740756988,0.564592182636261,0.0,0.0,-0.5201277136802673,-0.9905783534049988
0.0750215500593185,0.7272185683250427,0.1109229177236557,-0.7796960473060608,-0.2974904775619507,0.5877127647399902,0.0,0.0,0.5023336410522461,-0.9791584014892578
0.0764985084533691,0.7103387713432312,0.1178559511899948,-0.7444082498550415,-0.2668043076992035,0.6137234568595886,0.0,0.0,0.520672082901001,-0.9739283919334412
0.0778984054923057,0.6936162710189819,0.1086661666631698,-0.7378360629081726,-0.2348717004060745,0.6386522650718689,0.0,0.0,0.8990395069122314,-0.975926160812378
0.0795350074768066,0.6778795123100281,0.1306294053792953,-0.6944983601570129,-0.2014593183994293,0.6682477593421936,0.0,0.0,0.9644043445587158,-0.9030359983444214
0.0811568275094032,0.6628528237342834,0.1279226839542389,-0.6635510325431824,-0.1670504212379455,0.6881786584854126,0.0,0.0,0.9734214544296264,-0.5502479672431946
0.082849308848381,0.6486983299255371,0.1344315707683563,-0.6255528330802917,-0.1322934776544571,0.6951393485069275,0.0,0.0,0.8951114416122437,-0.4136279821395874
0.0846798866987228,0.6353828310966492,0.1487008780241012,-0.589111864566803,-0.0981385111808776,0.6830999851226807,0.0,0.0,0.4001848697662353,0.0287216901779174
0.0866773575544357,0.622435450553894,0.1654513776302337,-0.5735341310501099,-0.0641643851995468,0.6794828176498413,0.0,0.0,0.4144246578216553,0.4987068176269531
0.0887577086687088,0.6095676422119141,0.1740869879722595,-0.5707938075065613,-0.0306019447743892,0.6712487936019897,0.0,0.0,0.3586536645889282,0.0575251579284668
0.0909672752022743,0.5968348383903503,0.1871047466993332,-0.5655478835105896,0.0028261439874768,0.668562114238739,0.0,0.0,0.4989759922027588,0.5711379051208496
0.0934068709611892,0.5845212936401367,0.2113781720399856,-0.5476449728012085,0.0349908173084259,0.6432939767837524,0.0,0.0,0.6060031652450562,0.932391881942749
0.0960999503731727,0.572426974773407,0.2388892620801925,-0.5385123491287231,0.0650527998805046,0.6012398600578308,0.0,0.0,0.6686241626739502,0.4075778722763061
0.0987771973013877,0.561106264591217,0.237829253077507,-0.5047065615653992,0.0946652069687843,0.5922484397888184,0.0,0.0,0.5129363536834717,0.5021934509277344
0.1014965027570724,0.550474226474762,0.2434387952089309,-0.474579781293869,0.1229556947946548,0.5658096671104431,0.0,0.0,0.6068832874298096,0.660118818283081
0.1043557152152061,0.5404810309410095,0.2589250206947326,-0.4465900361537933,0.1498410403728485,0.5377073287963867,0.0,0.0,0.0483267307281494,-0.6520275473594666
0.1072407737374305,0.5304291844367981,0.2606053948402405,-0.4497968852519989,0.1777652949094772,0.5584850311279297,0.0,0.0,0.6476250886917114,0.4371453523635864
0.1100186333060264,0.5207496285438538,0.2505577206611633,-0.4336967468261719,0.2051288038492202,0.5472705960273743,0.0,0.0,0.7266051769256592,0.6678588390350342
0.1127896308898925,0.5120827555656433,0.2514257729053497,-0.3889563977718353,0.2310754209756851,0.5189327597618103,0.0,0.0,0.4481360912322998,0.4179754257202148
0.1154573410749435,0.5037723779678345,0.2416012734174728,-0.3735047876834869,0.2566700875759125,0.5118933916091919,0.0,0.0,0.740877628326416,0.2984645366668701
0.1178146377205848,0.4962626099586487,0.2115384638309478,-0.3381906151771545,0.2814332544803619,0.4952639639377594,0.0,0.0,0.4816676378250122,0.8144545555114746
0.1201703995466232,0.4893553853034973,0.2132246792316436,-0.3114604651927948,0.3044700622558594,0.4607364237308502,0.0,0.0,0.7974327802658081,0.9317245483398438
0.1223140731453895,0.4832592010498047,0.194251462817192,-0.2752964198589325,0.3253451585769653,0.4175021052360534,0.0,0.0,0.5221881866455078,0.5988422632217407
0.1242266669869422,0.4777621626853943,0.1727363914251327,-0.2485944926738739,0.3446864485740661,0.3868260979652405,0.0,0.0,0.3150441646575928,0.9049451351165771
0.1260734498500824,0.4724773466587066,0.1681528240442276,-0.2389345318078994,0.3620768189430237,0.3478080630302429,0.0,0.0,0.3049526214599609,0.6773058176040649
0.1277258843183517,0.4674637615680694,0.1503220945596695,-0.226680114865303,0.3778696060180664,0.3158558309078216,0.0,0.0,0.7204632759094238,0.4541124105453491
0.1290493011474609,0.4627536535263061,0.1182019859552383,-0.2131511270999908,0.3929263055324554,0.3011338114738464,0.0,0.0,0.6886842250823975,0.2815253734588623
0.1302069723606109,0.4587537348270416,0.1012227535247802,-0.1818733364343643,0.408509224653244,0.3116584718227386,0.0,0.0,0.3451559543609619,0.8052555322647095
0.13136987388134,0.4548621773719787,0.1032679826021194,-0.1767791211605072,0.4225568771362304,0.2809531986713409,0.0,0.0,0.7808661460876465,0.9346895217895508
0.1324295103549957,0.4518841505050659,0.0944948568940162,-0.1358475536108017,0.43500816822052,0.2490263283252716,0.0,0.0,0.6920397281646729,0.7952525615692139
0.1331935822963714,0.4496457576751709,0.066432848572731,-0.1026114597916603,0.4458853304386139,0.2175431549549102,0.0,0.0,0.7912826538085938,0.9954744577407836
0.1337866783142089,0.4484633505344391,0.0509387739002704,-0.0552508383989334,0.4550644755363464,0.1835830211639404,0.0,0.0,0.9196767807006836,0.8866136074066162
0.1342366188764572,0.4479274153709411,0.0379818268120288,-0.0261202212423086,0.4627726078033447,0.154163509607315,0.0,0.0,0.7522103786468506,0.985781192779541
0.1343584060668945,0.4482375383377075,0.0068737342953681,0.0120082171633839,0.4686337411403656,0.1172218099236488,0.0,0.0,0.4297308921813965,0.9968526363372804
0.1342906057834625,0.4491903483867645,-0.0104535287246108,0.0411003232002258,0.4726995825767517,0.0813166797161102,0.0,0.0,-0.0307921171188354,0.9987928867340088
0.1342979371547699,0.4498282074928283,-0.0010650971671566,0.0277337096631526,0.4747038185596466,0.0400840155780315,0.0,0.0,0.1745861768722534,0.998816967010498
0.1340740174055099,0.4506662786006927,-0.0226304568350315,0.0371658466756343,0.4749703407287597,0.0053304778411984,0.0,0.0,-0.3170480728149414,0.9984743595123292
0.1338950097560882,0.4511735439300537,-0.0169907324016094,0.0228554531931877,0.4739584028720855,-0.020238596946001,0.0,0.0,-0.2512396574020386,0.9995501041412354
0.1337698996067047,0.4513613581657409,-0.010123916901648,0.0091593768447637,0.4713193476200104,-0.0527808256447315,0.0,0.0,-0.4874805808067322,0.9995334148406982
0.1337021887302398,0.45123291015625,-0.0027921483851969,-0.0043661650270223,0.4669172465801239,-0.0880422443151474,0.0,0.0,-0.1590404510498047,0.9902095794677734
0.1337030380964279,0.4507901668548584,0.0059417122974991,-0.0177224949002265,0.4604493081569671,-0.1293579041957855,0.0,0.0,-0.455264687538147,0.998132824897766
0.1337628364562988,0.4500423669815063,0.0136425225064158,-0.0307242441922426,0.4520175158977508,-0.1686357259750366,0.0,0.0,-0.5872279405593872,0.9863706827163696
0.1338686943054199,0.4489866495132446,0.0198069773614406,-0.0439680591225624,0.4419171810150146,-0.2020063400268554,0.0,0.0,-0.8110126256942749,0.9908055067062378
0.1340294778347015,0.4476076364517212,0.026973407715559,-0.0579063072800636,0.4300601780414581,-0.2371400594711303,0.0,0.0,-0.9292946457862854,0.9857780933380128
