x_pos,y_pos,x_vel,y_vel,angle,ang_vel,leg_1,leg_2,main_booster,lat_booster
-0.001620101975277,1.4030171632766724,-0.164134070277214,-0.3512381911277771,0.0018988411175087,0.0374664440751075,0.0,0.0,-0.1338600516319275,0.7217639684677124
-0.0032752037514001,1.3945269584655762,-0.1658792346715927,-0.3773446679115295,0.00226421514526,0.0073089487850666,0.0,0.0,0.088617205619812,0.9552676677703856
-0.0048468587920069,1.385822057723999,-0.1556900143623352,-0.3868873417377472,0.0008113480289466,-0.0290600452572107,0.0,0.0,0.0258463621139526,0.6176847219467163
-0.0065484046936035,1.376973032951355,-0.1674093902111053,-0.3932894468307495,-0.0019089939305558,-0.0544121637940406,0.0,0.0,0.6874470710754395,0.3234729766845703
-0.0082108499482274,1.3685154914855957,-0.1642055958509445,-0.3758926689624786,-0.0039286720566451,-0.0403971560299396,0.0,0.0,-0.6837043166160583,0.919800877571106
-0.0098775867372751,1.3594489097595217,-0.1624409854412078,-0.4029748141765594,-0.0081122256815433,-0.0836787745356559,0.0,0.0,0.0088031291961669,0.7145164012908936
-0.0115931509062647,1.350304126739502,-0.1659539490938186,-0.4064822494983673,-0.0136490957811474,-0.1107477694749832,0.0,0.0,0.2350602149963379,0.4515832662582397
-0.0132814403623342,1.341275334358215,-0.1638368070125579,-0.4013328850269317,-0.0185791235417127,-0.0986097902059555,0.0,0.0,0.2124208211898803,0.5605270862579346
-0.0150136947631835,1.3325657844543457,-0.1671781092882156,-0.3871784508228302,-0.0245641991496086,-0.1197125539183616,0.0,0.0,-0.2348637580871582,0.3712149858474731
-0.0168347358703613,1.323249340057373,-0.1761364191770553,-0.4141732156276703,-0.0304716862738132,-0.1181603893637657,0.0,0.0,0.0067744255065917,0.7962796688079834
-0.0186081882566213,1.3138644695281982,-0.1698797643184662,-0.4172797799110412,-0.0378561913967132,-0.1477036327123642,0.0,0.0,-0.3762760758399963,0.3418011665344238
-0.0204680450260639,1.3038727045059204,-0.1785903871059417,-0.4442757964134216,-0.0451611541211605,-0.146112710237503,0.0,0.0,0.0214279890060424,0.259127140045166
-0.0223127361387014,1.2939170598983765,-0.1775513291358947,-0.4426954388618469,-0.052006009966135,-0.1369098424911499,0.0,0.0,0.4664801359176636,0.955969214439392
-0.0240797996520996,1.2838068008422852,-0.1680243015289306,-0.4496674239635467,-0.0605976209044456,-0.1718482077121734,0.0,0.0,-0.4911419153213501,0.6872928142547607
-0.0258617401123046,1.273091435432434,-0.167901873588562,-0.4766858518123626,-0.0707896649837493,-0.2038593292236328,0.0,0.0,-0.4503675103187561,0.5515270233154297
-0.0276729576289653,1.2617583274841309,-0.169618159532547,-0.5042718052864075,-0.0821962058544159,-0.2281515300273895,0.0,0.0,-0.4078767895698547,0.7719271183013916
-0.0294876098632812,1.2498198747634888,-0.1681634336709976,-0.5313862562179565,-0.0954032391309738,-0.2641644179821014,0.0,0.0,-0.4344693422317505,0.2859559059143066
-0.0313791260123252,1.237276315689087,-0.17593914270401,-0.5583891272544861,-0.1085272803902626,-0.2625047564506531,0.0,0.0,0.1334123611450195,0.7593157291412354
-0.033149816095829,1.2249339818954468,-0.1625182628631591,-0.5496671199798584,-0.1230106875300407,-0.289694607257843,0.0,0.0,0.0335632562637329,0.6411280632019043
-0.0349565520882606,1.2125152349472046,-0.1648830771446228,-0.5533241629600525,-0.1387544125318527,-0.314903199672699,0.0,0.0,0.1994379758834839,-0.4646642804145813
-0.0366668701171875,1.200283765792847,-0.1557863056659698,-0.5451082587242126,-0.1539833694696426,-0.3046067059040069,0.0,0.0,0.4435868263244629,-0.5463554859161377
-0.038418672978878,1.1880249977111816,-0.1611628234386444,-0.5463449954986572,-0.1680144369602203,-0.28064626455307,0.0,0.0,-0.0923203229904174,-0.8266907334327698
-0.040287684649229,1.1751728057861328,-0.1742924004793167,-0.5726854205131531,-0.180667296051979,-0.2530801296234131,0.0,0.0,0.6144939661026001,-0.6644375920295715
-0.0421456322073936,1.16215181350708,-0.174779787659645,-0.5800860524177551,-0.191751018166542,-0.2216941565275192,0.0,0.0,0.5724086761474609,-0.6812041997909546
-0.0441467277705669,1.1494861841201782,-0.1902516186237335,-0.5642219185829163,-0.2016921937465667,-0.1988406479358673,0.0,0.0,0.8503062725067139,-0.1123762130737304
-0.0462125763297081,1.1374013423919678,-0.1960562765598297,-0.538575291633606,-0.2123116701841354,-0.2123897969722747,0.0,0.0,0.2478642463684082,-0.6583847403526306
-0.0482674613595008,1.1255344152450562,-0.1963658630847931,-0.5287584066390991,-0.2215243428945541,-0.1842530816793441,0.0,0.0,0.2307651042938232,-0.3478280901908874
-0.0503371246159076,1.1139929294586182,-0.1974934637546539,-0.5144056677818298,-0.2311147302389145,-0.1918080151081085,0.0,0.0,0.0857914686203002,-0.2812067866325378
-0.0524258613586425,1.1026182174682615,-0.1991050094366073,-0.5071141123771667,-0.2410310357809066,-0.19832643866539,0.0,0.0,-0.35460364818573,-0.4377270936965942
-0.0545640960335731,1.0906370878219604,-0.2041461914777755,-0.5341066122055054,-0.2508783638477325,-0.1969467550516128,0.0,0.0,-0.1549910306930542,-0.2034117579460144
-0.0567489638924598,1.0780500173568726,-0.2089048624038696,-0.5610989332199097,-0.2606586515903473,-0.1956053525209427,0.0,0.0,0.93780517578125,-0.5316767692565918
-0.0589797981083393,1.0656521320343018,-0.2143453061580658,-0.5525959730148315,-0.2695839405059814,-0.1785066425800323,0.0,0.0,0.6082204580307007,-0.7595759034156799
-0.0611853599548339,1.053842067718506,-0.2132648974657058,-0.5262558460235596,-0.27706179022789,-0.1495570391416549,0.0,0.0,0.894472599029541,-0.813044011592865
-0.0634556785225868,1.0420738458633425,-0.2212542593479156,-0.5241414904594421,-0.2830007076263428,-0.1187783107161521,0.0,0.0,0.8635283708572388,-0.1415204405784607
-0.0655459389090538,1.030709981918335,-0.2033907920122146,-0.5061657428741455,-0.2887960970401764,-0.1159076318144798,0.0,0.0,0.6895363330841064,-0.6053893566131592
-0.0674735084176063,1.0198673009872437,-0.1884343922138214,-0.4827602803707123,-0.2932520508766174,-0.0891189649701118,0.0,0.0,-0.6465295553207397,-0.4527660608291626
-0.0694300681352615,1.0084174871444702,-0.19139364361763,-0.5097464323043823,-0.2976537346839905,-0.0880340561270713,0.0,0.0,-0.388823926448822,-0.5629137754440308
-0.0714514702558517,0.9963827133178712,-0.1989677250385284,-0.5355240702629089,-0.3009266257286072,-0.0654578581452369,0.0,0.0,0.7298729419708252,-0.6392030119895935
-0.0733232498168945,0.9850536584854126,-0.185226559638977,-0.5039222240447998,-0.3029476702213287,-0.0404210202395916,0.0,0.0,0.5577206611633301,-0.5211901068687439
-0.0750555992126464,0.9739440083503724,-0.1724282205104828,-0.4939341843128204,-0.3037864863872528,-0.0167764090001583,0.0,0.0,0.7057733535766602,-0.6278890371322632
-0.0767238587141037,0.9634580612182616,-0.1670272052288055,-0.4659954905509949,-0.3035801351070404,0.0041268980130553,0.0,0.0,0.6670587062835693,-0.5418169498443604
-0.0781616196036338,0.9530791640281676,-0.1454278975725174,-0.4609405100345611,-0.3018795847892761,0.0340112820267677,0.0,0.0,-0.5876668095588684,-0.6433582305908203
-0.0796522125601768,0.942105233669281,-0.1517936289310455,-0.4871651530265808,-0.2990480959415436,0.0566300339996814,0.0,0.0,0.6528675556182861,-0.7519418597221375
-0.0809472054243087,0.9312586784362792,-0.1339618116617202,-0.4811583459377289,-0.2944434881210327,0.0920921266078949,0.0,0.0,0.6634427309036255,-0.921958863735199
-0.0822764411568641,0.9202720522880554,-0.139164999127388,-0.4870476722717285,-0.2880030274391174,0.1288084834814071,0.0,0.0,-0.3589173555374145,-0.4940037727355957
-0.083607293665409,0.908678650856018,-0.1393820345401764,-0.5140361189842224,-0.2815295755863189,0.1294695734977722,0.0,0.0,-0.0162433385848999,-0.3188724517822265
-0.0849370956420898,0.8964783549308777,-0.1393117010593414,-0.5410245656967163,-0.2750253975391388,0.130083680152893,0.0,0.0,-0.741608738899231,-0.4578067660331726
-0.08626289665699,0.8836714625358582,-0.1389599740505218,-0.5680132508277893,-0.2684929370880127,0.1306489557027816,0.0,0.0,-0.7284029722213745,-0.2679249048233032
-0.0875821113586425,0.8702576756477356,-0.1383333355188369,-0.5950019955635071,-0.2619346380233764,0.131166473031044,0.0,0.0,-0.7222412824630737,0.1491998434066772
-0.0888919830322265,0.8562372326850891,-0.1374387592077255,-0.6219908595085144,-0.2553528249263763,0.1316365301609039,0.0,0.0,-0.5250051021575928,0.1305522918701172
-0.0901900306344032,0.8416101336479187,-0.1362836956977844,-0.6489798426628113,-0.2487498521804809,0.1320594251155853,0.0,0.0,-0.5301908254623413,-0.0317943096160888
-0.091473676264286,0.8263763189315796,-0.1348759084939956,-0.6759688258171082,-0.2421280741691589,0.1324355900287628,0.0,0.0,-0.4524170160293579,-0.1065355539321899
-0.0927405357360839,0.8105359673500061,-0.1332235038280487,-0.7029579281806946,-0.2354898154735565,0.1327655017375946,0.0,0.0,-0.5130279064178467,-0.2235897183418274
-0.093988224864006,0.7940887808799744,-0.1313348114490509,-0.729947030544281,-0.2288373410701751,0.1330496966838836,0.0,0.0,-0.2218823432922363,-0.3106739521026611
-0.0952146500349044,0.777035117149353,-0.1292184889316558,-0.756936252117157,-0.2221729010343551,0.1332888901233673,0.0,0.0,0.1996792554855346,0.0055550336837768
-0.096409797668457,0.75989830493927,-0.1257934868335724,-0.7607046365737915,-0.2158196717500686,0.1270643472671508,0.0,0.0,0.0964014530181884,0.102554440498352
-0.0974050536751747,0.7429096698760986,-0.1061110496520996,-0.7541006207466125,-0.2091703563928604,0.1329864561557769,0.0,0.0,0.0095387697219848,0.6414899826049805
-0.098143383860588,0.7258760333061218,-0.0792461261153221,-0.7562979459762573,-0.2037095427513122,0.1092161759734153,0.0,0.0,-0.3608669638633728,0.4129858016967773
-0.0988522544503212,0.708235502243042,-0.076307289302349,-0.7832863330841064,-0.1982454508543014,0.1092822551727294,0.0,0.0,0.6329348087310791,0.2008694410324096
-0.0994504913687706,0.6911526322364807,-0.0649210661649704,-0.7585698962211609,-0.1931283771991729,0.1023419052362442,0.0,0.0,0.0073938369750976,0.3192925453186035
-0.0999419242143631,0.6737862229347229,-0.0543705821037292,-0.7711653113365173,-0.1878676861524582,0.1052139401435852,0.0,0.0,0.6363568305969238,-0.3963895440101623
-0.1003664955496788,0.656864583492279,-0.0472319349646568,-0.7514747381210327,-0.1830691695213318,0.0959700569510459,0.0,0.0,0.3351732492446899,-0.4200298190116882
-0.1005804985761642,0.6399253010749817,-0.0266494397073984,-0.7522194385528564,-0.1778136938810348,0.1051098331809043,0.0,0.0,0.0090638399124145,-0.4918392896652221
-0.1006766334176063,0.6229279637336731,-0.0149114113301038,-0.7548053860664368,-0.1724981814622879,0.1063101515173912,0.0,0.0,0.7768509387969971,-0.0910032391548156
-0.1006514579057693,0.605958878993988,-0.0028167206328362,-0.7535714507102966,-0.1671521663665771,0.1069201678037643,0.0,0.0,0.7908616065979004,-0.5524149537086487
-0.1006634682416915,0.5893775820732117,-0.0072518922388553,-0.7362794280052185,-0.1611029058694839,0.120985172688961,0.0,0.0,0.1932417154312133,0.1894892454147339
-0.100519560277462,0.5731009840965271,0.0082791289314627,-0.7227537035942078,-0.154993861913681,0.1221807748079299,0.0,0.0,0.1410316228866577,0.0539113283157348
-0.1002457588911056,0.55650395154953,0.0210055988281965,-0.7369955778121948,-0.1486362069845199,0.127153605222702,0.0,0.0,0.6482944488525391,0.1659028530120849
-0.0997755974531173,0.5405578017234802,0.0405377186834812,-0.7080852389335632,-0.1421690285205841,0.1293434202671051,0.0,0.0,-0.0884381532669067,-0.3927907347679138
-0.0992607101798057,0.5240049958229065,0.0450096912682056,-0.7350748181343079,-0.1357186287641525,0.1290078908205032,0.0,0.0,0.5482728481292725,-0.5410826802253723
-0.0987484008073806,0.5078185200691223,0.0439169444143772,-0.7187521457672119,-0.1284375339746475,0.1456219553947448,0.0,0.0,0.5904759168624878,-0.5071091055870056
-0.0981213599443435,0.4919195175170898,0.0543046705424785,-0.7059211134910583,-0.120077796280384,0.1671949326992035,0.0,0.0,0.6396358013153076,-0.1461542248725891
-0.0974738150835037,0.4766853451728821,0.0569673553109169,-0.676466166973114,-0.112330637872219,0.15494304895401,0.0,0.0,0.5192263126373291,0.0302313566207885
-0.0966517478227615,0.4616250693798065,0.0741060525178909,-0.6687606573104858,-0.1042935028672218,0.1607426404953003,0.0,0.0,0.6104356050491333,0.1242891550064086
-0.0957744568586349,0.4465323090553283,0.0798053070902824,-0.6702583432197571,-0.0964322313666343,0.1572256237268448,0.0,0.0,0.6088491678237915,0.1625630855560302
-0.0947520285844802,0.4312962293624878,0.0940344035625457,-0.6766495108604431,-0.08828966319561,0.1628511995077133,0.0,0.0,0.8408817052841187,-0.1341002583503723
-0.0936820060014724,0.4160236418247223,0.0989712476730346,-0.6783283352851868,-0.0803361684083938,0.1590697616338729,0.0,0.0,0.8629031181335449,-0.4118684530258178
-0.092500016093254,0.4014831483364105,0.1102380901575088,-0.6458384394645691,-0.0724536180496215,0.1576509773731231,0.0,0.0,0.6996028423309326,-0.3090101480484009
-0.0911252051591873,0.3875828683376312,0.1291589140892028,-0.6174079179763794,-0.064218521118164,0.164701759815216,0.0,0.0,-0.0743651390075683,-0.286638855934143
-0.0897002220153808,0.3730764091014862,0.134200245141983,-0.6443996429443359,-0.0560126826167106,0.1641167104244232,0.0,0.0,0.7585699558258057,-0.0208353996276855
-0.0883426666259765,0.358503133058548,0.128129780292511,-0.647433876991272,-0.0484740436077117,0.150772675871849,0.0,0.0,0.8553129434585571,-0.1237323880195617
-0.0868463516235351,0.3446502089500427,0.1418213099241256,-0.6154528260231018,-0.0407568253576755,0.1543443948030471,0.0,0.0,0.7831447124481201,0.3065717220306396
-0.0853835120797157,0.3311284482479095,0.1390204131603241,-0.6007854342460632,-0.0335772037506103,0.1435922533273697,0.0,0.0,0.5912498235702515,0.2459172010421753
-0.0839009284973144,0.3179816007614136,0.1412669569253921,-0.5841651558876038,-0.0266742631793022,0.1380592882633209,0.0,0.0,0.0884078741073608,0.3961966037750244
-0.0823635086417198,0.3049192428588867,0.1468237042427063,-0.5804412961006165,-0.0198407582938671,0.1366700232028961,0.0,0.0,0.7431398630142212,0.3071025609970093
-0.0806715041399002,0.2921682596206665,0.1618774682283401,-0.5666319131851196,-0.0126152923330664,0.1445093899965286,0.0,0.0,0.342815637588501,0.0733829736709594
-0.0789066329598426,0.2792277038097381,0.1691152453422546,-0.5750914216041565,-0.0053347302600741,0.1456111520528793,0.0,0.0,0.6676886081695557,-0.1208620071411132
-0.0769959464669227,0.2662896513938904,0.1832859814167022,-0.5750182271003723,0.0023445442784577,0.1535853296518325,0.0,0.0,0.8545033931732178,0.0537699460983276
-0.0748720169067382,0.2537073791027069,0.2038783580064773,-0.559251606464386,0.0107529684901237,0.1681686043739318,0.0,0.0,0.834398627281189,-0.545987606048584
-0.0725818648934364,0.2411734461784362,0.2189639806747436,-0.5571619868278503,0.0206768941134214,0.1984782516956329,0.0,0.0,0.7040892839431763,-0.6361467242240906
-0.0703155547380447,0.2291987687349319,0.2153536975383758,-0.532397449016571,0.0318151749670505,0.2227655351161956,0.0,0.0,0.7533364295959473,-0.4565113186836242
-0.0679935440421104,0.2178270667791366,0.2208071202039718,-0.5056866407394409,0.0430700071156024,0.2250964641571045,0.0,0.0,0.4870399236679077,-0.4161940813064575
-0.0655374526977539,0.206756979227066,0.2337322235107422,-0.4923860430717468,0.0548079498112201,0.2347590625286102,0.0,0.0,0.5698621273040771,-0.6964963674545288
-0.063000775873661,0.1955431997776031,0.2402115315198898,-0.4989375174045563,0.0681092590093612,0.2660263180732727,0.0,0.0,0.508328914642334,-0.0437805652618408
-0.0604969970881938,0.1844153255224228,0.2372073829174041,-0.4952230751514435,0.0811534523963928,0.2608839571475982,0.0,0.0,0.7860107421875,-0.0309671163558959
-0.0579314231872558,0.174088105559349,0.2429974973201751,-0.459776371717453,0.0945858359336853,0.2686476409435272,0.0,0.0,0.5002377033233643,-0.2785346508026123
-0.0553904548287391,0.16392482817173,0.2406956851482391,-0.4526040852069855,0.1078855767846107,0.2659948170185089,0.0,0.0,0.6823312044143677,-0.3195279836654663
-0.0530179962515831,0.1543440371751785,0.2244811803102493,-0.4267820417881012,0.1205648183822631,0.2535849809646606,0.0,0.0,-0.1518987417221069,0.0880396366119384
-0.0506017692387104,0.1441581547260284,0.228914588689804,-0.4537809789180755,0.133210226893425,0.2529080212116241,0.0,0.0,0.8059751987457275,0.6075277328491211
-0.0482665076851844,0.134587675333023,0.2222560197114944,-0.4264017045497894,0.1444436013698578,0.2246674299240112,0.0,0.0,0.4308749437332153,-0.1527218222618103
-0.046053409576416,0.1253587305545807,0.210426926612854,-0.4112688302993774,0.1553128212690353,0.2173847258090973,0.0,0.0,0.63092041015625,-0.581437885761261
-0.0439463630318641,0.116234004497528,0.1987612098455429,-0.4068330228328705,0.1672490835189819,0.2387251853942871,0.0,0.0,0.501616358757019,-0.0857810974121093
-0.0419947616755962,0.1072857975959777,0.1837717443704605,-0.3990193903446197,0.1786635518074035,0.2282892018556594,0.0,0.0,0.6934199333190918,0.2274134159088134
-0.0402510650455951,0.0984832867980003,0.1637392938137054,-0.3925374746322632,0.1893340796232223,0.2134104520082473,0.0,0.0,0.748609185218811,0.3232526779174804
-0.0385022163391113,0.0902272313833236,0.1637911349534988,-0.3683921098709106,0.2004935443401336,0.2231892794370651,0.0,0.0,0.7788058519363403,0.6252979040145874
-0.0366766937077045,0.0819799751043319,0.1725902110338211,-0.3679272830486297,0.2105492055416107,0.201113149523735,0.0,0.0,0.4385032653808594,0.5503610372543335
-0.0347782149910926,0.0741617307066917,0.1807055175304412,-0.3488055765628814,0.2197844088077545,0.1847040951251983,0.0,0.0,0.8100382089614868,0.1784639358520507
-0.0330545417964458,0.0669737681746482,0.1633756756782531,-0.320828765630722,0.2288770973682403,0.1818536221981048,0.0,0.0,0.6413500308990479,0.1104682683944702
-0.0313518531620502,0.0604680888354778,0.1606938987970352,-0.2906577289104461,0.2386000156402588,0.1944586485624313,0.0,0.0,0.6540905237197876,0.3284865617752075
-0.0296793933957815,0.054229412227869,0.1573520451784134,-0.2789129316806793,0.2486519813537597,0.2010392248630523,0.0,0.0,0.6529488563537598,-0.0281535387039184
-0.0281838420778512,0.048569593578577,0.1397591680288314,-0.2532352805137634,0.2586475908756256,0.199911966919899,0.0,0.0,0.6090093851089478,-0.2829088568687439
-0.0267972946166992,0.0434388481080532,0.1286360770463943,-0.2298348098993301,0.268894761800766,0.2049434185028076,0.0,0.0,-0.0730766654014587,-0.2123072743415832
-0.0253819469362497,0.0377022139728069,0.1315570920705795,-0.2568286955356598,0.2791216373443603,0.204537346959114,0.0,0.0,0.8316913843154907,0.3774113655090332
-0.0242584235966205,0.0322919450700283,0.1030390113592147,-0.2422644793987274,0.2887023389339447,0.191613957285881,0.0,0.0,0.7282450199127197,0.0835388898849487
-0.0234088897705078,0.0280016995966434,0.0937363356351852,-0.1889344006776809,0.279763251543045,-0.178641602396965,0.0,1.0,0.9920059442520142,0.9228124618530272
-0.0228130333125591,0.0249338969588279,0.088396705687046,-0.131100907921791,0.250287801027298,-0.5895075798034668,0.0,1.0,0.8475736379623413,0.028610348701477
-0.0224119182676076,0.0227053016424179,0.0816396325826644,-0.0925243869423866,0.2081304043531417,-0.84319007396698,0.0,1.0,0.6016342639923096,-0.6959904432296753
-0.0219841953366994,0.0204036086797714,0.082060657441616,-0.0972573384642601,0.1686107963323593,-0.7904276847839355,0.0,0.0,-0.8630121946334839,-0.8382258415222168
-0.0215873718261718,0.0175036769360303,0.0777911096811294,-0.1250125914812088,0.1305289715528488,-0.7616683840751648,0.0,0.0,-0.4155269861221313,-0.8396694660186768
-0.0212246887385845,0.014001140370965,0.072589136660099,-0.15288707613945,0.0944390073418617,-0.7217993140220642,0.0,0.0,0.7942891120910645,-0.7869394421577454
-0.0208585746586322,0.0104071237146854,0.0713281333446502,-0.1579065173864364,0.0600646175444126,-0.6874881982803345,0.0,0.0,0.8673408031463623,-0.7914949655532837
