x_pos,y_pos,x_vel,y_vel,angle,ang_vel,leg_1,leg_2,main_booster,lat_booster
-0.0014907836448401,1.4030829668045044,-0.1511024534702301,-0.348314106464386,0.001816107193008,0.0358282253146171,0.0,0.0,-0.4730163776763536,0.5911906987112341
-0.0028999329078942,1.39472496509552,-0.1414930075407028,-0.3714702427387237,0.0023869927972555,0.0114191910251975,0.0,0.0,0.2626335750652229,0.1785101531666936
-0.0041783330962061,1.3862884044647217,-0.1289879828691482,-0.3749579191207886,0.0035221844445914,0.0227061100304126,0.0,0.0,0.4601501771270273,0.7343005955679205
-0.0054899216629564,1.3779699802398682,-0.1306908428668975,-0.3697069585323334,0.0030640065670013,-0.0091643761843442,0.0,0.0,0.7680316650908912,-0.5914323557601919
-0.006676769349724,1.370159149169922,-0.1199133768677711,-0.3471501469612121,0.0042705559171736,0.0241330899298191,0.0,0.0,0.9929009782081584,0.1255604574923113
-0.0076779364608228,1.362790584564209,-0.1022256761789321,-0.3275001645088196,0.0063532385975122,0.0416576191782951,0.0,0.0,-0.4693951470763375,0.6824503437187253
-0.0086068157106637,1.354880928993225,-0.0937699228525161,-0.3515404462814331,0.0072250389494001,0.0174377374351024,0.0,0.0,0.6649615937870514,0.4156322811585976
-0.0093715665861964,1.347409725189209,-0.0781792849302291,-0.3320661187171936,0.0089087327942252,0.0336769074201583,0.0,0.0,0.657415686214122,-0.6793482288678984
-0.0101948734372854,1.3406625986099243,-0.0854594260454177,-0.2998929619789123,0.0120029365643858,0.0618899352848529,0.0,0.0,-0.4980942508173349,0.5251740733618117
-0.0109638217836618,1.3333780765533447,-0.0790759548544883,-0.3237765729427337,0.0141577804461121,0.0431006476283073,0.0,0.0,0.3978826697408022,-0.0655411521000082
-0.0116564752534031,1.326308250427246,-0.0719033777713775,-0.31424081325531,0.0167626645416021,0.0521024353802204,0.0,0.0,-0.766445690797406,-0.4582847683728341
-0.0123414043337106,1.3186969757080078,-0.0712370797991752,-0.3383111655712127,0.019473697990179,0.0542256720364093,0.0,0.0,0.2740316804432383,0.1928856145458954
-0.0129314418882131,1.3113563060760498,-0.062327392399311,-0.3262953162193298,0.0227695014327764,0.0659217983484268,0.0,0.0,-0.2143785638622171,0.4177061428866723
-0.0135191921144723,1.3034743070602417,-0.0622121170163154,-0.3503665328025818,0.0261775813996791,0.0681677237153053,0.0,0.0,0.7730407773054024,-0.1810513766386083
-0.0139790531247854,1.2963838577270508,-0.050270952284336,-0.3152150809764862,0.0304145887494087,0.084747776389122,0.0,0.0,0.7736402025341218,0.9214914735944862
-0.0142478942871093,1.2892286777496338,-0.0296727810055017,-0.3180613219738006,0.0331629104912281,0.0549717135727405,0.0,0.0,-0.2217349493883043,-0.1283066264621727
-0.0145225524902343,1.2815324068069458,-0.0303731821477413,-0.3421245515346527,0.0360333025455474,0.0574130192399024,0.0,0.0,0.2077097020014444,0.1144755361650265
-0.0147114749997854,1.273711085319519,-0.0224124137312173,-0.3477016985416412,0.0395156256854534,0.0696526691317558,0.0,0.0,0.1238296770007953,0.702521807316307
-0.01480274181813,1.2661813497543335,-0.011445889249444,-0.334722489118576,0.0418120212852954,0.0459322594106197,0.0,0.0,0.1283678815279143,0.2144359986770514
-0.0149785997346043,1.258685827255249,-0.0197799522429704,-0.333190768957138,0.0439807996153831,0.0433796383440494,0.0,0.0,0.1052212983181921,-0.2657212592385206
-0.0151070598512887,1.251408576965332,-0.0155848115682601,-0.3235186040401459,0.0466794110834598,0.0539771132171154,0.0,0.0,0.3317693034339792,0.5130024885919814
-0.0152195934206247,1.2441251277923584,-0.0131151927635073,-0.3237747848033905,0.0485162399709224,0.0367399826645851,0.0,0.0,-0.529442701783855,-0.4808960821864956
-0.0153526309877634,1.2363001108169556,-0.0152941886335611,-0.3478412628173828,0.0504899583756923,0.0394779294729232,0.0,0.0,-0.665352331840243,0.6695966528191187
-0.0154488561674952,1.2279309034347534,-0.0102587845176458,-0.3719853162765503,0.0511168800294399,0.0125395655632019,0.0,0.0,0.1537124628822042,-0.3550338596855255
-0.0156917572021484,1.2196861505508425,-0.0245920270681381,-0.3664491772651672,0.0514253228902816,0.0061693545430898,0.0,0.0,0.2954479724811816,-0.7073485263203648
-0.0161722190678119,1.2116949558258057,-0.049748096615076,-0.3552180528640747,0.0530952773988246,0.0333993919193744,0.0,0.0,-0.5608940092919703,0.9945454422352492
-0.0166022293269634,1.2031751871109009,-0.0428187474608421,-0.3786535561084747,0.0529167912900447,-0.00356972287409,0.0,0.0,-0.4219486675533324,0.2221786710975181
-0.0170622821897268,1.1941139698028564,-0.045965053141117,-0.4027161002159118,0.0528844036161899,-0.0006479048752225,0.0,0.0,-0.4767175681393236,-0.1936815937143329
-0.0175539012998342,1.184511661529541,-0.0492738187313079,-0.4267786145210266,0.0529995560646057,0.0023032715544104,0.0,0.0,-0.8605389417091109,0.7229880100876908
-0.0180233009159564,1.1743696928024292,-0.0458061173558235,-0.4507172703742981,0.0518755689263343,-0.0224798340350389,0.0,0.0,-0.6426211533447692,0.0640369357649394
-0.0185272209346294,1.1636862754821775,-0.04940927028656,-0.47477987408638,0.0509017780423164,-0.0194759890437126,0.0,0.0,-0.8252599835395813,0.2807646989822387
-0.0190670005977153,1.1524617671966553,-0.0531450323760509,-0.4988424181938171,0.0500793382525444,-0.0164487101137638,0.0,0.0,-0.9362574815750122,-0.1656201481819152
-0.0196437835693359,1.1406958103179932,-0.0570042021572589,-0.5229049921035767,0.0494093559682369,-0.0133997844532132,0.0,0.0,-0.7293018698692322,0.0193058252334594
-0.0202588085085153,1.12838876247406,-0.0609780065715312,-0.5469675064086914,0.0488928109407424,-0.010330768302083,0.0,0.0,-0.823249876499176,0.2265150547027588
-0.0209131240844726,1.1155402660369873,-0.065058134496212,-0.5710299611091614,0.0485306344926357,-0.007243572268635,0.0,0.0,-0.6711456179618835,-0.2713157534599304
-0.0216075889766216,1.102150559425354,-0.0692367404699325,-0.5950924754142761,0.0483236536383628,-0.0041396049782633,0.0,0.0,-0.9774928689002992,-0.1206893920898437
-0.0223431587219238,1.088219404220581,-0.0735064446926117,-0.6191548705101013,0.0482726469635963,-0.0010202012490481,0.0,0.0,-0.9030214548110962,0.2898247241973877
-0.0231206901371479,1.073747158050537,-0.0778603255748748,-0.6432173252105713,0.0483783110976219,0.0021132640540599,0.0,0.0,-0.5075615644454956,0.030755877494812
-0.0239409450441598,1.058733582496643,-0.0822919011116027,-0.667279839515686,0.0486412905156612,0.0052594603039324,0.0,0.0,-0.9031611680984496,0.2845654487609863
-0.0248045921325683,1.0431787967681885,-0.0867951363325119,-0.691342294216156,0.0490621514618396,0.0084173139184713,0.0,0.0,-0.8043308854103088,0.3593355417251587
-0.0257123950868845,1.0270826816558838,-0.0913643985986709,-0.7154048085212708,0.0496414341032505,0.0115855894982814,0.0,0.0,0.0861837863922119,0.3127349615097046
-0.0266009327024221,1.0109668970108032,-0.0899766013026237,-0.7162950038909912,0.0507549233734607,0.0222699083387851,0.0,0.0,-0.8070834875106812,0.339188814163208
-0.0275346748530864,0.9943097829818726,-0.0946626216173172,-0.740357518196106,0.0520277395844459,0.02545602992177,0.0,0.0,-0.2393277883529663,0.712144136428833
-0.0284485816955566,0.9771151542663574,-0.0911688059568405,-0.7641993165016174,0.0518096797168254,-0.0043611004948616,0.0,0.0,-0.4877087473869324,-0.3524226546287536
-0.0294086448848247,0.959379255771637,-0.095953568816185,-0.7882618308067322,0.0517516247928142,-0.001160858431831,0.0,0.0,-0.2302408218383789,0.0315755605697631
-0.0304154399782419,0.9411019086837769,-0.1007817611098289,-0.8123244047164917,0.0518539026379585,0.00204524025321,0.0,0.0,0.869644045829773,0.2655563354492187
-0.0314265266060829,0.9230464100837708,-0.1016981750726699,-0.8024900555610657,0.0524360351264476,0.0116426553577184,0.0,0.0,0.8573741912841797,0.8839796781539917
-0.0326039306819438,0.9058576822280884,-0.1164426654577255,-0.7638978958129883,0.0511617176234722,-0.0254863239824771,0.0,0.0,-0.4004158973693847,-0.180415391921997
-0.0338290221989154,0.8881277441978455,-0.1213807463645935,-0.7879606485366821,0.0500483363866806,-0.0222675278782844,0.0,0.0,-0.1808348894119262,0.2851524353027344
-0.0351021774113178,0.8698565363883972,-0.1263494789600372,-0.8120232224464417,0.0490960478782653,-0.019045814871788,0.0,0.0,0.6124699115753174,-0.2360799312591552
-0.0363111495971679,0.8518893122673035,-0.120751641690731,-0.7985379695892334,0.0489525459706783,-0.0028702039271593,0.0,0.0,0.6212337017059326,0.2871042490005493
-0.037660501897335,0.8344598412513733,-0.1346880495548248,-0.7746393084526062,0.0487088784575462,-0.004873258061707,0.0,0.0,-0.6017625331878662,0.7082751989364624
-0.0389923080801963,0.8164898753166199,-0.1314210742712021,-0.7986072301864624,0.046962022781372,-0.0349369719624519,0.0,0.0,0.878453254699707,0.8745191097259521
-0.0403429046273231,0.799350917339325,-0.1317012161016464,-0.7616301774978638,0.0436425320804119,-0.0663897842168808,0.0,0.0,-0.5838230848312378,-0.1712590456008911
-0.0417428016662597,0.7816708087921143,-0.1367872804403305,-0.7856935262680054,0.0404843389987945,-0.0631638914346695,0.0,0.0,0.4430497884750366,-0.0604138970375061
-0.0432920455932617,0.7640613913536072,-0.1515035331249237,-0.7825561165809631,0.0371012836694717,-0.0676609948277473,0.0,0.0,0.1283637285232544,0.8146481513977051
-0.0447725281119346,0.7467418909072876,-0.1431963294744491,-0.7696406841278076,0.0323017425835132,-0.095990665256977,0.0,0.0,-0.4449793100357055,0.5711040496826172
-0.0462472923099994,0.7288865447044373,-0.1413675248622894,-0.7934516668319702,0.0262666251510381,-0.1207021325826644,0.0,0.0,0.3575097322463989,0.4342772960662842
-0.0477283485233783,0.7115070819854736,-0.1424379348754882,-0.7723294496536255,0.0206763762980699,-0.1118050366640091,0.0,0.0,-0.8849277496337891,0.3814384937286377
-0.0492591857910156,0.6935867667198181,-0.1475948393344879,-0.7963942289352417,0.0152468215674161,-0.1085910648107528,0.0,0.0,0.4303535223007202,0.9250004291534424
-0.0507212653756141,0.6756012439727783,-0.1390525698661804,-0.7993003726005554,0.0081872884184122,-0.1411908566951751,0.0,0.0,0.6286904811859131,0.4008283615112304
-0.0523379333317279,0.6581110954284668,-0.1542132794857025,-0.7773211598396301,0.0008306450909003,-0.1471327990293502,0.0,0.0,-0.0902486443519592,-0.3450629711151123
-0.0540047660470008,0.6400802135467529,-0.1593956798315048,-0.8013876080513,-0.0063660773448646,-0.1439346969127655,0.0,0.0,0.7311310768127441,0.4585767984390259
-0.0556931495666503,0.6224716305732727,-0.1618197113275528,-0.7826474905014038,-0.0132890837267041,-0.1384598910808563,0.0,0.0,0.7453244924545288,0.95084547996521
-0.0573416724801063,0.604948878288269,-0.1561043411493301,-0.7788893580436707,-0.0219305455684661,-0.1728293597698211,0.0,0.0,0.0046002864837646,0.0041534900665283
-0.0591079704463481,0.5874271988868713,-0.167685404419899,-0.7788994908332825,-0.0307615008205175,-0.1766190975904464,0.0,0.0,0.2903766632080078,0.0613852739334106
-0.060887336730957,0.570366382598877,-0.1692301779985427,-0.7584604024887085,-0.0393567010760307,-0.171903908252716,0.0,0.0,-0.5956408977508545,0.3154455423355102
-0.0627170577645301,0.5527650713920593,-0.174432098865509,-0.7825279235839844,-0.0477942340075969,-0.1687506735324859,0.0,0.0,0.7157442569732666,0.0889439582824707
-0.0645267516374588,0.5359495282173157,-0.1727236807346344,-0.7476446032524109,-0.0559448860585689,-0.1630131155252456,0.0,0.0,0.2523233890533447,0.8154555559158325
-0.0663837417960167,0.5191286206245422,-0.1758988499641418,-0.7479874491691589,-0.0656392201781272,-0.1938866227865219,0.0,0.0,-0.5777715444564819,0.5727920532226562
-0.0682526603341102,0.5017662048339844,-0.1762793660163879,-0.772161066532135,-0.0761438161134719,-0.2100918740034103,0.0,0.0,0.5985028743743896,0.373262882232666
-0.0700963959097862,0.4847608804702759,-0.1740670055150985,-0.7563480734825134,-0.0863559171557426,-0.2042422294616699,0.0,0.0,0.2899556159973144,0.5498301982879639
-0.0719993561506271,0.4682155847549438,-0.1788130104541778,-0.7360448837280273,-0.0977386906743049,-0.2276554554700851,0.0,0.0,-0.7589178085327148,-0.2194762229919433
-0.0739525780081749,0.4511305391788482,-0.1840045005083084,-0.7601163387298584,-0.1089684888720512,-0.2245960235595703,0.0,0.0,-0.3946641087532043,0.5874607563018799
-0.075912669301033,0.4334939122200012,-0.1837490946054458,-0.7847893238067627,-0.1211544573307037,-0.2437191903591156,0.0,0.0,0.8735146522521973,-0.6828226447105408
-0.0778498649597168,0.4158537685871124,-0.1832051277160644,-0.7848935723304749,-0.131627008318901,-0.2094511240720749,0.0,0.0,0.950387954711914,-0.6265935301780701
-0.0798738449811935,0.3982805013656616,-0.1931878626346588,-0.7818717360496521,-0.1408083289861679,-0.1836262047290802,0.0,0.0,0.9796488285064696,-0.1258173584938049
-0.0818244963884353,0.3815803527832031,-0.1859548240900039,-0.7431146502494812,-0.1498879939317703,-0.1815933734178543,0.0,0.0,0.92180073261261,-0.7639418244361877
-0.0836421996355056,0.3657452464103699,-0.1745883077383041,-0.7045227885246277,-0.1570615321397781,-0.1434706449508667,0.0,0.0,0.8397760391235352,-0.5385543704032898
-0.0855401009321212,0.3507639169692993,-0.1834645569324493,-0.6665154099464417,-0.1633865237236023,-0.1264997124671936,0.0,0.0,0.1977729797363281,-0.581007719039917
-0.0875970870256424,0.335627406835556,-0.2004885673522949,-0.673316240310669,-0.1685923188924789,-0.1041158437728881,0.0,0.0,0.9445030689239502,0.1118258237838745
-0.0895007103681564,0.3213132619857788,-0.1855266690254211,-0.6367385387420654,-0.1734372079372406,-0.0968979075551033,0.0,0.0,0.8330092430114746,0.5115004777908325
-0.0914212241768837,0.3074216544628143,-0.1859975606203079,-0.6181266903877258,-0.1795155256986618,-0.1215664967894554,0.0,0.0,0.5821110010147095,0.1288212537765503
-0.093326948583126,0.2939608097076416,-0.1844112575054168,-0.5990169644355774,-0.185699462890625,-0.1236788034439086,0.0,0.0,0.4002507925033569,-0.3933722376823425
-0.0951824188232421,0.2808353006839752,-0.179480642080307,-0.5841298699378967,-0.1917954087257385,-0.1219189763069152,0.0,0.0,0.8211075067520142,0.0524693727493286
-0.0968704223632812,0.2680853009223938,-0.1633049100637436,-0.5673874020576477,-0.1973143219947815,-0.1103784218430519,0.0,0.0,0.7693818807601929,-0.2674360275268554
-0.0985103622078895,0.2553256452083587,-0.1587672978639602,-0.5678005814552307,-0.2025860399007797,-0.105434738099575,0.0,0.0,0.850909948348999,0.1623400449752807
-0.1000065803527832,0.2426560968160629,-0.144986018538475,-0.5637339353561401,-0.2072500586509704,-0.0932806804776191,0.0,0.0,0.965994954109192,-0.039557933807373
-0.1012399643659591,0.2303883880376815,-0.1196450740098953,-0.5457523465156555,-0.2109803259372711,-0.0746053606271743,0.0,0.0,0.9771231412887572,0.2021850347518921
-0.1022597327828407,0.2182190269231796,-0.0991583913564682,-0.5412662625312805,-0.2138181626796722,-0.0567566230893135,0.0,0.0,0.977588415145874,-0.9422695636749268
-0.1032155007123947,0.206858828663826,-0.0947587937116622,-0.505016028881073,-0.2146510928869247,-0.016658741980791,0.0,0.0,0.9706041812896729,0.392130970954895
-0.1039902716875076,0.1962711960077285,-0.076932780444622,-0.47064208984375,-0.2151995152235031,-0.0109688369557261,0.0,0.0,0.8509049415588379,-0.4953867197036743
-0.1045166030526161,0.1861923038959503,-0.0528323575854301,-0.4479231238365173,-0.2149925678968429,0.0041385367512702,0.0,0.0,0.6818053722381592,-0.8374573588371277
-0.1049737930297851,0.1760348230600357,-0.0478879697620868,-0.4511294960975647,-0.2128083258867263,0.0436852797865867,0.0,0.0,0.88309645652771,-0.5693871974945068
-0.1054616943001747,0.1662196516990661,-0.0520174391567707,-0.4357691705226898,-0.2095549553632736,0.0650674551725387,0.0,0.0,0.8029577732086182,-0.5101332068443298
-0.1057427376508712,0.1572323888540268,-0.0327285304665565,-0.3987859189510345,-0.2048905938863754,0.0932870060205459,0.0,0.0,-0.3630515933036804,-0.8656305074691772
-0.1061392799019813,0.1477252840995788,-0.0461685582995414,-0.4216499328613281,-0.1983260065317154,0.1312918365001678,0.0,0.0,0.8830112218856812,0.3879238367080688
-0.106541633605957,0.1390523761510849,-0.0462004765868186,-0.3846784830093384,-0.1923293322324752,0.11993358284235,0.0,0.0,0.6787254810333252,-0.149598479270935
-0.1067667007446289,0.1308569759130478,-0.0289650950580835,-0.3634161651134491,-0.185840293765068,0.1297806948423385,0.0,0.0,-0.0833278894424438,0.1091934442520141
-0.1070363074541091,0.1221204847097396,-0.0335064828395843,-0.3874802589416504,-0.1792730689048767,0.1313448548316955,0.0,0.0,0.7987219095230103,0.5976581573486328
-0.1072525978088378,0.114063560962677,-0.0268094893544912,-0.3574675917625427,-0.1740806698799133,0.1038478389382362,0.0,0.0,0.581575870513916,-0.4476687908172607
-0.1074532493948936,0.1061759293079376,-0.0252094324678182,-0.3499687612056732,-0.1689308732748031,0.102995827794075,0.0,0.0,0.798011064529419,0.0231260061264038
-0.107711985707283,0.0987468585371971,-0.0304907374083995,-0.3296632766723633,-0.1643063575029373,0.0924899280071258,0.0,0.0,0.5081801414489746,-0.2743416428565979
-0.1080701798200607,0.0915176942944526,-0.0398750156164169,-0.320853441953659,-0.1602608859539032,0.0809094160795211,0.0,0.0,0.8228123188018799,0.2813570499420166
-0.1082282066345214,0.0848933532834053,-0.0204407516866922,-0.2939217388629913,-0.1556241512298584,0.0927349850535392,0.0,0.0,0.5991051197052002,0.3948657512664795
-0.1083131805062294,0.0782432630658149,-0.0134530840441584,-0.2950485944747925,-0.1506678313016891,0.0991259664297103,0.0,0.0,0.8261659145355225,0.7953978776931763
-0.1080753356218338,0.0722550004720687,0.020009558647871,-0.2657684981822967,-0.1469019651412964,0.0753172636032104,0.0,0.0,0.5283479690551758,-0.3648325204849243
-0.1077927574515342,0.0667953118681907,0.0245509464293718,-0.2422913163900375,-0.1432008445262909,0.0740221366286277,0.0,0.0,-0.1516942977905273,-0.5855494737625122
-0.1075830459594726,0.0608086921274662,0.0163404531776905,-0.2656328678131103,-0.1385757178068161,0.0925021991133689,0.0,0.0,0.1374284029006958,0.1415351629257202
-0.1073037162423133,0.0548629127442836,0.0230235047638416,-0.2638098001480102,-0.1336862295866012,0.0977894514799118,0.0,0.0,0.7616939544677734,0.0766288042068481
-0.1069526672363281,0.0496718734502792,0.0302150640636682,-0.2302852421998977,-0.1288167238235473,0.0973897129297256,0.0,0.0,0.5751914978027344,0.2642934322357178
-0.106483556330204,0.0450455285608768,0.0417456291615963,-0.2051766216754913,-0.1236699000000953,0.1029363423585891,0.0,0.0,0.2357611656188964,0.4753494262695312
-0.1059469208121299,0.0403774827718734,0.0482011139392852,-0.2070254236459732,-0.1182402148842811,0.1085937172174453,0.0,0.0,0.3376411199569702,0.3992636203765869
-0.1054832488298416,0.0359315983951091,0.041371963918209,-0.1972065865993499,-0.1132701337337493,0.099401518702507,0.0,0.0,0.7547075748443604,0.7884343862533569
-0.1050770729780197,0.0317721702158451,0.0375029519200325,-0.1846327483654022,-0.1101764515042305,0.0618735961616039,0.0,0.0,0.6596356630325317,0.5330343246459961
-0.1046211272478103,0.0279121492058038,0.0436310172080993,-0.1714087575674057,-0.1082207784056663,0.0391131937503814,0.0,0.0,0.4402041435241699,0.7304309606552124
-0.1040626540780067,0.0241895299404859,0.055318284779787,-0.1654110252857208,-0.1076985821127891,0.0104443179443478,0.0,0.0,0.3951191902160644,0.610594630241394
-0.1033327132463455,0.020345602184534,0.0734670534729957,-0.1708750426769256,-0.1081733927130699,-0.0094962837174534,0.0,0.0,0.7114582061767578,0.3544306755065918
-0.1024534255266189,0.0170002803206443,0.0879572629928588,-0.1486841589212417,-0.1082091853022575,-0.0007155871135182,0.0,0.0,0.487483263015747,-0.1746166944503784
-0.1014995574951171,0.0141929006204009,0.0953538939356803,-0.1247680112719535,-0.1081734597682952,0.0007143359398469,0.0,0.0,0.2137178182601928,-0.3360503911972046
-0.100499153137207,0.011178383603692,0.0998174995183944,-0.133961483836174,-0.1079590022563934,0.0042892550118267,0.0,0.0,0.4702458381652832,-0.0325804948806762
