x_pos,y_pos,x_vel,y_vel,angle,ang_vel,leg_1,leg_2,main_booster,lat_booster
-0.0015245437389239,1.4035148620605469,-0.1544294655323028,-0.3291244208812713,0.0017662132158875,0.034840602427721,0.0,0.0,-0.0139001607894897,0.6363544464111328
-0.0030014992225915,1.3960201740264893,-0.1480486094951629,-0.3331004679203033,0.0021175399888306,0.0070279785431921,0.0,0.0,0.1260508298873901,0.8911693096160889
-0.0043144226074218,1.388822317123413,-0.1299093067646026,-0.3199010193347931,0.0007531300070695,-0.0272908005863428,0.0,0.0,-0.4077212810516357,0.2677913904190063
-0.0056447028182446,1.3815147876739502,-0.1316423565149307,-0.324781596660614,-0.0006086811772547,-0.0272389147430658,0.0,0.0,-0.3494709730148315,0.1801128387451172
-0.0069974898360669,1.3740975856781006,-0.1339078247547149,-0.329654335975647,-0.0019656233489513,-0.0271414127200841,0.0,0.0,-0.4042874574661255,-0.1731695532798767
-0.0083780288696289,1.3665705919265747,-0.1366923749446869,-0.3345281481742859,-0.0033143945038318,-0.0269776731729507,0.0,0.0,-0.1141162514686584,0.399772047996521
-0.0097913742065429,1.3589342832565308,-0.1399813592433929,-0.3394020795822143,-0.0046519511379301,-0.0267536081373691,0.0,0.0,0.0287922620773315,0.7043414115905762
-0.0110782627016305,1.35179340839386,-0.1260347515344619,-0.317381352186203,-0.007271786686033,-0.0524016916751861,0.0,0.0,-0.3577746152877807,-0.1483328938484192
-0.0124074937775731,1.3445428609848022,-0.1302799731492996,-0.3222604393959045,-0.0098737739026546,-0.05204489082098,0.0,0.0,0.0070492029190063,-0.017682671546936
-0.0137795452028512,1.3378469944000244,-0.1345875412225723,-0.2976157367229461,-0.0124578960239887,-0.0516873784363269,0.0,0.0,-0.3830500841140747,-0.0315290093421936
-0.0152027131989598,1.33104145526886,-0.1397231966257095,-0.302495390176773,-0.0150186279788613,-0.0512194447219371,0.0,0.0,-0.676720380783081,-0.1032056212425232
-0.0166811943054199,1.3241262435913086,-0.1452760547399521,-0.3073678612709045,-0.0175530854612588,-0.0506938584148883,0.0,0.0,-0.5900318026542664,0.6010000705718994
-0.0181610099971294,1.317103147506714,-0.1439962834119796,-0.3121904730796814,-0.0215071570128202,-0.0790887773036956,0.0,0.0,-0.4434244036674499,0.0783149003982544
-0.0197038650512695,1.3099706172943115,-0.1503227651119232,-0.3170658648014068,-0.0254283957183361,-0.0784317702054977,0.0,0.0,-0.4738306999206543,0.4006147384643554
-0.0213132854551076,1.3027284145355225,-0.1570107787847519,-0.3219412863254547,-0.0293149203062057,-0.0777374356985092,0.0,0.0,-0.7803227305412292,-0.3219656944274902
-0.0229925159364938,1.295376896858215,-0.1640408486127853,-0.3268165588378906,-0.0331637002527713,-0.0769823417067527,0.0,0.0,-0.7846851348876953,0.4192875623703003
-0.0247449874877929,1.287915825843811,-0.1713947802782058,-0.3316918611526489,-0.0369720458984375,-0.0761737078428268,0.0,0.0,-0.5931438207626343,0.3997381925582886
-0.0265734679996967,0.0,-0.1790546923875808,-0.336567223072052,-0.0407373532652854,-0.0753127709031105,0.0,0.0,-0.2704753279685974,0.5469653606414795
-0.0284308437258005,1.2726675271987915,-0.1807009428739547,-0.3413843512535095,-0.0457178205251693,-0.0996184349060058,0.0,0.0,-0.8434038758277893,0.3638529777526855
-0.030369758605957,1.2648802995681765,-0.1889169961214065,-0.3462609648704529,-0.0506494976580143,-0.098642349243164,0.0,0.0,-0.925273597240448,0.550116777420044
-0.0323401466012001,1.256983757019043,-0.1907746791839599,-0.3511821925640106,-0.0568550378084182,-0.1241218447685241,0.0,0.0,-0.9320724606513976,0.5823211669921875
-0.0343503952026367,1.2489707469940186,-0.1936162263154983,-0.356429249048233,-0.0641879290342331,-0.1466712802648544,0.0,0.0,-0.900157630443573,0.6177253723144531
-0.0363900177180767,1.2408422231674194,-0.1951156556606292,-0.3616648912429809,-0.0729588940739631,-0.1754350513219833,0.0,0.0,-0.5637264847755432,0.7997733354568481
-0.0384505279362201,1.232588768005371,-0.1954604089260101,-0.3673708736896515,-0.083450362086296,-0.2098482847213745,0.0,0.0,-0.9054158926010132,0.6216566562652588
-0.0405658707022666,1.224224090576172,-0.2000786066055297,-0.3724412322044372,-0.0948265567421913,-0.2275441437959671,0.0,0.0,-0.9323230385780334,0.6662628650665283
-0.042737103998661,1.2157280445098877,-0.204708069562912,-0.3784373700618744,-0.1071464940905571,-0.24639892578125,0.0,0.0,-0.8728342056274414,0.4475204944610595
-0.0450047478079795,1.2071242332458496,-0.2144201248884201,-0.3833215832710266,-0.1194039732217788,-0.2451495677232742,0.0,0.0,-0.8107762336730957,-0.0585007071495056
-0.0473702438175678,1.1984126567840576,-0.2242911159992218,-0.3882055878639221,-0.1315978020429611,-0.243876963853836,0.0,0.0,-0.8160351514816284,0.37415611743927
-0.0498350150883197,1.1895933151245115,-0.2343098223209381,-0.3930893838405609,-0.1437269449234008,-0.2425827234983444,0.0,0.0,-0.9141377806663512,0.5704777240753174
-0.0523576736450195,1.180654764175415,-0.2390743792057037,-0.3985895812511444,-0.156892329454422,-0.2633074223995209,0.0,0.0,-0.8430694341659546,0.7495228052139282
-0.0549208633601665,1.1716032028198242,-0.2416890412569046,-0.4039035141468048,-0.1715330779552459,-0.2928153872489929,0.0,0.0,-0.9486608505249025,-0.3860392570495605
-0.0575872436165809,1.1624445915222168,-0.2520902752876282,-0.4087924361228943,-0.1861063838005066,-0.2914662659168243,0.0,0.0,-0.8197159171104431,-0.6899304986000061
-0.0604175552725791,0.0,-0.2701772451400757,-0.412436842918396,-0.199033111333847,-0.258534699678421,0.0,0.0,-0.8885872960090637,-0.6928365230560303
-0.0634130463004112,1.1438636779785156,-0.2883270382881164,-0.4165928959846496,-0.2103561609983444,-0.2264614105224609,0.0,0.0,-0.5756193399429321,-0.8532808423042297
-0.0665785819292068,1.1344393491744995,-0.3070649206638336,-0.4202491641044616,-0.2199386060237884,-0.1916492879390716,0.0,0.0,-0.6996930241584778,-0.0118637084960937
-0.0698510184884071,1.1249061822891235,-0.3178455531597137,-0.4251275658607483,-0.2294511646032333,-0.1902513206005096,0.0,0.0,-0.7977997660636902,0.2063146829605102
-0.0732311233878135,1.1152644157409668,-0.3287020325660705,-0.4300057590007782,-0.2388933002948761,-0.1888430416584015,0.0,0.0,-0.9359503388404846,-0.3175845146179199
-0.0767195671796798,1.1055138111114502,-0.3396272361278534,-0.4348837435245514,-0.2482645958662033,-0.1874255985021591,0.0,0.0,-0.545584499835968,-0.2806887626647949
-0.080316923558712,1.0956544876098633,-0.3506143689155578,-0.4397615790367126,-0.2575645744800567,-0.1860001236200332,0.0,0.0,-0.8966679573059082,0.1863294839859008
-0.0840238556265831,1.085686445236206,-0.3616569638252258,-0.4446392059326172,-0.2667929828166961,-0.1845677196979522,0.0,0.0,-0.7775790691375732,0.0998752117156982
-0.0878408402204513,1.075609564781189,-0.3727487921714782,-0.4495166540145874,-0.2759494185447693,-0.1831293106079101,0.0,0.0,-0.8076127171516418,0.0950998067855835
-0.09176816791296,1.0654239654541016,-0.3838838636875152,-0.4543938934803009,-0.2850337028503418,-0.1816859990358352,0.0,0.0,-0.6540247201919556,-0.2249375581741333
-0.0958064049482345,1.0551294088363647,-0.3950564563274383,-0.4592709541320801,-0.2940455973148346,-0.1802387088537216,0.0,0.0,-0.8162197470664978,0.2228480577468872
-0.0999556556344032,1.044726014137268,-0.4062610566616058,-0.4641478657722473,-0.3029849827289581,-0.178788423538208,0.0,0.0,-0.7977739572525024,-0.1261432766914367
-0.1042162925004959,1.0342137813568115,-0.4174922406673431,-0.4690245985984802,-0.3118517696857452,-0.177336037158966,0.0,0.0,-0.5397434234619141,0.243435263633728
-0.1085885018110275,1.0235925912857056,-0.4287448525428772,-0.4739011526107788,-0.3206458985805511,-0.1758824288845062,0.0,0.0,-0.8234844207763672,0.2342970371246338
-0.1130724921822547,1.0128624439239502,-0.4400137066841125,-0.478777527809143,-0.3293672800064087,-0.1744285076856613,0.0,0.0,-0.875066876411438,0.180334210395813
-0.1176683455705642,1.0020233392715454,-0.4512938559055328,-0.4836536943912506,-0.3380160331726074,-0.172975093126297,0.0,0.0,-0.7979887127876282,0.7440927028656006
-0.1223314255475997,0.9910587668418884,-0.4569971561431885,-0.4895287156105041,-0.3477720022201538,-0.1951202154159546,0.0,0.0,-0.6325797438621521,0.1397334337234497
-0.1271063834428787,0.9799854755401612,-0.4682863652706146,-0.4944062829017639,-0.3574555516242981,-0.1936705559492111,0.0,0.0,-0.807465136051178,0.4247769117355346
-0.131993293762207,0.968803346157074,-0.4795726239681244,-0.4992837011814117,-0.367066740989685,-0.1922246217727661,0.0,0.0,-0.8527628183364868,-0.5355654358863831
-0.1370340287685394,0.9575403332710266,-0.4962089955806732,-0.5026174783706665,-0.3753950297832489,-0.1665655672550201,0.0,0.0,-0.9207884073257446,0.7603883743286133
-0.1421217918395996,0.0,-0.4992698132991791,-0.5098506212234497,-0.3855068385601043,-0.2022363841533661,0.0,0.0,-0.5915773510932922,0.0171256065368652
-0.1473210304975509,0.9346020817756652,-0.510519802570343,-0.5147284269332886,-0.395547091960907,-0.2008056938648224,0.0,0.0,-0.8747835755348206,0.721964955329895
-0.152566909790039,0.9229268431663512,-0.5135571956634521,-0.5220171809196472,-0.4073809683322906,-0.2366777658462524,0.0,0.0,-0.4990096092224121,0.4060264825820923
-0.1579236984252929,0.9111432433128356,-0.5247614979743958,-0.5268977880477905,-0.4191441237926483,-0.2352625876665115,0.0,0.0,-0.5041744112968445,0.2440848350524902
-0.1633909195661544,0.899251401424408,-0.5359350442886353,-0.53177809715271,-0.4308370053768158,-0.2338574677705764,0.0,0.0,-0.6629603505134583,0.4726543426513672
-0.1689683943986892,0.8872511386871338,-0.5470731258392334,-0.5366582274436951,-0.4424601793289184,-0.2324632704257965,0.0,0.0,0.506939172744751,0.6510660648345947
-0.1742186546325683,0.8760861754417419,-0.5133786201477051,-0.4999564290046692,-0.455215573310852,-0.2551072835922241,0.0,0.0,0.0319474935531616,0.2791244983673095
-0.179404929280281,0.8655056357383728,-0.5069254636764526,-0.4741209149360657,-0.4681225121021271,-0.2581388354301452,0.0,0.0,0.2987954616546631,0.5286329984664917
-0.1844940185546875,0.8551453351974487,-0.4964190423488617,-0.4647352993488312,-0.4819842875003814,-0.2772350907325744,0.0,0.0,0.4676402807235718,0.4560561180114746
-0.1894811689853668,0.8455673456192017,-0.4860098361968994,-0.43018838763237,-0.4961911141872406,-0.2841361761093139,0.0,0.0,-0.76241135597229,0.3081097602844238
-0.194575697183609,0.8358816504478455,-0.4969035983085632,-0.4350728392601013,-0.5103317499160767,-0.2828127443790436,0.0,0.0,-0.5785531401634216,0.0537558794021606
-0.1997769325971603,0.8260883688926697,-0.5077329277992249,-0.4399569928646087,-0.5244070887565613,-0.2815073132514953,0.0,0.0,-0.396388292312622,0.0776149034500122
-0.205084279179573,0.8161872029304504,-0.5184926390647888,-0.4448408782482147,-0.5384181141853333,-0.2802208065986633,0.0,0.0,-0.1623716950416565,0.4138615131378174
-0.2104969471693039,0.8061780333518982,-0.5291775465011597,-0.4497244954109192,-0.5523658394813538,-0.2789540588855743,0.0,0.0,0.368309736251831,0.1606926918029785
-0.2156269550323486,0.7969522476196289,-0.5011476278305054,-0.4149763286113739,-0.566169023513794,-0.2760635018348694,0.0,0.0,0.4799271821975708,-0.0970113277435302
-0.2206581532955169,0.7878909707069397,-0.4916992783546448,-0.4076266586780548,-0.5795708894729614,-0.2680367231369018,0.0,0.0,0.3157287836074829,-0.3731834888458252
-0.2254017293453216,0.7795571088790894,-0.4631746411323547,-0.3753364384174347,-0.5928130745887756,-0.2648435235023498,0.0,0.0,0.6129894256591797,-0.4972280263900757
-0.2300650626420974,0.7717670798301697,-0.4549471437931061,-0.3514043688774109,-0.6064212322235107,-0.2721637189388275,0.0,0.0,0.8699023723602295,-0.8059166669845581
-0.2345357835292816,0.764966607093811,-0.437102735042572,-0.306907445192337,-0.6184409260749817,-0.2403952181339264,0.0,0.0,0.9500868320465088,-0.5411808490753174
-0.2386830300092697,0.7589589953422546,-0.4059341847896576,-0.271211177110672,-0.6291224360466003,-0.2136306464672088,0.0,0.0,0.9494366645812988,-0.1361731886863708
-0.2424655854701995,0.7541852593421936,-0.369008868932724,-0.2166915237903595,-0.6404516696929932,-0.2265851944684982,0.0,0.0,0.973597764968872,-0.4224745631217956
-0.2458631545305252,0.7500539422035217,-0.3309593200683594,-0.1880282908678054,-0.65132075548172,-0.2173811644315719,0.0,0.0,0.9901831150054932,-0.6141722202301025
-0.2491457909345626,0.7464544773101807,-0.3205584287643432,-0.1639247238636016,-0.6609179973602295,-0.1919450908899307,0.0,0.0,0.9878742694854736,-0.85664963722229
-0.2522693276405334,0.7431807518005371,-0.3063536584377289,-0.1486311852931976,-0.6684392690658569,-0.1504247188568115,0.0,0.0,0.9768514633178712,-0.5563352704048157
-0.2553028166294098,0.7403485178947449,-0.2982919812202453,-0.1285526752471923,-0.6748119592666626,-0.1274543106555938,0.0,0.0,0.9668006896972656,-0.9099487662315368
-0.2578990459442138,0.7385951280593872,-0.2562015950679779,-0.0797655805945396,-0.6791428923606873,-0.0866185799241066,0.0,0.0,0.8921303749084473,-0.6829210519790649
-0.2599610686302185,0.7377840280532837,-0.2041996717453003,-0.0371267795562744,-0.6816892027854919,-0.0509258583188056,0.0,0.0,0.334425687789917,-0.6085654497146606
-0.2618080675601959,0.7377748489379883,-0.1836570799350738,-0.0009632221772335,-0.6830103397369385,-0.0264228377491235,0.0,0.0,0.5009851455688477,-0.6197919845581055
-0.2636924386024475,0.7381675243377686,-0.1882960498332977,0.0173749737441539,-0.6831853985786438,-0.0035012350417673,0.0,0.0,0.1939700841903686,-0.3495082855224609
-0.26528000831604,0.7390872240066528,-0.1587650030851364,0.0408726185560226,-0.6831806302070618,9.534685523249208e-05,0.0,0.0,-0.0726927518844604,-0.5590961575508118
-0.2669915556907654,0.7399445176124573,-0.1723229736089706,0.0387378111481666,-0.6816962361335754,0.02968754991889,0.0,0.0,0.502324104309082,-0.2164723873138427
-0.2684363722801208,0.7414568662643433,-0.1455044150352478,0.0677696540951728,-0.6803995966911316,0.0259321965277194,0.0,0.0,-0.2733157873153686,-0.2292790412902832
-0.2699623107910156,0.7428593039512634,-0.1536473929882049,0.0628996044397354,-0.6790612936019897,0.0267662219703197,0.0,0.0,-0.185543417930603,-0.0407190918922424
-0.2715674042701721,0.744151771068573,-0.1615967154502868,0.0580294877290725,-0.6776824593544006,0.0275768432766199,0.0,0.0,0.2448208332061767,-0.4520071744918823
-0.2730740010738373,0.7456189393997192,-0.1518491506576538,0.0658421739935875,-0.6761817336082458,0.0300150476396083,0.0,0.0,-0.0879908204078674,-0.3101165294647217
-0.2746557593345642,0.7469761967658997,-0.1593944132328033,0.0609718933701515,-0.6746429204940796,0.0307766646146774,0.0,0.0,0.0511808395385742,-0.285415768623352
-0.2760105729103088,0.7485615015029907,-0.1370665878057479,0.0713014081120491,-0.6726343035697937,0.0401723161339759,0.0,0.0,-0.2905300855636596,-0.1830062270164489
-0.2774361968040466,0.750036895275116,-0.1441871076822281,0.0664308592677116,-0.6705901622772217,0.0408824905753135,0.0,0.0,-0.1739467978477478,-0.1970034837722778
-0.2789305746555328,0.7514024972915649,-0.1510880142450332,0.0615602247416973,-0.6685118675231934,0.0415660962462425,0.0,0.0,0.0851666927337646,-0.0521603822708129
-0.2801666259765625,0.7532256841659546,-0.1253618896007537,0.0819542855024337,-0.6663067936897278,0.0441017672419548,0.0,0.0,0.0924413204193115,-0.1767430901527404
-0.2811295092105865,0.7553827166557312,-0.0983765572309494,0.0969647094607353,-0.663689374923706,0.0523478873074054,0.0,0.0,-0.2436734437942505,-0.5307749509811401
-0.2821835875511169,0.757457435131073,-0.1082874685525894,0.0937041416764259,-0.6600848436355591,0.0720904916524887,0.0,0.0,-0.3955006003379822,0.1690735816955566
-0.2832971513271332,0.7594223618507385,-0.1142706423997879,0.0888326242566108,-0.6564517021179199,0.0726630538702011,0.0,0.0,-0.2433987259864807,0.3830759525299072
-0.284467875957489,0.7612776160240173,-0.1200161725282669,0.083961009979248,-0.6527913212776184,0.0732070878148078,0.0,0.0,-0.1696758270263672,-0.3166483640670776
-0.2856934070587158,0.7630232572555542,-0.1255216896533966,0.0790892988443374,-0.6491051912307739,0.073722131550312,0.0,0.0,-0.0258818268775939,-0.1301800608634948
-0.2869713306427002,0.76465904712677,-0.1307852864265442,0.0742174908518791,-0.6453948020935059,0.0742078274488449,0.0,0.0,0.4627370834350586,-0.4124587774276733
-0.2878658771514892,0.7668561339378357,-0.0927717387676239,0.0993042960762977,-0.6413052082061768,0.0817923843860626,0.0,0.0,-0.0322820544242858,0.0948162078857421
-0.2888079285621643,0.7689435482025146,-0.0975479483604431,0.0944321081042289,-0.6371942758560181,0.0822186022996902,0.0,0.0,-0.2981830835342407,0.0103712081909179
-0.2897950708866119,0.770921528339386,-0.1020794659852981,0.089559830725193,-0.633063554763794,0.0826148092746734,0.0,0.0,-0.147249162197113,0.1122645139694213
-0.2908248007297516,0.7727897763252258,-0.1063663810491561,0.0846874639391899,-0.6289145350456238,0.0829809010028839,0.0,0.0,0.0242387056350708,-0.0582455992698669
-0.2917338907718658,0.7750644087791443,-0.0940501317381858,0.1026181802153587,-0.6250832676887512,0.0766257494688034,0.0,0.0,-0.1524541974067688,-0.0436531901359558
-0.2926807403564453,0.7772294878959656,-0.0978500694036483,0.0977457985281944,-0.6212366819381714,0.0769313722848892,0.0,0.0,-0.2710999250411987,-0.0878371596336364
-0.2936630249023437,0.7792851328849792,-0.1014088168740272,0.0928733348846435,-0.6173763275146484,0.0772067233920097,0.0,0.0,-0.095020592212677,0.1526131629943847
-0.294678270816803,0.7812312245368958,-0.1047285422682762,0.0880007892847061,-0.6135037541389465,0.0774519443511962,0.0,0.0,0.1538242101669311,0.0327564477920532
-0.2953345775604248,0.7836337685585022,-0.0692398399114608,0.1084645017981529,-0.6091518402099609,0.0870378762483596,0.0,0.0,-0.1762600541114807,0.0058082342147827
-0.2960191667079925,0.7859267592430115,-0.0720903128385543,0.1035915166139602,-0.6047906279563904,0.0872236713767051,0.0,0.0,-0.4635887742042541,-0.0987520217895507
-0.2967298030853271,0.7881102561950684,-0.0747112333774566,0.0987184420228004,-0.6004216074943542,0.0873802453279495,0.0,0.0,-0.40257328748703,-0.3169997930526733
-0.2974642217159271,0.790184497833252,-0.0771067142486572,0.0938453003764152,-0.5960462093353271,0.0875080078840255,0.0,0.0,-0.3381339311599731,0.0695060491561889
-0.2982202172279358,0.792149007320404,-0.0792812928557396,0.0889720916748046,-0.5916658639907837,0.0876073688268661,0.0,0.0,-0.2744646072387695,-0.3439033031463623
-0.2989956736564636,0.7940042614936829,-0.0812399312853813,0.0840988010168075,-0.5872819423675537,0.0876788720488548,0.0,0.0,-0.0767573118209838,-0.3545725345611572
-0.2997885346412658,0.795750081539154,-0.0829880014061927,0.0792254358530044,-0.582895815372467,0.0877230614423751,0.0,0.0,0.1331591606140136,-0.3032604455947876
-0.3004333078861236,0.7979868054389954,-0.0678625255823135,0.1008894518017768,-0.5788968205451965,0.0799793824553489,0.0,0.0,-0.3362345695495605,0.4766561985015869
-0.3010914325714111,0.8001139760017395,-0.0692068189382553,0.0960161834955215,-0.5748983025550842,0.0799708068370819,0.0,0.0,-0.2887348532676697,-0.1790308356285095
-0.3017610013484955,0.8021318316459656,-0.0703588277101516,0.091142863035202,-0.5709014534950256,0.0799368768930435,0.0,0.0,0.0122584104537963,-0.3687499761581421
-0.3022501468658447,0.8044398427009583,-0.0523861832916736,0.1040567383170127,-0.5668339729309082,0.0813498049974441,0.0,0.0,-0.32957524061203,0.3373744487762451
-0.3027470707893371,0.8066384196281433,-0.053174115717411,0.0991832539439201,-0.5627706050872803,0.0812675356864929,0.0,0.0,-0.4473021030426025,-0.0872453451156616
-0.3032501637935638,0.8087276816368103,-0.0537907592952251,0.0943097248673439,-0.5587124824523926,0.0811623409390449,0.0,0.0,-0.6648656725883484,-0.2416929602622985
-0.303757756948471,0.8107075095176697,-0.0542436242103576,0.089436151087284,-0.5546607375144958,0.0810351222753524,0.0,0.0,-0.6877968907356262,-0.2551620006561279
