x_pos,y_pos,x_vel,y_vel,angle,ang_vel,leg_1,leg_2,main_booster,lat_booster
-0.0015843391884118,1.4035149812698364,-0.1607696712017059,-0.3291212618350982,0.0020935176871716,0.0413213297724723,0.0,0.0,0.3572142404055869,-0.6034162599944215
-0.0032284737098962,1.396588921546936,-0.1680942624807357,-0.3078345954418182,0.0057356362231075,0.0728498548269271,0.0,0.0,-0.2287518647236719,0.8933743109844241
-0.0048418999649584,1.3895471096038818,-0.1631878018379211,-0.3129817843437195,0.0075475513003766,0.0362418666481971,0.0,0.0,0.4310627218845346,0.7483946249306442
-0.006566715426743,1.3830416202545166,-0.1729647517204284,-0.2891307771205902,0.0080288043245673,0.0096260663121938,0.0,0.0,-0.1576221730975939,0.7992190524792753
-0.0082639697939157,1.3764300346374512,-0.1686454713344574,-0.2938444316387176,0.0069644171744585,-0.021289873868227,0.0,0.0,0.7688816574850919,-0.911142781005229
-0.0099189756438136,1.370580792427063,-0.1669399887323379,-0.2599737346172333,0.008389544673264,0.0285054557025432,0.0,0.0,0.4886426541703144,-0.939691556042715
-0.0117172244936227,1.3654011487960815,-0.1835393607616424,-0.230228990316391,0.0120574561879038,0.0733649283647537,0.0,0.0,-0.4468983866335605,0.7109138045639454
-0.0134840011596679,1.3601155281066897,-0.179046630859375,-0.2349414825439453,0.0143977124243974,0.0468096137046813,0.0,0.0,-0.2219357251528404,0.6224261285272322
-0.0152372363954782,1.3547282218933103,-0.1769299805164337,-0.2394514828920364,0.0159755945205688,0.0315611138939857,0.0,0.0,-0.1581140722734841,0.9805878507081952
-0.0169442184269428,1.3492393493652344,-0.170792356133461,-0.2439480274915695,0.016073016449809,0.0019485236844047,0.0,0.0,0.2939637177883667,-0.883004168170422
-0.0186774246394634,1.3443403244018557,-0.1757421791553497,-0.2177672982215881,0.0184644684195518,0.0478334128856658,0.0,0.0,-0.1499705710244498,-0.7515728927639207
-0.02048578299582,1.339328646659851,-0.1850691586732864,-0.2227944880723953,0.0226553436368703,0.0838251560926437,0.0,0.0,0.2105039957091921,0.7289787351106776
-0.02215919457376,1.3349859714508057,-0.1707596331834793,-0.1930711269378662,0.0260356683284044,0.0676127523183822,0.0,0.0,-0.9206537184650816,-0.7146030292070993
-0.0238969810307025,1.3305251598358154,-0.1789832413196563,-0.1983545869588852,0.0311788171529769,0.1028720363974571,0.0,0.0,0.8716781721400522,0.8993877839807278
-0.0254275314509868,1.3273764848709106,-0.157296597957611,-0.1400351673364639,0.0353864096105098,0.084159567952156,0.0,0.0,0.6205130405177959,-0.7369306763910024
-0.0269145015627145,1.3245503902435305,-0.1552036553621292,-0.1257779002189636,0.0418213680386543,0.1287109702825546,0.0,0.0,0.1241041192573555,-0.6306190803232603
-0.0283730514347553,1.322498440742493,-0.1543120443820953,-0.0914422571659088,0.0501902438700199,0.1673927009105682,0.0,0.0,-0.2023044937836442,0.7014402184407748
-0.0297612193971872,1.3203376531600952,-0.1460764110088348,-0.0963039025664329,0.0573735125362873,0.1436783373355865,0.0,0.0,0.5857543311746736,-0.9947461932563636
-0.031160831451416,1.3192338943481443,-0.1498709917068481,-0.0494570732116699,0.0671920403838157,0.1963882148265838,0.0,0.0,0.5447232091322636,-0.8289124317663841
-0.0327354446053504,1.3187991380691528,-0.1694473326206207,-0.0199058167636394,0.0790714994072914,0.2376104146242141,0.0,0.0,-0.947605454312688,0.9584484540485534
-0.0342052467167377,1.3182744979858398,-0.1571776121854782,-0.023878114297986,0.0891881734132766,0.2023517340421676,0.0,0.0,-0.0035298939074686,-0.734354366943524
-0.0357138626277446,1.3176311254501345,-0.1630467772483825,-0.0293679591268301,0.1012948378920555,0.2421547919511795,0.0,0.0,-0.9684256940393852,0.9626564622173016
-0.0371089950203895,1.316893219947815,-0.1498956233263015,-0.0335339531302452,0.1116257235407829,0.2066363841295242,0.0,0.0,-0.1863538108279949,-0.732719370105178
-0.0385291092097759,1.3160314559936523,-0.1542550027370453,-0.0392583161592483,0.1238123103976249,0.2437531501054763,0.0,0.0,-0.8193733548251478,0.9575723732652812
-0.039863396435976,1.315076231956482,-0.1447458863258361,-0.0434351786971092,0.1350971162319183,0.2257163822650909,0.0,0.0,-0.2636110584431324,0.8900480098558861
-0.0411108955740928,1.3140082359313965,-0.1352829486131668,-0.0484614260494709,0.1455964297056198,0.2099864035844802,0.0,0.0,0.985044643057042,-0.65661684871958
-0.0424960143864154,1.314122438430786,-0.150920882821083,0.0038229166530072,0.157985970377922,0.2477904558181762,0.0,0.0,-0.9583555118142668,0.6790678857785574
-0.0438013076782226,1.3141472339630127,-0.1424149423837661,-0.0002028303133556,0.1698752641677856,0.2377859354019165,0.0,0.0,0.941160479153577,-0.9300286626554471
-0.0454585067927837,1.3153575658798218,-0.1796891689300537,0.0521318092942237,0.1838869899511337,0.2802347540855407,0.0,0.0,0.9849635167412074,0.9227673669680496
-0.0471328720450401,1.3173348903656006,-0.1800523847341537,0.0862664356827735,0.1965679228305816,0.2536186575889587,0.0,0.0,-0.286845516972533,0.7083510637965154
-0.0487037673592567,1.3192307949066162,-0.16878542304039,0.0826677531003952,0.2083476185798645,0.2355939149856567,0.0,0.0,-0.6833916068921664,-0.8505368801089623
-0.0502976402640342,1.3209927082061768,-0.1735249608755111,0.0762461423873901,0.2226345539093017,0.2857386171817779,0.0,0.0,0.4404893610639251,0.9266212307182612
-0.0520027168095111,1.3236770629882812,-0.1832452118396759,0.1173320487141609,0.2355438321828842,0.2581855058670044,0.0,0.0,-0.360657821097851,0.6390456714372711
-0.0536075606942176,1.326265811920166,-0.1726108640432357,0.113070324063301,0.2478787004947662,0.2466971427202224,0.0,0.0,0.2685932751583324,0.7763860655108897
-0.0551999099552631,1.3294782638549805,-0.1703641861677169,0.1408637166023254,0.2592329978942871,0.2270857989788055,0.0,0.0,0.7947005887897456,-0.7480213171893502
-0.0569800361990928,1.333767652511597,-0.1911918222904205,0.188247337937355,0.2727155089378357,0.2696500122547149,0.0,0.0,0.7938937410405076,-0.8533892875587015
-0.0589256286621093,1.3386223316192627,-0.209885761141777,0.2128274738788604,0.2884498834609985,0.3146874606609344,0.0,0.0,0.211048974447026,-0.6734334937715347
-0.0609883293509483,1.344171404838562,-0.2234398424625396,0.2431234866380691,0.3061643838882446,0.3542903065681457,0.0,0.0,-0.985564252805052,-0.9277694108866172
-0.0630624741315841,1.349592208862305,-0.2269517928361892,0.2366786748170852,0.3264559805393219,0.4058318734169006,0.0,0.0,0.3910455110769615,-0.6826465622153945
-0.0652604103088378,1.3556265830993652,-0.2411252707242965,0.2632196247577667,0.3487609028816223,0.4460981786251068,0.0,0.0,0.8329074528904838,-0.7374750457341499
-0.0678629875183105,1.362688660621643,-0.2831068933010101,0.3081382513046264,0.3728659152984619,0.48210009932518,0.0,0.0,-0.9879481196403505,0.9630815982818604
-0.0703110694885253,1.3696982860565186,-0.2657641470432281,0.3059168756008148,0.3951605856418609,0.4458934366703033,0.0,0.0,-0.9938096404075624,0.9827237129211426
-0.07260312885046,1.3766486644744873,-0.2483312338590622,0.3034557402133941,0.4156870245933532,0.4105287492275238,0.0,0.0,-0.9932377934455872,0.990371584892273
-0.0747400298714637,1.3835504055023191,-0.2309719622135162,0.3015396296977997,0.4343997538089752,0.3742553889751434,0.0,0.0,-0.9932513236999512,0.9722450971603394
-0.0767359733581543,1.3903839588165283,-0.2155422866344452,0.2986871004104614,0.4518182575702667,0.3483703136444092,0.0,0.0,-0.9906500577926636,0.8140463829040527
-0.0785932540893554,1.3971524238586426,-0.2004223763942718,0.2959772050380707,0.4679959416389465,0.3235539495944977,0.0,0.0,-0.99986332654953,0.9094064235687256
-0.0803034752607345,1.403866171836853,-0.1842402219772339,0.2938638925552368,0.4826598167419433,0.2932783961296081,0.0,0.0,-0.9975526332855223,0.0360102653503418
-0.0819371193647384,1.410476565361023,-0.1769997924566269,0.2889563739299774,0.4979018270969391,0.3048401772975921,0.0,0.0,-0.9955757260322572,0.6776913404464722
-0.0834591835737228,1.4170186519622805,-0.1652406752109527,0.2859541177749634,0.5125988125801086,0.2939392328262329,0.0,0.0,-0.990807056427002,0.7651042938232422
-0.0848521217703819,1.4234975576400757,-0.1513562649488449,0.2833605110645294,0.5263161063194275,0.274347186088562,0.0,0.0,-0.9910974502563475,0.1072735786437988
-0.0861660987138748,1.42987322807312,-0.1438669860363006,0.2784534692764282,0.5406121015548706,0.2859192490577698,0.0,0.0,-0.8992217183113098,0.8458881378173828
-0.08735141903162,1.4361958503723145,-0.1299737989902496,0.2763713300228119,0.5538498163223267,0.2647537589073181,0.0,0.0,-0.941225290298462,-0.2725138664245605
-0.0884563475847244,1.442415475845337,-0.1223496794700622,0.2714642882347107,0.5676663517951965,0.276330292224884,0.0,0.0,-0.9811824560165404,0.577912449836731
-0.0894442573189735,1.4485723972320557,-0.1099816411733627,0.2688277661800384,0.5808091759681702,0.262858122587204,0.0,0.0,-0.9763661026954652,-0.1017801761627197
-0.0903510078787803,1.4546260833740234,-0.1022441834211349,0.2639199793338775,0.5945310592651367,0.2744372487068176,0.0,0.0,-0.8686696290969849,0.437865138053894
-0.0911761298775672,1.4605766534805298,-0.0944565311074256,0.2590106427669525,0.6088318824768066,0.2860167622566223,0.0,0.0,-0.9624426364898682,0.372848629951477
-0.0919192284345626,1.4664244651794434,-0.086623303592205,0.2540997266769409,0.6237117052078247,0.2975963950157165,0.0,0.0,-0.7391632199287415,0.1422550678253173
-0.0925802215933799,1.4721696376800537,-0.0787489786744117,0.2491872310638427,0.6391705274581909,0.3091759979724884,0.0,0.0,-0.931358516216278,0.6713054180145264
-0.0931146591901779,1.4778701066970823,-0.0650833547115325,0.2475074380636215,0.653554379940033,0.2876769602298736,0.0,0.0,-0.4616539478302002,0.0258183479309082
-0.093566320836544,1.4834680557250977,-0.0571432039141655,0.2425950914621353,0.6685171723365784,0.2992561459541321,0.0,0.0,-0.91208678483963,-0.2646982669830322
-0.0939352065324783,1.488963603973389,-0.0491744503378868,0.2376811653375625,0.6840588450431824,0.3108333945274353,0.0,0.0,-0.6634116172790527,-0.1682583093643188
-0.0942211151123046,1.4943568706512451,-0.0411808677017688,0.2327657043933868,0.7001792788505554,0.3224081993103027,0.0,0.0,-0.8562791347503662,0.0399035215377807
-0.0944242477416992,1.4996485710144043,-0.033166080713272,0.2278486639261245,0.7168782353401184,0.333979994058609,0.0,0.0,-0.5918374061584473,-0.0476132631301879
-0.0945445075631141,1.504838466644287,-0.0251336097717285,0.2229300141334533,0.7341556549072266,0.345548152923584,0.0,0.0,-0.6212406754493713,0.3251368999481201
-0.0945821776986122,1.5099271535873413,-0.0170868746936321,0.2180097848176956,0.752011239528656,0.3571119904518127,0.0,0.0,-0.3701575994491577,0.5891008377075195
-0.0945108383893966,1.5149515867233276,-0.0056398175656795,0.2152218520641327,0.76939857006073,0.347746342420578,0.0,0.0,-0.8279691338539124,0.2548449039459228
-0.0943569168448448,1.5198748111724854,0.0024222447536885,0.210300788283348,0.7873635292053223,0.3592992126941681,0.0,0.0,-0.4020136594772339,0.0422407388687133
-999.0,1.5246970653533936,0.0104885511100292,0.2053782343864441,0.8059056997299194,0.3708438873291015,0.0,0.0,-0.3715521097183227,0.5952126979827881
-0.0937723144888877,1.5294747352600098,0.0225170440971851,0.2036476731300354,0.8236050605773926,0.3539867997169494,0.0,0.0,-0.5642489194869995,0.297383189201355
-0.0933419242501258,1.534151315689087,0.0305775646120309,0.1987251937389373,0.8418806791305542,0.3655117750167846,0.0,0.0,-0.3774647712707519,0.4364361763000488
-0.0928296074271202,1.5387272834777832,0.0386326387524604,0.1938013285398483,0.860731840133667,0.3770228624343872,0.0,0.0,0.1035571098327636,0.5855257511138916
-0.0925073623657226,1.5436863899230957,0.0203766860067844,0.2110664546489715,0.8788406848907471,0.3621769547462463,0.0,0.0,0.0616816282272338,0.2938758134841919
-0.0925744995474815,1.5489684343338013,-0.0184147991240024,0.2251779437065124,0.8971405029296875,0.3659968674182892,0.0,0.0,-0.6402849555015564,0.6934819221496582
-0.0925231948494911,1.554219126701355,-0.0055613261647522,0.2242958396673202,0.9142157435417176,0.3415047526359558,0.0,0.0,-0.146435260772705,0.2513636350631714
-0.0923909172415733,1.5593688488006592,0.0024276482872664,0.2193737477064132,0.9318625926971436,0.3529371321201324,0.0,0.0,-0.8909080624580383,0.0691304206848144
-0.0921781510114669,1.5644174814224243,0.0103948563337326,0.2144505977630615,0.9500795602798462,0.3643398880958557,0.0,0.0,-0.6231743693351746,0.0439764261245727
-0.091885469853878,1.5693655014038086,0.0183371342718601,0.2095264047384262,0.9688649773597716,0.3757092952728271,0.0,0.0,-0.9340121746063232,-0.3371677994728088
-0.0915133506059646,1.5742127895355225,0.0262512899935245,0.2046012282371521,0.9882170557975768,0.387041300535202,0.0,0.0,-0.7441625595092773,-0.2236502766609192
-0.0910625457763671,1.578959822654724,0.0341340713202953,0.1996751278638839,1.0081336498260498,0.3983313143253326,0.0,0.0,-0.4123111963272095,-0.3042399883270263
-0.0905337333679199,1.583606243133545,0.0419821962714195,0.194748193025589,1.0286123752593994,0.4095741212368011,0.0,0.0,-0.7819069623947144,-0.3950768709182739
-0.0899274796247482,1.5881526470184326,0.0497922971844673,0.1898204982280731,1.0496505498886108,0.420764148235321,0.0,0.0,-0.4731040000915527,-0.1810725927352905
-0.0892446488142013,1.5925989151000977,0.0575609728693962,0.1848921626806259,1.071245193481445,0.4318950772285461,0.0,0.0,-0.7419893145561218,-0.3474670648574829
-0.0884861946105957,1.59694504737854,0.065284751355648,0.1799632906913757,1.0933932065963743,0.4429599344730377,0.0,0.0,-0.9352558255195618,0.0949242115020752
-0.087653063237667,1.6011910438537598,0.0729600489139556,0.1750339865684509,1.1160907745361328,0.4539510309696197,0.0,0.0,-0.8742784857749939,-0.3804490566253662
-0.0867459326982498,1.6053372621536257,0.0805832520127296,0.1701044142246246,1.139333724975586,0.4648597836494446,0.0,0.0,-0.3236652016639709,0.1440811157226562
-0.0857660323381424,1.6093838214874268,0.0881506353616714,0.1651747077703476,1.163117527961731,0.4756768643856048,0.0,0.0,-0.6073139905929565,0.1261111497879028
-0.0847141295671463,1.6133301258087158,0.0956584066152572,0.1602450311183929,1.1874371767044067,0.4863919615745544,0.0,0.0,-0.4139508008956909,-0.1732077598571777
-0.0835916548967361,1.617176532745361,0.1031026691198349,0.1553156077861786,1.2122867107391355,0.4969938397407532,0.0,0.0,0.0153858661651611,0.1710201501846313
-0.0826963409781456,1.62123441696167,0.0806393325328826,0.1639773249626159,1.2380783557891846,0.5158330202102661,0.0,0.0,-0.6791356801986694,-0.0728455185890197
-0.0817329436540603,1.6251925230026243,0.0879471600055694,0.159048318862915,1.264386773109436,0.5261693596839905,0.0,0.0,-0.8664942383766174,0.1133638620376586
-0.0807023048400878,1.6290501356124878,0.0951794162392616,0.1541202366352081,1.2912043333053589,0.536352276802063,0.0,0.0,-0.7396613359451294,-0.0231850147247314
-0.0796058624982833,1.632807374000549,0.1023318544030189,0.1491933315992355,1.3185226917266846,0.5463660359382629,0.0,0.0,-0.7257758378982544,0.0470303297042846
-0.078445054590702,1.6364638805389404,0.1094001680612564,0.1442678272724151,1.346332311630249,0.5561934113502502,0.0,0.0,-0.7196506261825562,0.3123587369918823
-0.0772210136055946,1.640019416809082,0.1163799315690994,0.1393440067768097,1.3746229410171509,0.5658160448074341,0.0,0.0,0.3343620300292969,0.0407577753067016
-0.0763468742370605,1.6435315608978271,0.0821383371949195,0.1371226012706756,1.4031873941421509,0.5712891817092896,0.0,0.0,-0.7868761420249939,0.3301525115966797
-0.0754122734069824,1.646941900253296,0.0889261811971664,0.1322031766176223,1.4322094917297363,0.5804427862167358,0.0,0.0,-0.8618925213813782,0.2955741882324219
-0.0744188278913497,1.65024995803833,0.0956118553876876,0.1272863149642944,1.4616758823394775,0.5893288850784302,0.0,0.0,-0.8249874114990234,0.4400728940963745
-0.0733679756522178,1.6534554958343506,0.1021906957030296,0.1223722919821739,1.4915721416473389,0.5979241728782654,0.0,0.0,-0.8460198044776917,0.4780696630477905
-0.0722612366080284,1.6565580368041992,0.1086580529808998,0.1174614205956459,1.5218822956085205,0.6062044501304626,0.0,0.0,-0.9571510553359984,0.2901558876037597
-0.0711001381278038,1.659556865692139,0.1150091886520385,0.112554021179676,1.5525895357131958,0.6141445636749268,0.0,0.0,-0.6360393762588501,0.5619304180145264
-0.0698881149291992,1.6625055074691772,0.121058739721775,0.1108836829662323,1.5824562311172483,0.5973336696624756,0.0,0.0,-0.6772857904434204,0.3880772590637207
-0.0686243027448654,1.6653492450714111,0.1271539479494094,0.1059841066598892,1.6126821041107178,0.6045186519622803,0.0,0.0,-0.9190279245376588,0.4008949995040893
-0.0673102363944053,1.6680874824523926,0.1331186592578888,0.101088598370552,1.643246293067932,0.6112837791442871,0.0,0.0,-0.3907479643821716,0.5827267169952393
-0.0659488663077354,1.670768141746521,0.1387192755937576,0.0991071462631225,1.6730278730392456,0.5956338047981262,0.0,0.0,-0.5955740809440613,0.4743406772613525
-0.0645400062203407,1.6733421087265017,0.1444009840488433,0.0942200422286987,1.7031019926071167,0.6014834642410278,0.0,0.0,-0.8301690816879272,0.5143179893493652
-0.063087560236454,1.675871968269348,0.1494882553815841,0.0931074172258377,1.7320215702056885,0.578391969203949,0.0,0.0,-0.7860012054443359,0.5838701725006104
-0.0616013519465923,1.678372859954834,0.1534059941768646,0.0929610207676887,1.7593731880187988,0.5470325350761414,0.0,0.0,-0.7779837846755981,0.4474722146987915
-0.0600708946585655,1.680765151977539,0.1586194485425949,0.0880851298570633,1.7869393825531006,0.5513247847557068,0.0,0.0,-0.575800895690918,0.4833598136901855
-0.0584979057312011,1.6830482482910156,0.1636764407157898,0.0832135453820228,1.8146919012069704,0.5550500154495239,0.0,0.0,-0.8291507363319397,0.4587788581848144
-0.0568839088082313,1.6852213144302368,0.1685732752084732,0.0783463642001152,1.8426014184951784,0.5581904053688049,0.0,0.0,-0.6701673865318298,0.4650993347167969
-0.0552303306758403,1.6872838735580444,0.1733065098524093,0.0734836384654045,1.8706380128860476,0.5607308149337769,0.0,0.0,-0.8256442546844482,0.3564977645874023
-0.0535392761230468,1.689234733581543,0.1778729408979416,0.0686253979802131,1.898770928382873,0.5626589059829712,0.0,0.0,-0.8364216089248657,0.4824471473693847
-0.0518120750784873,1.6910735368728638,0.1822696775197982,0.0637716129422187,1.926969289779663,0.5639661550521851,0.0,0.0,-0.4907209277153015,0.4070849418640136
-0.0500502586364746,1.69279944896698,0.1864941567182541,0.0589222088456153,1.955201506614685,0.56464684009552,0.0,0.0,-0.8480877876281738,0.3286211490631103
-0.048255443572998,1.694412112236023,0.1905440688133239,0.0540771149098873,1.9834363460540767,0.564699113368988,0.0,0.0,-0.765572726726532,0.2600091695785522
-0.04642915725708,1.6959102153778076,0.1944175213575363,0.0492362007498741,2.0116426944732666,0.5641246438026428,0.0,0.0,-0.8111820220947266,0.1948930025100708
-0.044572927057743,1.697293758392334,0.1981129348278045,0.0443993061780929,2.0397891998291016,0.5629284381866455,0.0,0.0,-0.7926397323608398,0.1743941307067871
-0.0426883697509765,1.698561668395996,0.2016292363405227,0.0395662300288677,2.067845106124878,0.5611187219619751,0.0,0.0,-0.9358096718788148,0.0882573127746582
-0.0407768264412879,1.699714183807373,0.2049655616283416,0.0347367599606514,2.095780372619629,0.5587069988250732,0.0,0.0,-0.8200394511222839,0.0367192029953002
-0.0388397201895713,1.7007498741149902,0.208121582865715,0.0299106445163488,2.123565673828125,0.5557074546813965,0.0,0.0,-0.8023078441619873,-0.0447341203689575
-0.0368784889578819,1.7016685009002686,0.2110973596572876,0.0250876192003488,2.151172637939453,0.5521368980407715,0.0,0.0,-0.9144540429115297,-0.1001010537147522
-0.0348945632576942,1.702469825744629,0.2138933688402176,0.020267404615879,2.1785733699798584,0.5480140447616577,0.0,0.0,-0.9001417756080627,-0.1975770592689514
