x_pos,y_pos,x_vel,y_vel,angle,ang_vel,leg_1,leg_2,main_booster,lat_booster
-0.0015307426219806,1.4032031297683716,-0.1547984331846237,-0.3429803848266601,0.0015477413544431,0.0305145923048257,0.0,0.0,-0.4747769071042249,0.8345045737331911
-0.0029961585532873,1.395084023475647,-0.1460443139076233,-0.3608541488647461,0.0010508636478334,-0.0099377185106277,0.0,0.0,-0.6127795183706315,0.5901202428884574
-0.004409504123032,1.3865387439727783,-0.1391865313053131,-0.3797930777072906,-0.001067463424988,-0.0423706546425819,0.0,0.0,0.0507904641481502,-0.2174735515210905
-0.0059013366699218,1.3780486583709717,-0.1464934647083282,-0.3773364424705505,-0.0037283517885953,-0.05322265625,0.0,0.0,0.883705194994802,0.2241251871743423
-0.0072451592423021,1.3702517747879028,-0.1322348564863205,-0.3465384244918823,-0.0058465902693569,-0.0423685982823371,0.0,0.0,0.7704040654851965,0.8822022930631288
-0.0083537101745605,1.3629028797149658,-0.1071135774254798,-0.3266310095787048,-0.0095481248572468,-0.0740376859903335,0.0,0.0,0.6619959304179674,-0.4568690288930538
-0.0094785690307617,1.3560044765472412,-0.1085049360990524,-0.3066241443157196,-0.0134805981069803,-0.0786567702889442,0.0,0.0,0.9442044488111744,-0.4598930230097975
-0.0104150772094726,1.349822998046875,-0.0904141440987587,-0.2747575640678406,-0.0166783854365348,-0.0639617592096328,0.0,0.0,-0.6052014044324052,-0.7937245536599123
-0.0114117618650197,1.3432307243347168,-0.097968965768814,-0.2930220663547516,-0.0183554012328386,-0.0335430577397346,0.0,0.0,-0.3332213064695799,0.9130934534983592
-0.0123316766694188,1.336220622062683,-0.0884172618389129,-0.3116051256656647,-0.0219007637351751,-0.0709139704704284,0.0,0.0,0.9759876928192226,-0.504763341313757
-0.0131610874086618,1.329853653907776,-0.0806753858923912,-0.2830125689506531,-0.0241387076675891,-0.0447626337409019,0.0,0.0,-0.0441799885774327,-0.8318414955552906
-0.014041137881577,1.3230655193328855,-0.0871991068124771,-0.3017115294933319,-0.0249407831579446,-0.0160429086536169,0.0,0.0,-0.1774018435331119,0.5018260980629289
-0.0148647306486964,1.315856695175171,-0.0803306922316551,-0.3204237818717956,-0.0269498582929372,-0.0401850081980228,0.0,0.0,-0.2619684643097726,0.2187474172530791
-0.0156788825988769,1.3082265853881836,-0.0794052183628082,-0.3391541540622711,-0.0289332065731287,-0.0396705009043216,0.0,0.0,-0.3334037106641354,0.0592350196503173
-0.0164824482053518,1.3001751899719238,-0.0783930346369743,-0.3578846752643585,-0.03087037242949,-0.0387469679117202,0.0,0.0,-0.7752166753806351,0.9067357596255242
-0.0171899795532226,1.2916877269744873,-0.0667162388563156,-0.3773064911365509,-0.0348676182329654,-0.0799521207809448,0.0,0.0,0.2633605684075828,-0.9513571691463156
-0.0178144462406635,1.2837682962417605,-0.060460515320301,-0.3520270884037018,-0.0368222035467624,-0.0390953496098518,0.0,0.0,0.1507322843252208,0.2133129158508778
-0.0183164589107036,1.2758128643035889,-0.0488082095980644,-0.353611022233963,-0.0382043942809104,-0.0276462640613317,0.0,0.0,0.03358517693904,0.6591321341422209
-0.0186636932194232,1.2681879997253418,-0.0321949385106563,-0.3389493823051452,-0.0406930483877658,-0.0497775822877883,0.0,0.0,-0.940724198017544,-0.4576155140946261
-0.0189954750239849,1.2601416110992432,-0.030812282115221,-0.3576844930648803,-0.0430336855351924,-0.0468170344829559,0.0,0.0,-0.9757191789118544,0.80139222742474
-0.019234275445342,1.251674771308899,-0.0197334084659814,-0.3764280676841736,-0.0471379533410072,-0.0820929482579231,0.0,0.0,-0.7845706506743813,0.0059985517717475
-0.0194560047239065,1.2427866458892822,-0.0182285904884338,-0.3951595723628998,-0.0510583221912384,-0.0784141272306442,0.0,0.0,0.1170030722438766,-0.1286946078110905
-0.0195538513362407,1.2340219020843506,-0.0064396746456623,-0.3896660208702087,-0.0543714128434658,-0.0662676244974136,0.0,0.0,0.1230453390971535,0.1960697953835364
-0.0195745471864938,1.225149393081665,0.0008365117246285,-0.3944394886493683,-0.0572493933141231,-0.0575645454227924,0.0,0.0,-0.1023438547656641,0.9573038101000828
-0.0195184703916311,1.215853214263916,0.0097439689561724,-0.4133294820785522,-0.0613530725240707,-0.0820808932185173,0.0,0.0,-0.5162230355828143,-0.7988982265141122
-0.0195221900939941,1.2061254978179932,0.0015329914167523,-0.4324206709861755,-0.0632372573018074,-0.0376835614442825,0.0,0.0,-0.1109006629309692,-0.13741033815241
-0.0195061676204204,1.1959762573242188,0.003253525821492,-0.451147973537445,-0.0648655816912651,-0.0325664207339286,0.0,0.0,0.5115883015917357,0.3515714172618439
-0.0195402149111032,1.1865471601486206,-0.0014651685487478,-0.4191496074199676,-0.0667790174484252,-0.0382690988481044,0.0,0.0,0.1455142761470116,0.5759591199704549
-0.0195719711482524,1.1775107383728027,-0.0002034076314885,-0.4017566442489624,-0.0697289109230041,-0.0589975044131279,0.0,0.0,-0.5850441052852648,0.9707046928351554
-0.019508933648467,1.1680413484573364,0.0108807813376188,-0.4210782349109649,-0.0742553994059562,-0.0905300304293632,0.0,0.0,0.3146164495055772,-0.7026275796223201
-0.0194127075374126,1.159170627593994,0.0124424491077661,-0.3944033682346344,-0.0770559087395668,-0.0560098811984062,0.0,0.0,-0.9322741031646729,-0.8769881129264832
-0.0193731300532817,1.1498820781707764,0.0044875768944621,-0.4128525853157043,-0.0775773003697395,-0.0104277189821004,0.0,0.0,-0.8096542358398438,-0.4304976463317871
-0.0193112380802631,1.1401718854904177,0.0063868872821331,-0.4315789043903351,-0.0777821913361549,-0.0040976391173899,0.0,0.0,-0.842883288860321,-0.7130430340766907
-0.0192895885556936,1.1300406455993652,0.0004688869812525,-0.4501866400241852,-0.0760943293571472,0.0337570458650589,0.0,0.0,-0.9081333875656128,-0.2423303723335266
-0.0192450527101755,1.119487762451172,0.0024106272030621,-0.4689131081104278,-0.0740754604339599,0.0403775610029697,0.0,0.0,-0.9389294385910034,-0.4293729066848755
-0.0191775318235158,1.108513355255127,0.004371038172394,-0.4876396358013153,-0.0717191621661186,0.0471256524324417,0.0,0.0,-0.7105836868286133,0.2372279167175293
-0.019086742773652,1.0971171855926514,0.0063485922291874,-0.5063663721084595,-0.0690196305513382,0.0539906397461891,0.0,0.0,-0.8231318593025208,0.3108510971069336
-0.0189724918454885,1.0852994918823242,0.0083418730646371,-0.5250933170318604,-0.0659714937210083,0.0609627179801464,0.0,0.0,-0.8578681945800781,-0.1829774379730224
-0.0188345909118652,1.073060154914856,0.0103495679795742,-0.5438204407691956,-0.0625698640942573,0.0680327489972114,0.0,0.0,-0.963969588279724,0.1826996803283691
-0.0186729431152343,1.060399293899536,0.0123704681172966,-0.5625478029251099,-0.0588102415204048,0.0751923397183418,0.0,0.0,-0.785535991191864,0.3402391672134399
-0.0184872634708881,1.0473170280456543,0.0144034503027796,-0.5812755227088928,-0.0546885468065738,0.0824338495731353,0.0,0.0,-0.7186580896377563,0.4936281442642212
-0.018277358263731,1.0338134765625,0.0164474733173847,-0.6000035405158997,-0.0502010360360145,0.0897500962018966,0.0,0.0,-0.903225839138031,-0.0170127749443054
-0.0180431362241506,1.019888401031494,0.0185015760362148,-0.6187320351600647,-0.045344304293394,0.0971346348524093,0.0,0.0,-0.7667642831802368,0.6258819103240967
-0.0177269931882619,1.0055367946624756,0.0277931690216064,-0.6377365589141846,-0.041566040366888,0.0755652263760566,0.0,0.0,-0.9194700717926024,-0.0450489521026611
-0.0173862464725971,0.9907639622688292,0.0298648811876773,-0.6564647555351257,-0.037412591278553,0.0830691158771514,0.0,0.0,-0.9279085993766784,0.4797801971435547
-0.0170208923518657,0.9755696654319764,0.0319441631436347,-0.6751933693885803,-0.0328813530504703,0.0906249433755874,0.0,0.0,-0.7560021281242371,0.1972368955612182
-0.0166309364140033,0.959954023361206,0.034030295908451,-0.6939223408699036,-0.0279699433594942,0.0982281491160392,0.0,0.0,-0.8252334594726562,0.548297643661499
-0.0161807052791118,0.9439217448234558,0.0405602380633354,-0.7124727964401245,-0.0235626641660928,0.0881455913186073,0.0,0.0,-0.8925238847732544,0.5505897998809814
-0.0156715400516986,0.9274716973304749,0.0469273626804351,-0.7310529947280884,-0.0196245089173316,0.0787632688879966,0.0,0.0,-0.8914770483970642,0.6068286895751953
-0.0150911333039402,0.9105972647666932,0.0548407137393951,-0.7499358654022217,-0.0164648164063692,0.0631938204169273,0.0,0.0,-0.8586779236793518,0.4646668434143066
-0.0144857410341501,0.8933016657829285,0.0569479167461395,-0.7686644792556763,-0.0129173872992396,0.0709485039114952,0.0,0.0,-0.5535023212432861,0.3756129741668701
-0.0138552663847804,0.875584602355957,0.0590589269995689,-0.7873934507369995,-0.0089807445183396,0.0787329897284507,0.0,0.0,-0.6940270066261292,0.8679877519607544
-0.0131185529753565,0.8574402928352356,0.0713534355163574,-0.8063985705375671,-0.0066930972971022,0.0457528606057167,0.0,0.0,-0.2832680344581604,-0.4563877582550049
-0.0123566631227731,0.8388748168945312,0.0734705924987793,-0.8251272439956665,-0.0040136403404176,0.0535892732441425,0.0,0.0,-0.521482527256012,0.9255253076553344
-0.011478329077363,0.8198837637901306,0.0870531797409057,-0.844041645526886,-0.0032371627166867,0.0155295906588435,0.0,0.0,0.0269094705581665,0.1696505546569824
-0.0106331827118992,0.8009110689163208,0.0836094617843627,-0.8432323932647705,-0.0023414560128003,0.0179140660911798,0.0,0.0,-0.4652142524719238,-0.359940767288208
-0.0097627639770507,0.7815169095993042,0.0857322886586189,-0.8619606494903564,-0.0010508766863495,0.0258116386830806,0.0,0.0,-0.2812918424606323,0.2313913106918335
-0.0088671687990427,0.7617014646530151,0.0878561213612556,-0.8806890845298767,0.0006354135111905,0.0337258614599704,0.0,0.0,-0.54047030210495,0.2820043563842773
-0.0079462053254246,0.7414645552635193,0.0899805352091789,-0.8994177579879761,0.002718168310821,0.0416550226509571,0.0,0.0,0.1854252815246582,0.1849405765533447
-0.0070562362670898,0.7216519713401794,0.0867451131343841,-0.8805685639381409,0.0049452618695795,0.0445420816540718,0.0,0.0,0.2458804845809936,-0.1252102851867675
-0.0061037065461277,0.7018372416496277,0.0924118384718895,-0.8806686401367188,0.007748669013381,0.0560680329799652,0.0,0.0,0.6088401079177856,0.2236461639404297
-0.0052288053557276,0.6826246380805969,0.084701582789421,-0.8539108633995056,0.0104986131191253,0.0549991019070148,0.0,0.0,0.1126074790954589,0.1207282543182373
-0.004249095916748,0.6635144352912903,0.0943872258067131,-0.8493670225143433,0.0140320491045713,0.0706687420606613,0.0,0.0,-0.4907960891723633,0.5386617183685303
-0.0031999587081372,0.6439849734306335,0.1020652204751968,-0.8680092692375183,0.016851432621479,0.0563875511288642,0.0,0.0,0.7618708610534668,-0.1816765069961547
-0.0021244050003588,0.624675452709198,0.104260429739952,-0.8582354784011841,0.0201088786125183,0.0651487857103347,0.0,0.0,0.6095023155212402,0.0803918838500976
-0.0011557579273357,0.6058048009872437,0.0937290862202644,-0.8387425541877747,0.0232082437723875,0.0619871504604816,0.0,0.0,0.21734619140625,-0.0660832524299621
-0.000160598749062,0.5874592065811157,0.0958892703056335,-0.8154215216636658,0.0267808083444833,0.0714513882994651,0.0,0.0,0.1508975028991699,-0.3665081262588501
0.0009112358093261,0.5690003037452698,0.1029036417603492,-0.820478081703186,0.031018117442727,0.084746204316616,0.0,0.0,0.5906437635421753,0.3023875951766968
0.0020089149475097,0.5513538718223572,0.1049439758062362,-0.7843901515007019,0.0357761457562446,0.0951606407761573,0.0,0.0,-0.178102433681488,0.2860857248306274
0.003131580306217,0.5332866907119751,0.1070471256971359,-0.8031215667724609,0.0409346483647823,0.1031700521707534,0.0,0.0,0.6355843544006348,0.6059205532073975
0.0042016031220555,0.5158026814460754,0.1028353571891784,-0.7771865725517273,0.0450511015951633,0.0823289602994918,0.0,0.0,0.3234196901321411,0.2587116956710815
0.005298709962517,0.4986464977264404,0.1050315871834755,-0.7626459002494812,0.0496820770204067,0.0926194638013839,0.0,0.0,0.4431371688842773,0.5293262004852295
0.0063045499846339,0.4821745157241821,0.096853531897068,-0.7322138547897339,0.0533639304339885,0.0736371278762817,0.0,0.0,0.1864302158355713,0.0284634828567504
0.0073657990433275,0.4659070968627929,0.1017465963959693,-0.7231593728065491,0.0576902851462364,0.0865271613001823,0.0,0.0,-0.0372491478919982,0.5478655099868774
0.0084928516298532,0.4492180943489074,0.1089646369218826,-0.7418835759162903,0.0613884404301643,0.0739630609750747,0.0,0.0,0.7163181304931641,-0.332550048828125
0.0096943853422999,0.4326202273368835,0.1156817302107811,-0.7378692030906677,0.0658134669065475,0.088500790297985,0.0,0.0,0.6681619882583618,0.0349998474121093
0.0108662601560354,0.416111558675766,0.1124533265829086,-0.7339360117912292,0.070490762591362,0.0935461074113845,0.0,0.0,0.5564637184143066,0.1481804847717285
0.0120020862668752,0.4002994000911712,0.1084933057427406,-0.7030099630355835,0.0755311995744705,0.1008086800575256,0.0,0.0,0.6791698932647705,0.6625111103057861
0.0132397655397653,0.3853292465209961,0.1194109544157981,-0.6655673980712891,0.0798505544662475,0.0863871425390243,0.0,0.0,0.0218342542648315,0.337216854095459
0.0143923759460449,0.3706859350204468,0.1108163371682167,-0.65105801820755,0.0842477157711982,0.0879429951310157,0.0,0.0,0.1308568716049194,0.8059656620025635
0.0155121805146336,0.3559476137161255,0.1088249459862709,-0.6552191376686096,0.0873754322528839,0.0625541657209396,0.0,0.0,0.7161228656768799,0.1406587362289428
0.0166261680424213,0.3420209288597107,0.1076481789350509,-0.619186520576477,0.0910948887467384,0.0743893906474113,0.0,0.0,-0.1884678602218628,0.3821399211883545
0.0177641864866018,0.3276736140251159,0.1096424609422683,-0.637919008731842,0.0952117145061492,0.0823365598917007,0.0,0.0,0.7260551452636719,0.3528416156768799
0.0188015941530466,0.3139548003673553,0.0994589775800705,-0.6100018620491028,0.0994603410363197,0.0849728658795356,0.0,0.0,0.6154227256774902,0.8600912094116211
0.0198492053896188,0.3008484542369842,0.1018296927213668,-0.5827035903930664,0.1023685559630394,0.0581639595329761,0.0,0.0,0.4211921691894531,0.447451114654541
0.0209438316524028,0.2880796194076538,0.105778656899929,-0.5677585601806641,0.106018953025341,0.073008120059967,0.0,0.0,0.1952540874481201,0.0216426849365234
0.0220525749027729,0.2752623260021209,0.1067167297005653,-0.5699593424797058,0.110143058001995,0.0824818760156631,0.0,0.0,0.627912163734436,0.5572700500488281
0.0232824329286813,0.2626353502273559,0.1193084716796875,-0.5614773631095886,0.1138020530343055,0.0731796994805336,0.0,0.0,0.4925336837768554,0.2165906429290771
0.0246087070554494,0.250379204750061,0.1279335767030716,-0.5450817346572876,0.11846823990345,0.0933236330747604,0.0,0.0,0.2201176881790161,0.4231361150741577
0.0260254852473735,0.2381547838449478,0.1361100971698761,-0.543761134147644,0.1240018382668495,0.1106720939278602,0.0,0.0,0.5978314876556396,0.3142499923706054
0.0273693092167377,0.2265904545783996,0.1284596025943756,-0.5144727826118469,0.1299000233411789,0.1179638504981994,0.0,0.0,0.6230850219726562,0.4741657972335815
0.028668975457549,0.2157203555107116,0.1235105246305465,-0.4836955070495605,0.1363273561000824,0.1285465359687805,0.0,0.0,0.7578766345977783,0.5359336137771606
0.0300757400691509,0.2055241614580154,0.1345288753509521,-0.4537380337715149,0.1424612700939178,0.1226783618330955,0.0,0.0,0.8169379234313965,-0.2088773250579834
0.0315629951655864,0.1954645961523056,0.1416746228933334,-0.4477823972702026,0.1494936496019363,0.1406475603580474,0.0,0.0,0.5046266317367554,0.4285769462585449
0.0329551696777343,0.1856622993946075,0.13200743496418,-0.4363990724086761,0.1566882282495498,0.1438914239406585,0.0,0.0,0.8948123455047607,-0.2391054034233093
0.0343096740543842,0.1769289523363113,0.1274273097515106,-0.3890143036842346,0.1647134125232696,0.1605038493871688,0.0,0.0,0.8618783950805664,-0.3305480480194092
0.0355537422001361,0.1687185317277908,0.1161295995116233,-0.3658461570739746,0.1729964911937713,0.165661484003067,0.0,0.0,0.906667947769165,-0.4240684509277344
0.0365184769034385,0.1614079028367996,0.0885000005364418,-0.3258652687072754,0.1809923648834228,0.1599174588918686,0.0,0.0,0.747194766998291,0.5520732402801514
0.0375095382332801,0.1548075973987579,0.0916071385145187,-0.2942801117897033,0.1885195523500442,0.1505435407161712,0.0,0.0,0.7430902719497681,0.5932981967926025
0.0383575446903705,0.1489541679620742,0.0782889500260353,-0.2609961628913879,0.1950694620609283,0.1309977620840072,0.0,0.0,0.9442470073699952,-0.0090085268020629
0.0389582626521587,0.1439493000507354,0.0536498352885246,-0.2233010977506637,0.2015378028154373,0.1293669193983078,0.0,0.0,0.2639424800872803,-0.5138808488845825
0.0394415855407714,0.1390644609928131,0.0405645705759525,-0.2181809693574905,0.2093601673841476,0.1564473509788513,0.0,0.0,0.2090692520141601,0.8440561294555664
0.0398202911019325,0.1343965679407119,0.0315176323056221,-0.2083739787340164,0.2157801240682602,0.1283989995718002,0.0,0.0,0.1056818962097168,0.8425998687744141
0.0400922782719135,0.1298041939735412,0.0222099144011735,-0.2048423737287521,0.2208215594291687,0.100828930735588,0.0,0.0,0.5910507440567017,0.6515837907791138
0.0403877273201942,0.1258617788553238,0.0252764131873846,-0.1758646219968795,0.2251427471637725,0.0864237248897552,0.0,0.0,-0.0550703406333923,0.2668802738189697
0.0406996719539165,0.1214992851018905,0.0265927072614431,-0.1946010142564773,0.2298132181167602,0.0934095159173011,0.0,0.0,0.3299233913421631,0.0705747604370117
0.0410016067326068,0.1176536381244659,0.0247072484344244,-0.1717816293239593,0.2353681623935699,0.1110985279083252,0.0,0.0,-0.4954389929771423,0.5193620920181274
0.0413564667105674,0.1134060248732566,0.0306798424571752,-0.1895606815814972,0.2402506321668625,0.0976497381925582,0.0,0.0,-0.2652227282524109,0.6406550407409668
0.0417856201529502,0.1087677329778671,0.0393668301403522,-0.2067277133464813,0.2438606172800064,0.0721994712948799,0.0,0.0,0.277764081954956,-0.0479441285133361
0.0421780571341514,0.1043832898139953,0.0351041257381439,-0.1955575495958328,0.2480704933404922,0.0841975733637809,0.0,0.0,-0.0746545791625976,-0.1579203605651855
0.04258394241333,0.0995787680149078,0.0361481718719005,-0.2142939269542694,0.252600610256195,0.0906025320291519,0.0,0.0,0.1683415174484253,-0.0548401474952697
0.042905043810606,0.0951791629195213,0.027174636721611,-0.196397379040718,0.2576422393321991,0.1008321419358253,0.0,0.0,-0.6527597904205322,0.743808388710022
0.0433032996952533,0.0903812944889068,0.0362625122070312,-0.2138706743717193,0.261286586523056,0.0728867575526237,0.0,0.0,0.2744221687316894,0.5492990016937256
0.0435319915413856,0.0858319848775863,0.020302053540945,-0.2026482969522476,0.263904720544815,0.0523627623915672,0.0,0.0,-0.5008388757705688,0.5047570466995239
0.0438018813729286,0.0808733999729156,0.0249322764575481,-0.2207542806863784,0.2660081088542938,0.0420676656067371,0.0,0.0,-0.2223386764526367,0.7820093631744385
0.0441391952335834,0.0755174234509468,0.0329017415642738,-0.2381955832242965,0.2668635845184326,0.0171093102544546,0.0,0.0,0.582388162612915,0.4171324968338012
0.0443751327693462,0.0704901069402694,0.0223855543881654,-0.2236567139625549,0.2681025862693786,0.0247797928750515,0.0,0.0,0.4322562217712402,0.9573869705200196
0.0447363853454589,0.0655663609504699,0.0364511832594871,-0.2187757343053817,0.267771452665329,-0.006622748915106,0.0,0.0,0.3337171077728271,0.6435458660125732
0.0450916290283203,0.0610779151320457,0.0367312580347061,-0.1992652714252472,0.2665336430072784,-0.0247562117874622,0.0,0.0,0.5797648429870605,-0.3609079718589782
0.0452738776803016,0.0572944991290569,0.019093258306384,-0.1679929196834564,0.2656411826610565,-0.0178493428975343,0.0,0.0,-0.5095505118370056,0.3611352443695068
0.0454623214900493,0.0530905090272426,0.019498523324728,-0.186726227402687,0.2649706602096557,-0.0134104657918214,0.0,0.0,0.3682440519332886,0.3215903043746948
0.045600701123476,0.0492379292845726,0.0139255048707127,-0.1712115406990051,0.2648848295211792,-0.0017168642953038,0.0,0.0,0.0826941728591919,0.3773592710494995
