x_pos,y_pos,x_vel,y_vel,angle,ang_vel,leg_1,leg_2,main_booster,lat_booster
-0.0014920234680175,1.4029655456542969,-0.1512150168418884,-0.3535332977771759,0.0018107874784618,0.0357231684029102,0.0,0.0,0.3236292329971122,-0.9764135396260872
-0.0029820441268384,1.394924879074097,-0.1528384983539581,-0.3573682606220245,0.0055995481088757,0.0757830440998077,0.0,0.0,0.6055629150727522,0.9086849592760302
-0.0042269704863429,1.386809229850769,-0.1267869174480438,-0.3607130944728851,0.0078738797456026,0.0454909428954124,0.0,0.0,-0.8142260117528748,-0.7714694550058312
-0.0055148126557469,1.3780311346054075,-0.1329913139343261,-0.3901621997356415,0.0120340595021843,0.0832113698124885,0.0,0.0,0.7115777238859304,0.6446496885438644
-0.006586933042854,1.3696132898330688,-0.1105557084083557,-0.374155580997467,0.0153417475521564,0.0661597475409507,0.0,0.0,0.9563921887358404,0.702025340839616
-0.0074107171967625,1.3615055084228516,-0.0848401337862014,-0.3603777885437011,0.0177781023085117,0.0487315990030765,0.0,0.0,0.1829111417989286,0.9950025864385572
-0.0081555368378758,1.353360295295715,-0.0750155001878738,-0.362010657787323,0.0182970110327005,0.0103792399168014,0.0,0.0,0.0778972589008335,-0.7292016511054134
-0.0088278772309422,1.3451930284500122,-0.0693756788969039,-0.3630178868770599,0.0204231832176446,0.0425271168351173,0.0,0.0,0.44774901213145,0.9288846811769969
-0.0094290729612112,1.3374786376953125,-0.0604518875479698,-0.342870146036148,0.020748259499669,0.0065021687187254,0.0,0.0,-0.0437560245149941,-0.7489999834753005
-0.0100653646513819,1.3291079998016355,-0.0655145868659019,-0.3720541596412658,0.0226141065359115,0.0373202450573444,0.0,0.0,0.4431729916582583,-0.941824022900246
-0.0106787681579589,1.3208584785461426,-0.0652565211057663,-0.3667055964469909,0.0264885127544403,0.0774951130151748,0.0,0.0,-0.0464243086691169,0.728669033776697
-0.0112062450498342,1.3119512796401978,-0.0550797991454601,-0.3959209024906158,0.028800182044506,0.0462373904883861,0.0,0.0,-0.5737637631786205,-0.8634636159249952
-0.0117664337158203,1.3023874759674072,-0.0597614534199237,-0.4251338839530945,0.0325056798756122,0.0741167590022087,0.0,0.0,-0.5611389888826457,-0.6235118219060463
-0.0123505592346191,1.2921571731567385,-0.0633097365498542,-0.4547948241233825,0.0373556464910507,0.0970078259706497,0.0,0.0,0.6606709842434138,0.8069527767300233
-0.0127273555845022,1.2825310230255127,-0.0413009338080883,-0.4279227554798126,0.0409447103738784,0.0717879384756088,0.0,0.0,0.7812806818407212,-0.6988177891950121
-0.0130268093198537,1.2727227210998535,-0.035335250198841,-0.4360801577568054,0.0462734289467334,0.1065839901566505,0.0,0.0,0.623130220138387,-0.8285748084118763
-0.0132648469880223,1.26353120803833,-0.0311585571616888,-0.4087651371955871,0.0535497739911079,0.1455403566360473,0.0,0.0,-0.6175605953724452,0.6562232408307038
-0.0134243965148925,1.2536804676055908,-0.0217111743986606,-0.4380221366882324,0.0592589303851127,0.1141933649778366,0.0,0.0,-0.5719863122903495,0.7725026344908221
-0.0135002136230468,1.2431851625442505,-0.0115866158157587,-0.466629296541214,0.0632277727127075,0.079383835196495,0.0,0.0,0.5691291375720549,-0.7075703230671712
-0.013737678527832,1.2328221797943115,-0.0290434546768665,-0.4608072340488434,0.0684752389788627,0.1049587577581405,0.0,0.0,-0.486566232593052,-0.6718544530963162
-0.0140065196901559,1.2218014001846311,-0.0332792587578296,-0.4901216924190521,0.0748134851455688,0.126776248216629,0.0,0.0,-0.8501087825102203,-0.817053262209625
-0.0143289566040039,1.2101106643676758,-0.0402879491448402,-0.5200072526931763,0.0827843099832534,0.1594310104846954,0.0,0.0,-0.3142857982952616,-0.6566623719233261
-0.0146841052919626,1.1977559328079224,-0.044617973268032,-0.5496191382408142,0.0918159559369087,0.1806491166353225,0.0,0.0,-0.0950992067710163,-0.8089352443156093
-0.0150885581970214,1.1847269535064695,-0.0510035380721092,-0.5797430276870728,0.102308340370655,0.2098666876554489,0.0,0.0,-0.3805095406569574,-0.9156587364878382
-0.0155771253630518,1.171029806137085,-0.0617012754082679,-0.6096904277801514,0.1150864586234092,0.2555847764015198,0.0,0.0,-0.5331645155428377,-0.7155370734673041
-0.0161301605403423,1.156646728515625,-0.0699712410569191,-0.6404457092285156,0.1296656429767608,0.2915838360786438,0.0,0.0,0.6076048373758702,0.896330824661286
-0.0166980735957622,1.1426788568496704,-0.0696520805358886,-0.6219661235809326,0.1424855142831802,0.2563973069190979,0.0,0.0,0.9844205498460123,0.7319196554035977
-0.0175165180116891,1.129509687423706,-0.0928266867995262,-0.5863884687423706,0.1534550338983535,0.2193901985883712,0.0,0.0,-0.9348580231438436,0.6223251885470321
-0.018297005444765,1.115697145462036,-0.0880722478032112,-0.6149606704711914,0.1634692698717117,0.2002846300601959,0.0,0.0,-0.0511414839128245,-0.664322933785491
-0.019131850451231,1.1012113094329834,-0.0948808044195175,-0.645101010799408,0.1748818606138229,0.2282517701387405,0.0,0.0,-0.8599254210560683,-0.9968570565065262
-0.0200454704463481,1.0860600471496582,-0.1046729832887649,-0.6750137209892273,0.1882408857345581,0.2671801745891571,0.0,0.0,-0.2598677971382317,-0.6638157912132638
-0.0210202224552631,1.0702322721481323,-0.112269103527069,-0.7054078578948975,0.2031212449073791,0.2976070344448089,0.0,0.0,-0.1526449320933776,-0.9409641232706332
-0.0220838543027639,1.0537320375442505,-0.123238205909729,-0.735751748085022,0.2201570719480514,0.3407168388366699,0.0,0.0,-0.2941545820265729,-0.8695957401913991
-0.0232264511287212,1.0365445613861084,-0.1329950988292694,-0.7667902112007141,0.2391433864831924,0.3797262907028198,0.0,0.0,-0.4012671021727945,-0.8622428816060278
-0.0244410522282123,1.0186816453933716,-0.1417733132839203,-0.7973392009735107,0.259825736284256,0.4136475920677185,0.0,0.0,0.7161438054884097,-0.8445308474160751
-0.025911521166563,1.0012935400009155,-0.1689396351575851,-0.7768493890762329,0.2822478115558624,0.4484418034553528,0.0,0.0,-0.3666898614173552,-0.7122444625869446
-0.027447510510683,0.9832252860069276,-0.1768142282962799,-0.8076979517936707,0.3061791658401489,0.4786268174648285,0.0,0.0,-0.988115498666474,-0.8698227505769742
-0.029057502746582,0.9644834399223328,-0.1856089383363723,-0.838367760181427,0.3317563831806183,0.5115441083908081,0.0,0.0,0.8756054471373491,-0.8621195194539737
-0.0311044696718454,0.9463999271392822,-0.2306520640850067,-0.8099094033241272,0.3589834868907928,0.5445425510406494,0.0,0.0,0.1550459232412451,0.6812477483849453
-0.0332435593008995,0.928304135799408,-0.2383141964673996,-0.8105852007865906,0.3848220705986023,0.5167714357376099,0.0,0.0,0.4557152978443941,0.7015596355334127
-0.0357014648616313,0.9104886651039124,-0.2684054374694824,-0.7980901002883911,0.4090095162391662,0.4837494492530823,0.0,0.0,-0.7520157694816589,0.9949480295181274
-0.0380876548588275,0.8920748233795166,-0.2586930394172668,-0.8243480324745178,0.4306946396827698,0.4337028861045837,0.0,0.0,-0.5649993419647217,0.9974359273910522
-0.0404039397835731,0.8730539083480835,-0.249286413192749,-0.8509050011634827,0.4499601125717163,0.3853102326393127,0.0,0.0,-0.1068838834762573,0.998063325881958
-0.0426537506282329,0.8534354567527771,-0.2402590811252594,-0.8769435286521912,0.466772049665451,0.3362395465373993,0.0,0.0,0.0404982566833496,0.9929609298706056
-0.0449580177664756,0.8334307074546814,-0.2437244355678558,-0.8936404585838318,0.4815103113651275,0.2947658896446228,0.0,0.0,-0.0468062758445739,0.993555784225464
-0.0472022071480751,0.8128182291984558,-0.235572263598442,-0.9200529456138612,0.4939803183078766,0.2493999749422073,0.0,0.0,0.1832565069198608,0.9791699647903442
-0.0495010390877723,0.7920570373535156,-0.2391187846660614,-0.9260609745979308,0.5043485760688782,0.2073657214641571,0.0,0.0,0.2821404933929443,0.9941139221191406
-0.0521552078425884,0.7714795470237732,-0.272676020860672,-0.917253077030182,0.5125460028648376,0.1639499515295028,0.0,0.0,0.1395430564880371,0.9247695207595824
-0.0551278106868267,0.7509351372718811,-0.3027186691761017,-0.9151428937911988,0.5187352299690247,0.1237828731536865,0.0,0.0,0.2400623559951782,0.8468005657196045
-0.0582660660147666,0.730262815952301,-0.3176444470882416,-0.920229971408844,0.5230733156204224,0.0867621749639511,0.0,0.0,0.1088227033615112,0.2521731853485107
-0.0615318305790424,0.7095016837120056,-0.3307115435600281,-0.924319863319397,0.5278022885322571,0.0945790037512779,0.0,0.0,0.0092840194702148,0.6468819379806519
-0.0650363937020301,0.6886762976646423,-0.3533063530921936,-0.926685392856598,0.5310623049736023,0.0652000233530998,0.0,0.0,-0.0980026125907898,-0.0168796181678771
-0.0685610771179199,0.6671916842460632,-0.3552660644054413,-0.9559648036956788,0.5342609882354736,0.0639740973711013,0.0,0.0,-0.1783614158630371,-0.0717160105705261
-0.0721064582467079,0.6450480818748474,-0.3572646379470825,-0.9852439165115356,0.5373951196670532,0.0626824051141738,0.0,0.0,-0.1484580636024475,0.3215950727462768
-0.075672723352909,0.622245192527771,-0.3592990040779114,-1.014522910118103,0.5404614806175232,0.0613269582390785,0.0,0.0,-0.3614256381988525,0.1054028272628784
-0.0792604461312294,0.5987831354141235,-0.3613662123680115,-1.0438017845153809,0.5434569716453552,0.0599099211394786,0.0,0.0,-0.4556714296340942,-0.0121275186538696
-0.0828697234392166,0.5746618509292603,-0.3634632527828216,-1.07308030128479,0.5463786721229553,0.0584339015185833,0.0,0.0,-0.2463188171386718,-0.2434668540954589
-0.0865010246634483,0.5498812794685364,-0.3655873537063598,-1.1023586988449097,0.5492237210273743,0.0569007694721221,0.0,0.0,-0.2792176008224487,-0.6120462417602539
-0.0901924148201942,0.5244140625,-0.3725023865699768,-1.1332533359527588,0.5531220436096191,0.0779661238193512,0.0,0.0,-0.1332001686096191,-0.7453241348266602
-0.0939642935991287,0.4982417225837707,-0.3820047676563263,-1.1652106046676636,0.5587191581726074,0.1119420155882835,0.0,0.0,0.2961961030960083,-0.936600148677826
-0.0979326218366622,0.4717520177364349,-0.4032887816429138,-1.1800334453582764,0.5662614107131958,0.1508456170558929,0.0,0.0,-0.375186562538147,-0.7373084425926208
-0.1019817367196083,0.4445530474185943,-0.4128473401069641,-1.212231159210205,0.5755507946014404,0.1857873648405075,0.0,0.0,-0.4596747159957886,-0.6553829312324524
-0.1060877814888954,0.4166612327098846,-0.4193485379219055,-1.2434571981430054,0.5858705043792725,0.2063944339752197,0.0,0.0,-0.5941645503044128,-0.5243042707443237
-0.1102503761649131,0.3880792558193207,-0.4257764220237732,-1.274560570716858,0.5971799492835999,0.226188451051712,0.0,0.0,-0.853281557559967,-0.6492800712585449
-0.1144763007760047,0.3587936162948608,-0.4330999851226806,-1.3064135313034058,0.6097844839096069,0.2520889639854431,0.0,0.0,-0.871445894241333,-0.7914100289344788
-0.1187872886657714,0.3287871181964874,-0.4431340098381042,-1.3393096923828125,0.6243538856506348,0.2913884222507477,0.0,0.0,-0.919816792011261,-0.7365875840187073
-0.1231708526611328,0.2980822026729584,-0.4514365196228027,-1.3710448741912842,0.6403505206108093,0.3199323415756225,0.0,0.0,-0.9272189736366272,-0.4759133458137512
-0.1275791227817535,0.2667202949523926,-0.4536684155464172,-1.4003384113311768,0.6562469005584717,0.3179281651973724,0.0,0.0,-0.8531748652458191,-0.5320518016815186
-0.1320459395647049,0.234670341014862,-0.460156500339508,-1.4314711093902588,0.6731405258178711,0.3378719091415405,0.0,0.0,-0.8421738147735596,-0.1294555068016052
-0.1365374624729156,0.2019636183977127,-0.4623820185661316,-1.4607658386230469,0.689930260181427,0.3357949554920196,0.0,0.0,-0.7200225591659546,0.3382879495620727
-0.1410539597272873,0.1686000972986221,-0.4646023213863373,-1.4900596141815186,0.7066144943237305,0.3336846232414245,0.0,0.0,-0.4945773482322693,0.7089731693267822
-0.1455518752336502,0.1346363872289657,-0.4612290859222412,-1.516095757484436,0.7215420603752136,0.2985508143901825,0.0,0.0,-0.2033342123031616,0.8395051956176758
-0.1500401496887207,0.1000722274184227,-0.4589147567749023,-1.542176604270935,0.7348803281784058,0.2667649984359741,0.0,0.0,0.1012367010116577,0.4807683229446411
-0.1547741889953613,0.0653276741504669,-0.4834590554237366,-1.5503370761871338,0.7483352422714233,0.2690979242324829,0.0,1.0,0.989327311515808,0.999077320098877
-0.1583960503339767,0.0395830497145652,-0.3593837320804596,-1.1450371742248535,0.7655583620071411,0.3676276206970215,0.0,0.0,0.5156350135803223,0.8111740350723267
-0.162318617105484,0.0143684959039092,-0.3745651841163635,-1.1163444519042969,0.7635965943336487,-0.0202595237642526,0.0,0.0,0.9984242916107178,0.3459280729293823
-0.1666324585676193,0.0001962399546755,-0.287390649318695,-0.0695353373885154,0.6994030475616455,-1.5992517471313477,0.0,1.0,0.9984242916107178,0.3459280729293823
