x_pos,y_pos,x_vel,y_vel,angle,ang_vel,leg_1,leg_2,main_booster,lat_booster
-0.0015255927573889,1.403128743171692,-0.1550474315881729,-0.3462839424610138,0.0022299971897155,0.0440233200788497,0.0,0.0,-0.1409585637120542,0.7958735697332332
-0.0029847144614905,1.394861102104187,-0.1468428969383239,-0.3674497008323669,0.0031507089734077,0.0184163674712181,0.0,0.0,0.7265065210299335,0.4458250592332234
-0.0043061254546046,1.3867312669754028,-0.1342105567455291,-0.3613331913948059,0.0051961108110845,0.0409119613468647,0.0,0.0,-0.610156465725177,0.7911397185030324
-0.0055773733183741,1.3781033754348757,-0.1283875256776809,-0.383468896150589,0.0064386297017335,0.0248530097305774,0.0,0.0,0.5999461778024102,-0.4312357588505807
-0.0067267417907714,1.3699283599853516,-0.1172651872038841,-0.3633493185043335,0.0087341042235493,0.0459139049053192,0.0,0.0,-0.9098357962244634,0.1092494952760763
-0.0078743938356637,1.3612574338912964,-0.1175398379564285,-0.3853910863399505,0.0114826522767543,0.0549759268760681,0.0,0.0,-0.8835940154334159,-0.6034839925353594
-0.009068489074707,1.3520902395248413,-0.1239025220274925,-0.407469093799591,0.015924148261547,0.0888382792472839,0.0,0.0,-0.8987226564022459,-0.4858467426965748
-0.0102589605376124,1.3424278497695925,-0.1239903941750526,-0.4295047223567962,0.0208178367465734,0.0978828594088554,0.0,0.0,-0.8943987237740565,-0.2484736098308768
-0.0114446636289358,1.3322701454162598,-0.1239736303687095,-0.4515404999256134,0.0261639393866062,0.106931671500206,0.0,0.0,0.7141562085067907,0.4049799463094382
-0.0126450536772608,1.3227473497390747,-0.1258949041366577,-0.4233518242835998,0.0319575183093547,0.1158820539712905,0.0,0.0,-0.252650551180406,0.6329763955670007
-0.0137814525514841,1.3127323389053345,-0.11850456148386,-0.4452257752418518,0.0367679186165332,0.0962167307734489,0.0,0.0,-0.0022553610396653,0.6602938815063875
-0.0148515701293945,1.302223801612854,-0.1108420938253402,-0.4671404957771301,0.0405665338039398,0.0759788900613784,0.0,0.0,-0.8478212630578921,0.5990686477957201
-0.0158546455204486,1.2912266254425049,-0.1031495183706283,-0.4888452589511871,0.0433694943785667,0.0560645386576652,0.0,0.0,-0.5158204853697661,-0.2540082029235401
-0.0168469436466693,1.2797338962554932,-0.1025113686919212,-0.510881245136261,0.046621274203062,0.065041497349739,0.0,0.0,0.3890973801276913,-0.2994643438751163
-0.0177408214658498,1.2687928676605225,-0.0936795026063919,-0.4864072799682617,0.0508788377046585,0.0851588174700737,0.0,0.0,-0.425650566705831,-0.5933823092836564
-0.0186589248478412,1.257346749305725,-0.0975388661026954,-0.5089249610900879,0.0565470866858959,0.1133751645684242,0.0,0.0,0.8335848985034118,-0.9657963620280428
-0.0195220001041889,1.2468467950820925,-0.0947037190198898,-0.4669972956180572,0.0648550763726234,0.1661752760410308,0.0,0.0,0.5927462519267124,-0.0368970623694618
-0.0202550888061523,1.236406326293945,-0.082780934870243,-0.4644550085067749,0.0742485374212265,0.1878861337900161,0.0,0.0,-0.9508660025924316,-0.5618475719194345
-0.0210074428468942,1.225473165512085,-0.0861016362905502,-0.4864942133426666,0.0850187018513679,0.2154228389263153,0.0,0.0,0.232341850208035,0.3785437217053289
-0.0218361858278512,1.2146694660186768,-0.0938769727945327,-0.4808208644390106,0.0959467962384224,0.218581348657608,0.0,0.0,-0.5920595313304469,-0.4026573285627669
-0.022643756121397,1.2033722400665283,-0.0921907573938369,-0.5028740167617798,0.107312873005867,0.2273416221141815,0.0,0.0,-0.0063172078766959,0.8421860236864943
-0.0233607292175292,1.1915874481201172,-0.0818377584218978,-0.5245243906974792,0.1174052432179451,0.2018653452396392,0.0,0.0,-0.8467767174623468,0.4306812166988653
-0.0240531917661428,1.1793091297149658,-0.0798095986247062,-0.5465726256370544,0.1279323101043701,0.2105597257614135,0.0,0.0,0.7551795723726384,-0.9059244591361074
-0.0247499458491802,1.167022943496704,-0.0826210081577301,-0.5472128987312317,0.1408388167619705,0.2581534385681152,0.0,0.0,0.4222231304345343,0.0192644445287631
-0.0256178863346576,1.1550408601760864,-0.0995638146996498,-0.5337927341461182,0.1536069065332412,0.2553848624229431,0.0,0.0,-0.4108903662237011,-0.9294889567153518
-0.0265444759279489,1.1425293684005735,-0.1081725507974624,-0.5577458739280701,0.1691113114356994,0.3100877404212951,0.0,0.0,-0.9577801503510552,-0.7514844305286422
-0.0274983402341604,1.1295162439346311,-0.1127665638923645,-0.5804302096366882,0.1865357160568237,0.3484882712364197,0.0,0.0,-0.1050169033636023,0.0455883396773824
-0.0284191127866506,1.1160128116607666,-0.1098151579499244,-0.6024938225746155,0.2043847888708114,0.3569813966751098,0.0,0.0,-0.2816698823693944,0.6157872075882561
-0.029268454760313,1.1020351648330688,-0.1020576208829879,-0.6236892938613892,0.2216829359531402,0.345962643623352,0.0,0.0,0.8168556950140078,0.1630197143275937
-0.0302215572446584,1.0883440971374512,-0.1126756817102432,-0.6112043261528015,0.2392942607402801,0.3522267937660217,0.0,0.0,0.2094094745191075,-0.9738399681585082
-0.0313440337777137,1.0750552415847778,-0.1318719089031219,-0.5939298272132874,0.2592815160751343,0.3997449278831482,0.0,0.0,-0.9326887130737304,0.9852678775787354
-0.0323600769042968,1.0612974166870115,-0.1198495477437973,-0.6147932410240173,0.2779530584812164,0.3734307885169983,0.0,0.0,-0.767612874507904,0.9928821325302124
-0.033271312713623,1.047086477279663,-0.107967123389244,-0.6349068880081177,0.2952904403209686,0.3467474281787872,0.0,0.0,-0.3727934956550598,0.9968230724334716
-0.0340697281062603,1.0324066877365112,-0.0952743664383888,-0.6556400656700134,0.3112345337867737,0.3188819289207458,0.0,0.0,-0.7411026358604431,0.992029309272766
-0.0347469337284565,1.0172746181488037,-0.0814560577273368,-0.6755483746528625,0.3255070149898529,0.2854494452476501,0.0,0.0,-0.2200732827186584,0.996516227722168
-0.0353020653128623,1.0016964673995972,-0.0675501897931099,-0.6951176524162292,0.3380783498287201,0.2514269649982452,0.0,0.0,-0.5172162055969238,0.9902384281158448
-0.0357366576790809,0.9856584668159484,-0.0539885349571704,-0.7153049111366272,0.3491178750991821,0.2207907885313034,0.0,0.0,-0.4905608892440796,0.9987270832061768
-0.036043643951416,0.9691779613494872,-0.0395045839250087,-0.7346298694610596,0.3583686053752899,0.1850151866674423,0.0,0.0,-0.7466797828674316,0.999704122543335
-0.0362321846187114,0.9522535800933838,-0.0261564701795578,-0.7540459036827087,0.366081029176712,0.1542483419179916,0.0,0.0,-0.3844848871231079,0.9986034631729126
-0.0362899787724018,0.934881031513214,-0.0114096943289041,-0.7735617756843567,0.372031956911087,0.1190186738967895,0.0,0.0,0.1065741777420044,0.999701738357544
-0.0364901535212993,0.9177477955818176,-0.0240666978061199,-0.7625406980514526,0.3763342797756195,0.0860465988516807,0.0,0.0,-0.2044175267219543,0.999390721321106
-0.0365442261099815,0.9001708030700684,-0.0074853785336017,-0.7817468047142029,0.378539890050888,0.0441130548715591,0.0,0.0,0.2323502302169799,0.9998843669891356
-0.0364707931876182,0.8825065493583679,0.0068335360847413,-0.7852109670639038,0.3790778517723083,0.0107589792460203,0.0,0.0,0.3233641386032104,0.9997602701187134
-0.0363341346383094,0.8650315999984741,0.014712169766426,-0.7763882875442505,0.3779570162296295,-0.0224164389073848,0.0,0.0,-0.1952316761016845,0.9998712539672852
-0.0360645279288291,0.8470922708511353,0.0294639579951763,-0.796642005443573,0.3752950429916382,-0.05323963239789,0.0,0.0,0.3883705139160156,0.9920965433120728
-0.0357181541621685,0.8291090130805969,0.0387076437473297,-0.7981939911842346,0.3709842562675476,-0.0862163975834846,0.0,0.0,0.1839635372161865,0.976719617843628
-0.0353024490177631,0.8111445307731628,0.0472053959965705,-0.796970784664154,0.365021139383316,-0.1192623376846313,0.0,0.0,0.4665319919586181,0.9167907238006592
-0.0351260192692279,0.7937107086181641,0.0248622130602598,-0.7730153799057007,0.3573970198631286,-0.1524821370840072,0.0,0.0,-0.1472645998001098,0.9768400192260742
-0.0348287597298622,0.775823175907135,0.0381513945758342,-0.792937159538269,0.3485367894172668,-0.1772037744522094,0.0,0.0,0.2876119613647461,0.937786340713501
-0.0345467552542686,0.7580267786979675,0.0381735451519489,-0.7885696887969971,0.3380782008171081,-0.2091716825962066,0.0,0.0,0.4718791246414184,0.8717911243438721
-0.0341636650264263,0.7405630946159363,0.0495634749531745,-0.7735670208930969,0.3263228237628937,-0.2351077497005462,0.0,0.0,0.0721821784973144,0.9095675945281982
-0.0338392257690429,0.7233052253723145,0.0452430807054042,-0.7641856670379639,0.3130190968513489,-0.2660750448703766,0.0,0.0,-0.2241872549057006,0.7538559436798096
-0.0333760268986225,0.7055837512016296,0.0606256537139415,-0.7846001982688904,0.2982055842876434,-0.2962704300880432,0.0,0.0,0.0032695531845092,0.8591747283935547
-0.0329179763793945,0.6881037950515747,0.0616061203181743,-0.7737340331077576,0.2819266617298126,-0.3255777359008789,0.0,0.0,-0.1072287559509277,0.3149621486663818
-0.0323869697749614,0.670132577419281,0.0686953365802764,-0.7957936525344849,0.2659268677234649,-0.3199956715106964,0.0,0.0,0.3939895629882812,0.2929810285568237
-0.0319644920527935,0.6522133946418762,0.0580204725265502,-0.7936249375343323,0.2498207986354828,-0.3221214413642883,0.0,0.0,0.4976547956466675,-0.6680819988250732
-0.0316075310111045,0.6348735690116882,0.0497854091227054,-0.7683327198028564,0.2354961335659027,-0.2864931523799896,0.0,0.0,-0.1418240070343017,-0.4923137426376343
-0.0311750415712595,0.617041289806366,0.0571527108550071,-0.7903859615325928,0.2214108109474182,-0.281706303358078,0.0,0.0,0.7677897214889526,0.384451150894165
-0.0307816509157419,0.600031852722168,0.0526952072978019,-0.7540244460105896,0.207919642329216,-0.2698235213756561,0.0,0.0,0.6613028049468994,-0.1203189492225647
-0.0305492393672466,0.5836657285690308,0.0367768183350563,-0.7255368828773499,0.1942827999591827,-0.272737056016922,0.0,0.0,-0.4997299909591675,-0.2879936695098877
-0.0302392002195119,0.5668067932128906,0.0443854555487632,-0.7475871443748474,0.1808380037546157,-0.2688958048820495,0.0,0.0,0.6775937080383301,0.2964389324188232
-0.0300791747868061,0.5504783987998962,0.029712151736021,-0.724091649055481,0.1670967638492584,-0.2748247981071472,0.0,0.0,0.2066355943679809,0.5627317428588867
-0.0297612193971872,0.5342504382133484,0.0463158525526523,-0.7196728587150574,0.1525714248418808,-0.2905068397521972,0.0,0.0,0.2368594408035278,0.1921586990356445
-0.0294164661318063,0.5182141661643982,0.0488197430968284,-0.7113168239593506,0.13826484978199,-0.2861310839653015,0.0,0.0,0.5504679679870605,-0.6790469884872437
-0.0290884971618652,0.5022292733192444,0.0456575825810432,-0.7092958688735962,0.1254514902830124,-0.2562670111656189,0.0,0.0,0.7815589904785156,-0.442363977432251
-0.0288927070796489,0.4866744577884674,0.0329927578568458,-0.6902494430541992,0.1121173948049545,-0.266681969165802,0.0,0.0,0.6490151882171631,-0.4000195264816284
-0.0286907199770212,0.4719032943248749,0.0334524884819984,-0.6555558443069458,0.0989579036831855,-0.2631899714469909,0.0,0.0,-0.0603522658348083,-0.623859703540802
-0.0284499172121286,0.4566247761249542,0.0362105406820774,-0.6782847046852112,0.0869292020797729,-0.2405738532543182,0.0,0.0,0.6730287075042725,-0.8333775401115417
-0.0282391551882028,0.4421490728855133,0.031457096338272,-0.6427939534187317,0.0766416862607002,-0.2057503163814544,0.0,0.0,0.40120530128479,-0.7953539490699768
-0.0281297676265239,0.4277583360671997,0.0198331139981746,-0.6391573548316956,0.0678267627954483,-0.1762983500957489,0.0,0.0,0.5115295648574829,-0.2657769918441772
-0.0280649177730083,0.4137914776802063,0.0158073585480451,-0.6203526854515076,0.0586098097264766,-0.1843388229608535,0.0,0.0,-0.2060899138450622,-0.4391713142395019
-0.0279184337705373,0.3993300199508667,0.0240028761327266,-0.6423913836479187,0.0493567362427711,-0.1850612908601761,0.0,0.0,0.0723598003387451,-0.5904348492622375
-0.0278577804565429,0.3851913213729858,0.0144381774589419,-0.628133237361908,0.0410829782485961,-0.1654751598834991,0.0,0.0,0.0069465637207031,-0.565525233745575
-0.0277243610471487,0.3710854947566986,0.020588869228959,-0.6267445683479309,0.0339226461946964,-0.1432065516710281,0.0,0.0,0.8933103084564209,0.0500413179397583
-0.0275630000978708,0.35715451836586,0.0236709658056497,-0.6190021634101868,0.0264797620475292,-0.1488575190305709,0.0,0.0,0.5708739757537842,-0.9062313437461852
-0.0273269657045602,0.3431822061538696,0.029354840517044,-0.6208983659744263,0.0208099894225597,-0.1133956164121627,0.0,0.0,0.9666321277618408,-0.2685171365737915
-0.0270550735294818,0.3293194770812988,0.0332527235150337,-0.6160520315170288,0.0148189729079604,-0.1198204308748245,0.0,0.0,0.8553764820098877,-0.8062377572059631
-0.0267889015376567,0.3163029849529266,0.0312542356550693,-0.5784738659858704,0.0102414432913064,-0.091550700366497,0.0,0.0,0.8366742134094238,-0.8370157480239868
-0.0264188759028911,0.304159939289093,0.0399462655186653,-0.5396708846092224,0.0073298555798828,-0.0582317188382148,0.0,0.0,0.808772087097168,-0.5274960994720459
-0.0261464118957519,0.2928669154644012,0.0297245979309082,-0.5019019842147827,0.0048862555995583,-0.0488718338310718,0.0,0.0,-0.312552809715271,-0.6081411838531494
-0.0258510597050189,0.2810714840888977,0.030752683058381,-0.5242370367050171,0.0036852380726486,-0.0240201819688081,0.0,0.0,0.6528167724609375,-0.2550781369209289
-0.0254369731992483,0.2699667811393738,0.0426739044487476,-0.4935382902622223,0.0024261611979454,-0.0251814387738704,0.0,0.0,-0.114176332950592,-0.6102522015571594
-0.0249984748661518,0.2583661079406738,0.0439561679959297,-0.5155839323997498,0.0023230775259435,-0.0020617994014173,0.0,0.0,0.6747455596923828,-0.2624815702438354
-0.0245364196598529,0.2473002523183822,0.0468578711152076,-0.491817831993103,0.0016850114334374,-0.0127614717930555,0.0,0.0,0.3082349300384521,-0.3930714130401611
-0.0240042693912982,0.2365691214799881,0.054209791123867,-0.4769365191459656,0.0007098550559021,-0.0195031557232141,0.0,0.0,0.2096245288848877,-0.8572034239768982
-0.023386288434267,0.2259814888238906,0.0613201856613159,-0.4705640971660614,0.0011800025822594,0.0094028767198324,0.0,0.0,0.0191481113433837,-0.6816104054450989
-0.0227257721126079,0.2152080088853836,0.0645044893026351,-0.4788214564323425,0.0026986009906977,0.0303722266107797,0.0,0.0,0.6473376750946045,-0.0542395114898681
-0.021894359961152,0.2045414745807647,0.0815088301897049,-0.4740726053714752,0.0043111154809594,0.0322501063346862,0.0,0.0,0.6446316242218018,-0.890045702457428
-0.0208929069340229,0.1942323595285415,0.0968169867992401,-0.4581978023052215,0.0075926668941974,0.0656310468912124,0.0,0.0,0.1489570140838623,-0.9201564192771912
-0.0197738651186227,0.1838324666023254,0.1070726364850997,-0.4622485041618347,0.0123722227290272,0.0955909490585327,0.0,0.0,0.4216854572296142,-0.7807061076164246
-0.0186515804380178,0.1739112883806228,0.1061884313821792,-0.4410026967525482,0.0183289218693971,0.1191341653466224,0.0,0.0,0.3065665960311889,-0.8121910691261292
-0.0174990650266408,0.1643997579813003,0.1079356670379638,-0.4228422343730926,0.0255539696663618,0.144501119852066,0.0,0.0,0.1101367473602294,-0.7832401990890503
-0.0162461288273334,0.1550695300102234,0.1167201027274131,-0.4148439466953277,0.0340160466730594,0.1692414134740829,0.0,0.0,0.4810620546340942,-0.7803282737731934
-0.0148872379213571,0.1456770002841949,0.1259883493185043,-0.4176984131336212,0.0437961295247077,0.195601612329483,0.0,0.0,-0.1462476253509521,-0.4548836350440979
-0.0134522439911961,0.1357898116111755,0.1340139210224151,-0.4397367835044861,0.0531754232943058,0.1875856071710586,0.0,0.0,0.723487138748169,-0.913898229598999
-0.0119638442993164,0.1267690062522888,0.137777492403984,-0.4013492166996002,0.0641162618994712,0.2188169658184051,0.0,0.0,0.3034490346908569,-0.8389275074005127
-0.0105165485292673,0.1179174259305,0.1324218213558197,-0.3939733803272247,0.0762929022312164,0.2435328066349029,0.0,0.0,0.5590959787368774,0.0184772014617919
-0.009169578552246,0.1096808984875679,0.1233757585287094,-0.3666819334030151,0.0875068232417106,0.2242786437273025,0.0,0.0,0.0518568754196167,-0.6996158361434937
-0.0077804564498364,0.101618468761444,0.1265724301338195,-0.3590970039367676,0.0997438132762909,0.2447397410869598,0.0,0.0,0.4655183553695678,-0.6953758597373962
-0.0064925192855298,0.0940442681312561,0.1156031638383865,-0.3375669121742248,0.1128396540880203,0.2619168162345886,0.0,0.0,-0.1868095993995666,-0.0680012106895446
-0.0051332474686205,0.0859757512807846,0.1231877952814102,-0.3596089780330658,0.1255020946264267,0.2532485127449035,0.0,0.0,0.7421095371246338,0.0245417356491088
-0.0037954330909997,0.0781894028186798,0.121623694896698,-0.347127228975296,0.1376060247421264,0.2420786917209625,0.0,0.0,0.6695605516433716,-0.5318399667739868
-0.0026383399963378,0.0707774236798286,0.1032902970910072,-0.3306132853031158,0.1499926894903183,0.2477335482835769,0.0,0.0,0.8193485736846924,0.2755229473114013
-0.0016632080078125,0.0636890232563018,0.0863252431154251,-0.31620654463768,0.1611695438623428,0.2235370427370071,0.0,0.0,0.5948488712310791,0.534604549407959
-0.0005829810979776,0.0571721158921718,0.0980905517935752,-0.2907459139823913,0.1711129248142242,0.1988677680492401,0.0,0.0,0.6352324485778809,0.6022799015045166
0.000612735748291,0.0507231578230857,0.1111448258161544,-0.2876134812831878,0.1795624196529388,0.1689901053905487,0.0,0.0,0.6811168193817139,-0.4039299488067627
0.001879310584627,0.0449637025594711,0.1179978847503662,-0.257047563791275,0.1882445663213729,0.17364302277565,0.0,0.0,0.6844329833984375,-0.7819233536720276
0.0029735565185546,0.039856132119894,0.0997341349720954,-0.228262722492218,0.1979917734861374,0.1949443519115448,0.0,0.0,0.3371952772140503,-0.0553362965583801
0.0041059493087232,0.0353041738271713,0.1034867540001869,-0.2036444246768951,0.2078202664852142,0.1965696513652801,0.0,0.0,-0.1658607125282287,-0.3236483335494995
0.0052974699065089,0.0302563998848199,0.1098763793706893,-0.2256763279438018,0.2171949744224548,0.1874937266111374,0.0,0.0,0.51019287109375,-0.3515303134918213
0.0063793184235692,0.0258037894964218,0.099388301372528,-0.1992108225822448,0.2260845452547073,0.1777916699647903,0.0,0.0,0.3310226202011108,-0.327951431274414
0.0073701860383152,0.0226883515715599,0.1086400747299194,-0.1370134502649307,0.2164525985717773,-0.1925795674324035,0.0,1.0,0.9501317739486694,-0.1062129735946655
0.0082335472106933,0.020653448998928,0.1130555272102356,-0.0867539942264556,0.189496099948883,-0.5391501188278198,0.0,1.0,0.6329303979873657,-0.5277124643325806
0.0087501527741551,0.0194228515028953,0.0883270651102066,-0.0504162646830081,0.1527366787195205,-0.7352117300033569,0.0,1.0,0.5911682844161987,-0.8569055795669556
0.0090188980102539,0.0183614119887352,0.0605501122772693,-0.044063176959753,0.1191754713654518,-0.6712245345115662,0.0,1.0,0.3926016092300415,-0.5513900518417358
0.0091670993715524,0.0175147633999586,0.0475745163857936,-0.0353375785052776,0.0866716727614402,-0.6500764489173889,0.0,0.0,-0.9404098391532898,-0.8585416674613953
0.0093034747987985,0.016175303608179,0.0452701821923255,-0.0579968728125095,0.055351547896862,-0.6264033317565918,0.0,0.0,-0.7785259485244751,-0.8512910008430481
0.0094380378723144,0.0143401715904474,0.0442771539092063,-0.0806991904973983,0.0249056313186883,-0.6089186668395996,0.0,0.0,0.1352137327194214,-0.9856514930725098
0.0096111297607421,0.0127299167215824,0.0466318055987358,-0.0713319554924964,-0.0040442715398967,-0.5789987444877625,0.0,0.0,0.0265157222747802,-0.9404661655426024
0.009776878170669,0.0113957496359944,0.0444711670279502,-0.0596022568643093,-0.0315855555236339,-0.5508259534835815,0.0,0.0,0.2754814624786377,-0.9822459816932678
0.0099735260009765,0.009926757775247,0.0460078492760658,-0.0660524442791938,-0.0576081685721874,-0.5204528570175171,0.0,0.0,0.5366281270980835,-0.9246865510940552
