x_pos,y_pos,x_vel,y_vel,angle,ang_vel,leg_1,leg_2,main_booster,lat_booster
-0.0015188216930255,1.403514742851257,-0.1544248908758163,-0.3291285932064056,0.0022773121017962,0.044960256665945,0.0,0.0,0.676144552597991,0.2141094581849056
-0.0029825209639966,1.3967249393463137,-0.1493829786777496,-0.3017724156379699,0.0052607264369726,0.0596746988594532,0.0,0.0,-0.7260555471591712,0.9378533022065572
-0.0043536187149584,1.3898189067840576,-0.1383486688137054,-0.3069440126419067,0.0064891125075519,0.0245697684586048,0.0,0.0,-0.049985788474409,-0.3831191912344621
-0.0057230950333178,1.3828030824661257,-0.1387130320072174,-0.3118228316307068,0.0082314470782876,0.0348502658307552,0.0,0.0,-0.4943874717462426,0.4055713531748603
-0.007091999053955,1.3756777048110962,-0.1391828954219818,-0.3167010545730591,0.0104878703132271,0.0451325550675392,0.0,0.0,0.0552198170552915,0.6247090091942151
-0.0083170887082815,1.3689643144607544,-0.1242045313119888,-0.2983841001987457,0.0121619366109371,0.0334847643971443,0.0,0.0,-0.1975051144517559,-0.3492576562478102
-0.0095435138791799,1.3621411323547363,-0.1248612180352211,-0.3032669425010681,0.0143538294360041,0.0438418164849281,0.0,0.0,0.8447898111471577,0.2577964339044643
-0.0106157306581735,1.3562957048416138,-0.1107577532529831,-0.2598358988761902,0.0178589057177305,0.0701081007719039,0.0,0.0,-0.295016050710631,0.1443165290493706
-0.0116909025236964,1.350340485572815,-0.111579492688179,-0.2647243440151214,0.0218823514878749,0.0804762914776802,0.0,0.0,-0.2580349005104523,-0.6695060060720146
-0.0128225330263376,1.3442788124084473,-0.1191004514694213,-0.2695111632347107,0.0277533903717994,0.1174313053488731,0.0,0.0,0.0858601892927917,0.8177700141464028
-0.0138391498476266,1.3386996984481812,-0.1065156459808349,-0.2480587810277938,0.0325594320893287,0.0961296409368515,0.0,0.0,-0.7222645131995373,0.9388140167054624
-0.0147778512910008,1.3330132961273191,-0.0971539467573165,-0.2528056800365448,0.0358066298067569,0.0649499222636222,0.0,0.0,0.8569990983710767,-0.7029230168649654
-0.0156471244990825,1.3284053802490234,-0.0925347730517387,-0.2049404978752136,0.0413584522902965,0.1110463738441467,0.0,0.0,0.8794657177453753,-0.5157374846345617
-0.0164960864931345,1.324291706085205,-0.0923257544636726,-0.1830526441335678,0.0487047433853149,0.1469393074512481,0.0,0.0,0.864941753430321,0.38417304233231
-0.0172373764216899,1.3214751482009888,-0.0828350260853767,-0.1254798322916031,0.0573184415698051,0.1722897291183471,0.0,0.0,0.1454115924230976,-0.689635181483942
-0.0179652217775583,1.318853735923767,-0.0834884420037269,-0.1169547215104103,0.06792763620615,0.2122032195329666,0.0,0.0,0.6880232449132266,-0.0153833635367874
-0.0186183936893939,1.3174469470977783,-0.0772120505571365,-0.0631009042263031,0.0797119140625,0.2357072383165359,0.0,0.0,0.3358048511502078,-0.8115847632273927
-0.0192360877990722,1.3163872957229614,-0.0759516656398773,-0.0479204580187797,0.0937829688191413,0.281446248292923,0.0,0.0,0.2985040371849807,-0.8244470476417763
-0.0198986046016216,1.3161742687225342,-0.0826727226376533,-0.0105713717639446,0.1100944876670837,0.3262601792812347,0.0,0.0,-0.2013654615647016,-0.1570960978130975
-0.0205680839717388,1.315855860710144,-0.0838492810726165,-0.0154835432767868,0.1269134432077407,0.3364092111587524,0.0,0.0,-0.4526991266513651,0.5384189862987018
-0.0211936943233013,1.3154456615447998,-0.0786223039031028,-0.0196698531508445,0.1429347544908523,0.3204554617404938,0.0,0.0,-0.6789824662165036,-0.4064884465006394
-0.021825885400176,1.3149302005767822,-0.0797470957040786,-0.0245783533900976,0.1594592779874801,0.3305198848247528,0.0,0.0,0.9157209026214848,0.3919354141557007
-0.0224159248173236,1.315280795097351,-0.0766952484846115,0.013584416359663,0.1771828383207321,0.3545030057430267,0.0,0.0,0.492414396668797,0.0205256223659943
-0.0229997634887695,1.3159596920013428,-0.0767850801348686,0.0278722569346427,0.1956945955753326,0.3702681362628937,0.0,0.0,0.577924807269,0.9846056075166284
-0.023783778771758,1.317418932914734,-0.0951135158538818,0.0625600218772888,0.2125566154718399,0.3372708261013031,0.0,0.0,-0.8805274667214067,0.8766457976732303
-0.024518871679902,1.3187735080718994,-0.0893420949578285,0.0578396059572696,0.2285689711570739,0.3202472031116485,0.0,0.0,0.8429367405466117,-0.0157047123501464
-0.0254373550415039,1.321208357810974,-0.1081040129065513,0.1056129857897758,0.245087593793869,0.330372542142868,0.0,0.0,-0.6825327831423942,-0.3379517502146623
-0.0263586994260549,1.3235387802124023,-0.1088189333677291,0.1007046550512313,0.262088268995285,0.3400127589702606,0.0,0.0,-0.6456935485835296,-0.3891753815179115
-0.0272826198488473,1.3257651329040527,-0.1094413846731185,0.0957945510745048,0.2795659601688385,0.3495539724826813,0.0,0.0,-0.079064517752055,-0.5736042320984026
-0.0282524116337299,1.3278660774230957,-0.1155911237001419,0.0897054448723793,0.2987217009067535,0.3831150531768799,0.0,0.0,-0.5641924850463282,0.7057545082352508
-0.0291697494685649,1.3298965692520142,-0.1092457994818687,0.0865450352430343,0.3168551921844482,0.3626704812049866,0.0,0.0,-0.8108848929405212,0.97865891456604
-0.0300216674804687,1.3318490982055664,-0.1013739258050918,0.083148144185543,0.3337169289588928,0.337234616279602,0.0,0.0,-0.9080172777175904,0.94925057888031
-0.0308128353208303,1.3337372541427612,-0.0940444320440292,0.080388955771923,0.3493477702140808,0.3126169741153717,0.0,0.0,-0.7750408053398132,0.997483253479004
-0.0315328612923622,1.3355481624603271,-0.0855451822280883,0.0771243274211883,0.3636084198951721,0.2852129340171814,0.0,0.0,-0.7988808155059814,0.9566249847412108
-0.0321766845881938,1.337296485900879,-0.0763593092560768,0.0746168941259384,0.3762885928153991,0.2536037564277649,0.0,0.0,-0.908088445663452,0.9955503940582277
-0.0327414497733116,1.338990330696106,-0.0668042078614234,0.0725206285715103,0.3872810900211334,0.2198501080274582,0.0,0.0,-0.9128601551055908,0.9805595874786376
-0.0332287773489952,1.340615153312683,-0.0576337650418281,0.0697616264224052,0.3967711329460144,0.1898017227649688,0.0,0.0,-0.9350303411483764,0.9327807426452636
-0.0336370468139648,1.3421847820281982,-0.0481466017663478,0.0676991492509841,0.4046206176280975,0.1569898426532745,0.0,0.0,-0.9189625978469848,0.834951639175415
-0.033980369567871,1.3436923027038574,-0.0405055731534957,0.0652198493480682,0.4112531244754791,0.1326498836278915,0.0,0.0,-0.856425940990448,0.9029414653778076
-0.0342432968318462,1.3451380729675293,-0.0309897698462009,0.0628779530525207,0.4163270592689514,0.1014784723520279,0.0,0.0,-0.9372547268867492,0.1657418012619018
-0.0344913490116596,1.3464765548706057,-0.0298690050840377,0.0579863376915454,0.4217945337295532,0.1093497276306152,0.0,0.0,-0.813511073589325,0.1530994176864624
-0.0347229018807411,1.347707748413086,-0.028552433475852,0.0530945621430873,0.4276465177536011,0.1170395761728286,0.0,0.0,-0.809779167175293,0.9352840185165404
-0.0348554626107215,1.3488751649856567,-0.0169238094240427,0.0507694073021411,0.4316295087337494,0.0796599611639976,0.0,0.0,-0.9150376319885254,-0.0518993735313415
-0.0349675193428993,1.3499352931976318,-0.0151975359767675,0.0458790883421897,0.4359779953956604,0.0869690328836441,0.0,0.0,-0.8665453195571899,0.3851749897003174
-0.0350569710135459,1.350887894630432,-0.013256961479783,0.0409887768328189,0.4406819343566894,0.0940787643194198,0.0,0.0,-0.9094731211662292,0.667593240737915
-0.0350687988102436,1.351762771606445,-0.0044432086870074,0.0378559119999408,0.4442430138587951,0.071221262216568,0.0,0.0,-0.908103048801422,0.6167845726013184
-0.0350047126412391,1.3525612354278564,0.0041351970285177,0.0347659438848495,0.4467267394065857,0.049674667418003,0.0,0.0,-0.8453945517539978,0.777972936630249
-0.0348692908883094,1.3532915115356443,0.0121831949800252,0.0320247933268547,0.4482020735740661,0.0295072086155414,0.0,0.0,-0.8508331179618835,0.5634510517120361
-0.0346732139587402,1.3539406061172483,0.0188233219087123,0.0285983588546514,0.4490662217140198,0.0172831937670707,0.0,0.0,-0.8737778663635254,0.3812620639801025
-0.034443475306034,1.354481816291809,0.0219068713486194,0.0237110294401645,0.4502319991588592,0.023315642029047,0.0,0.0,-0.9270050525665284,0.3382966518402099
-0.0341778770089149,1.354914903640747,0.0252307690680027,0.0188240502029657,0.4516879022121429,0.0291183404624462,0.0,0.0,-0.9595588445663452,0.1090279817581176
-0.0338740348815918,1.3552401065826416,0.0287977419793605,0.0139374118298292,0.4534222781658172,0.0346874296665191,0.0,0.0,-0.8224236369132996,0.5256010293960571
-0.033485222607851,1.3554863929748535,0.0382455512881279,0.0107371527701616,0.4541297852993011,0.014150190167129,0.0,0.0,-0.9153237342834472,-0.0436705946922302
-0.0330533981323242,1.355624437332153,0.0423046238720417,0.0058514634147286,0.4550918936729431,0.0192418806254863,0.0,0.0,-0.7626070976257324,0.6925406455993652
-0.0325147621333599,1.355696439743042,0.054402969777584,0.0033788615837693,0.4544943869113922,-0.0119499145075678,0.0,0.0,-0.9003207087516785,0.5054900646209717
-0.0318979248404502,1.355679988861084,0.062823548913002,-0.0003583721700124,0.4532414078712463,-0.0250594373792409,0.0,0.0,-0.9243505001068116,-0.1733102202415466
-0.0312310215085744,1.3555550575256348,0.067628301680088,-0.0052427728660404,0.4522062242031097,-0.0207039006054401,0.0,0.0,-0.9433994293212892,0.4181519746780395
-0.0305118560791015,1.355321764945984,0.0726814493536949,-0.0101266643032431,0.451376348733902,-0.0165972150862216,0.0,0.0,-0.9210445284843444,0.669121265411377
-0.0296869277954101,1.3550245761871338,0.0845119804143905,-0.0125592686235904,0.4491584599018097,-0.0443570092320442,0.0,0.0,-0.7263362407684326,0.2660571336746216
-0.0288049690425395,1.3546186685562134,0.0900588706135749,-0.0174424946308136,0.4471209943294525,-0.0407501645386219,0.0,0.0,-0.9258233904838562,0.2729331254959106
-0.0278635025024414,1.3541042804718018,0.095849834382534,-0.0223251786082983,0.4452512860298157,-0.0373933911323547,0.0,0.0,-0.8561397194862366,0.3423782587051391
-0.0268604271113872,1.3534808158874512,0.1018825024366378,-0.0272073410451412,0.4435369968414306,-0.0342858619987964,0.0,0.0,-0.9559887647628784,0.9851597547531128
-0.0257085803896188,1.3528063297271729,0.1188860163092613,-0.0288121737539768,0.4394932389259338,-0.0808748751878738,0.0,0.0,-0.9639957547187804,0.9352073669433594
-0.0244221687316894,1.3520729541778564,0.1340980231761932,-0.0308977887034416,0.4335530698299408,-0.1188034191727638,0.0,0.0,-0.9291474223136902,0.990638017654419
-0.0229939464479684,1.3512741327285769,0.1500962227582931,-0.0332829244434833,0.4256526231765747,-0.1580085605382919,0.0,0.0,-0.9737340211868286,0.983041763305664
-0.0214397422969341,1.35040545463562,0.1641218960285186,-0.0360078029334545,0.4162345230579376,-0.1883621215820312,0.0,0.0,-0.9406564235687256,0.9994611740112304
-0.0197422988712787,1.349488615989685,0.1804152876138687,-0.0376460812985897,0.4047474861145019,-0.2297406196594238,0.0,0.0,-0.9457345008850098,0.9998989105224608
-0.0178853031247854,1.3485060930252075,0.1985236257314682,-0.0400586910545825,0.3910062909126282,-0.2748236358165741,0.0,0.0,-0.926169753074646,0.9536809921264648
-0.0158827789127826,1.3474719524383545,0.2150336503982544,-0.0419811718165874,0.3752638101577759,-0.3148496747016907,0.0,0.0,-0.9729644656181335,0.4467803239822387
-0.0138022424653172,1.3463315963745115,0.222876101732254,-0.0468785241246223,0.3595804274082184,-0.3136669993400574,0.0,0.0,-0.8327518105506897,0.3712645769119262
-0.0116415973752737,1.3450844287872314,0.2309208810329437,-0.0517754480242729,0.3439448773860931,-0.312710702419281,0.0,0.0,-0.6774953603744507,0.6154735088348389
-0.009351635351777,1.3437581062316897,0.2451885640621185,-0.0551783181726932,0.327019602060318,-0.3385052978992462,0.0,0.0,-0.6559004187583923,0.9630513191223145
-0.0069241523742675,1.3423649072647097,0.2605171799659729,-0.0580130256712436,0.3085619211196899,-0.3691537082195282,0.0,0.0,-0.6365727782249451,-0.0168778896331787
-0.004411316011101,1.3408663272857666,0.26913782954216,-0.0629168152809143,0.2901199460029602,-0.3688401579856872,0.0,0.0,-0.5952144265174866,-0.5203506946563721
-0.0018520355224609,1.3392398357391355,0.2727828919887543,-0.0690347701311111,0.2728038132190704,-0.3463225960731506,0.0,0.0,-0.4280174970626831,0.8176547288894653
0.0008668899536132,1.3375284671783447,0.2906129062175751,-0.0726815238595008,0.2536471784114837,-0.383133590221405,0.0,0.0,-0.5669090747833252,-0.8345402479171753
0.0036104202736169,1.3356777429580688,0.2914431393146515,-0.079405203461647,0.2362598329782486,-0.3477465808391571,0.0,0.0,-0.0793898105621337,-0.6062817573547363
0.0063979150727391,1.333708882331848,0.2947171032428741,-0.0850215330719947,0.2200852185487747,-0.3234927058219909,0.0,0.0,-0.1333140134811401,-0.7828129529953003
0.0092257503420114,1.3316235542297363,0.2974720597267151,-0.0905607044696807,0.205239713191986,-0.2969098389148712,0.0,0.0,0.0035393238067626,-0.6276196837425232
0.0119221685454249,1.3301273584365845,0.2832629382610321,-0.0646641552448272,0.1915313452482223,-0.2741674184799194,0.0,0.0,-0.1079265475273132,-0.8915424346923828
0.0146324159577488,1.3284900188446045,0.2825512886047363,-0.07132188975811,0.1799559593200683,-0.231507733464241,0.0,0.0,0.5089482069015503,-0.9716301560401917
0.0172760970890522,1.3278090953826904,0.2739917933940887,-0.0291289072483778,0.1703081727027893,-0.1929557621479034,0.0,0.0,0.1281864643096923,-0.9446418285369872
0.0197982788085937,1.327560305595398,0.260025680065155,-0.0101782772690057,0.1624894440174102,-0.1563743650913238,0.0,0.0,-0.005614697933197,0.8478431701660156
0.0224804878234863,1.327221155166626,0.2776559293270111,-0.014076767489314,0.1530569344758987,-0.1886504739522934,0.0,0.0,-0.1598329544067382,-0.8683076500892639
0.0251944549381732,1.326761245727539,0.2791516482830047,-0.019658712670207,0.1453191488981247,-0.1547558605670929,0.0,0.0,0.1998822689056396,0.0525789260864257
0.0280123706907033,1.3268332481384275,0.2893483340740204,0.0039163250476121,0.1377940028905868,-0.1505032479763031,0.0,0.0,0.0695382356643676,-0.9407670497894288
0.0308487899601459,1.327104568481445,0.2893942296504974,0.0125732580199837,0.1320650279521942,-0.1145796552300453,0.0,0.0,-0.0401409864425659,0.5784461498260498
0.0338424667716026,1.327272653579712,0.3065466284751892,0.0080905416980385,0.1249142959713935,-0.1430142819881439,0.0,0.0,0.2032084465026855,-0.9831093549728394
0.0369377136230468,1.327959060668945,0.3148188591003418,0.0309441033750772,0.1196481585502624,-0.1053228229284286,0.0,0.0,0.0194864273071289,0.968947410583496
0.040289781987667,1.3289237022399902,0.3426024913787842,0.0434425137937068,0.1123029366135597,-0.1469048410654068,0.0,0.0,-0.1815111637115478,-0.546255350112915
0.0437051765620708,1.32977557182312,0.3479373753070831,0.0383292697370052,0.1059544682502746,-0.1269694119691848,0.0,0.0,0.0033673048019409,-0.7092342972755432
0.0471449866890907,1.331205129623413,0.3490481078624725,0.0638834610581398,0.1009278818964958,-0.1005318611860275,0.0,0.0,-0.1440626382827758,-0.0631565451622009
0.0506932251155376,1.3325251340866089,0.3599998950958252,0.0590059719979763,0.0957940369844436,-0.1026766300201416,0.0,0.0,-0.1475502252578735,-0.7696897983551025
0.054300595074892,1.333720088005066,0.3647345900535583,0.0533643439412117,0.0918309763073921,-0.0792614817619323,0.0,0.0,-0.0721611976623535,0.7589030265808105
0.058072280138731,1.3348109722137451,0.3826751112937927,0.0488121248781681,0.0863770768046379,-0.1090781912207603,0.0,0.0,-0.118934154510498,-0.997044801712036
0.0618859305977821,1.335795283317566,0.3852629661560058,0.0439725555479526,0.082514502108097,-0.0772514194250106,0.0,0.0,-0.1546030044555664,-0.785453736782074
0.0657460242509841,1.3366618156433103,0.3883738219738006,0.0386384241282939,0.080164223909378,-0.0470053926110267,0.0,0.0,0.1417834758758545,0.4138511419296264
0.0695874243974685,1.3382301330566406,0.3870310485363006,0.0698587000370025,0.0773027315735817,-0.0572303310036659,0.0,0.0,-0.1526687145233154,-0.9482050538063048
0.073476031422615,1.339686155319214,0.390245258808136,0.0647796541452407,0.0759420245885849,-0.0272142887115478,0.0,0.0,0.2493301630020141,-0.99198317527771
0.0773077011108398,1.3418736457824707,0.3826690912246704,0.0971988141536712,0.0764302834868431,0.0097651705145835,0.0,0.0,0.1645864248275756,0.9907901287078856
0.0812201499938964,1.3447489738464355,0.3928608894348144,0.1278731971979141,0.0748325064778328,-0.031955637037754,0.0,0.0,0.0847629308700561,-0.994931936264038
0.0851228684186935,1.3479893207550049,0.3899849653244018,0.1439964473247528,0.0751125216484069,0.0056003695353865,0.0,0.0,0.210600733757019,-0.9738078713417052
0.0889281257987022,1.3517597913742063,0.378422737121582,0.1674746423959732,0.0772028341889381,0.041806161403656,0.0,0.0,-0.0782203674316406,0.5210700035095215
0.0928772911429405,1.355423092842102,0.393699049949646,0.1627462953329086,0.0784080475568771,0.0241044368594884,0.0,0.0,0.3534454107284546,0.6184580326080322
0.0970370322465896,1.359877586364746,0.4159285426139831,0.1979676783084869,0.0784605666995048,0.0010500203352421,0.0,0.0,0.007901906967163,-0.9286499619483948
0.1012642830610275,1.3645472526550293,0.4209267199039459,0.2074464410543441,0.0802481323480606,0.0357510894536972,0.0,0.0,0.142336368560791,0.8547794818878174
0.1057458892464637,1.369924545288086,0.448114812374115,0.2389927208423614,0.0802863836288452,0.0007649618783034,0.0,0.0,0.0970237255096435,-0.7040804028511047
0.1102262511849403,1.3759596347808838,0.4466963708400726,0.26815265417099,0.0816136449575424,0.0265453066676855,0.0,0.0,0.1106206178665161,0.1175626516342163
0.1148686408996582,1.3827553987503052,0.4625406861305237,0.3019413948059082,0.0832937955856323,0.0336030647158622,0.0,0.0,-0.3916835784912109,0.9608199596405028
0.1197094917297363,1.3894522190093994,0.4846543669700622,0.2976655662059784,0.0827308371663093,-0.0112591460347175,0.0,0.0,-0.5430371761322021,0.882470965385437
0.1247316375374794,1.3960564136505127,0.5046191215515137,0.2936583459377289,0.0803464874625206,-0.0476870015263557,0.0,0.0,0.1224466562271118,-0.8216924667358398
0.1298060417175293,1.4033563137054443,0.5082523226737976,0.3244763910770416,0.079545721411705,-0.0160155072808265,0.0,0.0,-0.4145330190658569,-0.0030734539031982
0.13499316573143,1.4105463027954102,0.5195867419242859,0.3196005225181579,0.0786735638976097,-0.0174429956823587,0.0,0.0,-0.2155004739761352,-0.3601177334785461
0.1402925550937652,1.4176266193389893,0.5308881998062134,0.3147245645523071,0.0777356848120689,-0.0187575239688158,0.0,0.0,0.1474237442016601,0.7920135259628296
0.145636647939682,1.4251248836517334,0.537084698677063,0.3333987891674042,0.0750849768519401,-0.0530143305659294,0.0,0.0,-0.2266839146614074,-0.1685781478881836
0.1510923355817794,1.4325135946273804,0.548302948474884,0.3285222351551056,0.0723807215690612,-0.0540850050747394,0.0,0.0,-0.2383164167404174,-0.4892252683639526
0.1566593199968338,1.4397926330566406,0.5594706535339355,0.3236456215381622,0.0696294531226158,-0.0550252385437488,0.0,0.0,-0.3008820414543152,-0.8745802044868469
0.1622832268476486,1.446948528289795,0.5638337731361389,0.3180993795394897,0.0682037025690078,-0.0285152234137058,0.0,0.0,0.2971696853637695,-0.7374801635742188
0.1680081337690353,1.4548039436340332,0.5723629593849182,0.3491290509700775,0.0683284997940063,0.0024958767462521,0.0,0.0,0.0744650363922119,-0.0739449858665466
0.1738229691982269,1.46333646774292,0.5813096761703491,0.3792150616645813,0.0685027763247489,0.0034855052363127,0.0,0.0,-0.3093258738517761,-0.2209842801094055
0.1797467172145843,1.4717590808868408,0.5922090411186218,0.3743388950824737,0.0686587914824485,0.0031202961690723,0.0,0.0,0.0137611627578735,-0.5748341083526611
0.18577441573143,1.480642318725586,0.6013802289962769,0.3947437107563019,0.0700404867529869,0.027633998543024,0.0,0.0,0.4909536838531494,0.8373614549636841
