x_pos,y_pos,x_vel,y_vel,angle,ang_vel,leg_1,leg_2,main_booster,lat_booster
-0.0015576363075524,1.4030548334121704,-0.1581563204526901,-0.3495631814002991,0.0021486373152583,0.0424125306308269,0.0,0.0,0.213445782661438,0.8715032339096069
-0.0030337334610521,1.395147681236267,-0.1483828872442245,-0.3514321446418762,0.0029116638470441,0.015262821689248,0.0,0.0,-0.0411274433135986,0.7852652072906494
-0.0044605256989598,1.3866649866104126,-0.1418985426425933,-0.3770078122615814,0.0021363364066928,-0.0155078303068876,0.0,0.0,-0.4508343935012817,0.6618008613586426
-0.0058675766922533,1.377610683441162,-0.1392185688018798,-0.4024105370044708,0.0006712003960274,-0.0293055437505245,0.0,0.0,-0.0401081442832946,0.5800482034683228
-0.0072370530106127,1.3679888248443604,-0.134419247508049,-0.4276396334171295,-0.0018239576602354,-0.0499079786241054,0.0,0.0,0.2034653425216674,0.2603844404220581
-0.0085192676633596,1.3583905696868896,-0.126557320356369,-0.4265900552272796,-0.0034761908464133,-0.0330474264919757,0.0,0.0,-0.0245048999786376,0.8912758827209473
-0.009743308648467,1.3482224941253662,-0.1193947046995163,-0.4519274830818176,-0.0064613129943609,-0.0597079396247863,0.0,0.0,0.7551590204238892,0.5562200546264648
-0.0107546802610158,1.3385154008865356,-0.0978669002652168,-0.4314412176609039,-0.0096955252811312,-0.0646902099251747,0.0,0.0,-0.6136196851730347,-0.4815236330032348
-0.0117669105529785,1.328238606452942,-0.0983272939920425,-0.4567628800868988,-0.0125614469870924,-0.0573232658207416,0.0,0.0,0.0752969980239868,0.2059383392333984
-0.0127705577760934,1.3181017637252808,-0.097823865711689,-0.4505557417869568,-0.0150604797527194,-0.0499856583774089,0.0,0.0,-0.5006311535835266,0.653301477432251
-0.0137077327817678,1.30739426612854,-0.0900718122720718,-0.4759280085563659,-0.0186692457646131,-0.0721819177269935,0.0,0.0,-0.3578692674636841,-0.6352748274803162
-0.014677619561553,1.2961173057556152,-0.0948326736688613,-0.5012279152870178,-0.0207955669611692,-0.042530495673418,0.0,0.0,0.5798988342285156,-0.5346065163612366
-0.0155263897031545,1.2852736711502075,-0.0845352560281753,-0.4819425940513611,-0.0211325008422136,-0.006739149801433,0.0,0.0,-0.7352145910263062,0.1930185556411743
-0.0163556095212698,1.273860216140747,-0.0829635858535766,-0.5072632431983948,-0.0211002342402935,0.0006456729024648,0.0,0.0,-0.5943581461906433,-0.0464113354682922
-0.0171616561710834,1.261877179145813,-0.0810072124004364,-0.532572329044342,-0.0206980872899293,0.008043753914535,0.0,0.0,-0.3863680362701416,0.4952923059463501
-0.0179406162351369,1.2493247985839844,-0.0786779224872589,-0.5578832626342773,-0.0199269633740186,0.015423777513206,0.0,0.0,-0.6282373070716858,-0.5878124237060547
-0.0187246315181255,1.2362103462219238,-0.0804673433303833,-0.5828321576118469,-0.0178871545940637,0.0408001616597175,0.0,0.0,-0.3720922470092773,0.2327511310577392
-0.0194745063781738,1.2225264310836792,-0.0774297565221786,-0.6081448793411255,-0.0154803600162267,0.0481405034661293,0.0,0.0,-0.5138183236122131,-0.5072391629219055
-0.0202206615358591,1.2082786560058594,-0.0782658904790878,-0.6332016587257385,-0.0118618700653314,0.0723761245608329,0.0,0.0,-0.7451483011245728,0.3404839038848877
-0.0209260936826467,1.1934614181518557,-0.0745710060000419,-0.6585156321525574,-0.0078785130754113,0.0796742364764213,0.0,0.0,-0.3257145285606384,-0.3749884963035583
-0.0215877536684274,1.178074836730957,-0.070566214621067,-0.683829665184021,-0.0035309698432683,0.0869587659835815,0.0,0.0,-0.5875766277313232,0.3525310754776001
-0.0222027786076068,1.1621190309524536,-0.0662658661603927,-0.7091442346572876,0.0011792911682277,0.0942137762904167,0.0,0.0,-0.5072260499000549,0.3882628679275512
-0.0227683074772357,1.1455941200256348,-0.0616838037967681,-0.7344590425491333,0.0062508885748684,0.1014410704374313,0.0,0.0,-0.5507290959358215,0.735905647277832
-0.0232167243957519,1.1284921169281006,-0.048680979758501,-0.7601041793823242,0.0100499680265784,0.0759879797697067,0.0,0.0,-0.1107904314994812,0.6122064590454102
-0.0235734935849905,1.110823154449463,-0.0389295481145381,-0.785312294960022,0.0132778901606798,0.064564011991024,0.0,0.0,0.1329646110534668,0.4214853048324585
-0.0239790920168161,1.0932856798171997,-0.0437241867184639,-0.779478907585144,0.0164004676043987,0.0624514892697334,0.0,0.0,-0.4395536184310913,0.5767905712127686
-0.0242793075740337,1.075183391571045,-0.032375618815422,-0.8045682907104492,0.0187245886772871,0.0464825257658958,0.0,0.0,-0.1045147180557251,0.2308871746063232
-0.0245179180055856,1.0565119981765747,-0.0265703834593296,-0.8298803567886353,0.0214035082608461,0.0535782948136329,0.0,0.0,0.3849413394927978,0.5064754486083984
-0.0247846599668264,1.0382466316223145,-0.0284410826861858,-0.8118210434913635,0.0231403317302465,0.0347364321351051,0.0,0.0,0.44813072681427,0.6031125783920288
-0.0249680522829294,1.02005136013031,-0.0192014463245868,-0.8086879849433899,0.0239863619208335,0.0169207379221916,0.0,0.0,0.6696512699127197,0.0974198579788208
-0.0250857360661029,1.002570629119873,-0.0130700739100575,-0.7769467830657959,0.0252701416611671,0.0256754718720912,0.0,0.0,-0.1532121896743774,0.3100206851959228
-0.0251344684511423,0.9845204949378968,-0.0065227872692048,-0.8022587895393372,0.0269026029855012,0.032649528235197,0.0,0.0,0.2185814380645752,0.7162761688232422
-0.0251405723392963,0.9667938947677612,-0.0010858814930543,-0.7878628969192505,0.0273702666163444,0.0093530099838972,0.0,0.0,0.4712358713150024,0.7142534255981445
-0.0250895507633686,0.9489725828170776,0.0058306651189923,-0.7920418977737427,0.0266508050262928,-0.0143891675397753,0.0,0.0,0.4265564680099487,-0.3757174015045166
-0.0249655731022357,0.9313947558403016,0.0127171101048588,-0.7812372446060181,0.0263394434005022,-0.0062274024821817,0.0,0.0,-0.219491958618164,0.3971385955810547
-0.0247669219970703,0.9132474064826964,0.0198350548744201,-0.806549072265625,0.0263691563159227,0.0005941740237176,0.0,0.0,0.1664292812347412,0.1923396587371826
-0.0245194435119628,0.895011842250824,0.024460595101118,-0.810469388961792,0.0266519952565431,0.0056569031439721,0.0,0.0,0.5931814908981323,0.5255247354507446
-0.0241337772458791,0.877315104007721,0.0388919003307819,-0.7865221500396729,0.0263294000178575,-0.0064519806765019,0.0,0.0,-0.4284542798995971,0.4537012577056885
-0.0236702915281057,0.8590489029884338,0.046343345195055,-0.8118340373039246,0.0263408441096544,0.0002287571987835,0.0,0.0,0.1229687929153442,0.5916099548339844
-0.0230706222355365,0.840836226940155,0.0607804656028747,-0.8094367384910583,0.0255405232310295,-0.0160066969692707,0.0,0.0,-0.5858200788497925,0.512604832649231
-0.0223579406738281,0.8220598697662354,0.0725947096943855,-0.8344853520393372,0.0242295414209365,-0.0262194387614727,0.0,0.0,-0.3772928714752197,0.3865373134613037
-0.0215648654848337,0.8027140498161316,0.0803114846348762,-0.8597972393035889,0.0232440996915102,-0.0197089724242687,0.0,0.0,0.5758013725280762,0.6439505815505981
-0.0205455776304006,0.7832456827163696,0.10367401689291,-0.8652371764183044,0.0215228646993637,-0.0344248376786708,0.0,0.0,0.0614188909530639,-0.0700448751449585
-0.019387912005186,0.7637193202972412,0.1168833822011947,-0.8678261637687683,0.0204155184328556,-0.0221468582749366,0.0,0.0,-0.1669172048568725,-0.3765174150466919
-0.0181479454040527,0.7436234951019287,0.1248072013258934,-0.8931378722190857,0.0196233596652746,-0.0158431753516197,0.0,0.0,0.1363190412521362,-0.467540979385376
-0.0167978294193744,0.7233037948608398,0.1353494822978973,-0.903091311454773,0.0192886162549257,-0.0066951960325241,0.0,0.0,0.1015028953552246,-0.8494015336036682
-0.015389728359878,0.7028563618659973,0.1391131281852722,-0.9087976217269896,0.0209674276411533,0.0335762277245521,0.0,0.0,-0.0288810729980468,-0.8284833431243896
-0.0139756202697753,0.6818461418151855,0.1374222934246063,-0.933850646018982,0.0249032415449619,0.0787163227796554,0.0,0.0,0.6438566446304321,-0.2793848514556885
-0.0126287462189793,0.6614376306533813,0.1310169547796249,-0.9071090221405028,0.0285261161625385,0.0724575147032737,0.0,0.0,0.8919656276702881,-0.3142390251159668
-0.0112380981445312,0.64133220911026,0.1352095156908035,-0.893650233745575,0.0323295257985591,0.0760682597756385,0.0,0.0,0.8914576768875122,-0.2433031797409057
-0.0096196178346872,0.6216458082199097,0.1569374203681945,-0.8750641345977783,0.0371798314154148,0.0970058292150497,0.0,0.0,0.6395409107208252,-0.6816523671150208
-0.0080595016479492,0.6024844646453857,0.1495818197727203,-0.8517897725105286,0.0435321331024169,0.1270460784435272,0.0,0.0,0.6703454256057739,-0.0906940102577209
-0.0063233375549316,0.5834351181983948,0.1664004772901535,-0.8468632102012634,0.0506709143519401,0.1427754759788513,0.0,0.0,0.4540109634399414,-0.2520075440406799
-0.0045344354584813,0.5648691654205322,0.1713844239711761,-0.8254286646842957,0.0580912306904792,0.1484064608812332,0.0,0.0,0.8004205226898193,-0.2138935327529907
-0.0025286674499511,0.5465444326400757,0.1920389384031295,-0.8147841691970825,0.0665241777896881,0.168658971786499,0.0,0.0,0.426681637763977,-0.0383392572402954
-0.0005468368763104,0.5282521843910217,0.1897884756326675,-0.8133847117424011,0.074829451739788,0.1661054491996765,0.0,0.0,0.8785340785980225,-0.0809091329574585
0.0015593528514727,0.5107591152191162,0.2014875411987304,-0.7779505252838135,0.0838752090930938,0.1809152662754058,0.0,0.0,0.3724679946899414,0.1684739589691162
0.0038184165023267,0.4935499429702759,0.216000959277153,-0.7654393911361694,0.093688815832138,0.1962721496820449,0.0,0.0,0.4644284248352051,0.1105266809463501
0.0061605451628565,0.4768720269203186,0.2237804234027862,-0.7419271469116211,0.1040372774004936,0.2069691121578216,0.0,0.0,0.5903985500335693,-0.0615543127059936
0.00843648891896,0.4607434272766113,0.2172959297895431,-0.7175769805908203,0.114265501499176,0.2045645713806152,0.0,0.0,0.1196286678314209,0.6219360828399658
0.0108569143339991,0.4444305300712585,0.2327334582805633,-0.7257550954818726,0.1235187277197837,0.1850644052028656,0.0,0.0,0.1306328773498535,-0.6856033802032471
0.0131719587370753,0.4282435178756714,0.2207265347242355,-0.7203503251075745,0.1342476904392242,0.2145795375108719,0.0,0.0,0.7834014892578125,0.7645750045776367
0.0157015807926654,0.4123581051826477,0.2432311028242111,-0.7069247961044312,0.1439400911331176,0.1938481330871582,0.0,0.0,0.7398163080215454,-0.2101523280143737
0.0182475093752145,0.3968682289123535,0.2445969581604004,-0.6894325613975525,0.1539220511913299,0.1996392160654068,0.0,0.0,0.7299520969390869,0.4646549224853515
0.0208213813602924,0.381434679031372,0.2471988499164581,-0.6870227456092834,0.1641040295362472,0.203639954328537,0.0,0.0,0.7792401313781738,0.5220396518707275
0.0232759471982717,0.3663506507873535,0.2365700453519821,-0.6714039444923401,0.172987475991249,0.177669271826744,0.0,0.0,0.7244534492492676,-0.1188255548477172
0.0256820674985647,0.3520242869853973,0.2315197438001632,-0.6378157734870911,0.1821095943450927,0.1824424117803573,0.0,0.0,0.7270658016204834,0.5894193649291992
0.0282531734555959,0.3376113176345825,0.2488445341587066,-0.6416090130805969,0.1904102861881256,0.166014090180397,0.0,0.0,0.7511625289916992,-0.4945905804634094
0.030763816088438,0.3239709436893463,0.2425623685121536,-0.6073493957519531,0.1989488303661346,0.1707711517810821,0.0,0.0,0.6072937250137329,0.2058513164520263
0.0331755653023719,0.3104122877120971,0.2330320328474044,-0.6037224531173706,0.2071534544229507,0.164092868566513,0.0,0.0,0.859224796295166,0.1327279806137085
0.0354108810424804,0.2973718643188476,0.2158084660768509,-0.5806769728660583,0.2149532884359359,0.1559967696666717,0.0,0.0,0.3303078413009643,-0.3170090317726135
0.0376443862915039,0.2845052182674408,0.2154707014560699,-0.5730188488960266,0.2229240089654922,0.1594143211841583,0.0,0.0,0.6723266839981079,0.1723701953887939
0.039642047137022,0.2722772657871246,0.1924502849578857,-0.544587254524231,0.2303303629159927,0.1481272429227829,0.0,0.0,-0.1153026223182678,0.8620631694793701
0.0417935363948345,0.2595065832138061,0.2097517251968383,-0.5684409737586975,0.235807716846466,0.1095471978187561,0.0,0.0,0.4334181547164917,-0.3959869146347046
0.0439162254333496,0.2466513663530349,0.2070074528455734,-0.5721935629844666,0.2411523759365081,0.1068928986787796,0.0,0.0,0.937669277191162,0.4309722185134887
0.0461033806204795,0.2338109612464904,0.2131210565567016,-0.5716152191162109,0.2468498349189758,0.1139491647481918,0.0,0.0,0.7874363660812378,0.5217775106430054
0.0482837669551372,0.2209321409463882,0.2136100083589553,-0.5731436014175415,0.2513597905635834,0.0901993960142135,0.0,0.0,0.9329569339752196,-0.3813109397888183
0.050300408154726,0.2088285088539123,0.197335809469223,-0.5386858582496643,0.2557700872421264,0.0882052704691886,0.0,0.0,0.8167809247970581,0.6758135557174683
0.0523079857230186,0.1975199580192566,0.1976440846920013,-0.5031492710113525,0.258959412574768,0.0637856796383857,0.0,0.0,0.4875359535217285,-0.7326807975769043
0.0540367141366004,0.1866508573293686,0.16858571767807,-0.4838359653949737,0.2633398473262787,0.0876085981726646,0.0,0.0,0.7842072248458862,0.2119762897491455
0.0556111335754394,0.1756754666566848,0.1539028882980346,-0.4884323179721832,0.2669613361358642,0.0724296644330024,0.0,0.0,0.9783575534820556,0.3970208168029785
0.0570551864802837,0.1655191332101822,0.1407797634601593,-0.4520609676837921,0.27067431807518,0.0742596238851547,0.0,0.0,0.9527299404144288,0.9289953708648682
0.0583323463797569,0.1557523161172866,0.1263093501329422,-0.4343422651290893,0.2721167206764221,0.0288480781018733,0.0,0.0,0.985621213912964,0.0981909036636352
0.0593976974487304,0.146565780043602,0.1055928319692611,-0.4084636569023132,0.2730845212936401,0.0193558037281036,0.0,0.0,0.9984822273254396,0.8891592025756836
0.0603557601571083,0.1380572468042373,0.096838928759098,-0.3779658675193786,0.2720263302326202,-0.0211635623127222,0.0,0.0,0.982398271560669,0.3415437936782837
0.0612953193485736,0.1300292760133743,0.0947177708148956,-0.3566567003726959,0.2712457478046417,-0.0156117435544729,0.0,0.0,0.8385648727416992,-0.8479695916175842
0.0621649734675884,0.1219583377242088,0.0862089246511459,-0.3588501811027527,0.272021621465683,0.015517440624535,0.0,0.0,0.955030918121338,0.682042121887207
0.0631388649344444,0.1140698492527008,0.0979199707508087,-0.3504985272884369,0.2714738845825195,-0.010954855941236,0.0,0.0,0.9383256435394288,-0.4709414839744568
0.0641638785600662,0.1066485717892646,0.1025039553642273,-0.3298335671424866,0.2714672088623047,-0.0001334162370767,0.0,0.0,0.8924288749694824,0.2150717973709106
0.0652846321463584,0.09937384724617,0.1116316318511962,-0.3234035670757293,0.271926075220108,0.0091772200539708,0.0,0.0,0.9429326057434082,-0.6123470067977905
0.0661756545305252,0.0927871316671371,0.0877523273229599,-0.2929943799972534,0.2733142971992492,0.0277644582092762,0.0,0.0,0.8061611652374268,-0.408865213394165
0.0669357329607009,0.0868413522839546,0.0748001784086227,-0.2644855678081512,0.2745565474033355,0.0248447451740503,0.0,0.0,0.4521553516387939,-0.1928565502166748
0.067701056599617,0.0812160074710846,0.0751398652791976,-0.2502791285514831,0.2759890854358673,0.0286510251462459,0.0,0.0,0.5519826412200928,0.1401331424713134
0.0685314163565635,0.075501263141632,0.081526793539524,-0.2542726397514343,0.2775309979915619,0.0308391191065311,0.0,0.0,0.918104887008667,-0.2380588054656982
0.0691967979073524,0.07004364579916,0.0656497627496719,-0.242731511592865,0.2784498035907745,0.0183764025568962,0.0,0.0,0.4977427721023559,0.716618537902832
0.0698355659842491,0.0652096569538116,0.064601682126522,-0.2147043496370315,0.2777051329612732,-0.0148934423923492,0.0,0.0,0.4674708843231201,0.8155002593994141
0.0704279914498329,0.0605507716536521,0.0619558691978454,-0.2065461426973343,0.2749120891094208,-0.0558606088161468,0.0,0.0,0.66072678565979,0.8780324459075928
0.070785142481327,0.0564548596739769,0.0407537035644054,-0.1811029762029647,0.2697477340698242,-0.1032875999808311,0.0,0.0,-0.3870993852615356,0.7515599727630615
0.0712560638785362,0.0518193580210208,0.0542269051074981,-0.2047269791364669,0.2624551057815552,-0.1458524763584137,0.0,0.0,0.9397095441818236,-0.3808749914169311
0.0714853256940841,0.0478652827441692,0.0307327918708324,-0.1743562370538711,0.2544810771942138,-0.1594802439212799,0.0,0.0,0.2766320705413818,0.7143694162368774
0.0715988129377365,0.0441805683076381,0.021089581772685,-0.1621068269014358,0.2445622980594635,-0.1983759105205536,0.0,0.0,0.7427217960357666,-0.1877269744873047
0.0716035813093185,0.0406813956797122,0.0107585098594427,-0.1538446545600891,0.234116330742836,-0.2089193165302276,0.0,0.0,0.4434628486633301,-0.343580961227417
0.0714294463396072,0.0373441539704799,-0.0062371930107474,-0.1465849578380584,0.2227863818407058,-0.2265989482402801,0.0,0.0,0.4743039608001709,0.875542163848877
0.0711120590567588,0.0340928174555301,-0.0181836131960153,-0.1425199210643768,0.2090953588485717,-0.2738208174705505,0.0,0.0,0.19454026222229,0.7197607755661011
0.0708650574088096,0.0310847386717796,-0.009364447556436,-0.1315958946943283,0.193629041314125,-0.3093261420726776,0.0,0.0,-0.1286654472351074,0.7647321224212646
0.0707204788923263,0.0275222640484571,0.0030547541100531,-0.1561375260353088,0.1760461628437042,-0.3516576886177063,0.0,0.0,0.0057158470153808,-0.0295344591140747
0.0706160515546798,0.0241024121642112,0.0071532130241394,-0.1500021815299987,0.1584380865097046,-0.3521615266799927,0.0,0.0,0.0668274164199829,-0.4062996506690979
0.0704507827758789,0.0208552218973636,0.0016233209753409,-0.1424928456544876,0.1403238624334335,-0.3622848689556122,0.0,0.0,-0.4832950830459595,-0.2087714076042175
0.0703165084123611,0.0170421227812767,0.0052085029892623,-0.1678259372711181,0.1217681542038917,-0.3711146414279938,0.0,0.0,0.265112042427063,-0.5552229285240173
0.070177361369133,0.0133275846019387,0.0039711338467895,-0.1637279838323593,0.1040057092905044,-0.3552490472793579,0.0,0.0,0.3287969827651977,-0.6860398650169373
0.0699366554617881,0.0100240325555205,-0.0070739230141043,-0.1457306891679763,0.0871503353118896,-0.3371075987815857,0.0,0.0,-0.1073492765426635,-0.4884940385818481
0.0696649551391601,0.0065965629182755,0.0016332442173734,-0.1508984267711639,0.0586356222629547,-0.5702953338623047,0.0,1.0,0.9672062397003174,0.2864778041839599
0.0694565773010253,0.0034361339639872,0.0075722420588135,-0.139588177204132,0.0305661521852016,-0.5613894462585449,0.0,1.0,0.9772894382476808,0.0679378509521484
0.0690792053937912,0.0008198356372304,-0.0086286840960383,-0.1159393787384033,0.0018210171256214,-0.5749031901359558,0.0,1.0,0.8413858413696289,0.51102614402771
0.0685894936323165,-0.0014955187216401,-0.0183730237185955,-0.1031426265835762,-0.0283839236944913,-0.6040991544723511,1.0,0.0,0.9208638668060304,-0.5469728708267212
0.0681109428405761,-0.002862730063498,-0.0316534265875816,-0.0614135712385177,-0.0431455671787261,-0.293643981218338,1.0,0.0,0.5745842456817627,-0.2575215101242065
0.0678345710039138,-0.0034450197126716,-0.0312237590551376,-0.0257885474711656,-0.0395769476890563,0.0714136213064193,1.0,0.0,-0.7979869246482849,0.3545980453491211
0.0676460266113281,-0.0040994072332978,-0.0368214957416057,-0.0287084653973579,-0.0218013767153024,0.3555446267127991,1.0,0.0,-0.4325323104858398,0.528156042098999
0.0675276741385459,-0.0042697098106145,-0.0229973029345273,-0.0074472040869295,-0.01079982239753,0.2200202047824859,1.0,1.0,-0.6343734860420227,0.9890482425689696
0.0674805641174316,-0.0040351413190364,-0.0085291136056184,0.0104519557207822,-0.0070000463165342,0.0760271698236465,1.0,1.0,-0.5935757756233215,0.4675630331039428
0.0673821419477462,-0.0034376168623566,-0.0094036664813756,0.0265495236963033,-0.0074373632669448,-0.0087379831820726,1.0,1.0,-0.8205132484436035,0.0599803924560546
0.0672651305794715,-0.0025051021948456,-0.0097056021913886,0.0414305552840232,-0.0093935774639248,-0.0391148924827575,1.0,1.0,-0.9317588210105896,0.0471357107162475
