x_pos,y_pos,x_vel,y_vel,angle,ang_vel,leg_1,leg_2,main_booster,lat_booster
-0.0015733719337731,1.403050422668457,-0.1593434661626815,-0.3497620522975921,0.0017947437008842,0.0354052260518074,0.0,0.0,-0.1202785372734069,0.5258960723876953
-0.0031558037735521,1.394627332687378,-0.158858984708786,-0.3743532299995422,0.0024060211144387,0.0122274011373519,0.0,0.0,0.3678712844848633,0.7306034564971924
-0.0046154977753758,1.38612699508667,-0.1453330218791961,-0.377793937921524,0.0017767698736861,-0.0125861261039972,0.0,0.0,0.155065655708313,0.439750075340271
-0.0062196729704737,1.377576231956482,-0.1593656986951828,-0.3800341188907623,0.0007428282988257,-0.0206809304654598,0.0,0.0,0.1810247898101806,0.796501874923706
-0.0077196122147142,1.369153380393982,-0.1474485099315643,-0.3743511438369751,-0.0017656421987339,-0.0501739270985126,0.0,0.0,0.6617664098739624,0.6835107803344727
-0.0090808868408203,1.3609744310379028,-0.1325910240411758,-0.3635173738002777,-0.0052756639197468,-0.0702071264386177,0.0,0.0,-0.1349018216133117,-0.5031335949897766
-0.0105527881532907,1.3522218465805054,-0.1446833908557891,-0.3890153169631958,-0.0077521982602775,-0.0495350062847137,0.0,0.0,0.2127219438552856,0.4142152070999145
-0.0119834896177053,1.3436064720153809,-0.1410845220088958,-0.3829191625118255,-0.0097047863528132,-0.0390556007623672,0.0,0.0,0.1379541158676147,0.3105185031890869
-0.0134914396330714,1.3352816104888916,-0.1487801074981689,-0.3700074851512909,-0.0116936564445495,-0.0397811010479927,0.0,0.0,-0.3558012247085571,0.8480792045593262
-0.0150094982236623,1.32638680934906,-0.1481077820062637,-0.3953538537025451,-0.0153547599911689,-0.0732290595769882,0.0,0.0,0.1732826232910156,0.5482316017150879
-0.0164896007627248,1.3175495862960815,-0.1433555036783218,-0.3928276598453522,-0.0199593286961317,-0.0920997262001037,0.0,0.0,0.1935935020446777,-0.0948538780212402
-0.0179921146482229,1.3087091445922852,-0.1458536386489868,-0.3929733037948608,-0.0243130587041378,-0.087082602083683,0.0,0.0,0.0576992034912109,0.6986215114593506
-0.0194165222346782,1.2999645471572876,-0.1367374658584594,-0.3887498080730438,-0.0299463681876659,-0.1126765832304954,0.0,0.0,0.0736380815505981,0.5748112201690674
-0.020823573693633,1.290982961654663,-0.133948341012001,-0.3993379473686218,-0.0366261228919029,-0.1336073726415634,0.0,0.0,-0.3706761598587036,0.3652516603469848
-0.0223170276731252,1.2814277410507202,-0.1426149755716323,-0.4248534440994262,-0.0432913452386856,-0.1333165466785431,0.0,0.0,0.1385586261749267,0.6849956512451172
-0.0237507820129394,1.2715890407562256,-0.1353801488876342,-0.4375194013118744,-0.0511935278773307,-0.1580581963062286,0.0,0.0,0.5225800275802612,0.1941173076629638
-0.0251067169010639,1.2623484134674072,-0.1282320320606231,-0.410962849855423,-0.0584811717271804,-0.1457660496234893,0.0,0.0,-0.7610684633255005,0.4246826171875
-0.0265534408390522,1.25253427028656,-0.1373415887355804,-0.4364875257015228,-0.0657500624656677,-0.1453909128904342,0.0,0.0,-0.7926118969917297,0.4734034538269043
-0.0280924793332815,1.2421468496322632,-0.1465771347284317,-0.46200031042099,-0.0729976594448089,-0.1449654102325439,0.0,0.0,-0.0023741722106933,0.382631778717041
-0.0297246929258108,1.2311859130859375,-0.1559312790632248,-0.4875164628028869,-0.0802226066589355,-0.1445118635892868,0.0,0.0,-0.1733232736587524,0.9588756561279296
-0.0313591957092285,1.2196478843688965,-0.1538738906383514,-0.5133385062217712,-0.089733138680458,-0.1902278661727905,0.0,0.0,-0.2101755142211914,0.2106854915618896
-0.0330890640616416,1.207537055015564,-0.1634314507246017,-0.5388592481613159,-0.0992164462804794,-0.1896827667951584,0.0,0.0,0.2033078670501709,0.7572535276412964
-0.0347093567252159,1.1954196691513062,-0.1511075943708419,-0.5393171906471252,-0.1100669726729393,-0.2170302122831344,0.0,0.0,-0.532183051109314,-0.1519697308540344
-0.0364263541996479,1.1827294826507568,-0.160841017961502,-0.5648451447486877,-0.1208873763680458,-0.2164271771907806,0.0,0.0,0.0645780563354492,0.5546766519546509
-0.0382485389709472,1.1700963973999023,-0.170120358467102,-0.5624911189079285,-0.1329461932182312,-0.2411977797746658,0.0,0.0,-0.0669456124305725,0.5912187099456787
-0.04013567045331,1.156866192817688,-0.1757509261369705,-0.5892204642295837,-0.145866259932518,-0.2584014534950256,0.0,0.0,0.8143390417098999,0.0990681648254394
-0.0420019142329692,1.1442469358444214,-0.1737362444400787,-0.5621626973152161,-0.1587346494197845,-0.2573679089546203,0.0,0.0,0.4478950500488281,0.0737571716308593
-0.0439666733145713,1.1321545839309692,-0.1831176280975341,-0.5389241576194763,-0.1720996499061584,-0.2673003077507019,0.0,0.0,0.635969877243042,-0.2930725812911987
-0.0460275635123252,1.120657205581665,-0.1922051906585693,-0.5126634240150452,-0.1860284209251403,-0.2785758376121521,0.0,0.0,-0.1803228855133056,-0.608226478099823
-0.0482382774353027,1.1085996627807615,-0.2085150927305221,-0.5375182032585144,-0.1986608952283859,-0.252649188041687,0.0,0.0,0.0104482173919677,-0.302072525024414
-0.0504366867244243,1.0967280864715576,-0.2074045687913894,-0.5293431282043457,-0.2112047523260116,-0.2508772015571594,0.0,0.0,0.5210986137390137,0.0049217939376831
-0.0527220740914344,1.0848989486694336,-0.2158364355564117,-0.5276105403900146,-0.224043384194374,-0.2567726075649261,0.0,0.0,0.130974531173706,-0.3544223308563232
-0.0550423637032508,1.0733190774917605,-0.2191438376903534,-0.5166662931442261,-0.237106055021286,-0.2612534165382385,0.0,0.0,0.6528158187866211,-0.344018816947937
-0.057441808283329,1.061715841293335,-0.2268511801958084,-0.5178559422492981,-0.2504254281520843,-0.266387015581131,0.0,0.0,0.4187138080596924,-0.69910728931427
-0.0598482117056846,1.0503395795822144,-0.2290323227643966,-0.5076335668563843,-0.2622650861740112,-0.2367929965257644,0.0,0.0,-0.6056678891181946,-0.5945090055465698
-0.0624000541865825,1.0384130477905271,-0.2448019981384277,-0.5319727659225464,-0.2728936970233917,-0.2125721424818039,0.0,0.0,0.5620310306549072,-0.5985751748085022
-0.0650103539228439,1.026562213897705,-0.2518337368965149,-0.5284462571144104,-0.2823328673839569,-0.1887833178043365,0.0,0.0,0.4195156097412109,0.1840575933456421
-0.0675098448991775,1.0150671005249023,-0.2409524470567703,-0.5126664638519287,-0.2915786206722259,-0.1849153339862823,0.0,0.0,-0.9567702412605286,-0.6719202399253845
-0.0701644867658615,1.0030301809310913,-0.2579618692398071,-0.5365015268325806,-0.2993192374706268,-0.1548122465610504,0.0,0.0,0.4336996078491211,-0.7021918892860413
-0.0727930068969726,0.991188943386078,-0.2568481564521789,-0.5275267362594604,-0.3055398464202881,-0.1244121193885803,0.0,0.0,0.800756573677063,-0.6457492709159851
-0.0754361152648925,0.9800727367401124,-0.2593267560005188,-0.4951117932796478,-0.3106997013092041,-0.1031971424818039,0.0,0.0,0.0731773376464843,0.226237416267395
-0.0780015960335731,0.968831479549408,-0.2519819438457489,-0.5005958080291748,-0.3154419362545013,-0.0948447659611702,0.0,0.0,0.3827954530715942,-0.4411367177963257
-0.0805109962821006,0.9573528170585632,-0.2467858493328094,-0.5110737085342407,-0.3197599351406097,-0.0863601639866828,0.0,0.0,0.7703135013580322,-0.7151718735694885
-0.0828887969255447,0.9460773468017578,-0.2353171110153198,-0.5016791224479675,-0.3223192989826202,-0.0511870197951793,0.0,0.0,0.8647682666778564,-0.2075379490852356
-0.0853071212768554,0.9347225427627563,-0.2392150610685348,-0.5052465200424194,-0.3250399827957153,-0.0544136948883533,0.0,0.0,0.8188973665237427,0.3411118984222412
-0.0876620262861251,0.9232921600341796,-0.2331545054912567,-0.5085410475730896,-0.3274743854999542,-0.0486881807446479,0.0,0.0,0.35103440284729,0.1252906322479248
-0.0899538993835449,0.911782681941986,-0.2271261513233184,-0.5120016932487488,-0.3296242356300354,-0.0429962091147899,0.0,0.0,0.7716509103775024,-0.496809720993042
-0.0921717658638954,0.9010264277458192,-0.2192497551441192,-0.4786348044872284,-0.3322761952877044,-0.0530391260981559,0.0,0.0,0.2663099765777588,-0.4321246147155761
-0.0943898186087608,0.8906024098396301,-0.218867227435112,-0.4639667272567749,-0.3353415727615356,-0.0613073408603668,0.0,0.0,-0.1650803089141845,0.0864986181259155
-0.0967083945870399,0.8796042203903198,-0.2289894521236419,-0.4894757568836212,-0.3383483588695526,-0.0601356513798236,0.0,0.0,0.2161316871643066,-0.0471799969673156
-0.0988881140947341,0.8685740828514099,-0.2156199514865875,-0.4907776713371277,-0.3408065140247345,-0.0491632968187332,0.0,0.0,0.7777793407440186,-0.6270487308502197
-0.1010107994079589,0.8581526875495911,-0.2110571563243866,-0.4634658396244049,-0.3420782387256622,-0.0254342649132013,0.0,0.0,0.2484651803970337,0.1110905408859252
-0.1030420288443565,0.8475900888442993,-0.2023452818393707,-0.4696362614631653,-0.3429042994976043,-0.0165213104337453,0.0,0.0,0.9215373992919922,-0.4651017189025879
-0.1048564910888671,0.8377620577812195,-0.1807337403297424,-0.436974436044693,-0.3436479270458221,-0.0148727772757411,0.0,0.0,0.542847752571106,-0.8707094788551331
-0.1065336242318153,0.8279553055763245,-0.1689646691083908,-0.4355569779872894,-0.3423425853252411,0.0261065755039453,0.0,0.0,0.445765733718872,-0.9345320463180542
-0.1083295792341232,0.8182379603385925,-0.1826466768980026,-0.4311540722846985,-0.3391426801681518,0.0639980733394622,0.0,0.0,0.6894341707229614,-0.2831848859786987
-0.1098601371049881,0.809051513671875,-0.1566087901592254,-0.4074581861495971,-0.3354275226593017,0.0743034183979034,0.0,0.0,0.7354904413223267,-0.707385778427124
-0.1111561805009841,0.8002467155456543,-0.1349343061447143,-0.390091210603714,-0.3298508524894714,0.1115333586931228,0.0,0.0,0.6740049123764038,-0.6888062953948975
-0.1122483238577842,0.7920451760292053,-0.116165280342102,-0.3629500269889831,-0.3226089179515838,0.144838660955429,0.0,0.0,-0.1230338215827941,-0.454002320766449
-0.1134344115853309,0.7832698225975037,-0.12564218044281,-0.388462096452713,-0.3152909576892853,0.1463591754436493,0.0,0.0,-0.3023439049720764,-0.0271340608596801
-0.1147133857011795,0.7739208936691284,-0.1350275874137878,-0.4139742255210876,-0.3078951835632324,0.147915631532669,0.0,0.0,-0.7002449631690979,-0.1372809410095214
-0.1160842925310134,0.7639984488487244,-0.1443162560462951,-0.4394864737987518,-0.300419807434082,0.1495071947574615,0.0,0.0,0.1025995016098022,0.1291615962982177
-0.117365263402462,0.753960371017456,-0.1357832252979278,-0.4445694983005523,-0.2924818992614746,0.1587584316730499,0.0,0.0,-0.0702292323112487,-0.0598406791687011
-0.118735983967781,0.7433488368988037,-0.1448623687028885,-0.4700824320316314,-0.2844610512256622,0.1604171097278595,0.0,0.0,-0.3958014249801636,0.0637102127075195
-0.1201953887939453,0.7321638464927673,-0.153828352689743,-0.4955955147743225,-0.2763556838035583,0.1621076017618179,0.0,0.0,-0.749554455280304,-0.2096843719482422
-0.1217421516776084,0.7204054594039917,-0.1626755744218826,-0.5211087465286255,-0.2681642770767212,0.1638283878564834,0.0,0.0,-0.7513981461524963,-0.3515975475311279
-0.1233751326799392,0.7080737352371216,-0.1713983118534088,-0.5466221570968628,-0.2598853707313537,0.1655781269073486,0.0,0.0,0.0141792297363281,-0.2763975858688354
-0.1249982863664627,0.6954094171524048,-0.1707355827093124,-0.5613924860954285,-0.2512845396995544,0.1720165312290191,0.0,0.0,-0.581885576248169,-0.0638697147369384
-0.1267049759626388,0.6821717619895935,-0.1791921555995941,-0.5869064927101135,-0.2425935864448547,0.1738187670707702,0.0,0.0,0.588599443435669,-0.0210351943969726
-0.1284721344709396,0.6690561175346375,-0.1849440336227417,-0.5815846920013428,-0.2342299222946167,0.167273074388504,0.0,0.0,0.3518449068069458,0.2531125545501709
-0.1302642822265625,0.6562016606330872,-0.1872159838676452,-0.5700627565383911,-0.226121500134468,0.1621683537960052,0.0,0.0,-0.1174672245979309,-0.2125385999679565
-0.1321354806423187,0.6427737474441528,-0.1952291131019592,-0.5955761671066284,-0.2179197520017624,0.1640354096889495,0.0,0.0,0.72440505027771,0.6454615592956543
-0.1339846551418304,0.6301008462905884,-0.1915109902620315,-0.5622808337211609,-0.2112617045640945,0.1331608891487121,0.0,0.0,0.9110268354415894,0.1107993125915527
-0.1356865912675857,0.6178073287010193,-0.1772693991661071,-0.5453846454620361,-0.2041155993938446,0.1429223418235778,0.0,0.0,0.7449737787246704,0.2954393625259399
-0.1374136954545974,0.6055576801300049,-0.1797367483377456,-0.5434724688529968,-0.1970385611057281,0.1415408104658126,0.0,0.0,-0.5386094450950623,0.7134054899215698
-0.1391527205705642,0.5927087068557739,-0.1794428676366806,-0.5703429579734802,-0.1914654821157455,0.1114616990089416,0.0,0.0,0.3764883279800415,0.2615549564361572
-0.1409343779087066,0.5797097682952881,-0.1836834847927093,-0.5770269632339478,-0.1859176009893417,0.1109577417373657,0.0,0.0,0.8971273899078369,0.7207959890365601
-0.142569825053215,0.5674730539321899,-0.1676993072032928,-0.5433360934257507,-0.1817392259836197,0.0835675224661827,0.0,0.0,0.3167315721511841,0.507962703704834
-0.1440463066101074,0.5555968880653381,-0.1510644853115081,-0.5274155139923096,-0.1783197522163391,0.0683894455432891,0.0,0.0,0.2302613258361816,0.2477151155471801
-0.1455619782209396,0.5440673828125,-0.1546892821788787,-0.5120516419410706,-0.1751896291971206,0.0626025050878524,0.0,0.0,-0.2730544209480285,0.4647749662399292
-0.1471405029296875,0.5319638252258301,-0.1610719859600067,-0.5375608801841736,-0.1719623655080795,0.0645450875163078,0.0,0.0,0.5625057220458984,0.2134937047958374
-0.1486143171787262,0.5203812718391418,-0.150871068239212,-0.5143796801567078,-0.1684615761041641,0.0700157955288887,0.0,0.0,-0.1708680391311645,0.2023732662200927
-0.1501467674970626,0.5082246661186218,-0.1568388938903808,-0.5398892164230347,-0.1648638993501663,0.0719533711671829,0.0,0.0,0.8922032117843628,-0.1489103436470031
-0.1516702622175216,0.4966582059860229,-0.1557535678148269,-0.5136921405792236,-0.1614601016044616,0.0680758208036422,0.0,0.0,0.0945675373077392,0.7707309722900391
-0.153122141957283,0.4851948916912079,-0.1471413373947143,-0.5092689394950867,-0.1595070362091064,0.0390614531934261,0.0,0.0,-0.0505613088607788,0.9173301458358764
-0.1545443534851074,0.4731378257274627,-0.1421612054109573,-0.5358749628067017,-0.1595603972673416,-0.0010673699434846,0.0,0.0,0.2873977422714233,0.7618751525878906
-0.1558949500322342,0.4608749151229858,-0.1335958987474441,-0.5451762676239014,-0.1610225886106491,-0.0292441602796316,0.0,0.0,0.6559373140335083,0.9986145496368408
-0.1570477485656738,0.4485839605331421,-0.112029954791069,-0.5466201305389404,-0.1642716377973556,-0.0649808496236801,0.0,0.0,0.6456074714660645,0.1492838859558105
-0.1580083817243576,0.4365245997905731,-0.0935944318771362,-0.5362436771392822,-0.1667489260435104,-0.0495456047356128,0.0,0.0,0.9186022281646729,-0.7520413398742676
-0.1588224470615387,0.4245340526103973,-0.0809197872877121,-0.532968282699585,-0.1672300398349762,-0.0096221975982189,0.0,0.0,0.3206703662872314,-0.435060441493988
-0.1595819443464279,0.4128587245941162,-0.0755412727594375,-0.5189517736434937,-0.1676397919654846,-0.0081951124593615,0.0,0.0,0.8463301658630371,0.228151798248291
-0.160204604268074,0.4018542170524597,-0.0621104054152965,-0.4891054332256317,-0.1677981168031692,-0.0031666327267885,0.0,0.0,0.8727432489395142,0.3064608573913574
-0.1605982780456543,0.3913585543632507,-0.0399517491459846,-0.4664110839366913,-0.1672128438949585,0.0117056388407945,0.0,0.0,0.8315253257751465,0.0269395112991333
-0.1608556807041168,0.3807960152626037,-0.0269318521022796,-0.4693134129047394,-0.1660206615924835,0.0238432791084051,0.0,0.0,0.8240141868591309,0.3517806529998779
-0.1611093580722808,0.3705053329467773,-0.0263792816549539,-0.4572475254535675,-0.165008082985878,0.0202515516430139,0.0,0.0,0.564560055732727,0.6137675046920776
-0.1611240357160568,0.3608234226703644,-0.0015454363310709,-0.430302619934082,-0.1649346947669983,0.0014678867300972,0.0,0.0,0.418192982673645,0.2649635076522827
-0.1611058264970779,0.351294994354248,0.0017536993836984,-0.4234749674797058,-0.1648670732975006,0.0013525093672797,0.0,0.0,0.3016625642776489,0.6288658380508423
-0.1610672920942306,0.3421400189399719,0.0051513309590518,-0.407034695148468,-0.1661629974842071,-0.0259186420589685,0.0,0.0,-0.3288495540618896,-0.2159138917922973
-0.161051943898201,0.3324108123779297,0.0027436485979706,-0.43254354596138,-0.1673741340637207,-0.0242227558046579,0.0,0.0,0.4134482145309448,-0.1133836507797241
-0.1609958708286285,0.3230683803558349,0.006938895676285,-0.4153739213943481,-0.1687134206295013,-0.026785347610712,0.0,0.0,0.4898281097412109,-0.7547067999839783
-0.160985380411148,0.3141914010047912,0.0009385052835568,-0.3945191204547882,-0.1685922145843505,0.0024242335930466,0.0,0.0,-0.1930376291275024,0.7943482398986816
-0.1609327346086502,0.3047224879264831,0.0065814456902444,-0.4209899008274078,-0.1699165403842926,-0.0264868699014186,0.0,0.0,-0.1418682336807251,-0.3967822194099426
-0.1608951538801193,0.2946795225143432,0.0049965442158281,-0.4464988112449646,-0.1711601912975311,-0.0248731337487697,0.0,0.0,0.0829939842224121,-0.6137398481369019
-0.1609693467617035,0.2846091389656067,-0.0073327040299773,-0.447581797838211,-0.171244204044342,-0.0016801351448521,0.0,0.0,0.0351380109786987,-0.2793166041374206
-0.1609127074480056,0.2746131420135498,0.0053718825802206,-0.4442320764064789,-0.1709425449371338,0.0060330922715365,0.0,0.0,0.8005321025848389,-0.5073120594024658
-0.1607670783996582,0.2646251022815704,0.0129642384126782,-0.4437276422977447,-0.1693436801433563,0.0319771207869052,0.0,0.0,0.7475988864898682,-0.4410704374313354
-0.1603418290615081,0.2552174925804138,0.0401394739747047,-0.4178494215011596,-0.1669584065675735,0.0477058105170726,0.0,0.0,0.5203616619110107,-0.4974682331085205
-0.1598247587680816,0.2462972551584243,0.049357172101736,-0.3961901664733886,-0.1645946949720382,0.0472742393612861,0.0,0.0,0.1582478284835815,-0.7986881136894226
-0.1591614782810211,0.2376858592033386,0.0622009225189685,-0.3822760581970215,-0.1604675352573394,0.0825432389974594,0.0,0.0,0.1576554775238037,0.0089650154113769
-0.1583832800388336,0.2290892004966735,0.0733681768178939,-0.3816013932228088,-0.1560190916061401,0.0889686197042465,0.0,0.0,0.0120825767517089,-0.5820763111114502
-0.1575783789157867,0.2206775099039077,0.0748037993907928,-0.3732672929763794,-0.1503359526395797,0.1136631965637207,0.0,0.0,-0.7569384574890137,0.0326038599014282
-0.1567732840776443,0.2116921097040176,0.0747428387403488,-0.3987789750099182,-0.1445804685354232,0.1151097789406776,0.0,0.0,0.0786536931991577,-0.1947578191757202
-0.1558714807033538,0.2025660127401352,0.0840927734971046,-0.4050249755382538,-0.1385101228952407,0.1214070469141006,0.0,0.0,0.0122818946838378,0.2950558662414551
-0.1549887657165527,0.1934446394443512,0.0824521034955978,-0.4048652946949005,-0.1327156871557235,0.1158890128135681,0.0,0.0,0.1476916074752807,0.4639134407043457
-0.1541432440280914,0.1842989474534988,0.0790833234786987,-0.4059978127479553,-0.1272636502981186,0.1090403795242309,0.0,0.0,0.6190316677093506,0.390225887298584
-0.1532433480024337,0.1754054576158523,0.0845368653535842,-0.3948085904121399,-0.1218399330973625,0.1084743291139602,0.0,0.0,0.3677692413330078,0.4849082231521606
-0.1522623002529144,0.1665919423103332,0.092480257153511,-0.3912625908851623,-0.1162481009960174,0.11183662712574,0.0,0.0,0.5035679340362549,0.2609908580780029
-0.1511181890964508,0.1576717048883438,0.1081667989492416,-0.3959803879261017,-0.1100384294986724,0.1241933852434158,0.0,0.0,0.2870978116989136,-0.0775825977325439
-0.1498320549726486,0.1489596664905548,0.1219392046332359,-0.3867245316505432,-0.1034100353717804,0.132567822933197,0.0,0.0,0.628387451171875,-0.5381516814231873
-0.1484705954790115,0.1408681273460388,0.1282402873039245,-0.3590992391109466,-0.0955701023340225,0.1567985564470291,0.0,0.0,0.0204362869262695,0.2928705215454101
