x_pos,y_pos,x_vel,y_vel,angle,ang_vel,leg_1,leg_2,main_booster,lat_booster
-0.0015260695945471,1.403201699256897,-0.1545967161655426,-0.343036949634552,0.0017843425739556,0.0351990424096584,0.0,0.0,-0.5158146619796753,0.6809282302856445
-0.0029963492415845,1.3950806856155396,-0.1473126411437988,-0.36093470454216,0.0020670476369559,0.0056552644819021,0.0,0.0,0.2169607877731323,0.5897300243377686
-0.0043141366913914,1.3869789838790894,-0.1311027407646179,-0.3600732982158661,0.0013991832965984,-0.0133585054427385,0.0,0.0,0.4443084001541137,0.7659858465194702
-0.0056900978088378,1.3791069984436035,-0.1351706981658935,-0.349862664937973,-0.0009876519907265,-0.0477413013577461,0.0,0.0,0.1905591487884521,0.4596859216690063
-0.0069739343598484,1.3715170621871948,-0.1264089941978454,-0.337331086397171,-0.0029353857971727,-0.0389583855867385,0.0,0.0,-0.1467165946960449,0.0915635824203491
-0.0082589145749807,1.363504409790039,-0.126517504453659,-0.3561208844184875,-0.0048942137509584,-0.0391802825033664,0.0,0.0,0.1811095476150512,0.6104885339736938
-0.0095127103850245,1.3556883335113523,-0.1221344470977783,-0.3473962247371673,-0.0081067364662885,-0.064256727695465,0.0,0.0,-0.390231192111969,0.2151038646697998
-0.0107672689482569,1.3474496603012085,-0.1221938505768776,-0.3661883473396301,-0.0113347806036472,-0.0645667165517807,0.0,0.0,-0.126523733139038,-0.1283824443817138
-0.0120224002748727,1.338788390159607,-0.1222328692674636,-0.384973794221878,-0.0145816700533032,-0.064943753182888,0.0,0.0,-0.1138272285461425,0.2298729419708252
-0.0132779125124216,1.3297046422958374,-0.1222523674368858,-0.4037604033946991,-0.0178492255508899,-0.0653567835688591,0.0,0.0,-0.4441888332366943,0.782944917678833
-0.0144632337614893,1.3201969861984253,-0.1134090051054954,-0.4226284623146057,-0.0229123421013355,-0.1012716516852378,0.0,0.0,0.1936267614364624,-0.3783727884292602
-0.0155886653810739,1.3108376264572144,-0.1076485738158226,-0.4160546362400055,-0.0277562793344259,-0.0968875363469123,0.0,0.0,-0.5089589357376099,0.1260600090026855
-0.0167140010744333,1.301055669784546,-0.1076133474707603,-0.4348479211330414,-0.0326251946389675,-0.0973871648311615,0.0,0.0,0.0424582958221435,-0.0128904581069946
-0.0177882201969623,1.2911853790283203,-0.1026844233274459,-0.4387932419776916,-0.0373134240508079,-0.0937729552388191,0.0,0.0,-0.8874872326850891,-0.4464726448059082
-0.0188620574772357,1.2808926105499268,-0.1026227474212646,-0.457584798336029,-0.0420270152390003,-0.0942803546786308,0.0,0.0,-0.5470814108848572,-0.192142367362976
-0.019935417920351,1.2701773643493652,-0.1025494560599327,-0.4763730466365814,-0.0467655174434185,-0.0947785973548889,0.0,0.0,-0.8445186018943787,-0.8981563448905945
-0.0210624691098928,1.2590538263320925,-0.1092876642942428,-0.4944837987422943,-0.0501509383320808,-0.0677148476243019,0.0,0.0,-0.1763435006141662,0.057285189628601
-0.0221889503300189,1.2475078105926514,-0.1092007309198379,-0.5132721066474915,-0.0535605400800704,-0.0681980475783348,0.0,0.0,-0.3055007457733154,-0.7886917591094971
-0.0233665462583303,1.235550880432129,-0.1156259626150131,-0.5314959287643433,-0.0556761100888252,-0.0423152111470699,0.0,0.0,-0.2843237519264221,-0.0857353806495666
-0.0245434753596782,1.2231714725494385,-0.1155306696891784,-0.5502833127975464,-0.0578127764165401,-0.0427371338009834,0.0,0.0,-0.1525673270225525,0.0472569465637207
-0.0257195476442575,1.210369348526001,-0.1154312863945961,-0.5690709352493286,-0.0599674545228481,-0.0430978052318096,0.0,0.0,-0.3418842554092407,-0.3749064207077026
-0.0268948562443256,1.1971445083618164,-0.1153294295072555,-0.5878585577011108,-0.0621378868818283,-0.0434124879539012,0.0,0.0,-0.4233908653259277,0.2921050786972046
-0.0280691143125295,1.1834970712661743,-0.1152270659804344,-0.6066462993621826,-0.0643210485577583,-0.0436672680079937,0.0,0.0,0.5496045351028442,-0.7925019264221191
-0.0292140003293752,1.1698555946350098,-0.1139862760901451,-0.6063157320022583,-0.0648172348737716,-0.00992445461452,0.0,0.0,-0.3165727853775024,-0.6040029525756836
-0.0304167754948139,1.1557984352111816,-0.1212803572416305,-0.6247121691703796,-0.0638337954878807,0.0196707360446453,0.0,0.0,-0.001683235168457,-0.0282566547393798
-0.0316197387874126,1.1412973403930664,-0.121285855770111,-0.6444493532180786,-0.0628518164157867,0.0196394063532352,0.0,0.0,0.171614408493042,-0.4580044746398926
-0.0327867493033409,1.1271448135375977,-0.1177088841795921,-0.6289687752723694,-0.0618542805314064,0.0199507754296064,0.0,0.0,-0.4269336462020874,0.0864819288253784
-0.0339529998600482,1.1125693321228027,-0.1176344156265258,-0.6477536559104919,-0.0608486644923687,0.0201122500002384,0.0,0.0,-0.3118289709091186,0.5175353288650513
-0.0350861549377441,1.097572684288025,-0.1135338097810745,-0.6665120720863342,-0.0606356002390384,0.0042612426914274,0.0,0.0,-0.4387678503990173,-0.3998724222183227
-0.0362186431884765,1.0821532011032104,-0.1134793758392334,-0.6852967739105225,-0.0604032985866069,0.0046460460871458,0.0,0.0,0.5221637487411499,-0.1628995537757873
-0.0372860915958881,1.067477464675903,-0.1070860847830772,-0.652240514755249,-0.0600659251213073,0.0067474329844117,0.0,0.0,-0.7162946462631226,-0.3086534142494201
-0.0383529663085937,1.052379131317139,-0.1070581823587417,-0.6710252165794373,-0.0596966482698917,0.0073854909278452,0.0,0.0,-0.3348480463027954,0.642647385597229
-0.0393752083182334,1.0368599891662598,-0.1015252619981765,-0.6897611618041992,-0.0603910908102989,-0.0138889579102396,0.0,0.0,-0.5120908617973328,-0.4162192344665527
-0.0403970703482627,1.020918369293213,-0.1015302687883377,-0.7085458040237427,-0.0610395371913909,-0.0129688931629061,0.0,0.0,-0.6709387302398682,-0.8949245810508728
-0.0414873138070106,1.0045621395111084,-0.1101765036582946,-0.7268960475921631,-0.0599008575081825,0.0227737706154584,0.0,0.0,0.2065587043762207,-0.6231042146682739
-0.042578600347042,0.9886180758476256,-0.1116196736693382,-0.7085266709327698,-0.0574355609714984,0.0493059158325195,0.0,0.0,0.069797396659851,0.0056784152984619
-0.0436697974801063,0.9726943373680116,-0.1116095408797264,-0.707627534866333,-0.0549792349338531,0.0491265170276165,0.0,0.0,-0.6320511698722839,-0.5570482611656189
-0.044802188873291,0.9563557505607604,-0.1168572530150413,-0.7260324358940125,-0.0514054410159587,0.0714761167764663,0.0,0.0,-0.4264663457870483,0.2843033075332641
-0.0459348671138286,0.939594566822052,-0.1169719845056533,-0.7448179721832275,-0.0477446876466274,0.0732151046395301,0.0,0.0,0.0455825328826904,0.4975005388259887
-0.0470316894352436,0.9229859113693236,-0.1135730743408203,-0.7380402684211731,-0.0439052172005176,0.0767897218465805,0.0,0.0,0.1809333562850952,0.7639050483703613
-0.0481311790645122,0.906796932220459,-0.1123116761445999,-0.7194420695304871,-0.0415628217160701,0.046847578138113,0.0,0.0,-0.1896575689315796,0.0580000877380371
-0.049231432378292,0.8901854157447815,-0.1125098019838333,-0.7382269501686096,-0.039105549454689,0.04914540797472,0.0,0.0,-0.3657627701759338,0.4195444583892822
-0.0503326430916786,0.8731511831283569,-0.1127384901046752,-0.7570119500160217,-0.0365236140787601,0.0516387708485126,0.0,0.0,-0.6241178512573242,0.005133032798767
-0.0514351837337017,0.8556942343711853,-0.1129990667104721,-0.7757969498634338,-0.0338070318102836,0.0543317012488842,0.0,0.0,0.35081946849823,0.3119789361953735
-0.0525641441345214,0.8381774425506592,-0.1156437993049621,-0.7784675359725952,-0.0310993809252977,0.0541529729962348,0.0,0.0,0.269603967666626,0.8489439487457275
-0.0535795204341411,0.8206092119216919,-0.10275848954916,-0.7807843685150146,-0.0298917181789875,0.0241533033549785,0.0,0.0,-0.0898849964141845,0.4828062057495117
-0.0545968040823936,0.8026183843612671,-0.1031219139695167,-0.7995690107345581,-0.0285184755921363,0.0274647884070873,0.0,0.0,0.6609225273132324,0.3705582618713379
-0.0557053573429584,0.7854663729667664,-0.111894391477108,-0.7622907757759094,-0.0274918116629123,0.0205334518104791,0.0,0.0,0.1674737930297851,0.2795571088790893
-0.0568947792053222,0.7687307000160217,-0.1197317019104957,-0.7437964081764221,-0.0267120320349931,0.0155955227091908,0.0,0.0,0.303139328956604,0.2064671516418457
-0.0580929741263389,0.7521743774414062,-0.1207251548767089,-0.7358160614967346,-0.0258119367063045,0.0180018041282892,0.0,0.0,-0.4377004504203796,0.4988226890563965
-0.0592941269278526,0.735195517539978,-0.1212403029203414,-0.7546005249023438,-0.0247035082429647,0.022168505936861,0.0,0.0,0.7055642604827881,0.9141759872436525
-0.0604737289249897,0.7189401984214783,-0.1173610538244247,-0.7224699854850769,-0.0252947863191366,-0.0118255075067281,0.0,0.0,-0.6143386363983154,0.4848885536193847
-0.0616569519042968,0.7022621035575867,-0.1179570779204368,-0.7412543892860413,-0.025656085461378,-0.0072261639870703,0.0,0.0,-0.1708634495735168,0.4230847358703613
-0.0628441795706749,0.6851612329483032,-0.1185944825410842,-0.7600386738777161,-0.0257766228169202,-0.0024109168443828,0.0,0.0,0.7376551628112793,0.3502553701400757
-0.0638656616210937,0.6684006452560425,-0.1030180007219314,-0.7449038028717041,-0.0249207112938165,0.0171181298792362,0.0,0.0,0.372880220413208,0.4585433006286621
-0.0649613365530967,0.6518072485923767,-0.1103284806013107,-0.7374670505523682,-0.024169897660613,0.0150164542719721,0.0,0.0,0.3824964761734009,0.7153840065002441
-0.0659016594290733,0.6357925534248352,-0.0937615633010864,-0.7117640972137451,-0.0244267228990793,-0.0051367711275815,0.0,0.0,0.2120260000228881,0.3403308391571045
-0.0667337402701377,0.6200935244560242,-0.0837118476629257,-0.6977300643920898,-0.0239319019019603,0.0098962103947997,0.0,0.0,-0.3990936279296875,0.4289896488189697
-0.0675713568925857,0.6039716601371765,-0.0845624357461929,-0.7165144085884094,-0.0231433790177106,0.0157706849277019,0.0,0.0,0.44940185546875,0.8005063533782959
-0.0684102997183799,0.5884682536125183,-0.0832729563117027,-0.6890518665313721,-0.0237501170486211,-0.0121351396664977,0.0,0.0,0.0281904935836792,0.895925760269165
-0.0691412910819053,0.5728760361671448,-0.0709885582327842,-0.6930229663848877,-0.025829454883933,-0.0415867157280445,0.0,0.0,0.4665449857711792,0.5096613168716431
-0.0699178725481033,0.5577995777130127,-0.0746185481548309,-0.6701213121414185,-0.0288412533700466,-0.0602360889315605,0.0,0.0,-0.577921986579895,0.7141180038452148
-0.0706333145499229,0.5422957539558411,-0.0671033710241317,-0.6891505718231201,-0.0332312248647213,-0.0877996683120727,0.0,0.0,0.3224530220031738,0.3985655307769775
-0.0713209137320518,0.5271039605140686,-0.0647405833005905,-0.6752850413322449,-0.0371906943619251,-0.0791894793510437,0.0,0.0,0.7270920276641846,0.6347194910049438
-0.0719413757324218,0.5121097564697266,-0.0571420900523662,-0.66653972864151,-0.0420394763350486,-0.0969758406281471,0.0,0.0,0.3839329481124878,0.8064098358154297
-0.0726018920540809,0.4974388480186462,-0.0597278550267219,-0.6522303223609924,-0.0482808239758014,-0.1248269900679588,0.0,0.0,0.0174362659454345,-0.2488932013511657
-0.0732317939400672,0.4831341505050659,-0.057115614414215,-0.6359629034996033,-0.0540905632078647,-0.1161949038505554,0.0,0.0,-0.4974263906478882,-0.0393192768096923
-0.0738701820373535,0.4684070348739624,-0.0583481378853321,-0.6547489166259766,-0.0595212504267692,-0.1086133494973182,0.0,0.0,0.0074936151504516,0.7653608322143555
-0.0744063407182693,0.4540386199951172,-0.0469918549060821,-0.6388742923736572,-0.0660781934857368,-0.1311388313770294,0.0,0.0,0.4745880365371704,-0.8241612315177917
-0.0750829726457595,0.4398921728134155,-0.0629589632153511,-0.628946840763092,-0.0707319304347038,-0.0930747762322425,0.0,0.0,-0.1708241701126098,-0.614570140838623
-0.0758248344063758,0.4253312647342682,-0.0713130384683609,-0.6472861170768738,-0.0735714510083198,-0.0567904897034168,0.0,0.0,0.9469470977783204,0.202389121055603
-0.0764863044023513,0.4114406406879425,-0.0638622194528579,-0.6174769997596741,-0.0758324563503265,-0.0452200174331665,0.0,0.0,0.9361782073974608,0.657217264175415
-0.0771922096610069,0.3986271917819977,-0.0669819116592407,-0.5696738362312317,-0.0794006884098053,-0.0713645666837692,0.0,0.0,-0.5842729210853577,-0.2158549427986145
-0.077908419072628,0.3853907585144043,-0.0684435591101646,-0.5884569883346558,-0.0825438126921653,-0.0628624260425567,0.0,0.0,-0.173923909664154,-0.1703084707260131
-0.0786352157592773,0.3717312812805176,-0.0699402838945388,-0.6072396039962769,-0.0852551013231277,-0.0542259700596332,0.0,0.0,0.9448354244232178,0.4363536834716797
-0.0792604461312294,0.3582104444503784,-0.0606092996895313,-0.6010374426841736,-0.0871578752994537,-0.0380553305149078,0.0,0.0,0.980238914489746,0.325589656829834
-0.079899214208126,0.3448792994022369,-0.0622267834842205,-0.5925905108451843,-0.0887914448976516,-0.0326713360846042,0.0,0.0,0.7928558588027954,-0.7367483973503113
-0.0805405601859092,0.3324267864227295,-0.0643981471657753,-0.5534304976463318,-0.0885262265801429,0.0053043509833514,0.0,0.0,-0.0719039440155029,0.5728201866149902
-0.0811420455574989,0.319549947977066,-0.0595723874866962,-0.5723384618759155,-0.0890964791178703,-0.0114050060510635,0.0,0.0,0.6141695976257324,0.6005992889404297
-0.0817546844482421,0.3074584901332855,-0.05966068059206,-0.5374952554702759,-0.0906846150755882,-0.0317629799246788,0.0,0.0,0.386298656463623,0.39551842212677
-0.0824624076485633,0.295373797416687,-0.0691339969635009,-0.5371994376182556,-0.0923087745904922,-0.0324830003082752,0.0,0.0,0.0754792690277099,-0.0472119450569152
-0.083108901977539,0.2836308181285858,-0.0636098459362983,-0.5219752192497253,-0.0933403968811035,-0.0206325538456439,0.0,0.0,-0.3108601570129394,0.2313804626464843
-0.0837679877877235,0.2714645862579345,-0.0653496459126472,-0.5407564043998718,-0.0938964560627937,-0.0111209619790315,0.0,0.0,-0.0793195962905883,-0.0198959708213806
-0.0844399482011795,0.258875161409378,-0.0671148896217346,-0.5595375895500183,-0.0939726680517196,-0.0015243388479575,0.0,0.0,0.8026022911071777,-0.2410039901733398
-0.0850662216544151,0.2470036298036575,-0.0629812255501747,-0.5276017189025879,-0.093625470995903,0.0069442936219275,0.0,0.0,0.4799193143844604,0.5489908456802368
-0.0855297073721885,0.2354692816734314,-0.046293381601572,-0.5126398801803589,-0.0936820581555366,-0.0011316942982375,0.0,0.0,0.6626855134963989,0.0874148607254028
-0.0859506577253341,0.2240228205919265,-0.0426409654319286,-0.5086974501609802,-0.0931372940540313,0.0108954636380076,0.0,0.0,0.7763218879699707,0.1465208530426025
-0.0862455368041992,0.2127857953310012,-0.0310038216412067,-0.4993323683738708,-0.0916369259357452,0.0300075318664312,0.0,0.0,0.7022206783294678,0.5793702602386475
-0.0862925499677658,0.2019754946231842,-0.0059778993017971,-0.4803795218467712,-0.09037496894598,0.0252393297851085,0.0,0.0,0.7877206802368164,0.3880014419555664
-0.0861647576093673,0.1913591772317886,0.0102992272004485,-0.4716914296150207,-0.0879152715206146,0.0491936728358268,0.0,0.0,0.6871228218078613,0.0161858797073364
-0.0859893783926963,0.1814666837453842,0.0145756173878908,-0.4394935369491577,-0.0849799662828445,0.0587060824036598,0.0,0.0,0.1927456855773925,0.1544698476791381
-0.0857594460248947,0.1719668060541153,0.0194178242236375,-0.422019213438034,-0.081436663866043,0.0708662196993827,0.0,0.0,0.1234474182128906,0.0933835506439209
-0.0854225158691406,0.1627116799354553,0.0292094703763723,-0.411099374294281,-0.0769949480891227,0.0888343602418899,0.0,0.0,-0.2614951133728027,0.6244802474975586
-0.0850428566336631,0.1530203968286514,0.0344345942139625,-0.430544912815094,-0.0734986662864685,0.0699255391955375,0.0,0.0,0.5844968557357788,-0.595028817653656
-0.0847432166337966,0.1436463147401809,0.0248442124575376,-0.4163821637630462,-0.0684377402067184,0.1012184172868728,0.0,0.0,0.4657663106918335,0.6689834594726562
-0.0842704772949218,0.1349890083074569,0.0428311452269554,-0.3845723569393158,-0.0640354752540588,0.0880454331636428,0.0,0.0,0.2855885028839111,0.0082759857177734
-0.0838022232055664,0.1265735924243927,0.0419434979557991,-0.3738184869289398,-0.0592048577964305,0.0966122671961784,0.0,0.0,-0.1037171483039856,0.5736269950866699
-0.0833126083016395,0.1177373975515365,0.0444674231112003,-0.3925484716892242,-0.0547658838331699,0.0887797772884368,0.0,0.0,0.8041036128997803,0.5598294734954834
-0.0826505646109581,0.1096105873584747,0.0620328895747661,-0.3610438108444214,-0.0506482049822807,0.0823534876108169,0.0,0.0,0.3120292425155639,0.3565258979797363
-0.0820158943533897,0.1019568517804145,0.0589781999588012,-0.3400207161903381,-0.0462132133543491,0.0886997953057289,0.0,0.0,0.1682866811752319,-0.112147033214569
-0.0814303383231163,0.094677910208702,0.0538223385810852,-0.3233711421489715,-0.0415347516536712,0.0935693457722663,0.0,0.0,0.1755324602127075,0.7027442455291748
-0.0808096900582313,0.0875026807188987,0.058246724307537,-0.318797618150711,-0.0377649366855621,0.0753962844610214,0.0,0.0,0.0676919221878051,0.7145951986312866
-0.0802193656563758,0.0804895982146263,0.0562074296176433,-0.3116213977336883,-0.034976452589035,0.0557696111500263,0.0,0.0,0.1928083896636963,0.666885256767273
-0.0797000899910926,0.0736227110028266,0.0500923879444599,-0.3051526844501495,-0.0331730060279369,0.0360692776739597,0.0,0.0,0.4052355289459228,0.5679639577865601
-0.0790329948067665,0.0672456324100494,0.0652855783700943,-0.2833978831768036,-0.0317689552903175,0.0280809290707111,0.0,0.0,-0.2768272757530212,0.2268768548965454
-0.0783813446760177,0.0604456290602684,0.0632284283638,-0.302181601524353,-0.0298541560769081,0.0382958687841892,0.0,0.0,0.4388269186019897,-0.0177704691886901
-0.0775989517569542,0.0542133897542953,0.0751902014017105,-0.2769301831722259,-0.0268457680940628,0.0601677596569061,0.0,0.0,0.3926411867141723,-0.1648389101028442
-0.0768338218331337,0.0485401265323162,0.0730509385466575,-0.2520883679389953,-0.0234190803021192,0.0685336962342262,0.0,0.0,0.0468682050704956,0.4938085079193115
-0.0759809464216232,0.0432529561221599,0.0808763653039932,-0.2349208891391754,-0.0190687011927366,0.0870076864957809,0.0,0.0,-0.0900186896324157,0.9779114723205566
-0.0750563591718673,0.037540778517723,0.0897566601634025,-0.2538416683673858,-0.0164064113050699,0.0532459244132041,0.0,0.0,0.6474735736846924,0.5420546531677246
-0.0740985870361328,0.0326315499842166,0.0936769023537635,-0.2181650996208191,-0.0143417371436953,0.041293766349554,0.0,0.0,0.2803020477294922,0.5905179977416992
-0.0730490684509277,0.0282181352376937,0.1034404262900352,-0.1961395293474197,-0.0128544941544532,0.0297450479120016,0.0,0.0,-0.0442478060722351,0.8728921413421631
-0.0719368010759353,0.0233760699629783,0.1112145185470581,-0.215201660990715,-0.0128413811326026,0.0002622081374283,0.0,0.0,0.3763835430145263,-0.2872731685638428
-0.0709352493286132,0.0188858360052108,0.1001226529479026,-0.1995650827884674,-0.0128091117367148,0.0006453589303418,0.0,0.0,0.1270825862884521,0.290969967842102
-0.0700322166085243,0.0145013192668557,0.0901908501982688,-0.1948687732219696,-0.0126954512670636,0.0022733621299266,0.0,0.0,0.1706911325454712,0.4551723003387451
-0.0691547393798828,0.0102933980524539,0.0872158482670784,-0.1870128661394119,-0.0121703250333666,0.0105025684460997,0.0,0.0,0.2927501201629638,0.2655404806137085
-0.0682671517133712,0.0062885023653507,0.0876415893435478,-0.1779878437519073,-0.0110739711672067,0.0219273157417774,0.0,0.0,0.6742148399353027,0.7295428514480591
-0.0671883597970008,0.0023973679635673,0.1074593216180801,-0.1729345470666885,-0.0106590697541832,0.008297779597342,0.0,0.0,0.6931537389755249,0.5110023021697998
-0.0659704208374023,-0.0008654498960822,0.1216268986463546,-0.1450132429599762,-0.0104963835328817,0.0032537416554987,0.0,0.0,0.0689046382904052,0.2261546850204467
-0.064654067158699,-0.0031406783964484,0.1136690229177475,-0.101104162633419,0.0072959866374731,0.3559232950210571,1.0,1.0,0.5277004241943359,-0.6749363541603088
