x_pos,y_pos,x_vel,y_vel,angle,ang_vel,leg_1,leg_2,main_booster,lat_booster
-0.0015098571311682,1.40338397026062,-0.1524847447872162,-0.3349388539791107,0.0013384175254032,0.0263700969517231,0.0,0.0,-0.1686952114105224,0.9473146200180054
-0.0029223442543298,1.3956260681152344,-0.1400837153196334,-0.3447955846786499,0.0001837366144172,-0.0230952389538288,0.0,0.0,0.107700228691101,0.5402880907058716
-0.0041740415617823,1.3880295753479004,-0.1226807832717895,-0.3376221358776092,-0.0022697972599416,-0.0490755513310432,0.0,0.0,-0.0748469233512878,-0.1826481819152832
-0.0054034232161939,1.380192518234253,-0.1200270280241966,-0.3483179807662964,-0.0051488149911165,-0.057585846632719,0.0,0.0,-0.1140835881233215,-0.1035432815551757
-0.006607913877815,1.3721152544021606,-0.1171147599816322,-0.3590058088302612,-0.0084541095420718,-0.0661116987466812,0.0,0.0,-0.2482364177703857,0.0736352205276489
-0.0077851293608546,1.363797664642334,-0.1139545291662216,-0.369694173336029,-0.012186212465167,-0.0746487751603126,0.0,0.0,-0.0599755048751831,-0.2189823985099792
-0.0089327814057469,1.355239987373352,-0.1105566397309303,-0.3803838491439819,-0.0163457207381725,-0.0831979289650917,0.0,0.0,-0.2262110710144043,-0.2547612190246582
-0.0100485803559422,1.3464419841766355,-0.1069320440292358,-0.3910738825798034,-0.0209331549704074,-0.0917572602629661,0.0,0.0,-0.1234978437423706,-0.480868935585022
-0.0111301420256495,1.3374040126800537,-0.1030913740396499,-0.4017644226551056,-0.0259489063173532,-0.1003241539001464,0.0,0.0,-0.7751843333244324,-0.2778281569480896
-0.0121756549924612,1.3281261920928955,-0.0990453511476516,-0.4124554991722107,-0.0313932113349437,-0.1088963523507118,0.0,0.0,-0.117073655128479,-0.3385619521141052
-0.0131831169128417,1.3186084032058716,-0.0948043838143348,-0.4231471419334411,-0.0372662357985973,-0.117471233010292,0.0,0.0,-0.5049514174461365,-0.1773697733879089
-0.0141506195068359,1.3088510036468506,-0.0903788954019546,-0.4338394999504089,-0.0435679480433464,-0.1260458081960678,0.0,0.0,-0.6910020709037781,-0.4581969976425171
-0.0150764463469386,1.2988537549972534,-0.0857792347669601,-0.4445326030254364,-0.0502981655299663,-0.1346170008182525,0.0,0.0,-0.6671786308288574,-0.6587510704994202
-0.0160051342099905,1.288614273071289,-0.0868002995848655,-0.4553055465221405,-0.0563002340495586,-0.1200522184371948,0.0,0.0,-0.6674599051475525,-0.6946605443954468
-0.0169304851442575,1.2781457901000977,-0.087117850780487,-0.4654819369316101,-0.0616728030145168,-0.1074615269899368,0.0,0.0,-0.7199453711509705,-0.7547245025634766
-0.0178586952388286,1.2674331665039062,-0.088200606405735,-0.4763174653053283,-0.0662485659122467,-0.0915232822299003,0.0,0.0,-0.8395667672157288,-0.1655871868133545
-0.0187393184751272,1.2564805746078491,-0.0830145105719566,-0.4870102107524872,-0.0712511613965034,-0.1000610813498497,0.0,0.0,-0.7668321132659912,-0.513060986995697
-0.0196022037416696,1.2452874183654783,-0.0815953761339187,-0.4977127611637115,-0.0759012401103973,-0.0930100604891777,0.0,0.0,-0.9206125736236572,-0.9110638499259948
-0.0204747207462787,1.2338696718215942,-0.0836787074804306,-0.5076422691345215,-0.0794538185000419,-0.0710576400160789,0.0,0.0,-0.5392149090766907,-0.7893421649932861
-0.0213668830692768,1.222219944000244,-0.0869972929358482,-0.5178826451301575,-0.0816493406891822,-0.043914295732975,0.0,0.0,-0.5514037609100342,-0.6286137700080872
-0.0222457889467477,1.2103395462036133,-0.0862501412630081,-0.5281041264533997,-0.0832788720726966,-0.0325936451554298,0.0,0.0,-0.948066234588623,-0.7447713017463684
-0.023129653185606,1.1982221603393557,-0.0877860337495803,-0.5385814905166626,-0.0838749036192894,-0.0119216265156865,0.0,0.0,-0.7196857929229736,-0.621999979019165
-0.023998450487852,1.1858688592910769,-0.0868338868021965,-0.5490409135818481,-0.0839164331555366,-0.0008304637740366,0.0,0.0,-0.6458843946456909,-0.3633317351341247
-0.024812888354063,1.1732754707336426,-0.0809838622808456,-0.5597325563430786,-0.0843715518712997,-0.0091031268239021,0.0,0.0,-0.8525131344795227,-0.7455027103424072
-0.0256447792053222,1.160453200340271,-0.0841717645525932,-0.5698192119598389,-0.0834006890654563,0.0194191075861454,0.0,0.0,-0.4109735488891601,-0.6100308299064636
-0.0264819152653217,1.1473803520202637,-0.0858066007494926,-0.5809000730514526,-0.081326313316822,0.0414878390729427,0.0,0.0,-0.90207839012146,-0.6323317289352417
-0.0273122787475585,1.134077548980713,-0.0859912931919097,-0.5910770893096924,-0.0784009844064712,0.0585067085921764,0.0,0.0,-0.8087988495826721,0.772193193435669
-0.0280379299074411,1.120537281036377,-0.0739137083292007,-0.6017252206802368,-0.0770743787288665,0.0265324525535106,0.0,0.0,-0.8870311379432678,0.2469401359558105
-0.0287068374454975,1.1067568063735962,-0.0678331106901168,-0.6124144792556763,-0.0761387199163436,0.0187132451683282,0.0,0.0,-0.7975686192512512,-0.4746944904327392
-0.0293186195194721,1.0927363634109497,-0.0617297105491161,-0.623103678226471,-0.0755877420306205,0.0110193779692053,0.0,0.0,-0.7146120667457581,-0.3221291303634643
-0.0298729892820119,1.0784759521484375,-0.0556108839809894,-0.6337926983833313,-0.0754145830869674,0.0034633844625204,0.0,0.0,-0.5680419206619263,-0.2713243961334228
-0.030369758605957,1.063975214958191,-0.0494838505983352,-0.6444816589355469,-0.0756116807460784,-0.0039420323446393,0.0,0.0,-0.9519762992858888,-0.9386871457099916
-0.0308927539736032,1.049252986907959,-0.0538799539208412,-0.6542461514472961,-0.0740427300333976,0.0313786678016185,0.0,0.0,-0.9583959579467772,-0.0634528994560241
-0.0313580520451068,1.0342905521392822,-0.0477577522397041,-0.6649351716041565,-0.0728268548846244,0.0243174321949481,0.0,0.0,-0.8709658980369568,-0.5285052061080933
-0.0318062789738178,1.019093632698059,-0.0467355176806449,-0.6753275394439697,-0.0709300637245178,0.0379356555640697,0.0,0.0,-0.951473832130432,0.0352482795715332
-0.0321969985961914,1.0036566257476809,-0.0406456850469112,-0.6860164403915405,-0.0693660825490951,0.0312797203660011,0.0,0.0,-0.6716787219047546,-0.432598352432251
-0.0325302109122276,0.9879794716835022,-0.0345820933580398,-0.696705162525177,-0.0681235343217849,0.0248511042445898,0.0,0.0,-0.9286847114562988,-0.8311479687690735
-0.0328675284981727,0.9720747470855712,-0.0362356379628181,-0.7067591547966003,-0.0656384825706482,0.0497007854282856,0.0,0.0,-0.9228084683418274,0.3057444095611572
-0.0331478118896484,0.95592999458313,-0.03024423122406,-0.7174479365348816,-0.0634495541453361,0.0437786914408206,0.0,0.0,-0.8598945736885071,-0.3698608875274658
-0.0333714485168457,0.939545214176178,-0.024298520758748,-0.728136420249939,-0.061542734503746,0.0381365753710269,0.0,0.0,-0.6457073092460632,0.4865889549255371
-0.0335390083491802,0.9229201078414916,-0.0184047985821962,-0.738824725151062,-0.0599031150341033,0.032792329788208,0.0,0.0,-0.6368187069892883,0.2996492385864258
-0.0336505882441997,0.90605491399765,-0.0125692607834935,-0.7495128512382507,-0.0585149340331554,0.0277637578547,0.0,0.0,-0.8296148777008057,-0.4261138439178467
-0.0337069518864154,0.8889493346214294,-0.0067979963496327,-0.7602007389068604,-0.0573615133762359,0.0230683237314224,0.0,0.0,-0.5958263874053955,-0.0133634209632873
-0.0337084755301475,0.8716036677360535,-0.0010969915892928,-0.7708885073661804,-0.0564253591001033,0.0187231339514255,0.0,0.0,-0.5710497498512268,-0.7973688244819641
-0.0337233543395996,0.8540139198303223,-0.0039458516985177,-0.7816780209541321,-0.0539960712194442,0.0485857091844081,0.0,0.0,-0.4189394116401672,0.1213558912277221
-0.0336847305297851,0.8361839056015015,0.0015970964450389,-0.7923659086227417,-0.0517466701567173,0.0449879243969917,0.0,0.0,0.1438177824020385,0.8567087650299072
-0.0334604270756244,0.8185632824897766,0.0220141895115375,-0.7831250429153442,-0.0513404496014118,0.0081241074949502,0.0,0.0,-0.2323882579803466,-0.3361226320266723
-0.0331839546561241,0.8007022142410278,0.0273766368627548,-0.7938122153282166,-0.0510740354657173,0.0053282040171325,0.0,0.0,-0.5620098114013672,-0.35711669921875
-0.0328560844063758,0.7826008200645447,0.03264070302248,-0.8044994473457336,-0.0509265661239624,0.002949571236968,0.0,0.0,-0.6390412449836731,0.0367730855941772
-0.0324774757027626,0.7642590403556824,0.0378011874854564,-0.8151864409446716,-0.0508767403662204,0.0009963811608031,0.0,0.0,-0.426347017288208,-0.3966081142425537
-0.0320492759346962,0.7456768751144409,0.0428530387580394,-0.8258733749389648,-0.0509029850363731,-0.0005252531846053,0.0,0.0,-0.7065765261650085,-0.3825193643569946
-0.0315722450613975,0.7268543243408203,0.0477913841605186,-0.8365602493286133,-0.0509835593402385,-0.0016116130864247,0.0,0.0,-0.0225421786308288,-0.1774057149887085
-0.031047249212861,0.7077913284301758,0.052611518651247,-0.8472470045089722,-0.0510966330766677,-0.0022614311892539,0.0,0.0,-0.5172779560089111,-0.6366041898727417
-0.0305252075195312,0.6884976029396057,0.0510496124625206,-0.8574588298797607,-0.0499593280255794,0.0227460917085409,0.0,0.0,-0.4810280799865722,0.0987743139266967
-0.0299573894590139,0.6689635515213013,0.0556200258433818,-0.8681455254554749,-0.0488111190497875,0.0229643229395151,0.0,0.0,0.4736685752868652,-0.1316534280776977
-0.0294095035642385,0.649824857711792,0.0539974197745323,-0.8505812883377075,-0.0480248890817165,0.0157245025038719,0.0,0.0,0.0113804340362548,-0.2114037275314331
-0.0287369731813669,0.6311727166175842,0.0661250427365303,-0.828954815864563,-0.046919222921133,0.02211344987154,0.0,0.0,-0.2811083793640136,-0.4007941484451294
-0.0280220992863178,0.6122799515724182,0.0702908784151077,-0.839641273021698,-0.0457398630678653,0.0235874392092227,0.0,0.0,-0.0061288475990295,-0.7212941646575928
-0.0273158065974712,0.5931575894355774,0.0680706426501274,-0.8498064875602722,-0.0432086586952209,0.0506240651011467,0.0,0.0,-0.0131517052650451,0.2450469732284546
-0.0265695564448833,0.5737947821617126,0.0719494596123695,-0.8604931235313416,-0.0405645184218883,0.0528824925422668,0.0,0.0,0.8711473941802979,-0.8959903717041016
-0.0257747657597064,0.5548128485679626,0.0747498497366905,-0.8435176610946655,-0.0358908846974372,0.0934728309512138,0.0,0.0,0.8264260292053223,-0.1000914573669433
-0.0250255577266216,0.536759078502655,0.0705561637878418,-0.8022912740707397,-0.0315806381404399,0.0862048789858818,0.0,0.0,0.3469669818878174,0.14272141456604
-0.0241264346987009,0.5190925002098083,0.0849097967147827,-0.7850854396820068,-0.0266380831599235,0.0988510698080062,0.0,0.0,0.069193959236145,-0.3967676162719726
-0.0231669433414936,0.5017798542976379,0.0906938686966896,-0.7693639993667603,-0.0214421860873699,0.1039177402853965,0.0,0.0,0.3054412603378296,-0.226566731929779
-0.0221611969172954,0.4847019910812378,0.0950797274708747,-0.7589501738548279,-0.0160194467753171,0.1084548085927963,0.0,0.0,0.0121864080429077,0.0429304838180542
-0.0211936943233013,0.4679288268089294,0.0913921818137168,-0.7454253435134888,-0.0107345934957265,0.1056969165802002,0.0,0.0,0.1103557348251342,-0.3378504514694214
-0.0201753620058298,0.4517779946327209,0.0961871147155761,-0.7177819609642029,-0.0051561957225203,0.1115680560469627,0.0,0.0,-0.2980554103851318,-0.1525023579597473
-0.0191281326115131,0.4353871941566467,0.0988283082842826,-0.728471040725708,0.0006620784988626,0.116365410387516,0.0,0.0,0.8226211071014404,0.0899504423141479
-0.0180242545902729,0.4201691150665283,0.1040928959846496,-0.6763743162155151,0.0068704504519701,0.1241674199700355,0.0,0.0,-0.127158522605896,-0.4119229316711426
-0.0168946273624897,0.4047111570835113,0.1064147725701332,-0.6870643496513367,0.0133425323292613,0.1294416189193725,0.0,0.0,0.078423261642456,0.2552980184555053
-0.0158063881099224,0.3896751403808594,0.1022764891386032,-0.6683424115180969,0.0198118947446346,0.129387155175209,0.0,0.0,0.0020118951797485,0.0528994798660278
-0.0146839143708348,0.3749659061431885,0.1053119152784347,-0.6538509130477905,0.0266522131860256,0.1368065774440765,0.0,0.0,0.1160200834274292,0.6440422534942627
-0.0136023517698049,0.3608775734901428,0.1023615226149559,-0.6262611746788025,0.0323764905333519,0.1144855394959449,0.0,0.0,-0.594336986541748,-0.0530849695205688
-0.0125007629394531,0.3465493619441986,0.104051649570465,-0.6369513869285583,0.038403745740652,0.1205452904105186,0.0,0.0,0.369558572769165,-0.1100391745567321
-0.0114211086183786,0.3324657678604126,0.1016815528273582,-0.6261128187179565,0.0446129739284515,0.1241844519972801,0.0,0.0,0.5299566984176636,0.690420389175415
-0.0102139469236135,0.318594366312027,0.1153633594512939,-0.6166743040084839,0.0499048270285129,0.1058371886610984,0.0,0.0,0.2656618356704712,0.2734808921813965
-0.0090283397585153,0.3048708438873291,0.1129956990480423,-0.6101276278495789,0.0554108098149299,0.1101196184754371,0.0,0.0,0.5722206830978394,0.0840563774108886
-0.0078782085329294,0.2920374274253845,0.109145738184452,-0.5706018209457397,0.0612127445638179,0.1160387173295021,0.0,0.0,0.2364901304244995,0.4294909238815307
-0.0066926954314112,0.2798839509487152,0.1120533123612403,-0.5404335856437683,0.067630685865879,0.1283591091632843,0.0,0.0,-0.0202968120574951,0.4908134937286377
-0.0054958341643214,0.2674909234046936,0.1128539890050888,-0.551125705242157,0.0743933469057083,0.1352533251047134,0.0,0.0,0.1987680196762085,0.3774272203445434
-0.0044002532958984,0.2552074193954468,0.1028084754943847,-0.5462838411331177,0.0810717940330505,0.133568987250328,0.0,0.0,0.3734381198883056,0.8265438079833984
-0.0032465935219079,0.243686705827713,0.1098944321274757,-0.5123381018638611,0.0865014493465423,0.1085931882262229,0.0,0.0,0.1274080276489257,0.2148408889770507
-0.0021880150306969,0.2325042635202407,0.1003379449248313,-0.4973255395889282,0.0919709131121635,0.1093892008066177,0.0,0.0,0.7135028839111328,0.6433298587799072
-0.0011982917785644,0.2221334129571914,0.094530239701271,-0.4612055420875549,0.0963749662041664,0.0880808979272842,0.0,0.0,0.6866518259048462,-0.8338115811347961
-0.0003514289855957,0.2125816643238067,0.0782295614480972,-0.4249536395072937,0.1027840375900268,0.1281814873218536,0.0,0.0,0.1196422576904296,-0.1076001524925232
0.0005179404979571,0.2033879905939102,0.0798305198550224,-0.40911465883255,0.1098380237817764,0.141079768538475,0.0,0.0,0.570131778717041,-0.3426995873451233
0.0013772010570392,0.1944437772035598,0.0783328339457511,-0.3980949521064758,0.1173711344599723,0.1506625413894653,0.0,0.0,0.6228071451187134,0.6209766864776611
0.0023392676375806,0.1858710795640945,0.089260458946228,-0.3815719783306122,0.1242755055427551,0.1380874067544937,0.0,0.0,0.3580129146575928,0.3142752647399902
0.0033641816116869,0.1777804046869278,0.0946129187941551,-0.3602627515792846,0.1321202516555786,0.1568948924541473,0.0,0.0,0.2839987277984619,-0.1383434534072876
0.0044564246200025,0.1699279695749282,0.1004518717527389,-0.3497956693172455,0.1408497244119644,0.174589529633522,0.0,0.0,-0.1926747560501098,0.3030958175659179
0.0055478094145655,0.1618369221687317,0.1000056713819503,-0.3604931533336639,0.1499651819467544,0.1823091208934784,0.0,0.0,0.4804060459136963,0.8716328144073486
0.0066345212981104,0.154544249176979,0.1008739694952964,-0.3249258399009704,0.1577603965997696,0.155904158949852,0.0,0.0,0.3638324737548828,-0.5693021416664124
0.0076987268403172,0.1478465944528579,0.0968519002199173,-0.2987169325351715,0.1673239767551422,0.1912713944911956,0.0,0.0,-0.2287936210632324,0.4413596391677856
0.0087599754333496,0.1409105360507965,0.0961871594190597,-0.3094165623188019,0.1772795617580413,0.1991118490695953,0.0,0.0,-0.6274757385253906,0.2404956817626953
0.0098176952451467,0.1337363868951797,0.0954631194472312,-0.3201171159744262,0.1876288205385208,0.2069850713014602,0.0,0.0,-0.3994568586349487,0.8639779090881348
0.0109466556459665,0.1263557970523834,0.1041746959090232,-0.3291504681110382,0.1963887065649032,0.1751975864171981,0.0,0.0,0.0719056129455566,0.5968031883239746
0.012028694152832,0.119288645684719,0.1003254503011703,-0.315161257982254,0.2043228447437286,0.1586834043264389,0.0,0.0,0.0779672861099243,-0.726242184638977
0.0128523828461766,0.112706147134304,0.0727452933788299,-0.2939117550849914,0.2140357941389084,0.1942590028047561,0.0,0.0,-0.3623661994934082,0.9286894798278807
0.0137522695586085,0.1059167236089706,0.0821053981781005,-0.3029145896434784,0.2220048457384109,0.1593810021877288,0.0,0.0,0.0948259830474853,0.671269416809082
0.0145490644499659,0.0996251925826072,0.0728012770414352,-0.2806751132011413,0.2289736419916153,0.1393759697675705,0.0,0.0,-0.1731669902801513,-0.3681068420410156
0.0153404232114553,0.0930951237678527,0.0718699470162391,-0.2913732528686523,0.236342579126358,0.1473791301250457,0.0,0.0,0.137454867362976,0.4910390377044678
0.0160293579101562,0.0868203938007354,0.0613171756267547,-0.2801060080528259,0.2440330386161804,0.1538091599941253,0.0,0.0,-0.1036186814308166,0.5007228851318359
0.0167433731257915,0.0803194344043731,0.0642610415816307,-0.2901378571987152,0.2513089478015899,0.1455182284116745,0.0,0.0,0.2022993564605713,0.3617811203002929
0.0172511097043752,0.0740929245948791,0.0437418445944786,-0.2779556214809418,0.2584797441959381,0.1434157192707061,0.0,0.0,0.4826457500457763,0.8363163471221924
0.0177546497434377,0.0686340928077697,0.044462863355875,-0.2436685264110565,0.2644979655742645,0.1203644424676895,0.0,0.0,-0.1941798329353332,0.8423125743865967
0.0183250419795513,0.0629581063985824,0.0525948107242584,-0.2530757784843445,0.2690455019474029,0.0909507870674133,0.0,0.0,0.6149970293045044,0.8620710372924805
0.0189091674983501,0.0582183226943016,0.0550646893680095,-0.2112776935100555,0.272477239370346,0.0686348602175712,0.0,0.0,-0.0053581595420837,0.1751298904418945
0.0194889064878225,0.0532396398484706,0.0542386993765831,-0.2219742834568023,0.2763102650642395,0.0766602605581283,0.0,0.0,0.1377811431884765,0.8236324787139893
0.0200741775333881,0.0489536151289939,0.0559831969439983,-0.1909741312265396,0.2789238095283508,0.0522705912590026,0.0,0.0,0.4497870206832886,0.7584741115570068
0.0206451416015625,0.0452176891267299,0.055552203208208,-0.1663400083780288,0.2805139422416687,0.0318028219044208,0.0,0.0,-0.149410605430603,0.3709611892700195
-999.0,0.0412427298724651,0.0548906438052654,-0.1770360767841339,0.2825038731098175,0.0397991724312305,0.0,0.0,0.3047597408294678,0.0539915561676025
0.0216524116694927,0.0379448980093002,0.0413492731750011,-0.1470617800951004,0.2851145565509796,0.052213579416275,0.0,0.0,-0.1366142630577087,0.0594136714935302
0.0220899581909179,0.0344083160161972,0.0408378131687641,-0.1577583104372024,0.2881234586238861,0.0601777508854866,0.0,0.0,-0.2584744095802307,0.3707635402679443
0.0225272178649902,0.0306329112499952,0.0404134020209312,-0.1684550940990448,0.2915295362472534,0.0681219175457954,0.0,0.0,0.379014253616333,0.6133978366851807
0.0227297786623239,0.0281699988991022,0.0353876128792762,-0.1065579131245613,0.2758698761463165,-0.3133275210857391,0.0,1.0,0.866549015045166,0.4728085994720459
0.0227221492677927,0.0264531709253788,0.0158092752099037,-0.0735024437308311,0.258389800786972,-0.3503622114658355,0.0,1.0,0.7782407999038696,0.546539306640625
0.022620391100645,0.0253726337105035,0.0087091326713562,-0.0448296815156936,0.2390996366739273,-0.3858733773231506,0.0,1.0,0.0944502353668212,0.2520898580551147
0.0225488655269145,0.0244303569197654,0.0112869525328278,-0.0389975644648075,0.220388576388359,-0.3742422461509704,0.0,1.0,-0.1184486150741577,0.3018003702163696
0.0224768631160259,0.0232523307204246,0.0113195748999714,-0.0497066564857959,0.2016816437244415,-0.3741526305675506,0.0,1.0,-0.0650263428688049,0.2846035957336426
0.0224122051149606,0.0218297578394413,0.0117277670651674,-0.0608463883399963,0.1833767890930175,-0.3660973012447357,0.0,1.0,0.2419494390487671,-0.197157621383667
0.0223512649536132,0.020530067384243,0.0119455931708216,-0.0556337721645832,0.1652934551239013,-0.3616666197776794,0.0,1.0,0.3674561977386474,0.2142223119735717
