x_pos,y_pos,x_vel,y_vel,angle,ang_vel,leg_1,leg_2,main_booster,lat_booster
-0.0016467093955725,1.403302550315857,-0.1668207794427871,-0.3385568559169769,0.001919810893014,0.0378819555044174,0.0,0.0,-0.586298406124115,0.8625168800354004
-0.0033417702652513,1.3953824043273926,-0.1695807129144668,-0.3520105481147766,0.0019956496544182,0.0015177454333752,0.0,0.0,-0.4063718914985657,0.1983180046081543
-0.0051561356522142,1.3871397972106934,-0.1815569698810577,-0.3663401007652282,0.0021186608355492,0.0024604070931673,0.0,0.0,-0.0666884779930114,0.7830820083618164
-0.0070377350784838,1.378572702407837,-0.1870666295289993,-0.3807546496391296,0.0010358478175476,-0.021658319979906,0.0,0.0,0.5424538850784302,0.8053784370422363
-0.0088365552946925,1.3705999851226809,-0.1774430572986602,-0.3543466031551361,-0.0013746070908382,-0.0482134781777858,0.0,0.0,0.0047223567962646,0.5991003513336182
-0.0106042865663766,1.3627995252609253,-0.1732965260744094,-0.3466943204402923,-0.0048206546343863,-0.0689273625612258,0.0,0.0,0.0939053297042846,0.7923591136932373
-0.0124326702207326,1.3552507162094116,-0.1777613162994384,-0.335531085729599,-0.0098361140117049,-0.1003183126449585,0.0,0.0,-0.4615712165832519,-0.7546021938323975
-0.0144094470888376,1.3473830223083496,-0.1937521398067474,-0.349707543849945,-0.0137234469875693,-0.0777535811066627,0.0,0.0,-0.4678577184677124,-0.2537752985954284
-0.0164861679077148,1.33919358253479,-0.2037446051836013,-0.3640128970146179,-0.0176174137741327,-0.0778862908482551,0.0,0.0,-0.6582674384117126,0.8972421884536743
-0.0185881610959768,1.3306865692138672,-0.2044493407011032,-0.3781757354736328,-0.0233006253838539,-0.1136746034026146,0.0,0.0,-0.5733303427696228,0.6021184921264648
-0.0207271575927734,1.3218564987182615,-0.2067488431930542,-0.3925715088844299,-0.0303697921335697,-0.1413963139057159,0.0,0.0,-0.3826999068260193,0.8180232048034668
-0.0228805541992187,1.3127003908157349,-0.2063272893428802,-0.4071398973464966,-0.0392822623252868,-0.1782657951116562,0.0,0.0,-0.7403126955032349,0.7922608852386475
-0.0250391010195016,1.3032232522964478,-0.2048747837543487,-0.421522319316864,-0.0501442775130271,-0.2172605246305465,0.0,0.0,-0.6032556295394897,0.2095199823379516
-0.0272731781005859,1.2934261560440063,-0.2123933732509613,-0.4358385801315307,-0.0610541217029094,-0.2182167023420334,0.0,0.0,-0.7389354705810547,0.3973286151885986
-0.0295770652592182,1.283308506011963,-0.2193243503570556,-0.4501551389694214,-0.072021298110485,-0.2193633764982223,0.0,0.0,0.0149925947189331,0.4976017475128174
-0.0318643562495708,1.2731366157531738,-0.2179234474897384,-0.4526369869709015,-0.0827373936772346,-0.2143415212631225,0.0,0.0,-0.6949236392974854,0.9568016529083252
-0.0341158881783485,1.2626444101333618,-0.2119230329990387,-0.4671047627925873,-0.0958618149161338,-0.2625122964382171,0.0,0.0,-0.2866649627685547,0.36461341381073
-0.0364177711308002,1.2518327236175537,-0.2168997973203659,-0.4814262688159942,-0.1090678721666336,-0.2641450762748718,0.0,0.0,-0.7042338848114014,0.7909319400787354
-0.0386904701590538,1.2406975030899048,-0.2120722830295562,-0.4960800111293793,-0.1241921186447143,-0.3025123178958893,0.0,0.0,-0.3890498280525207,-0.1305016875267028
-0.0409992225468158,1.2292433977127075,-0.2156111896038055,-0.5104086399078369,-0.1394154280424118,-0.3044935762882232,0.0,0.0,-0.4979833364486694,-0.1514061689376831
-0.0433366782963275,1.217470645904541,-0.2184015810489654,-0.5247384309768677,-0.1547475904226303,-0.3066708445549011,0.0,0.0,-0.2544453740119934,0.4280714988708496
-0.0456952080130577,1.2053794860839844,-0.2204266041517257,-0.5390693545341492,-0.1701968610286712,-0.3090132772922516,0.0,0.0,-0.490070104598999,-0.8085136413574219
-0.0481165871024131,1.1929807662963867,-0.2278890311717987,-0.552740216255188,-0.1845024079084396,-0.2861365675926208,0.0,0.0,0.3401340246200561,-0.8934171199798584
-0.0505040176212787,1.1806280612945557,-0.2262255847454071,-0.5506116151809692,-0.1971023380756378,-0.2520211637020111,0.0,0.0,0.415368914604187,0.4623808860778808
-0.0529006011784076,1.1688028573989868,-0.2264815121889114,-0.5273813009262085,-0.2104100286960601,-0.266177237033844,0.0,0.0,0.3999303579330444,-0.9202768206596376
-0.0553742423653602,1.157583713531494,-0.2357556819915771,-0.5003166198730469,-0.2221378982067108,-0.2345572412014007,0.0,0.0,-0.837462842464447,-0.8948776125907898
-0.0578981414437294,1.146073579788208,-0.2424347400665283,-0.5130961537361145,-0.2322315126657486,-0.201872318983078,0.0,0.0,-0.4306583404541015,-0.680920422077179
-0.0604599006474018,1.1342726945877075,-0.247711569070816,-0.5258436799049377,-0.2408170700073242,-0.171710729598999,0.0,0.0,0.5130274295806885,-0.3068742752075195
-0.0629362091422081,1.1232277154922483,-0.2384717911481857,-0.4924200773239136,-0.2501312494277954,-0.1862840205430984,0.0,0.0,-0.8330833911895752,-0.2374313473701477
-0.065372847020626,1.1118624210357666,-0.2343547046184539,-0.5067355632781982,-0.2596280872821808,-0.1899365335702896,0.0,0.0,0.5117150545120239,-0.0018514394760131
-0.06754732131958,1.101293683052063,-0.2080572098493576,-0.4714171588420868,-0.2692348659038543,-0.1921355575323104,0.0,0.0,-0.6999746561050415,-0.4424619674682617
-0.0696682929992675,1.090404987335205,-0.2025389969348907,-0.4857336580753326,-0.2790367901325226,-0.1960383951663971,0.0,0.0,-0.8991345763206482,-0.9483563899993896
-0.0718092918395996,1.079239845275879,-0.2064971178770065,-0.4977029263973236,-0.2868435680866241,-0.1561357229948043,0.0,0.0,0.0479835271835327,-0.2343153953552246
-0.0738579779863357,1.0681006908416748,-0.1969113051891327,-0.4966616034507751,-0.2950434982776642,-0.163998395204544,0.0,0.0,-0.9037749767303468,-0.8042972683906555
-0.0758931189775466,1.0566697120666504,-0.1969107240438461,-0.5093984007835388,-0.3018616735935211,-0.136363685131073,0.0,0.0,-0.8870511651039124,-0.8844988942146301
-0.0779136642813682,1.044954538345337,-0.1969430744647979,-0.5217416286468506,-0.3071427941322326,-0.105622686445713,0.0,0.0,0.826698899269104,-0.8994340300559998
-0.079797938466072,1.0336806774139404,-0.1848311722278595,-0.5018224716186523,-0.3108707666397095,-0.0745594352483749,0.0,0.0,-0.0316823124885559,-0.6443459987640381
-0.0816383361816406,1.0221127271652222,-0.1814310848712921,-0.5147010684013367,-0.313586562871933,-0.0543161518871784,0.0,0.0,0.8225330114364624,-0.9327189326286316
-0.0832129493355751,1.0116161108016968,-0.1563927680253982,-0.466748297214508,-0.3146928548812866,-0.0221265591681003,0.0,0.0,-0.0781662464141845,-0.7338377237319946
-0.0847427397966384,1.000825047492981,-0.1530663520097732,-0.4795856773853302,-0.3146014511585235,0.0018280151998624,0.0,0.0,0.6010513305664062,-0.5065151453018188
-0.0860800743103027,0.9908632636070251,-0.1343193352222442,-0.4426253139972687,-0.3140002191066742,0.0120247630402445,0.0,0.0,-0.3594232201576233,-0.3768333196640014
-0.0873127952218055,0.9805804491043092,-0.1236216202378273,-0.4569360613822937,-0.3136330544948578,0.0073432549834251,0.0,0.0,-0.513193666934967,-0.882593035697937
-0.0884947776794433,0.9699943661689758,-0.1197705417871475,-0.4701471328735351,-0.3120032548904419,0.0325958132743835,0.0,0.0,0.0283104181289672,-0.7809460759162903
-0.089454747736454,0.9595510363578796,-0.0988955572247505,-0.4635295569896698,-0.308997631072998,0.0601123869419097,0.0,0.0,-0.0166813135147094,-0.6086180806159973
-0.0903506278991699,0.94880348443985,-0.0935262814164161,-0.4768382012844085,-0.3049148619174957,0.0816556140780448,0.0,0.0,0.2167185544967651,-0.8152788281440735
-0.0910815224051475,0.938090980052948,-0.0784274041652679,-0.4750019907951355,-0.2993907630443573,0.1104810833930969,0.0,0.0,-0.8561686277389526,-0.4563264846801758
-0.0916927307844162,0.9270578622817992,-0.0662407428026199,-0.4893150925636291,-0.2941072583198547,0.1056702584028244,0.0,0.0,-0.7687452435493469,-0.3764549493789673
-0.0921820625662803,0.9157041907310486,-0.0538240000605583,-0.5036278963088989,-0.2890647351741791,0.1008506417274475,0.0,0.0,-0.9298827648162842,-0.6313917636871338
-0.0926044434309005,0.9040612578392028,-0.0484280958771705,-0.5162481665611267,-0.2826927900314331,0.1274390518665313,0.0,0.0,-0.8573942184448242,-0.523945152759552
-0.0929420441389083,0.8921144604682922,-0.0408100560307502,-0.5296244025230408,-0.2754627168178558,0.1446015536785125,0.0,0.0,-0.9471171498298644,-0.2453718781471252
-0.0931519493460655,0.8798472285270691,-0.0278136730194091,-0.5439388155937195,-0.2684734463691711,0.1397852450609207,0.0,0.0,-0.966658353805542,-0.042005181312561
-0.0932325348258018,0.8672596216201782,-0.0146556291729211,-0.55825275182724,-0.2617244124412536,0.1349809467792511,0.0,0.0,-0.8651739954948425,-0.0955250263214111
-0.0931823700666427,0.8543516993522644,-0.0013498443877324,-0.5725663304328918,-0.2552147507667541,0.1301925629377365,0.0,0.0,-0.9661012291908264,-0.3401929140090942
-0.0929999351501464,0.8411230444908142,0.0120908915996551,-0.5868794322013855,-0.2489435076713562,0.125424712896347,0.0,0.0,-0.9552047848701476,-0.2412847280502319
-0.0926840752363205,0.8275739550590515,0.0256548412144184,-0.6011922359466553,-0.2429094165563583,0.120681956410408,0.0,0.0,-0.9604448080062866,-0.6986399292945862
-0.0922961235046386,0.8137242794036865,0.031476903706789,-0.6143494844436646,-0.2354793101549148,0.1486020386219024,0.0,0.0,-0.9519126415252686,0.127044677734375
-0.0917726531624794,0.7995543479919434,0.0452552959322929,-0.6286632418632507,-0.2282832562923431,0.1439208835363388,0.0,0.0,-0.9771220088005066,-0.5227785706520081
-0.091143324971199,0.7850767374038696,0.0552604980766773,-0.6422806978225708,-0.2205055803060531,0.1555533111095428,0.0,0.0,-0.9424771070480348,0.517160177230835
-0.090330883860588,0.7702687978744507,0.0749293938279151,-0.65720534324646,-0.214124709367752,0.1276175379753112,0.0,0.0,-0.9751443266868592,-0.831872284412384
-0.0894514098763465,0.7551707625389099,0.0799722969532013,-0.6698834896087646,-0.2060807943344116,0.1608786284923553,0.0,0.0,-0.95351904630661,-0.8245022892951965
-0.0884922966361045,0.7397639751434326,0.0866465419530868,-0.6834867000579834,-0.1967509984970092,0.1865958720445633,0.0,0.0,-0.9454659819602966,-0.6496937274932861
-0.0874517410993576,0.7240580916404724,0.0934779942035675,-0.696674108505249,-0.186119869351387,0.2126228362321853,0.0,0.0,-0.8960300087928772,-0.3015551567077636
-0.0862709060311317,0.7080323696136475,0.1077057495713234,-0.7109915614128113,-0.1757094115018844,0.2082093954086303,0.0,0.0,-0.6589589715003967,0.0386081933975219
-0.0849492996931076,0.6916868090629578,0.1219871267676353,-0.7253082990646362,-0.1655168384313583,0.2038510739803314,0.0,0.0,-0.7489456534385681,0.5909090042114258
-0.0834403038024902,0.6750047206878662,0.1421331316232681,-0.740469217300415,-0.1567407548427581,0.1755216419696808,0.0,0.0,-0.821781575679779,-0.4974688291549682
-0.081789493560791,0.6580023765563965,0.1565078496932983,-0.7547829747200012,-0.1481765955686569,0.1712830960750579,0.0,0.0,-0.7780944108963013,-0.1324518322944641
-0.0799964889883995,0.6406794786453247,0.1709225475788116,-0.7690963745117188,-0.1398212015628814,0.1671082079410553,0.0,0.0,-0.749709963798523,-0.3887504935264587
-0.0780609101057052,0.6230359673500061,0.1853733509778976,-0.7834092378616333,-0.1316712498664856,0.1629993170499801,0.0,0.0,-0.645654559135437,-0.785086989402771
-0.0760403648018837,0.6050927639007568,0.1925540715456009,-0.7966695427894592,-0.1222212016582489,0.1890008449554443,0.0,0.0,-0.7770669460296631,-0.8716371059417725
-0.07395601272583,0.5868401527404785,0.1971020400524139,-0.8103379607200623,-0.1109594255685806,0.2252357900142669,0.0,0.0,-0.1502929925918579,-0.8774402737617493
-0.071807287633419,0.5682848691940308,0.2016870230436325,-0.8237518072128296,-0.0978738889098167,0.2617106437683105,0.0,0.0,0.1059271097183227,-0.7693375945091248
-0.0695108398795127,0.5500393509864807,0.2150685489177703,-0.810023844242096,-0.0834288001060485,0.2889021039009094,0.0,0.0,-0.3248465657234192,-0.4079372882843017
-0.0670702904462814,0.5314748883247375,0.2296500504016876,-0.824347198009491,-0.06917155534029,0.2851449847221374,0.0,0.0,0.6790279150009155,-0.6448460817337036
-0.0644151717424392,0.5134668946266174,0.2498005330562591,-0.7997077107429504,-0.0536257810890674,0.3109152615070343,0.0,0.0,0.5295287370681763,-0.4473066329956054
-0.0616272911429405,0.4956850409507751,0.2633875012397766,-0.7898239493370056,-0.0384047515690326,0.3044205605983734,0.0,0.0,0.5892568826675415,-0.7209182381629944
-0.0586681365966796,0.4780450463294983,0.2790848612785339,-0.7836535573005676,-0.0217864904552698,0.332365334033966,0.0,0.0,0.662611722946167,-0.7662861347198486
-0.0556526184082031,0.460594892501831,0.283424437046051,-0.7753943800926208,-0.0038845569361001,0.3580386340618133,0.0,0.0,0.9067592620849608,-0.3392478227615356
-0.0524982437491416,0.4442002773284912,0.2975144684314728,-0.72869473695755,0.0138039607554674,0.35377037525177,0.0,0.0,0.5556068420410156,-0.58128422498703
-0.0491741187870502,0.4286469221115112,0.3132899701595306,-0.6915449500083923,0.0326783545315265,0.3774881660938263,0.0,0.0,0.6675206422805786,-0.3952318429946899
-0.0458453185856342,0.4140073359012604,0.3144740164279938,-0.6511471271514893,0.0508681908249855,0.3637968897819519,0.0,0.0,0.48598313331604,-0.5029277801513672
-0.0425509437918663,0.3994789123535156,0.3105117082595825,-0.6464555859565735,0.069579929113388,0.3742350339889526,0.0,0.0,0.4083812236785888,0.3511583805084228
-0.0391241088509559,0.3856452405452728,0.323772519826889,-0.6158207654953003,0.0882982015609741,0.374365746974945,0.0,0.0,0.5473103523254395,0.2632771730422973
-0.0356945022940635,0.3722867667675018,0.3246860206127167,-0.5948922634124756,0.106429137289524,0.3626188039779663,0.0,0.0,0.5073071718215942,0.0422531366348266
-0.0322352424263954,0.3595248162746429,0.3280524909496307,-0.568567156791687,0.1241844668984413,0.3551065027713775,0.0,0.0,0.4879194498062134,-0.0343133211135864
-0.0287198070436716,0.3473801910877228,0.3339058458805084,-0.5413201451301575,0.1417497545480728,0.3513063192367553,0.0,0.0,0.2401958703994751,0.0470228195190429
-0.0250563621520996,0.3355801105499267,0.3485797941684723,-0.5262373089790344,0.1594817042350769,0.3546385765075683,0.0,0.0,0.652897834777832,0.2923444509506225
-0.02127924002707,0.3239748179912567,0.3600338697433471,-0.5177858471870422,0.177191212773323,0.3541899919509887,0.0,0.0,-0.0480520129203796,-0.243592619895935
-0.0173572544008493,0.3120514154434204,0.374685674905777,-0.532114565372467,0.1947725862264633,0.3516274094581604,0.0,0.0,0.7387522459030151,0.5571675300598145
-0.0132014276459813,0.3007548153400421,0.3989348709583282,-0.5043480396270752,0.2115536630153656,0.3356214165687561,0.0,0.0,0.5016294717788696,-0.5883597731590271
-0.0088868141174316,0.2896899580955505,0.4135171771049499,-0.4944432079792022,0.2297134399414062,0.3631955981254577,0.0,0.0,0.6445766687393188,-0.6800540685653687
-0.0046570776030421,0.2793841958045959,0.4038702547550201,-0.4611289799213409,0.2491102814674377,0.3879368603229522,0.0,0.0,0.7285641431808472,-0.1260992288589477
-0.0004477500915527,0.2699266672134399,0.4018980860710144,-0.4236781299114227,0.2685439884662628,0.3886739909648895,0.0,0.0,0.8312187194824219,-0.4435515403747558
0.0038423538208007,0.2612761259078979,0.4095516800880432,-0.3881582617759704,0.2885068953037262,0.3992586433887481,0.0,0.0,0.8424657583236694,-0.3214783668518066
0.0082800863310694,0.252880185842514,0.4240358769893646,-0.3771924674510956,0.3088844418525696,0.4075509011745453,0.0,0.0,0.9587640762329102,0.1033231019973754
0.0126181598752737,0.2450014948844909,0.4145685732364654,-0.3543857336044311,0.3288718163967132,0.3997475504875183,0.0,0.0,0.8798222541809082,0.0281977653503417
0.0168731696903705,0.2382458299398422,0.4060679078102112,-0.304804116487503,0.3492060601711273,0.4066846370697021,0.0,0.0,0.8946851491928101,0.1015269756317138
0.0210224147886037,0.2320793271064758,0.3958309292793274,-0.2788332402706146,0.3693214654922485,0.4023081660270691,0.0,0.0,0.942535400390625,-0.617588222026825
0.02478370629251,0.2267984449863433,0.3564792573451996,-0.2399192303419113,0.3901943862438202,0.4174589216709137,0.0,0.0,0.91461443901062,-0.3770069479942322
0.0284723285585641,0.2223801016807556,0.3490355610847473,-0.2019544094800949,0.4114451706409454,0.425015926361084,0.0,0.0,0.3687241077423095,-0.2271909713745117
0.0320131294429302,0.2184728682041168,0.334690511226654,-0.1794380843639373,0.4324052333831787,0.4192017912864685,0.0,0.0,0.175821304321289,-0.342994213104248
0.0354178436100482,0.214937224984169,0.3216088414192199,-0.1630830764770507,0.4530104994773865,0.4121054708957672,0.0,0.0,-0.5596393346786499,0.1154351234436035
0.0389630310237407,0.2110844254493713,0.3359070420265198,-0.1774170398712158,0.4735361933708191,0.4105136394500732,0.0,0.0,-0.1920164227485656,-0.2392824292182922
0.0426480285823345,0.206914335489273,0.3501554131507873,-0.1917503923177719,0.4939850866794586,0.4089775085449219,0.0,0.0,0.0993108749389648,-0.1769023537635803
0.0462189689278602,0.2028156369924545,0.3394242525100708,-0.1886437386274337,0.513896644115448,0.3982329666614532,0.0,0.0,0.1638530492782592,0.5615200996398926
0.0497886650264263,0.199156180024147,0.3404786884784698,-0.1689726561307907,0.5326796174049377,0.3756590187549591,0.0,0.0,-0.3183739185333252,-0.3587968945503235
0.0534966476261615,0.1951784193515777,0.3545449078083038,-0.183300033211708,0.5513933897018433,0.374275267124176,0.0,0.0,-0.3492987155914306,0.232164978981018
0.0573421493172645,0.1908823102712631,0.368540495634079,-0.1976269334554672,0.5700401663780212,0.3729353547096252,0.0,0.0,0.5458674430847168,-0.2084691524505615
0.0609145164489746,0.1871673464775085,0.3415579199790954,-0.1719335913658142,0.5885229706764221,0.3696561455726623,0.0,0.0,-0.0412181615829467,0.609451413154602
0.0646690353751182,0.1831880956888198,0.3613715767860412,-0.1832210421562194,0.6053094863891602,0.3357308208942413,0.0,0.0,0.1502084732055664,-0.2811609506607055
0.0683727264404296,0.1794327050447464,0.3563146591186523,-0.173499584197998,0.6222804188728333,0.3394190073013305,0.0,0.0,0.1886389255523681,0.1262915134429931
0.0718641281127929,0.1760695129632949,0.3353163003921509,-0.1561920195817947,0.6391676664352417,0.337745189666748,0.0,0.0,-0.1378867626190185,0.1594760417938232
0.0754887610673904,0.1723870187997818,0.3488507866859436,-0.1705131381750106,0.6559966802597046,0.33657968044281,0.0,0.0,0.2024937868118286,0.7632455825805664
0.0791431441903114,0.1688936352729797,0.3533257842063904,-0.1615625768899917,0.6711562275886536,0.3031911551952362,0.0,0.0,0.168276309967041,0.3867553472518921
0.0825886726379394,0.1655131131410598,0.3329683840274811,-0.1564707159996032,0.6858599185943604,0.2940732836723327,0.0,0.0,-0.2264711856842041,0.6881401538848877
0.0861973762512207,0.1618507951498031,0.3503668308258056,-0.1685726642608642,0.6993207335472107,0.2692158222198486,0.0,0.0,0.4135615825653076,0.664531946182251
0.0896480530500412,0.158451110124588,0.3358758091926574,-0.1563066840171814,0.7112286686897278,0.2381590902805328,0.0,0.0,-0.1885802745819091,0.6313409805297852
0.0932648628950119,0.1547793447971344,0.3537307679653168,-0.1678027957677841,0.7216275334358215,0.2079770863056183,0.0,0.0,-0.1987538933753967,0.690385103225708
0.0970586761832237,0.1508455872535705,0.3729485869407654,-0.1786375641822815,0.7301204800605774,0.1698592007160186,0.0,0.0,0.2356069087982177,0.8068026304244995
0.1007418632507324,0.1473094373941421,0.3632866442203522,-0.1601811796426773,0.7368068695068359,0.1337272822856903,0.0,0.0,0.1305799484252929,0.6112563610076904
0.1042224913835525,0.1441355496644973,0.3441096842288971,-0.1434636414051056,0.7420905232429504,0.105673648416996,0.0,0.0,-0.1925015449523925,0.6522336006164551
0.1078673377633094,0.1406906694173813,0.3617774248123169,-0.1547689437866211,0.7457253336906433,0.0726958513259887,0.0,0.0,-0.1362800598144531,0.4562243223190307
