x_pos,y_pos,x_vel,y_vel,angle,ang_vel,leg_1,leg_2,main_booster,lat_booster
-0.001626682234928,1.4030758142471311,-0.1648043394088745,-0.3486329615116119,0.0019146131817251,0.0377787947654724,0.0,0.0,0.2933948040008545,0.8317868709564209
-0.0032453536987304,1.3952441215515137,-0.1622262299060821,-0.3480770289897918,0.0022697495296597,0.0071038580499589,0.0,0.0,0.150092601776123,0.8546140193939209
-0.0047915456816554,1.387279391288757,-0.1534251272678375,-0.3539859652519226,0.0010920435888692,-0.0235563516616821,0.0,0.0,0.2062420845031738,0.4302012920379638
-0.0065259933471679,1.3793129920959473,-0.1719196885824203,-0.3540596961975097,-0.0004124891711398,-0.0300935171544551,0.0,0.0,-0.0814918279647827,0.1211843490600586
-0.0083601949736475,1.370798110961914,-0.1819972097873687,-0.3784452676773071,-0.001821125508286,-0.0281754229217767,0.0,0.0,0.3188247680664062,0.7500226497650146
-0.0101103782653808,1.3623833656311035,-0.1723761260509491,-0.3739950060844421,-0.0044264788739383,-0.0521117933094501,0.0,0.0,0.3866946697235107,0.8137321472167969
-0.0119130136445164,1.3541467189788818,-0.1760814785957336,-0.3660875260829925,-0.0085651082918047,-0.0827801972627639,0.0,0.0,0.1907594203948974,0.1265039443969726
-0.0137000083923339,1.3460596799850464,-0.175149604678154,-0.3594474792480469,-0.0120766395702958,-0.0702370926737785,0.0,0.0,-0.3698190450668335,0.6380330324172974
-0.0155323985964059,1.3374303579330444,-0.178552359342575,-0.383575439453125,-0.0167080890387296,-0.0926374495029449,0.0,0.0,-0.3577235341072082,0.8174715042114258
-0.0173933990299701,1.328256130218506,-0.1799125522375106,-0.4078201353549957,-0.0228311326354742,-0.1224719882011413,0.0,0.0,-0.0326448082923889,0.8060352802276611
-0.0192731861025095,1.3185322284698486,-0.1800752729177475,-0.4323185980319977,-0.0306486506015062,-0.1563646048307418,0.0,0.0,-0.2870258092880249,0.3922147750854492
-0.0212425235658884,1.308260202407837,-0.1891633868217468,-0.456705778837204,-0.038329254835844,-0.1536259949207306,0.0,0.0,-0.2888349294662475,0.9608060121536256
-0.0232070926576852,1.2974402904510498,-0.186503380537033,-0.4811699986457824,-0.0481848455965518,-0.1971301138401031,0.0,0.0,0.3012758493423462,0.8394490480422974
-0.0251157768070697,1.2864751815795898,-0.1794506907463073,-0.4877443015575409,-0.0594930462539196,-0.2261845767498016,0.0,0.0,-0.1289879083633422,0.6842803955078125
-0.0270407684147357,1.2749642133712769,-0.1795478612184524,-0.5121573209762573,-0.0723230764269828,-0.2566240429878235,0.0,0.0,-0.1418293118476867,0.9218580722808838
-0.0289610866457223,1.2628871202468872,-0.1770683228969574,-0.53755122423172,-0.087161861360073,-0.2968029975891113,0.0,0.0,0.1064026355743408,0.9391360282897948
-0.0307261459529399,1.2511074542999268,-0.1598428040742874,-0.524593710899353,-0.1036943793296814,-0.3306807279586792,0.0,0.0,0.0068455934524536,0.5833582878112793
-0.0323997512459754,1.2390961647033691,-0.1498715579509735,-0.5351470708847046,-0.1210891678929328,-0.3479273915290832,0.0,0.0,0.0558443069458007,-0.6086761951446533
-0.0340611450374126,1.2273050546646118,-0.1501746028661728,-0.5254193544387817,-0.1370008885860443,-0.3182633519172668,0.0,0.0,-0.1700525879859924,-0.6463618874549866
-0.0358487144112587,1.2149794101715088,-0.1644613891839981,-0.5491804480552673,-0.1512747108936309,-0.2855022251605987,0.0,0.0,-0.4249244928359985,-0.7006998658180237
-0.0377443321049213,1.2021223306655884,-0.1765801012516021,-0.5728029012680054,-0.1642626672983169,-0.259782612323761,0.0,0.0,0.083038330078125,-0.6404680609703064
-0.0396962165832519,1.1891539096832275,-0.183701753616333,-0.5776840448379517,-0.1757776588201522,-0.2303202599287033,0.0,0.0,0.5921156406402588,-0.5835615396499634
-0.0415270812809467,1.176388382911682,-0.1732980012893676,-0.5685373544692993,-0.1856087893247604,-0.1966403424739837,0.0,0.0,0.0327030420303344,-0.6827347874641418
-0.0433811172842979,1.1633561849594116,-0.177219346165657,-0.5802545547485352,-0.193843811750412,-0.1647154092788696,0.0,0.0,0.2512291669845581,-0.1433361768722534
-0.0452969558537006,1.1505241394042969,-0.1831024438142776,-0.5714392066001892,-0.2023870050907135,-0.1708790957927703,0.0,0.0,0.6032364368438721,-0.7587542533874512
-0.047334861010313,1.1381957530975342,-0.1967424899339676,-0.5489082932472229,-0.2094948291778564,-0.1421563625335693,0.0,0.0,0.6314456462860107,-0.2084424495697021
-0.0492610931396484,1.1263703107833862,-0.1857933700084686,-0.5265620946884155,-0.2163918763399124,-0.1379411518573761,0.0,0.0,0.4006264209747314,-0.0806220769882202
-0.0511816032230854,1.1150569915771484,-0.1849184930324554,-0.5038763284683228,-0.2236068248748779,-0.1442989706993103,0.0,0.0,-0.2973941564559936,-0.5239877104759216
-0.0531817451119422,1.1032160520553589,-0.1943595111370086,-0.5271341800689697,-0.2293384969234466,-0.1146334782242775,0.0,0.0,0.9472037553787231,-0.3861867189407348
-0.0551013946533203,1.0916742086410522,-0.1863970756530761,-0.5138490796089172,-0.2349883019924163,-0.1129958182573318,0.0,0.0,0.6161667108535767,-0.343285858631134
-0.056831169873476,1.0807852745056152,-0.1676806658506393,-0.4848038256168365,-0.2403565198183059,-0.1073647886514663,0.0,0.0,0.3540304899215698,-0.3463456034660339
-0.0585522651672363,1.069893717765808,-0.1667447090148925,-0.484963059425354,-0.2458225637674331,-0.1093208342790603,0.0,0.0,-0.2379611134529113,-0.9041959643363952
-0.0603601448237896,1.0584909915924072,-0.1776617616415023,-0.5073193311691284,-0.2490077167749405,-0.0637029707431793,0.0,0.0,0.86960768699646,-0.7769893407821655
-0.0622080788016319,1.0471771955490112,-0.1832273304462433,-0.5030987858772278,-0.2505997717380523,-0.0318410024046897,0.0,0.0,0.7054533958435059,-0.6644892692565918
-0.0639263167977333,1.0362690687179563,-0.1718135476112365,-0.4848033189773559,-0.2506100535392761,-0.0002057056408375,0.0,0.0,0.2337957620620727,0.1361837387084961
-0.0654835700988769,1.025627613067627,-0.1559653580188751,-0.4729155898094177,-0.2503618597984314,0.0049641029909253,0.0,0.0,0.15537691116333,0.588670015335083
-0.0669235214591026,1.0148869752883911,-0.1432358920574188,-0.4774921238422394,-0.2511441707611084,-0.0156463533639907,0.0,0.0,-0.2482486367225647,-0.2146836519241333
-0.068344309926033,1.0035972595214844,-0.1414939016103744,-0.5018690824508667,-0.251732736825943,-0.0117714069783687,0.0,0.0,-0.6974014043807983,-0.4586170315742492
-0.0697399154305458,0.9917581677436828,-0.1391820758581161,-0.5262459516525269,-0.2521287798881531,-0.0079211024567484,0.0,0.0,-0.4996033310890198,-0.9232178330421448
-0.0711720436811447,0.9793971180915833,-0.1447545886039734,-0.5491187572479248,-0.2505542039871216,0.0314908623695373,0.0,0.0,-0.4302469491958618,-0.3538284301757812
-0.0725681334733963,0.9664867520332336,-0.141334980726242,-0.5734958648681641,-0.2487900704145431,0.0352826789021492,0.0,0.0,-0.8280613422393799,-0.5015462636947632
-0.0739534348249435,0.9530379176139832,-0.1412399858236313,-0.5972718000411987,-0.2460333704948425,0.0551339872181415,0.0,0.0,-0.9148001074790956,-0.6572412848472595
-0.0753355994820594,0.939048945903778,-0.1421995162963867,-0.6210739016532898,-0.241983488202095,0.0809976160526275,0.0,0.0,-0.5911441445350647,-0.8516123294830322
-0.0767209976911544,0.9245295524597168,-0.1441210806369781,-0.6443992257118225,-0.2363151609897613,0.1133664101362228,0.0,0.0,-0.5335395932197571,-0.5045706033706665
-0.0780924782156944,0.9094707369804382,-0.1439747214317321,-0.6682027578353882,-0.2293830066919326,0.1386429965496063,0.0,0.0,-0.1492555141448974,-0.1402856111526489
-0.0794031172990799,0.8938633799552917,-0.1380797773599624,-0.6925841569900513,-0.2222708463668823,0.1422433257102966,0.0,0.0,-0.4172639846801758,0.0534490346908569
-0.0806485190987587,0.8777076601982117,-0.1317525655031204,-0.716965913772583,-0.2149809300899505,0.1457985937595367,0.0,0.0,-0.4302324056625366,0.0575892925262451
-0.0818246826529502,0.861003577709198,-0.1250160932540893,-0.7413480877876282,-0.2075155973434448,0.1493068188428878,0.0,0.0,0.1777817010879516,0.5004431009292603
-0.0828738212585449,0.8445996046066284,-0.111284539103508,-0.7281792163848877,-0.2010962665081024,0.12838676571846,0.0,0.0,-0.3707650899887085,0.1508715152740478
-0.0838463753461837,0.82764732837677,-0.1037987023591995,-0.7525606751441956,-0.1945065259933471,0.1317950934171676,0.0,0.0,0.6623613834381104,0.5897486209869385
-0.0844296440482139,0.8109333515167236,-0.0642537996172905,-0.7420734763145447,-0.1885480135679245,0.1191705018281936,0.0,0.0,-0.6716898679733276,0.5320911407470703
-0.084891989827156,0.7936637997627258,-0.0513711757957935,-0.7668968439102173,-0.1833879798650741,0.1032005175948143,0.0,0.0,-0.2881369590759277,0.1166543960571289
-0.0852683037519455,0.775845468044281,-0.0429313853383064,-0.7912774682044983,-0.1780658513307571,0.1064426451921463,0.0,0.0,-0.0491303205490112,0.3483960628509521
-0.0855557471513748,0.7574787139892578,-0.0342166647315025,-0.8156582713127136,-0.1725846379995346,0.1096242219209671,0.0,0.0,0.5020458698272705,0.4645165205001831
-0.0855423957109451,0.7391836047172546,-0.0049130632542073,-0.812404990196228,-0.1663208901882171,0.125274658203125,0.0,0.0,-0.2139924764633178,0.6307921409606934
-0.0853942856192588,0.7203267812728882,0.0094594825059175,-0.8374919295310974,-0.1609692722558975,0.1070323809981346,0.0,0.0,-0.0165643692016601,0.2803926467895508
-0.0851504355669021,0.7009214758872986,0.018882866948843,-0.861873209476471,-0.1554685980081558,0.1100137829780578,0.0,0.0,0.3950164318084717,0.1362210512161255
-0.0846054106950759,0.6817845106124878,0.0482998490333557,-0.8498939275741577,-0.1492835581302642,0.1237011700868606,0.0,0.0,-0.0226909518241882,0.196667194366455
-0.0839609131217002,0.6620992422103882,0.0581088885664939,-0.8742762207984924,-0.1429570019245147,0.1265311688184738,0.0,0.0,0.4139866828918457,0.163174033164978
-0.0831838622689247,0.6428781747817993,0.0715221241116523,-0.8536915183067322,-0.1367945671081543,0.1232485994696617,0.0,0.0,0.1119587421417236,0.4692250490188598
-0.0822360068559646,0.6234721541404724,0.0883105620741844,-0.8619121313095093,-0.1303396672010421,0.1290978491306305,0.0,0.0,0.8224245309829712,-0.1342155933380127
-0.0811930671334266,0.6046900749206543,0.0981947183609008,-0.8342376351356506,-0.1242679208517074,0.1214345544576644,0.0,0.0,0.2534458637237549,-0.5365666747093201
-0.0799366012215614,0.5859314203262329,0.1181185394525528,-0.8331118822097778,-0.1167880520224571,0.1495975852012634,0.0,0.0,0.1365729570388794,-0.3042592406272888
-0.0785083770751953,0.5672500729560852,0.1350987553596496,-0.8296964764595032,-0.1091145128011703,0.1534707844257354,0.0,0.0,0.1069312095642089,-0.6598583459854126
-0.0769896507263183,0.5484241247177124,0.1426978409290313,-0.8360655307769775,-0.1000061482191085,0.1821671426296234,0.0,0.0,0.5382273197174072,-0.3695040941238403
-0.0754221901297569,0.5298890471458435,0.1480047106742859,-0.8232197165489197,-0.0913232564926147,0.17365762591362,0.0,0.0,-0.0603473186492919,-0.8901050686836243
-0.0738121047616005,0.5108261704444885,0.1504143178462982,-0.8466285467147827,-0.0808245614171028,0.20997354388237,0.0,0.0,0.7779257297515869,-0.2318444848060608
-0.0719781890511512,0.4916758239269256,0.1722674667835235,-0.8505589365959167,-0.0698217824101448,0.2200558632612228,0.0,0.0,0.943126916885376,-0.6131729483604431
-0.0699774771928787,0.4734897315502167,0.1875268220901489,-0.8077324628829956,-0.0574151948094368,0.2481317818164825,0.0,0.0,0.8752036094665527,0.0246233940124511
-0.0679409056901931,0.4555706977844238,0.1915149986743927,-0.7959775924682617,-0.0454206317663192,0.2398912161588668,0.0,0.0,0.6725778579711914,0.0243148803710937
-0.065853975713253,0.4381384253501892,0.1969109177589416,-0.7744492292404175,-0.0337812229990959,0.2327883690595626,0.0,0.0,0.5851961374282837,-0.2793177366256714
-0.0636046379804611,0.4210531115531921,0.2129338681697845,-0.7591181993484497,-0.0219379160553216,0.2368660718202591,0.0,0.0,0.7129402160644531,-0.1931639313697815
-0.0613566413521766,0.4047384262084961,0.2133771479129791,-0.7249642610549927,-0.010652900673449,0.2257002294063568,0.0,0.0,0.1877330541610717,-0.1789559721946716
-0.0589377395808696,0.3884989023208618,0.2301521748304367,-0.7217164635658264,0.0009277604403905,0.231613203883171,0.0,0.0,0.541174054145813,-0.3773791790008545
-0.056436825543642,0.372259646654129,0.2384641170501709,-0.721788763999939,0.0124057019129395,0.2295589447021484,0.0,0.0,0.6195906400680542,-0.2987153530120849
-0.0537590980529785,0.3559528887271881,0.255807489156723,-0.7248855829238892,0.0242258552461862,0.2364030331373214,0.0,0.0,0.9520363807678224,-0.1612612009048462
-0.0510138496756553,0.3396993577480316,0.2627021670341491,-0.7226073145866394,0.0358978882431983,0.2334405928850174,0.0,0.0,0.9694099426269532,-0.6529879570007324
-0.048250388354063,0.3243192732334137,0.2632355690002441,-0.6839235424995422,0.0488549061119556,0.2591402530670166,0.0,0.0,0.9383547306060792,-0.2405444383621215
-0.0453248992562294,0.3098337650299072,0.2789941728115082,-0.6442964673042297,0.0622512362897396,0.2679268717765808,0.0,0.0,0.7261971235275269,0.0581070184707641
-0.0424546226859092,0.296069473028183,0.2740494608879089,-0.6123344302177429,0.0750999227166175,0.2569737732410431,0.0,0.0,0.7423293590545654,-0.1958121061325073
-0.0396313667297363,0.2822659015655517,0.2700062394142151,-0.6141579151153564,0.0873015373945236,0.2440322339534759,0.0,0.0,0.812821626663208,0.4903775453567505
-0.0367243774235248,0.2692174911499023,0.2782191038131714,-0.5807004570960999,0.0996810495853424,0.2475899904966354,0.0,0.0,0.8104524612426758,-0.5106759667396545
-0.0339220985770225,0.256540298461914,0.2671115696430206,-0.5643556118011475,0.1126982942223548,0.260344922542572,0.0,0.0,0.7333779335021973,0.0298776626586914
-0.0311414711177349,0.2443669140338897,0.2652814388275146,-0.5420517325401306,0.1253998130559921,0.2540302276611328,0.0,0.0,0.5584473609924316,0.7107570171356201
-0.0282847397029399,0.2326402217149734,0.2744311392307281,-0.5221689343452454,0.1365949213504791,0.2239021062850952,0.0,0.0,0.4240137338638305,-0.0643227696418762
-0.025306224822998,0.2211271077394485,0.2863475382328033,-0.5127890706062317,0.1480641514062881,0.2293846905231475,0.0,0.0,0.5069763660430908,-0.0211997628211975
-0.0222368240356445,0.2095350325107574,0.2954418063163757,-0.5163896083831787,0.1595475524663925,0.2296676933765411,0.0,0.0,0.7700738906860352,0.3742036819458008
-0.019022274762392,0.198058471083641,0.3096169233322143,-0.5113826990127563,0.1713922470808029,0.2368942946195602,0.0,0.0,0.5832667350769043,-0.0476366281509399
-0.0156466476619243,0.1868799477815628,0.3252134025096893,-0.4982970654964447,0.1837780326604843,0.2477154433727264,0.0,0.0,0.2430117130279541,-0.0973837375640869
-0.0121067045256495,0.1756210476160049,0.3413171172142029,-0.5020220279693604,0.1965249180793762,0.2549380660057068,0.0,0.0,0.6531291007995605,-0.3848787546157837
-0.0086035728454589,0.1649195253849029,0.3378172814846039,-0.4773343503475189,0.2091085314750671,0.2516723275184631,0.0,0.0,0.6008285284042358,-0.4973843097686767
-0.0051085473969578,0.1547587513923645,0.3370711207389831,-0.4533976018428802,0.2216807752847671,0.2514444589614868,0.0,0.0,0.4486281871795654,-0.3235584497451782
-0.0015201568603515,0.1449430733919143,0.3460865318775177,-0.4382233321666717,0.234594851732254,0.2582815885543823,0.0,0.0,0.4929356575012207,-0.36662757396698
0.0022032738197594,0.1350425779819488,0.3594047427177429,-0.4421413838863373,0.2477541118860244,0.2631851732730865,0.0,0.0,0.5962986946105957,-0.6184782981872559
0.0058207511901855,0.1252708286046981,0.347931832075119,-0.4366913735866546,0.2618489861488342,0.2818970680236816,0.0,0.0,0.7727000713348389,-0.4242632389068603
0.0094012264162302,0.1163290590047836,0.3440642952919006,-0.3999770879745483,0.276161253452301,0.2862455546855926,0.0,0.0,0.7760400772094727,-0.3576415777206421
0.0129054067656397,0.1077130883932113,0.3368206322193146,-0.3855611085891723,0.2901420295238495,0.2796152830123901,0.0,0.0,0.8490339517593384,-0.1868120431900024
0.0161359794437885,0.0997700318694114,0.3103681206703186,-0.3556100130081177,0.3032501935958862,0.262162983417511,0.0,0.0,0.3426301479339599,-0.716667890548706
0.0193325038999319,0.0921051353216171,0.3057175874710083,-0.343632698059082,0.317688524723053,0.2887662053108215,0.0,0.0,0.5898441076278687,-0.5700761675834656
0.0223214142024517,0.0848791226744651,0.2842905223369598,-0.3244320154190063,0.3328966796398163,0.3041631877422333,0.0,0.0,0.1976133584976196,-0.3456169962882995
0.0251904483884573,0.0778462961316108,0.2728824317455292,-0.3158693611621856,0.3475614786148071,0.2932964861392975,0.0,0.0,0.4755555391311645,-0.1852534413337707
0.0280008316040039,0.0708821415901184,0.2674689888954162,-0.3128627240657806,0.3618456423282623,0.285683125257492,0.0,0.0,0.4832510948181152,0.0620554685592651
0.0306359287351369,0.0640722587704658,0.2507384717464447,-0.3059424161911011,0.3753557205200195,0.2702014148235321,0.0,0.0,0.5196285247802734,-0.3707228899002075
0.0330792441964149,0.0573106631636619,0.2325143069028854,-0.3036718666553497,0.3879245519638061,0.2513767182826996,0.0,0.0,0.5045369863510132,0.1035367250442504
0.0354778282344341,0.0509642697870731,0.2279718220233917,-0.28534996509552,0.4006274342536926,0.254056841135025,0.0,0.0,0.5811750888824463,0.3903824090957641
0.0379059799015522,0.0445917695760726,0.2310421913862228,-0.2865997850894928,0.4132788777351379,0.2530287504196167,0.0,0.0,0.8209081888198853,0.2478610277175903
0.0402584075927734,0.0398926846683025,0.2393707782030105,-0.2076183855533599,0.4089460968971252,-0.0864942669868469,0.0,1.0,0.999630570411682,0.9538588523864746
0.0421658530831337,0.0367395505309104,0.2139736711978912,-0.1336282044649124,0.3840910792350769,-0.4970827102661133,0.0,1.0,0.9969650506973268,-0.6753571629524231
0.0437432304024696,0.0351022593677043,0.1895432919263839,-0.0645796582102775,0.3504087626934051,-0.6736847162246704,0.0,1.0,0.9265251159667968,-0.9496816396713256
0.0450430884957313,0.0340541936457157,0.1649394035339355,-0.0384998731315135,0.3138619363307953,-0.7309749126434326,0.0,1.0,0.8098282814025879,-0.973458468914032
0.0460056290030479,0.0336985699832439,0.1285549402236938,-0.0091788796707987,0.2804682552814483,-0.6679049730300903,0.0,1.0,0.5328724384307861,-0.9140800833702089
0.0467635169625282,0.0338562838733196,0.1060823425650596,0.0125224469229578,0.2494736462831497,-0.6198924779891968,0.0,0.0,-0.9999269247055054,-0.3327587842941284
0.0476325042545795,0.0334767661988735,0.1177702769637107,-0.0119289960712194,0.2181330919265747,-0.6268118619918823,0.0,0.0,-0.9998591542243958,-0.4870027303695678
0.0486124046146869,0.0325605981051921,0.1294394582509994,-0.0363835208117961,0.1864358931779861,-0.6339439749717712,0.0,0.0,-0.9973604083061218,-0.685283362865448
0.0496391281485557,0.031087527051568,0.1329957544803619,-0.0619403645396232,0.1560413688421249,-0.6078907251358032,0.0,0.0,-0.9932813048362732,-0.6626229286193848
0.0507232658565044,0.0290638543665409,0.1378889679908752,-0.0871157422661781,0.1266438364982605,-0.5879508852958679,0.0,0.0,-0.91171133518219,-0.7987377047538757
0.051858615130186,0.0264890044927597,0.1419675946235656,-0.1122685000300407,0.0983871445059776,-0.5651342272758484,0.0,0.0,0.0830059051513671,-0.890427827835083
0.0531124100089073,0.0237233974039554,0.152501180768013,-0.1213526725769043,0.0715243816375732,-0.5372554063796997,0.0,0.0,0.8359436988830566,-0.9050434827804564
0.0544707290828228,0.0215638261288404,0.1613734662532806,-0.0949527248740196,0.0462681949138641,-0.5051239728927612,0.0,0.0,0.2631146907806396,-0.942878007888794
0.0558585152029991,0.0197929237037897,0.1628574877977371,-0.0781344920396804,0.0224853660911321,-0.4756566882133484,0.0,0.0,0.5422036647796631,-0.944568932056427
0.0573428161442279,0.0179062932729721,0.1709615886211395,-0.0836607366800308,0.0002391359739704,-0.4449245929718017,0.0,0.0,0.8315752744674683,-0.9468793272972108
