x_pos,y_pos,x_vel,y_vel,angle,ang_vel,leg_1,leg_2,main_booster,lat_booster
-0.0015048027271404,1.4030297994613647,-0.152000144124031,-0.350676417350769,0.0013546810951083,0.0266920384019613,0.0,0.0,-0.2653948068618774,0.9001295566558838
-0.0029182434082031,1.394563913345337,-0.1403295993804931,-0.3762606084346771,0.0003560871700756,-0.019973361864686,0.0,0.0,0.2408851385116577,0.4356976747512817
-0.0042207716032862,1.3859580755233765,-0.1293532252311706,-0.3824784159660339,-0.0005263220518827,-0.0176500659435987,0.0,0.0,-0.4091176986694336,0.4875879287719726
-0.0055168149992823,1.3767576217651367,-0.1283505260944366,-0.4089116752147674,-0.001755898585543,-0.0245938934385776,0.0,0.0,0.7072703838348389,0.6655083894729614
-0.0066123963333666,1.3679749965667725,-0.1070170849561691,-0.3903425633907318,-0.0042714620940387,-0.0503164157271385,0.0,0.0,-0.3868659734725952,0.5638961791992188
-0.0076554296538233,1.358596682548523,-0.1000664681196212,-0.4168326258659363,-0.0084621403366327,-0.0838212221860885,0.0,0.0,-0.05307137966156,-0.2842984199523926
-0.0087044714018702,1.3486241102218628,-0.1003844514489173,-0.4432556331157684,-0.0129367718473076,-0.0895006880164146,0.0,0.0,0.542971134185791,-0.1355664134025573
-0.009616469964385,1.3389607667922974,-0.0870759338140487,-0.4295193254947662,-0.0170097984373569,-0.081468179821968,0.0,0.0,-0.5225929617881775,-0.0701707601547241
-0.0105427745729684,1.3287031650543213,-0.0882679522037506,-0.455953985452652,-0.0213247928768396,-0.0863078162074089,0.0,0.0,-0.6228641867637634,0.3731135129928589
-0.0114874839782714,1.3178510665893557,-0.0898842364549636,-0.4823785424232483,-0.025859011337161,-0.0906926840543747,0.0,0.0,-0.4914953708648681,-0.5321953892707825
-0.0124903675168752,1.306406855583191,-0.0964224636554718,-0.5087118148803711,-0.0296864714473485,-0.0765562430024147,0.0,0.0,0.2220538854598999,-0.4917935729026794
-0.0134554859250783,1.2949516773223877,-0.0927201062440872,-0.5091999769210815,-0.0334418192505836,-0.0751135349273681,0.0,0.0,-0.3506221771240234,-0.5892943143844604
-0.0144866947084665,1.2829067707061768,-0.1001084297895431,-0.5353962182998657,-0.0364334136247634,-0.0598371215164661,0.0,0.0,0.5759906768798828,-0.3254952430725097
-0.0154732707887887,1.270771861076355,-0.0958101004362106,-0.5394033789634705,-0.0392449684441089,-0.0562358908355236,0.0,0.0,-0.3378926515579223,-0.8481250405311584
-0.0165475849062204,1.25805401802063,-0.1057793349027633,-0.5652764439582825,-0.0408743545413017,-0.0325908586382865,0.0,0.0,0.4911537170410156,-0.7438544631004333
-0.0176002494990825,1.2451322078704834,-0.1052239537239074,-0.5743101239204407,-0.0409182980656623,-0.000878915481735,0.0,0.0,0.5270315408706665,-0.771730363368988
-0.0185831077396869,1.232804775238037,-0.0999776497483253,-0.547843337059021,-0.0392459407448768,0.0334503874182701,0.0,0.0,-0.0909680128097534,-0.7978105545043945
-0.0196603778749704,1.2198785543441772,-0.1105883121490478,-0.5744209289550781,-0.0364080034196376,0.0567638464272022,0.0,0.0,-0.1597395539283752,0.7400283813476562
-0.0207182876765728,1.2063612937927246,-0.1069202050566673,-0.600739061832428,-0.0352972298860549,0.0222174767404794,0.0,0.0,0.0152418613433837,-0.3138055801391601
-0.0218647010624408,1.1927735805511477,-0.1155404224991798,-0.6038824915885925,-0.0344170592725276,0.0176052488386631,0.0,0.0,0.3022793531417846,0.3294230699539184
-0.0229439735412597,1.1794744729995728,-0.1093113049864769,-0.5910446047782898,-0.0330469124019146,0.0274058785289526,0.0,0.0,0.0037906169891357,-0.1572057604789734
-0.0240632053464651,1.1659833192825315,-0.1133780032396316,-0.5995776653289795,-0.031602781265974,0.028885057196021,0.0,0.0,-0.3812214136123657,0.4280788898468017
-0.0252403263002634,1.151897430419922,-0.1192386522889137,-0.6260035037994385,-0.0300972182303667,0.0301140639930963,0.0,0.0,0.610511064529419,0.6528785228729248
-0.0263426788151264,1.137660264968872,-0.1106948107481002,-0.6327490210533142,-0.029644189402461,0.0090612256899476,0.0,0.0,0.0739997625350952,-0.4432857036590576
-0.027586555108428,1.123460054397583,-0.1245185285806655,-0.6311242580413818,-0.0295190382748842,0.0025034283753484,0.0,0.0,-0.6789306402206421,-0.081936240196228
-0.0288942344486713,1.1086435317993164,-0.1310113817453384,-0.6585043668746948,-0.0292754564434289,0.0048713167198002,0.0,0.0,-0.4513351917266845,0.3623189926147461
-0.0302667617797851,1.09323251247406,-0.1376324295997619,-0.6849281787872314,-0.0288961790502071,0.0075854444876313,0.0,0.0,-0.6477417349815369,0.3853863477706909
-0.0317055694758892,1.0772267580032349,-0.1444115489721298,-0.7113519906997681,-0.0283644497394561,0.0106342704966664,0.0,0.0,0.5240983963012695,0.0825103521347045
-0.0333118438720703,1.0617032051086426,-0.1607778668403625,-0.6899402737617493,-0.0282210130244493,0.0028685266152024,0.0,0.0,-0.9601750373840332,0.3497791290283203
-0.0349869728088378,1.0455849170684814,-0.1678387224674224,-0.7163639068603516,-0.0278935059905052,0.0065502016805112,0.0,0.0,-0.3997145891189575,-0.4194841384887695
-0.0367319099605083,1.0288718938827517,-0.1750246435403823,-0.7427875399589539,-0.027367029339075,0.0105294678360223,0.0,0.0,-0.630033552646637,0.0830743312835693
-0.0385476127266883,1.0115644931793213,-0.1823260188102722,-0.7692111134529114,-0.0266273729503154,0.0147933838889002,0.0,0.0,0.0431692600250244,-0.2782084941864013
-0.040473747998476,0.9944233298301696,-0.1933520883321762,-0.7618151903152466,-0.0259020626544952,0.0145064666867256,0.0,0.0,0.6613072156906128,-0.4497047662734985
-0.0425271987915039,0.9772340655326844,-0.2060253173112869,-0.7639629244804382,-0.0252334643155336,0.0133719053119421,0.0,0.0,0.2742022275924682,-0.1407765746116638
-0.0446292869746685,0.9601749181747437,-0.2112044394016266,-0.7581673860549927,-0.0242547038942575,0.0195753313601017,0.0,0.0,-0.7079323530197144,0.3847929239273071
-0.0468055717647075,0.9425212740898132,-0.2188841849565506,-0.7845909595489502,-0.0230121091008186,0.0248520094901323,0.0,0.0,-0.7644093036651611,0.2578966617584228
-0.049056626856327,0.9242727756500244,-0.2266405075788498,-0.8110147714614868,-0.0214945748448371,0.030350636690855,0.0,0.0,0.5118275880813599,0.4609087705612182
-0.051333237439394,0.9064733386039734,-0.2296485602855682,-0.7910598516464233,-0.0195304676890373,0.0392823033034801,0.0,0.0,-0.7888122200965881,0.7214572429656982
-0.0536322593688964,0.8880857229232788,-0.2308348715305328,-0.8172147870063782,-0.0186115764081478,0.0183776933699846,0.0,0.0,0.2597317695617676,0.6284215450286865
-0.055925466120243,0.8697973489761353,-0.2293350994586944,-0.812815248966217,-0.0185967683792114,0.0002960444544441,0.0,0.0,0.0314147472381591,0.7830977439880371
-0.0583021156489849,0.8516504168510437,-0.2363826334476471,-0.8065457940101624,-0.0198578145354986,-0.0252211987972259,0.0,0.0,0.0825036764144897,0.8406533002853394
-0.0605881698429584,0.8334165811538696,-0.2259950935840606,-0.810426652431488,-0.0224380008876323,-0.0516037121415138,0.0,0.0,0.5666185617446899,0.5453648567199707
-0.0628031715750694,0.8150234818458557,-0.2183699160814285,-0.8175235390663147,-0.0255230888724327,-0.0617019310593605,0.0,0.0,0.6362992525100708,0.3589730262756347
-0.0649845153093338,0.7968172430992126,-0.2158042937517166,-0.8092146515846252,-0.027817253023386,-0.0458832122385501,0.0,0.0,-0.0139405727386474,0.3892827033996582
-0.0672440528869628,0.7780161499977112,-0.2239840477705001,-0.8356383442878723,-0.0297688748687505,-0.0390323251485824,0.0,0.0,0.2462635040283203,0.888593316078186
-0.069464586675167,0.7589845061302185,-0.2186709940433502,-0.8459216356277466,-0.033114917576313,-0.0669208616018295,0.0,0.0,0.616497278213501,0.9541792869567872
-0.0716068297624588,0.7400016188621521,-0.2093639075756073,-0.8437995910644531,-0.0379217788577079,-0.0961372777819633,0.0,0.0,0.9276943206787108,0.7583200931549072
-0.0738734230399131,0.7218953371047974,-0.2202958762645721,-0.8048921227455139,-0.0442022122442722,-0.1256088316440582,0.0,0.0,-0.3532500863075256,0.6687929630279541
-0.0761778801679611,0.703198254108429,-0.2234046757221222,-0.8312085270881653,-0.0511558465659618,-0.1390726268291473,0.0,0.0,0.7167520523071289,0.6134884357452393
-0.0785099044442176,0.6846951842308044,-0.2252513617277145,-0.822653591632843,-0.0590221025049686,-0.157324880361557,0.0,0.0,0.5693780183792114,0.6490466594696045
-0.0806901901960372,0.6663925051689148,-0.2094615399837494,-0.8138133883476257,-0.06748678535223,-0.1692936867475509,0.0,0.0,0.5389981269836426,-0.6194020509719849
-0.0830107703804969,0.6485376954078674,-0.2249967753887176,-0.7938796877861023,-0.0744736343622207,-0.1397372186183929,0.0,0.0,-0.1112833023071289,0.8825476169586182
-0.0853292495012283,0.6300747990608215,-0.2230705022811889,-0.8210369348526001,-0.0831619948148727,-0.1737675368785858,0.0,0.0,0.8520419597625732,-0.3823497891426086
-0.0876498222351074,0.612354040145874,-0.2236885130405426,-0.788075864315033,-0.0914552062749862,-0.1658641248941421,0.0,0.0,0.7184649705886841,0.2333269119262695
-0.0898498520255088,0.594775378704071,-0.2127449065446853,-0.7817338705062866,-0.0986511930823326,-0.1439199000597,0.0,0.0,-0.4239853620529175,0.7095026969909668
-0.0920832604169845,0.5765923857688904,-0.2152761220932006,-0.8086881637573242,-0.106656864285469,-0.1601134985685348,0.0,0.0,0.9799909591674804,0.6998867988586426
-0.0941190719604492,0.5592179298400879,-0.1948084235191345,-0.772847592830658,-0.1153703778982162,-0.174270212650299,0.0,0.0,0.9569265842437744,-0.3430980443954468
-0.0959808379411697,0.5424113273620605,-0.1785553693771362,-0.7475665211677551,-0.1229448765516281,-0.1514901369810104,0.0,0.0,0.9716291427612304,0.1442084312438964
-0.0977139472961425,0.5264566540718079,-0.1664938032627105,-0.7096776366233826,-0.1297240406274795,-0.1355834007263183,0.0,0.0,0.9327638149261476,-0.808536171913147
-0.0995676070451736,0.5113126039505005,-0.1803559958934784,-0.6735090613365173,-0.1347105056047439,-0.0997294038534164,0.0,0.0,-0.7799840569496155,0.3085618019104004
-0.1015015617012977,0.4955737590789795,-0.1887836754322052,-0.6999309659004211,-0.1393152773380279,-0.0920952931046485,0.0,0.0,0.3169528245925903,0.118292212486267
-0.1035176292061805,0.4800871014595032,-0.196988359093666,-0.6887333393096924,-0.1439091712236404,-0.0918778926134109,0.0,0.0,0.5729120969772339,-0.1357462406158447
-0.1054268851876258,0.4647110402584076,-0.1872559934854507,-0.6837407350540161,-0.1475800424814224,-0.0734174400568008,0.0,0.0,0.6861889362335205,0.5907285213470459
-0.1072527915239334,0.4496529698371887,-0.1781662702560424,-0.6696931719779968,-0.1519896239042282,-0.0881915241479873,0.0,0.0,0.5997588634490967,0.5015460252761841
-0.1090533286333084,0.4345608651638031,-0.1750349402427673,-0.6712815761566162,-0.15700763463974,-0.100360170006752,0.0,0.0,0.0504019260406494,-0.1253436803817749
-0.1109531372785568,0.4194489419460296,-0.1849695146083831,-0.672178328037262,-0.1620173156261444,-0.1001935377717018,0.0,0.0,0.7029170989990234,-0.1720016002655029
-0.1127689331769943,0.4050424098968506,-0.1770472526550293,-0.6407895684242249,-0.1665551960468292,-0.0907574221491813,0.0,0.0,-0.289000391960144,0.6594403982162476
-0.1146074309945106,0.3900184631347656,-0.1781736761331558,-0.6683780550956726,-0.1722325384616851,-0.113546647131443,0.0,0.0,0.1430400609970092,0.1534180641174316
-0.1164061576128006,0.3752675056457519,-0.1746582090854644,-0.6562110781669617,-0.1774608790874481,-0.1045668497681617,0.0,0.0,-0.2127207517623901,-0.5206839442253113
-0.1183319091796875,0.3599318563938141,-0.1889186054468155,-0.6820279359817505,-0.1811251193284988,-0.0732850357890129,0.0,0.0,0.85148024559021,0.5346946716308594
-0.1202663406729698,0.3451409339904785,-0.1887712180614471,-0.6579525470733643,-0.1858187019824981,-0.0938715711236,0.0,0.0,0.5974260568618774,0.3643100261688232
-0.1221399307250976,0.3306336998939514,-0.183175578713417,-0.6452967524528503,-0.1900251656770706,-0.0841293409466743,0.0,0.0,0.8183221817016602,0.4468852281570434
-0.1240566223859787,0.3169405460357666,-0.1871737539768219,-0.6091654300689697,-0.1945429146289825,-0.0903548672795295,0.0,0.0,0.1784442663192749,0.5977672338485718
-0.1258694678544998,0.3032280206680298,-0.1760348975658416,-0.6101461052894592,-0.1998258680105209,-0.1056592017412185,0.0,0.0,0.8808096647262573,0.0230154991149902
-0.127710536122322,0.2895863950252533,-0.1790172159671783,-0.6069920659065247,-0.2049526572227478,-0.1025358811020851,0.0,0.0,0.8740310668945312,0.5475075244903564
-0.1294334381818771,0.275847315788269,-0.1666720658540725,-0.6114165186882019,-0.2106240093708038,-0.1134270280599594,0.0,0.0,0.997412919998169,-0.0748828649520874
-0.1311864852905273,0.2621270716190338,-0.1698260754346847,-0.6105769872665405,-0.2161504477262497,-0.1105290427803993,0.0,0.0,0.9855525493621826,0.2590110301971435
-0.1328229904174804,0.249211698770523,-0.1584533900022506,-0.5747889280319214,-0.221408262848854,-0.1051561832427978,0.0,0.0,0.9893579483032228,0.6359450817108154
-0.1341712027788162,0.2370944172143936,-0.1289440095424652,-0.5394402742385864,-0.2273579239845276,-0.1189936250448226,0.0,0.0,0.938464879989624,-0.3064147233963012
-0.1355090141296386,0.2258281260728836,-0.1276123225688934,-0.5016891956329346,-0.2336152493953704,-0.1251464337110519,0.0,0.0,0.8845164775848389,-0.0029398202896118
-0.1369801461696624,0.2145695090293884,-0.1405665576457977,-0.5014365911483765,-0.2402611523866653,-0.1329180896282196,0.0,0.0,0.9076199531555176,0.1874699592590332
-0.1382655203342437,0.2040291428565979,-0.1225018352270126,-0.4694619178771972,-0.2464050203561782,-0.1228772401809692,0.0,0.0,0.8973616361618042,-0.9229592084884644
-0.1396614015102386,0.1939286589622497,-0.135441705584526,-0.449610561132431,-0.2506305575370788,-0.0845111012458801,0.0,0.0,0.9712244272232056,0.6132960319519043
-0.1409529745578766,0.1844187527894973,-0.1238771304488182,-0.4235739409923553,-0.2560121715068817,-0.1076324582099914,0.0,0.0,0.956728219985962,-0.8517444729804993
-0.1421893090009689,0.1755510121583938,-0.1202890649437904,-0.3947106301784515,-0.2594361901283264,-0.0684804543852806,0.0,0.0,0.8776588439941406,-0.6594570279121399
-0.1432782113552093,0.1670256704092025,-0.1073497086763382,-0.3791767060756683,-0.2610064446926117,-0.0314045213162899,0.0,0.0,0.7350125312805176,-0.5724956393241882
-0.1443675011396408,0.1584276556968689,-0.1088300123810768,-0.3821532428264618,-0.2611079514026642,-0.0020304131321609,0.0,0.0,0.9720149040222168,-0.7404824495315552
-0.1453481614589691,0.149901732802391,-0.0999338626861572,-0.3785968422889709,-0.259197473526001,0.0382096469402313,0.0,0.0,0.8554375171661377,-0.2013468742370605
-0.1460777223110199,0.1416468918323516,-0.075799711048603,-0.3663814663887024,-0.256294310092926,0.0580634847283363,0.0,0.0,0.8391745090484619,-0.8855245113372803
-0.1466712057590484,0.1333889067173004,-0.0644611567258834,-0.3661379814147949,-0.251083642244339,0.104212962090969,0.0,0.0,0.8998510837554932,-0.0012661218643188
-0.1471278220415115,0.1257937550544738,-0.0509576685726642,-0.3366695940494537,-0.2456927150487899,0.1078186184167862,0.0,0.0,0.505347728729248,-0.7081941366195679
-0.1475100517272949,0.1186237409710884,-0.0451941080391407,-0.3175210058689117,-0.2386086881160736,0.1416802257299423,0.0,0.0,0.2427722215652465,-0.6696626543998718
-0.1477928161621093,0.1115747541189193,-0.036916859447956,-0.3119081854820251,-0.2298253178596496,0.1756673604249954,0.0,0.0,0.7229104042053223,-0.0228009819984436
-0.1479641944169998,0.1043929457664489,-0.0264702290296554,-0.3177596926689148,-0.2203725725412368,0.1890542060136795,0.0,0.0,0.9125752449035645,-0.3375114202499389
-0.1481336653232574,0.0975002348423004,-0.0262010935693979,-0.3049927651882171,-0.2110277414321899,0.1868970692157745,0.0,0.0,0.841008186340332,0.254185676574707
-0.1480762511491775,0.0913940966129303,-0.0041151503100991,-0.2700042724609375,-0.2010824531316757,0.1989056169986724,0.0,0.0,0.7723516225814819,-0.5509766936302185
-0.1480311453342437,0.0856127589941024,-0.0065501341596245,-0.2554852366447449,-0.1899482011795044,0.2226849347352981,0.0,0.0,0.8435484170913696,0.3129597902297973
-0.1480189263820648,0.0805848687887191,-0.0093787563964724,-0.2221378684043884,-0.1793109327554702,0.2127460539340973,0.0,0.0,0.7797353267669678,0.730792760848999
-0.147778034210205,0.0760338380932807,0.0145844500511884,-0.2011458724737167,-0.1697788536548614,0.1906413286924362,0.0,0.0,0.6674795150756836,0.524693489074707
-0.1474864929914474,0.0720164626836776,0.0207133740186691,-0.1776074320077896,-0.161325603723526,0.1690653860569,0.0,0.0,0.1432247161865234,0.5163908004760742
-0.1471933424472808,0.0681812614202499,0.0218949206173419,-0.1696686148643493,-0.1539094895124435,0.1483218967914581,0.0,0.0,0.1350338459014892,0.8793462514877319
-0.1468580216169357,0.0642446354031562,0.0277695804834365,-0.1743759512901306,-0.1481527835130691,0.1151341199874877,0.0,0.0,0.020526647567749,0.1399763822555542
-0.1465964317321777,0.0602807626128196,0.020621171221137,-0.1756312549114227,-0.1426305025815963,0.1104456335306167,0.0,0.0,0.4814362525939941,0.922659397125244
-0.1464034020900726,0.0564347617328166,0.0156850721687078,-0.1705897152423858,-0.1390272974967956,0.0720644146203994,0.0,0.0,0.4274417161941528,0.0959069728851318
-0.1460877358913421,0.0528976060450077,0.0274431016296148,-0.1568272709846496,-0.1349198669195175,0.0821489989757537,0.0,0.0,0.3882162570953369,0.4836506843566894
-0.1457315385341644,0.0492164716124534,0.0311828590929508,-0.1632115542888641,-0.1305019408464431,0.0883582755923271,0.0,0.0,0.187414288520813,0.6911770105361938
-0.1451832801103592,0.0457280986011028,0.0515576526522636,-0.15475694835186,-0.1272491514682769,0.0650559142231941,0.0,0.0,0.4756655693054199,0.435136079788208
-0.1446157395839691,0.0426804646849632,0.0535197146236896,-0.1351814419031143,-0.12403604388237,0.0642621666193008,0.0,0.0,0.1554210186004638,0.7926044464111328
-0.1438440382480621,0.0399039834737777,0.0753937289118766,-0.1232540383934974,-0.1222682893276214,0.0353550165891647,0.0,0.0,0.136083722114563,-0.1204149723052978
-0.143016055226326,0.037116702646017,0.0807373747229576,-0.1237118914723396,-0.1202194690704345,0.0409762524068355,0.0,0.0,0.0826627016067504,-0.3378841280937195
-0.1421709060668945,0.0345324836671352,0.0824476554989814,-0.1146879270672798,-0.1181620210409164,0.0411488339304924,0.0,0.0,-0.0356049537658691,0.2817295789718628
-0.1413658112287521,0.0313537456095218,0.0784129872918129,-0.1411121487617492,-0.1160817742347717,0.0416050106287002,0.0,0.0,0.4796737432479858,0.3363802433013916
-0.1404793709516525,0.0281797982752323,0.0861993581056594,-0.1408770680427551,-0.113652266561985,0.0485903844237327,0.0,0.0,0.3924401998519897,-0.0031336545944213
-0.1396718025207519,0.0252054780721664,0.0787823721766471,-0.1320417821407318,-0.111691266298294,0.0392196252942085,0.0,0.0,0.6622726917266846,0.271156907081604
-0.1389680802822113,0.0224302858114242,0.0689983516931533,-0.1232386901974678,-0.1103262081742286,0.0273010917007923,0.0,0.0,0.661308765411377,0.2732172012329101
-0.1382542550563812,0.0199092961847782,0.0701097398996353,-0.1119510233402252,-0.109066404402256,0.0251962728798389,0.0,0.0,0.3465213775634765,0.624783992767334
-0.1374493539333343,0.0174290761351585,0.0804420188069343,-0.1102299839258194,-0.1090205088257789,0.000918117177207,0.0,0.0,0.4356935024261474,0.1449739933013916
-0.1365237236022949,0.0148017266765236,0.092014268040657,-0.1167301759123802,-0.1084667816758155,0.0110742691904306,0.0,0.0,0.4836630821228027,-0.4867586493492126
-0.1354680061340332,0.012481365352869,0.1046282276511192,-0.1030606999993324,-0.1075308844447135,0.01871800981462,0.0,0.0,0.0698965787887573,-0.2276910543441772
-0.1342981308698654,0.0108543010428547,0.1031205058097839,-0.0713729113340377,-0.0937748923897743,0.2751195430755615,1.0,0.0,0.2105348110198974,-0.537746250629425
