x_pos,y_pos,x_vel,y_vel,angle,ang_vel,leg_1,leg_2,main_booster,lat_booster
-0.0014869689475744,1.403106451034546,-0.1506350636482238,-0.3472802340984344,0.0017290860414505,0.0341053530573844,0.0,0.0,-0.14247145686637,-0.8899771891083912
-0.0030016899108886,1.394793152809143,-0.1547789871692657,-0.3694842457771301,0.0050043845549225,0.0655128583312034,0.0,0.0,0.3874313823277919,0.6864015583989667
-0.0043039321899414,1.3864666223526,-0.1323919743299484,-0.3700787425041199,0.007141510490328,0.0427467450499534,0.0,0.0,0.1683048006021119,-0.9755121075978443
-0.0057493210770189,1.378146767616272,-0.1486017704010009,-0.3697968125343323,0.0111683038994669,0.0805433243513107,0.0,0.0,0.0324913343442023,-0.8650593038207449
-0.0071370126679539,1.36992347240448,-0.144576758146286,-0.3655349612236023,0.0169090274721384,0.1148250252008438,0.0,0.0,-0.4823285769039949,-0.9877931965904384
-0.0085502620786428,1.3611795902252195,-0.1486425250768661,-0.388717919588089,0.0241431277245283,0.1446952223777771,0.0,0.0,-0.8101525996096357,0.8611350203720382
-0.0098644252866506,1.351920485496521,-0.1370578110218048,-0.4116169512271881,0.0297192335128784,0.1115322560071945,0.0,0.0,-0.1716798880406236,-0.8529311858107771
-0.0111959455534815,1.3421438932418823,-0.1400534808635711,-0.4346641898155212,0.0365513563156127,0.136654645204544,0.0,0.0,0.3395432435346275,0.9316912239578627
-0.0124578475952148,1.3328802585601809,-0.1312012821435928,-0.4118481278419494,0.0415099747478961,0.0991819873452186,0.0,0.0,-0.3143532290473665,0.6926664809683485
-0.0136336330324411,1.323106288909912,-0.1211787685751915,-0.4345072507858276,0.0450832583010196,0.0714719966053962,0.0,0.0,-0.9705412733965542,-0.8594609895562675
-0.0148362163454294,1.312811017036438,-0.1253291666507721,-0.4577257037162781,0.0501029640436172,0.1004032492637634,0.0,0.0,-0.3929777459568015,0.793896600892873
-0.0159387588500976,1.3020014762878418,-0.1135298162698745,-0.480537474155426,0.0533490180969238,0.0649269446730613,0.0,0.0,0.1170375864485744,-0.6457146037164099
-0.0169891361147165,1.2913894653320312,-0.1097387224435806,-0.4718174636363983,0.0580030269920825,0.0930886641144752,0.0,0.0,0.3609828138580966,-0.8769819371255225
-0.0180322639644145,1.2806892395019531,-0.1108246222138404,-0.4758337736129761,0.0644544214010238,0.1290396153926849,0.0,0.0,-0.9702550543406994,0.9469883561196768
-0.0189567562192678,1.2694897651672363,-0.0965993702411651,-0.4979368448257446,0.0685700252652168,0.0823193565011024,0.0,0.0,-0.840543835177705,-0.8013039751419895
-0.0199062339961528,1.2577579021453855,-0.1004156619310379,-0.5216805338859558,0.073979839682579,0.1082060784101486,0.0,0.0,0.6189505494933258,0.7439779578537082
-0.0206869132816791,1.2467936277389526,-0.0823095217347145,-0.4875175654888153,0.078192301094532,0.0842568427324295,0.0,0.0,0.6516607208433305,0.6413843810652841
-0.0212686546146869,1.2358897924423218,-0.0614908933639526,-0.4847897887229919,0.081487089395523,0.0659013465046882,0.0,0.0,-0.7886416855586311,0.6850548978640807
-0.0217659957706928,1.2244820594787598,-0.0514492765069007,-0.507106363773346,0.0831876620650291,0.0340145453810691,0.0,0.0,0.2820233616745824,0.6429143249621191
-0.0222976692020893,1.213210105895996,-0.0534616522490978,-0.5009945631027222,0.0834791511297226,0.0058301975950598,0.0,0.0,0.9814544806600084,0.7486043369627648
-0.0226617809385061,1.2028011083602903,-0.0355919376015663,-0.4625686407089233,0.0826694294810295,-0.0161958578974008,0.0,0.0,0.8235110748646346,0.9611820922432924
-0.0229581836611032,1.192609786987305,-0.0269166622310876,-0.4527975916862488,0.0799630880355835,-0.0541315264999866,0.0,0.0,-0.1897815220957537,-0.9517167373039191
-0.0232974998652935,1.1818920373916626,-0.0326959453523159,-0.4762812554836273,0.0787371918559074,-0.0245198290795087,0.0,0.0,0.4013083747245032,-0.8692868748815767
-0.0236445423215627,1.1710423231124878,-0.035286009311676,-0.4822438359260559,0.0793117359280586,0.0114916898310184,0.0,0.0,0.5208709115119734,0.6995232996857376
-0.024114703759551,1.1605515480041504,-0.0458967760205268,-0.4661958515644073,0.0782083496451377,-0.0220698751509189,0.0,0.0,-0.5262107740271973,-0.7260927384808056
-0.024644661694765,1.1495167016983032,-0.0536900460720062,-0.4904742538928985,0.0788958147168159,0.013749323785305,0.0,0.0,-0.6557180150933988,0.9241526579600398
-0.0250931736081838,1.137978196144104,-0.0436696037650108,-0.5127612948417664,0.0777246952056884,-0.0234223883599042,0.0,0.0,-0.6762188130945621,0.9396223667151552
-0.0254777912050485,1.1259381771087646,-0.0357889309525489,-0.5349787473678589,0.0750816911458969,-0.0528600215911865,0.0,0.0,-0.9891518057533112,-0.9892748034472604
-0.0259532928466796,1.113377332687378,-0.047300212085247,-0.5582427978515625,0.0748304650187492,-0.0050246873870491,0.0,0.0,-0.5055109205378454,0.6613957363997159
-0.0263759605586528,1.1003016233444214,-0.040720872581005,-0.5810651779174805,0.0733063817024231,-0.0304816849529743,0.0,0.0,-0.1427257549446328,0.9246036411100068
-0.0267234798520803,1.0867266654968262,-0.0312854498624801,-0.6031687259674072,0.0698794424533844,-0.0685388147830963,0.0,0.0,0.1503242086244245,0.6114463280073161
-0.0271056182682514,1.0730854272842407,-0.0334304794669151,-0.6060577630996704,0.0651416406035423,-0.0947560220956802,0.0,0.0,-0.9463675543313844,0.6625313934009157
-0.0274464599788188,1.0589370727539062,-0.0281473901122808,-0.6285651326179504,0.0592638105154037,-0.1175564676523208,0.0,0.0,0.8269973800655686,-0.677272569351426
-0.0279458053410053,1.0448507070541382,-0.0451666489243507,-0.6258847713470459,0.0545520484447479,-0.0942353829741478,0.0,0.0,0.6243542022101993,0.8934208205105332
-0.0283978469669818,1.0311793088912964,-0.0386580452322959,-0.6073945760726929,0.0480883978307247,-0.1292732059955597,0.0,0.0,0.6018536558228442,0.6039096000167112
-0.0288276672363281,1.0180984735488892,-0.0352777764201164,-0.581141471862793,0.0404685102403163,-0.1523976624011993,0.0,0.0,-0.8136903283476615,-0.9738383584966356
-0.0293489452451467,1.0044901371002195,-0.0464616119861602,-0.6046679615974426,0.0348724611103534,-0.1119207888841629,0.0,0.0,0.3090778922281119,0.6729724856088927
-0.0298175811767578,0.9912782311439514,-0.039892055094242,-0.587051510810852,0.0279935821890831,-0.1375773847103119,0.0,0.0,-0.6246486620536906,-0.9558750527819764
-0.0303814895451068,0.9775559306144714,-0.0514803156256675,-0.609800398349762,0.0231408365070819,-0.09705501049757,0.0,0.0,0.8257662538900541,-0.8968945190774043
-0.0310135837644338,0.9643228054046632,-0.0601681545376777,-0.5880928635597229,0.020134400576353,-0.0601286962628364,0.0,0.0,0.2973233894738025,-0.8787639161081887
-0.0318415649235248,0.9514909982681274,-0.0814476534724235,-0.5702854990959167,0.0187990274280309,-0.0267073176801204,0.0,0.0,-0.9587684273719788,0.4235320091247558
-0.0326889045536518,0.9381411671638488,-0.0833762735128402,-0.5933135747909546,0.0174657423049211,-0.0266660209745168,0.0,0.0,-0.8918459415435791,0.1273281574249267
-0.0335568413138389,0.9242731928825378,-0.0854454413056373,-0.6163416504859924,0.0161344390362501,-0.0266260765492916,0.0,0.0,-0.9786052107810974,0.0405467748641967
-0.0344468131661415,0.9098870158195496,-0.087647445499897,-0.639369785785675,0.014805007725954,-0.0265888627618551,0.0,0.0,-0.91234689950943,0.0692031383514404
-0.0353600494563579,0.8949827551841736,-0.0899746343493461,-0.6623977422714233,0.0134772341698408,-0.0265555921941995,0.0,0.0,-0.9680538177490234,-0.673243522644043
-0.0363469123840332,0.8795525431632996,-0.0985876619815826,-0.6857863664627075,0.0133878616616129,-0.0017874526092782,0.0,0.0,-0.5091214776039124,-0.578080415725708
-0.0374003425240516,0.8636003732681274,-0.106297992169857,-0.7090008854866028,0.0143328253179788,0.0188994202762842,0.0,0.0,-0.4406657218933105,0.3902232646942138
-0.0384802818298339,0.8471298813819885,-0.1089563369750976,-0.7320288419723511,0.0152785209938883,0.018913846462965,0.0,0.0,-0.9376043081283568,-0.3781476020812988
-0.039587877690792,0.8301414251327515,-0.1117109656333923,-0.7550569176673889,0.0162245295941829,0.0189199615269899,0.0,0.0,-0.7738993167877197,0.2303276062011718
-0.0407238006591796,0.8126346468925476,-0.1145553216338157,-0.778084933757782,0.0171703565865755,0.0189167913049459,0.0,0.0,-0.284411072731018,0.1942381858825683
-0.0418890938162803,0.7946099638938904,-0.1174831241369247,-0.801112949848175,0.0181155521422624,0.0189036037772893,0.0,0.0,0.3596522808074951,0.893653154373169
-0.0430788993835449,0.7769826054573059,-0.1180834397673606,-0.7834216356277466,0.0172325540333986,-0.0176601819694042,0.0,0.0,0.3621470928192138,0.7524726390838623
-0.0441452041268348,0.759387195110321,-0.1043696552515029,-0.7820034027099609,0.0149968238547444,-0.0447145476937294,0.0,0.0,0.9329558610916138,0.1429992914199829
-0.0452532768249511,0.7426732182502747,-0.1085534915328025,-0.7428168058395386,0.0127760088071227,-0.0444162636995315,0.0,0.0,0.3443968296051025,-0.554914116859436
-0.0463102348148822,0.7260359525680542,-0.1048529520630836,-0.7394269108772278,0.0119436234235763,-0.0166477970778942,0.0,0.0,0.117868423461914,0.3101017475128174
-0.0474683754146099,0.7093576192855835,-0.11465685069561,-0.74125075340271,0.0108085526153445,-0.0227015241980552,0.0,0.0,-0.6460621356964111,0.7382200956344604
-0.0485920906066894,0.6921690106391907,-0.1095022186636924,-0.7639158964157104,0.007971684448421,-0.0567374229431152,0.0,0.0,0.680945634841919,-0.1945914626121521
-0.0496146194636821,0.6754934191703796,-0.1000274419784545,-0.7411279082298279,0.0057793795131146,-0.0438459105789661,0.0,0.0,-0.3340522646903991,0.1532301902770996
-0.0506712906062603,0.6582998037338257,-0.1034355908632278,-0.7641562223434448,0.0035815045703202,-0.0439575128257274,0.0,0.0,0.5271310806274414,0.498368501663208
-0.0518353469669818,0.6416772603988647,-0.1138526946306228,-0.7387785315513611,0.001051677740179,-0.0505964159965515,0.0,0.0,0.6280500888824463,0.4766672849655151
-0.0529844276607036,0.6250840425491333,-0.1125688552856445,-0.7374760508537292,-0.0012517079012468,-0.0460678525269031,0.0,0.0,0.3572497367858886,0.3974926471710205
-0.0542504303157329,0.6088371872901917,-0.1238688006997108,-0.7220823764801025,-0.0039437632076442,-0.0538412407040596,0.0,0.0,-0.2508004307746887,0.8955292701721191
-0.0554666519165039,0.5920698046684265,-0.1167076379060745,-0.7452396154403687,-0.0087901735678315,-0.0969283208250999,0.0,0.0,0.074697732925415,0.9006056785583496
-0.0566258430480957,0.5753830075263977,-0.1091853380203247,-0.7416931390762329,-0.0154355941340327,-0.1329085081815719,0.0,0.0,0.583478569984436,-0.6101900339126587
-0.0578555092215538,0.5587510466575623,-0.1174714788794517,-0.7392615079879761,-0.0208584479987621,-0.1084572896361351,0.0,0.0,0.7056794166564941,0.7171168327331543
-0.0591915138065815,0.5425196290016174,-0.1263550668954849,-0.7215136289596558,-0.028015699237585,-0.1431450545787811,0.0,0.0,-0.2726527452468872,0.4619436264038086
-0.0605642311275005,0.5257707834243774,-0.1300135254859924,-0.7445459365844727,-0.0351836830377578,-0.1433596760034561,0.0,0.0,0.2978466749191284,0.5031018257141113
-0.061856172978878,0.5088371634483337,-0.1210824698209762,-0.752816379070282,-0.043202668428421,-0.1603797227144241,0.0,0.0,0.5976696014404297,-0.0027324557304382
-0.063123419880867,0.4926217496395111,-0.1187234371900558,-0.7209370136260986,-0.0511126667261123,-0.1582001000642776,0.0,0.0,0.3029286861419678,-0.1921635866165161
-0.0644829720258712,0.4764540195465088,-0.1275952607393264,-0.7188748717308044,-0.0593784488737583,-0.1653154194355011,0.0,0.0,0.7439424991607666,-0.1145808100700378
-0.0659342780709266,0.4608480036258697,-0.1363051831722259,-0.6939772367477417,-0.0681055709719657,-0.174542635679245,0.0,0.0,-0.4770927429199219,0.7783668041229248
-0.0673584938049316,0.4447198510169983,-0.1319389045238495,-0.7173152565956116,-0.0784747153520584,-0.2073831856250763,0.0,0.0,0.3515578508377075,0.471989631652832
-0.0688711181282997,0.4291206300258636,-0.1402930319309234,-0.6939101815223694,-0.0893453285098075,-0.2174121439456939,0.0,0.0,-0.4980827569961548,0.7839229106903076
-0.0703522711992263,0.4129957556724548,-0.1353639513254165,-0.7174676060676575,-0.1019831001758575,-0.2527554035186767,0.0,0.0,-0.0385146141052246,-0.4235422611236572
-0.0718710869550705,0.3963549733161926,-0.1391454041004181,-0.7405089735984802,-0.11463563144207,-0.2530505061149597,0.0,0.0,0.8097445964813232,-0.0547741651535034
-0.0733130425214767,0.3797159194946289,-0.1318087875843048,-0.7405092716217041,-0.1269587576389312,-0.2464626729488372,0.0,0.0,0.7875452041625977,-0.7936709523200989
-0.0748467445373535,0.3631182610988617,-0.1424837261438369,-0.7386376857757568,-0.1377911269664764,-0.2166475802659988,0.0,0.0,0.9416568279266356,-0.9264543056488036
-0.0763729065656662,0.3474143743515014,-0.1435737162828445,-0.6988099813461304,-0.1468037515878677,-0.1802524030208587,0.0,0.0,0.9274420738220216,-0.8173255920410156
-0.0777601227164268,0.3326053619384765,-0.1315386146306991,-0.6589031219482422,-0.1539793461561203,-0.1435122936964035,0.0,0.0,0.8623769283294678,-0.7085981965065002
-0.0792343169450759,0.3186959326267242,-0.141311839222908,-0.6188404560089111,-0.1600708067417144,-0.1218292564153671,0.0,0.0,0.3451519012451172,-0.5368278622627258
-0.0808590874075889,0.3047003149986267,-0.1571968793869018,-0.622610867023468,-0.1653640270233154,-0.1058645099401474,0.0,0.0,0.740516185760498,0.0408579111099243
-0.0823432952165603,0.2914084196090698,-0.1433123648166656,-0.5913245677947998,-0.1704777479171753,-0.1022743433713913,0.0,0.0,0.9549514055252076,-0.5035358667373657
-0.0839142799377441,0.2786478400230407,-0.1526019126176834,-0.5676622986793518,-0.1749846935272216,-0.0901389792561531,0.0,0.0,0.3636190891265869,-0.0272806882858276
-0.0854707732796669,0.2662075459957123,-0.1509331315755844,-0.5534648895263672,-0.1797183007001876,-0.0946717858314514,0.0,0.0,0.8633120059967041,0.714846134185791
-0.086882971227169,0.2544058859348297,-0.13503497838974,-0.5252817869186401,-0.1859345436096191,-0.1243244633078575,0.0,0.0,0.4520120620727539,-0.6402049660682678
-0.0882062911987304,0.2428311258554458,-0.1275711357593536,-0.5150374174118042,-0.1907151192426681,-0.0956115797162056,0.0,0.0,0.2405241727828979,-0.492569625377655
-0.0895016640424728,0.2311121523380279,-0.124857947230339,-0.5214577913284302,-0.1954308599233627,-0.0943144485354423,0.0,0.0,0.8636379241943359,-0.5210127830505371
-0.0906793624162674,0.2195194363594055,-0.1144192665815353,-0.515675961971283,-0.1987974345684051,-0.0673313438892364,0.0,0.0,0.8107843399047852,0.092772364616394
-0.0916136726737022,0.2082813382148742,-0.0908099859952926,-0.4998252689838409,-0.2014354765415191,-0.0527604110538959,0.0,0.0,0.9412710666656494,-0.2650009393692016
-0.0923330336809158,0.1971570998430252,-0.0700569748878479,-0.494667112827301,-0.2033330500125885,-0.037951435893774,0.0,0.0,0.8868342638015747,-0.9254361987113952
-0.0929950699210167,0.1868062168359756,-0.0661418288946151,-0.4600496888160705,-0.2033952325582504,-0.0012437829282134,0.0,0.0,0.6108441352844238,-0.9493837356567384
-0.0935849174857139,0.1770431846380233,-0.0608548447489738,-0.4336575269699096,-0.2015194147825241,0.0375164188444614,0.0,0.0,0.1108299493789672,-0.9099647998809814
-0.0940965637564659,0.1674166321754455,-0.0548357665538787,-0.4273502230644226,-0.1978199034929275,0.073989912867546,0.0,0.0,-0.1903700828552246,-0.641975462436676
-0.0946886092424392,0.1572780907154083,-0.0639228671789169,-0.4499784409999847,-0.193067654967308,0.0950450152158737,0.0,0.0,0.7836644649505615,0.458294153213501
-0.0952687263488769,0.147447407245636,-0.0624659284949302,-0.4363460540771484,-0.1885935813188552,0.0894812420010566,0.0,0.0,0.7659943103790283,0.2529013156890869
-0.0956250205636024,0.1384323239326477,-0.0404806248843669,-0.4000612199306488,-0.1837163567543029,0.0975443944334983,0.0,0.0,0.4775265455245971,-0.7280098795890808
-0.096005342900753,0.1296720057725906,-0.0442895889282226,-0.3885846734046936,-0.1774336397647857,0.1256542354822158,0.0,0.0,0.3776445388793945,-0.0099541544914245
-0.0964082702994346,0.1214009374380111,-0.0460716858506202,-0.3669241666793823,-0.1716452240943908,0.1157681941986084,0.0,0.0,0.4997395277023315,-0.4283822178840637
-0.0966627150774002,0.1135283336043357,-0.0315747298300266,-0.3492016196250915,-0.1655050218105316,0.1228040680289268,0.0,0.0,0.5711476802825928,-0.0787432789802551
-0.0968872085213661,0.1062061861157417,-0.0283362921327352,-0.3247838318347931,-0.1596133857965469,0.1178328394889831,0.0,0.0,0.0171830654144287,-0.7692398428916931
-0.0971935242414474,0.0990833863615989,-0.0380388870835304,-0.3157938718795776,-0.1522152125835418,0.147963285446167,0.0,0.0,0.4916810989379883,0.7914071083068848
-0.0974320396780967,0.092098481953144,-0.029617378488183,-0.3098602592945099,-0.1464519202709198,0.1152657493948936,0.0,0.0,0.4871536493301391,0.6031081676483154
-0.0976941138505935,0.0854143500328064,-0.0305202696472406,-0.2966572344303131,-0.1421573311090469,0.0858917757868766,0.0,0.0,0.6864120960235596,0.577669620513916
-0.0980356186628341,0.0790301188826561,-0.036856323480606,-0.2834861576557159,-0.1394501030445099,0.0541443228721618,0.0,0.0,0.6302554607391357,0.7905502319335938
-0.0981382355093956,0.073148638010025,-0.0115939667448401,-0.2612734735012054,-0.1381241679191589,0.0265184696763753,0.0,0.0,0.3721983432769775,0.633408784866333
-0.0981304198503494,0.0671769678592681,0.0006249725702218,-0.2653914988040924,-0.1379681825637817,0.0031198512297123,0.0,0.0,0.4413352012634277,0.3366568088531494
-0.0979417786002159,0.0616500489413738,0.0181240066885948,-0.2455753237009048,-0.1372338831424713,0.014685871079564,0.0,0.0,0.1673150062561035,0.0906170606613159
-0.0977300629019737,0.0564229600131511,0.0205208212137222,-0.2322533875703811,-0.1365803182125091,0.0130713479593396,0.0,0.0,-0.0793631672859191,0.4850691556930542
-0.097553826868534,0.0506777390837669,0.0169671438634395,-0.2552813589572906,-0.1359315365552902,0.0129754971712827,0.0,0.0,0.4946379661560058,-0.2227213978767395
-0.0972735434770584,0.0451797805726528,0.0270666815340518,-0.2442691028118133,-0.1349671185016632,0.0192884020507335,0.0,0.0,0.6407696008682251,-0.1081940531730651
-0.0969261154532432,0.0403702594339847,0.033807598054409,-0.2136705368757248,-0.1340382248163223,0.0185779370367527,0.0,0.0,0.2293670177459716,0.2470607757568359
-0.0964902862906456,0.0359047763049602,0.0424407981336116,-0.1983633041381836,-0.1329015642404556,0.0227332580834627,0.0,0.0,0.5085687637329102,-0.0283455252647399
-0.0959604233503341,0.0315290540456771,0.0515097379684448,-0.1943476349115371,-0.1314242333173751,0.0295465141534805,0.0,0.0,0.3702270984649658,0.2239636182785034
-0.0954977050423622,0.0274176932871341,0.045251227915287,-0.1826389282941818,-0.1304143965244293,0.0201968811452388,0.0,0.0,0.4231977462768554,0.1631420850753784
-0.0951206237077713,0.0234692674130201,0.0372129343450069,-0.1754422038793563,-0.1299127787351608,0.0100324414670467,0.0,0.0,0.5751602649688721,0.382315993309021
-0.0947272330522537,0.0198060125112533,0.0389213189482688,-0.1627724319696426,-0.1295013427734375,0.0082286866381764,0.0,0.0,0.5653679370880127,0.4792491197586059
-0.0942768082022667,0.0163717847317457,0.0445032641291618,-0.1525889933109283,-0.1289696842432022,0.0106331426650285,0.0,0.0,-0.0221413373947143,-0.0444214344024658
-0.0938586220145225,0.0124193523079156,0.0412768647074699,-0.1756168156862259,-0.1284299492835998,0.0107945818454027,1.0,0.0,0.389351487159729,-0.10236257314682
-0.0932034477591514,0.0095704169943928,0.0465040020644664,-0.1253701895475387,-0.1087352707982063,0.3949287533760071,1.0,0.0,0.5597753524780273,-0.1241915225982666
-0.0923444777727127,0.0078471163287758,0.0521667227149009,-0.0744903087615966,-0.075233370065689,0.67010897397995,1.0,0.0,0.0468077659606933,-0.0117744803428649
