x_pos,y_pos,x_vel,y_vel,angle,ang_vel,leg_1,leg_2,main_booster,lat_booster
-0.0015214920276775,1.4031566381454468,-0.1539083123207092,-0.3450374901294708,0.0015686344122514,0.0309284143149852,0.0,0.0,0.8921089321002624,-0.757438816522636
-0.0030382156837731,1.395737648010254,-0.1546826660633087,-0.3297435939311981,0.0045570009388029,0.0597733780741691,0.0,0.0,-0.076621471390337,-0.6813434308775069
-0.0045969011262059,1.3878449201583862,-0.1597626954317093,-0.3507973253726959,0.0084046935662627,0.076961301267147,0.0,0.0,0.9496674675815956,0.582330010544521
-0.0062659261748194,1.3803660869598389,-0.168993204832077,-0.3324126303195953,0.0104709966108202,0.041329838335514,0.0,0.0,0.7994884403141156,0.9819612259440476
-0.0077106477692723,1.373491287231445,-0.144684836268425,-0.3055464923381805,0.0106777194887399,0.0041351141408085,0.0,0.0,0.9293076460900516,-0.8772995657781737
-0.0090585704892873,1.3671003580093384,-0.1369702368974685,-0.2840550541877746,0.0128241050988435,0.0429317988455295,0.0,0.0,-0.311129048853167,-0.7788749216849585
-0.0104745868593454,1.3602405786514282,-0.145222395658493,-0.3049141466617584,0.0164070539176464,0.0716654956340789,0.0,0.0,-0.889787703930141,-0.6470485283714726
-0.0119342803955078,1.352914333343506,-0.1504012942314148,-0.3256669342517853,0.0207991115748882,0.0878489091992378,0.0,0.0,-0.8166155557849908,0.9317615959113996
-0.0133280754089355,1.345132827758789,-0.1418496221303939,-0.3458804190158844,0.0232337173074483,0.0486967340111732,0.0,0.0,-0.8571482021719603,-0.712108661514476
-0.014784812927246,1.3368861675262451,-0.149423211812973,-0.3665798306465149,0.0269411951303482,0.0741562098264694,0.0,0.0,0.5661255833496128,0.6174876137801452
-0.0161267276853323,1.329023003578186,-0.1367837935686111,-0.3495287895202636,0.0295028556138277,0.0512381717562675,0.0,0.0,-0.5799663071860697,0.9270644222991145
-0.0173948295414447,1.3206934928894043,-0.1271935999393463,-0.3702067136764526,0.0298856720328331,0.0076571502722799,0.0,0.0,-0.2002913753810133,-0.5052988574845068
-0.0187023170292377,1.3118976354599,-0.1318131387233734,-0.3909537196159363,0.0309355836361646,0.0210000909864902,0.0,0.0,0.2625403648361664,0.6496120956311169
-0.0199169162660837,1.303039789199829,-0.1212022751569747,-0.3936737775802612,0.0306864585727453,-0.0049830237403512,0.0,0.0,-0.2492508968213465,-0.9070953397109516
-0.0211953166872262,1.2937209606170654,-0.1288748681545257,-0.4141877591609955,0.0317107215523719,0.020487155765295,0.0,0.0,-0.1287451606999301,0.7891400783711101
-0.0224090572446584,1.2839288711547852,-0.1204421371221542,-0.4351900219917297,0.0307865571230649,-0.0184849686920642,0.0,0.0,-0.0140535523702141,0.7871421027510194
-0.0235559456050395,1.273681640625,-0.1117205023765564,-0.4553726613521576,0.0278520714491605,-0.0586951486766338,0.0,0.0,0.0756983099644144,0.7993518707896246
-0.0245479587465524,1.263333082199097,-0.0946121513843536,-0.4598591923713684,0.0233078133314847,-0.0908933281898498,0.0,0.0,0.1686612738311277,-0.8812606128309173
-0.0255523677915334,1.2533769607543943,-0.0975732058286666,-0.4424481391906738,0.0204755365848541,-0.0566502884030342,0.0,0.0,-0.0146774441562698,-0.771722815296636
-0.0266351699829101,1.242950677871704,-0.1070986837148666,-0.4633764624595642,0.0193095933645963,-0.0233211182057857,0.0,0.0,-0.9249328139676772,0.6276364881990448
-0.0276671405881643,1.2320629358291626,-0.10042005777359,-0.4838598966598511,0.0165678989142179,-0.0548388548195362,0.0,0.0,-0.1427092759101831,0.7944397152623321
-0.0286438949406147,1.2207049131393433,-0.0932213887572288,-0.5047590136528015,0.0121604520827531,-0.0881571397185325,0.0,0.0,0.3682860343560143,0.7329703291747682
-0.029456902295351,1.209558129310608,-0.0754990875720977,-0.4953784346580505,0.0064313127659261,-0.1145932301878929,0.0,0.0,-0.2326507326854112,0.7827275657125794
-0.0302090644836425,1.1979360580444336,-0.0676115527749061,-0.5165234804153442,-0.0010793185792863,-0.1502260714769363,0.0,0.0,-0.8940661073767227,-0.8826701341675045
-0.0310552604496479,1.18584942817688,-0.0791857242584228,-0.5371965765953064,-0.0064597618766129,-0.107618473470211,0.0,0.0,-0.2959227883738253,0.7360650189979381
-0.0318650230765342,1.1732776165008545,-0.0743670314550399,-0.5587906241416931,-0.0129848578944802,-0.1305018067359924,0.0,0.0,-0.8901888885859923,0.7762039482256329
-0.0326200500130653,1.1602423191070557,-0.0672901272773742,-0.579431414604187,-0.021092627197504,-0.1621554791927337,0.0,0.0,0.9054926879048624,0.7327920049525287
-0.0334667190909385,1.1481791734695437,-0.0745661333203315,-0.5363197326660156,-0.0310626197606325,-0.1993998736143112,0.0,0.0,0.7484532497371734,0.5438571515962938
-0.0343979820609092,1.1368882656097412,-0.0815095081925392,-0.5021051168441772,-0.0425378568470478,-0.2295048236846923,0.0,0.0,-0.572737287485374,0.5253645131628446
-0.0352944359183311,1.1251270771026611,-0.0769926980137825,-0.5231322646141052,-0.055037036538124,-0.2499836385250091,0.0,0.0,-0.1773297389273354,-0.9356343966665306
-0.0362664237618446,1.112916350364685,-0.0863795205950737,-0.543132483959198,-0.0657404661178588,-0.2140686810016632,0.0,0.0,-0.6385632157325745,-0.936513125896454
-0.0373259559273719,1.100242018699646,-0.0972417369484901,-0.5637100338935852,-0.0743463113903999,-0.172116994857788,0.0,0.0,0.5998551845550537,-0.9900530576705932
-0.0384985916316509,1.088290095329285,-0.1104532480239868,-0.5315513014793396,-0.0810800939798355,-0.134675920009613,0.0,0.0,-0.0239712595939636,-0.0272470712661743
-0.0396729484200477,1.0758709907531738,-0.1106431633234024,-0.5523404479026794,-0.0878127142786979,-0.1346523463726043,0.0,0.0,-0.7242677807807922,-0.8218391537666321
-0.0409111008048057,1.0629945993423462,-0.1186394840478897,-0.5725895166397095,-0.0929468944668769,-0.1026835590600967,0.0,0.0,0.0468370914459228,-0.0562177896499633
-0.042093276977539,1.050365328788757,-0.1130946725606918,-0.5616337656974792,-0.0980199947953224,-0.1014619469642639,0.0,0.0,-0.9065116047859192,-0.8740163445472717
-0.0433463081717491,1.0372745990753174,-0.1220321431756019,-0.582028329372406,-0.1012656912207603,-0.0649138838052749,0.0,0.0,-0.3455480337142944,-0.1291770935058593
-0.0445970520377159,1.0237162113189695,-0.1218188628554344,-0.6028144955635071,-0.1044980362057685,-0.0646470710635185,0.0,0.0,-0.9778807163238524,-0.9403194189071656
-0.0459224693477153,1.0097131729125977,-0.1313140243291854,-0.6224471926689148,-0.1057130172848701,-0.0242998171597719,0.0,0.0,-0.0536882281303405,-0.4382888674736023
-0.0472432151436805,0.9952422976493835,-0.1308715492486953,-0.643232524394989,-0.106910116970539,-0.0239418484270572,0.0,0.0,-0.3607019186019897,-0.356164813041687
-0.048558235168457,0.980303943157196,-0.130308449268341,-0.6640178561210632,-0.108087420463562,-0.0235458873212337,0.0,0.0,-0.1051152348518371,-0.4284437894821167
-0.0498661026358604,0.9648977518081664,-0.1296210587024688,-0.6848031282424927,-0.1092432662844657,-0.0231171157211065,0.0,0.0,-0.0077092051506042,-0.0555623173713684
-0.0511654838919639,0.9490239024162292,-0.128805935382843,-0.7055884599685669,-0.1103762984275817,-0.0226605962961912,0.0,0.0,-0.0074312090873718,-0.8187089562416077
-0.0525091178715229,0.932689607143402,-0.134620264172554,-0.7259492874145508,-0.1101220920681953,0.0050839115865528,0.0,0.0,-0.0451233386993408,0.049457311630249
-0.0538417808711528,0.915887713432312,-0.1335406005382537,-0.7467344999313354,-0.1098430380225181,0.0055810618214309,0.0,0.0,0.4492955207824707,-0.6192384362220764
-0.0551352500915527,0.8990495800971985,-0.1309839189052581,-0.7482403516769409,-0.1082135289907455,0.0325902216136455,0.0,0.0,0.5291603803634644,0.1101033687591552
-0.0563139915466308,0.8823515176773071,-0.1198107004165649,-0.741999626159668,-0.1062969416379928,0.0383315607905387,0.0,0.0,0.1820125579833984,0.532974362373352
-0.0574598312377929,0.8660884499549866,-0.1152853593230247,-0.7227509021759033,-0.1055887043476104,0.0141643732786178,0.0,0.0,-0.4448211193084717,-0.0809682011604309
-0.0585888847708702,0.8493577837944031,-0.1136485561728477,-0.7435361742973328,-0.1048545092344284,0.0146838277578353,0.0,0.0,0.1511290073394775,0.0463948249816894
-0.0596775040030479,0.8326902985572815,-0.1095558404922485,-0.7407270073890686,-0.1041628718376159,0.0138328624889254,0.0,0.0,-0.3636592626571655,-0.2122722268104553
-0.0607465729117393,0.815555214881897,-0.1076314449310302,-0.7615121603012085,-0.1034461110830307,0.0143352430313825,0.0,0.0,-0.2737835049629211,-0.7420268058776855
-0.0618582740426063,0.7979671955108643,-0.1135577708482742,-0.781522810459137,-0.1010820418596267,0.0472815595567226,0.0,0.0,0.1638996601104736,0.025165319442749
-0.0628394111990928,0.7803673148155212,-0.1008786186575889,-0.782029390335083,-0.0983383357524871,0.0548740550875663,0.0,0.0,0.2066390514373779,0.1570286750793457
-0.0637371987104415,0.7631691694259644,-0.0925755873322486,-0.7641780972480774,-0.0955616757273674,0.0555334165692329,0.0,0.0,-0.0549631118774414,-0.0984350442886352
-0.0646097213029861,0.7455034852027893,-0.0900707989931106,-0.7849639654159546,-0.0927642658352851,0.0559480376541614,0.0,0.0,0.8409914970397949,-0.0883554220199585
-0.0655128508806228,0.7281692624092102,-0.0926611647009849,-0.7702696919441223,-0.0904402881860733,0.0464796088635921,0.0,0.0,0.3579696416854858,-0.5040220618247986
-0.0662850365042686,0.7113445997238159,-0.0807926729321479,-0.747545599937439,-0.0868924632668495,0.0709563195705413,0.0,0.0,-0.1935062408447265,0.1439747810363769
-0.0670276656746864,0.6940525770187378,-0.0778579339385032,-0.7683318853378296,-0.0833294093608856,0.0712612271308898,0.0,0.0,0.1387996673583984,0.531660795211792
-0.0675933808088302,0.6771343350410461,-0.059220802038908,-0.7517744302749634,-0.0807040557265281,0.0525069944560527,0.0,0.0,-0.2312582731246948,-0.089083194732666
-0.0681268721818924,0.6597486138343811,-0.0560064502060413,-0.7725602388381958,-0.0780680775642395,0.0527195408940315,0.0,0.0,0.4250860214233398,0.3296436071395874
-0.0685577392578125,0.6423677802085876,-0.0459670722484588,-0.7723351120948792,-0.0752197951078414,0.0569656193256378,0.0,0.0,0.3687942028045654,0.4927377700805664
-0.0689928084611892,0.6253980398178101,-0.0460086055099964,-0.7540918588638306,-0.0727505460381507,0.0493849888443946,0.0,0.0,0.1732819080352783,0.3801335096359253
-0.0692775696516037,0.6085005402565002,-0.0313822366297245,-0.7508625388145447,-0.0698731839656829,0.057547241449356,0.0,0.0,0.1683690547943115,0.3023433685302734
-0.0694779381155967,0.59178227186203,-0.0230235792696476,-0.7428953051567078,-0.0669194385409355,0.059074979275465,0.0,0.0,0.2930417060852051,0.6962095499038696
-0.0695571899414062,0.5750547051429749,-0.0095056612044572,-0.7433798313140869,-0.0653466433286666,0.0314556322991848,0.0,0.0,0.437027096748352,-0.24789559841156
-0.0696703940629959,0.558639407157898,-0.012393370270729,-0.7295204997062683,-0.0642792731523513,0.0213473942130804,0.0,0.0,0.2973897457122803,-0.4568129777908325
-0.0696824043989181,0.5427609086036682,-0.0023569415789097,-0.7056643962860107,-0.0631447806954383,0.022690013051033,0.0,0.0,-0.0722932815551757,-0.48591148853302
-0.0696524605154991,0.526414692401886,0.0018721288070082,-0.7264499068260193,-0.0620247647166252,0.0223999787122011,0.0,0.0,0.7827956676483154,-0.5534866452217102
-0.0695343986153602,0.5109875798225403,0.0094878124073147,-0.685554563999176,-0.0597344823181629,0.045805886387825,0.0,0.0,0.1404589414596557,-0.20263671875
-0.0694173797965049,0.4955879747867584,0.0097064105793833,-0.6843492984771729,-0.0577668920159339,0.0393520221114158,0.0,0.0,0.1070725917816162,0.0630624294281005
-0.069290354847908,0.4804055392742157,0.0110230213031172,-0.674711287021637,-0.0561101250350475,0.0331354439258575,0.0,0.0,0.3605406284332275,-0.1956363916397094
-0.06906308978796,0.4655208587646484,0.0209589395672082,-0.6614738702774048,-0.0543664544820785,0.034873329102993,0.0,0.0,0.255272626876831,-0.4549406170845032
-0.0688516646623611,0.4511376917362213,0.0198757331818342,-0.6392073035240173,-0.0531100332736969,0.025128373876214,0.0,0.0,0.1055511236190795,-0.2726628184318542
-0.0685226470232009,0.4368617534637451,0.0314406864345073,-0.6344335675239563,-0.051664937287569,0.0289020650088787,0.0,0.0,0.3977257013320923,-0.3669912219047546
-0.0681562423706054,0.4226160943508148,0.0353520661592483,-0.6330974102020264,-0.0503949038684368,0.0254005845636129,0.0,0.0,0.2345412969589233,-0.0169970989227294
-0.0676774010062217,0.4082629084587097,0.0464098528027534,-0.6378728747367859,-0.0489373467862606,0.0291508734226226,0.0,0.0,0.0968017578125,-0.5854421854019165
-0.0672072395682334,0.3937789797782898,0.0444566160440444,-0.6436487436294556,-0.0464038923382759,0.0506691560149192,0.0,0.0,0.8117141723632812,-0.1997114419937133
-0.0666549652814865,0.3801314830780029,0.0527603439986705,-0.6064831614494324,-0.0439694710075855,0.0486883707344532,0.0,0.0,-0.0243609547615051,-0.1926757097244262
-0.0660512894392013,0.3660163283348083,0.057963915169239,-0.6272692084312439,-0.0415961630642414,0.0474661514163017,0.0,0.0,0.7520558834075928,-0.4721719026565552
-0.0654785186052322,0.3527401089668274,0.0555000826716423,-0.5900065302848816,-0.0398390665650367,0.03514214605093,0.0,0.0,0.6764943599700928,-0.2659121751785278
-0.0649710670113563,0.3395078778266907,0.0496504604816436,-0.5880706310272217,-0.0387596003711223,0.0215892381966114,0.0,0.0,0.8447668552398682,0.0529428720474243
-0.0643316283822059,0.3271283805370331,0.0627262219786644,-0.5501670837402344,-0.0375466495752334,0.0242586340755224,0.0,0.0,0.3575506210327148,-0.0534793734550476
-0.0637042075395584,0.3149948418140411,0.0619765408337116,-0.539250373840332,-0.0367984063923358,0.0149649707600474,0.0,0.0,-0.2721010446548462,0.037172794342041
-0.0630233734846115,0.3023936748504638,0.0674163177609443,-0.5600360631942749,-0.0361342616379261,0.0132828522473573,0.0,0.0,0.768344521522522,-0.7446763515472412
-0.0623343475162982,0.290454626083374,0.0668460801243782,-0.5305776596069336,-0.0341068319976329,0.0405485779047012,0.0,0.0,0.2974371910095215,-0.3643140792846679
-0.0615073218941688,0.2787293791770935,0.0804224833846092,-0.5210701823234558,-0.0318558290600776,0.0450201667845249,0.0,0.0,-0.1744581460952758,-0.4957011938095093
-0.0606262199580669,0.2665366232395172,0.085934117436409,-0.5418561697006226,-0.0297024566680192,0.0430673137307167,0.0,0.0,0.8748569488525391,0.0316323041915893
-0.0595720298588275,0.2545567452907562,0.102845586836338,-0.532392680644989,-0.0271642468869686,0.0507641620934009,0.0,0.0,0.3910250663757324,-0.2668402194976806
-0.0583267211914062,0.2428251057863235,0.1214846223592758,-0.5213513970375061,-0.024159513413906,0.0600947551429271,0.0,0.0,0.4937460422515869,-0.4983211159706116
-0.0568926818668842,0.2311562150716781,0.1398848742246627,-0.5185660719871521,-0.0206825286149978,0.0695396959781646,0.0,0.0,0.7811295986175537,-0.7437824010848999
-0.0554532036185264,0.220241978764534,0.1390551626682281,-0.4850181043148041,-0.0158553402870893,0.0965437889099121,0.0,0.0,0.6575318574905396,-0.7256326079368591
-0.0539711937308311,0.2100079655647277,0.1419012397527694,-0.4547911882400512,-0.0096344640478491,0.1244173422455787,0.0,0.0,-0.150523841381073,-0.8368223905563354
-0.0524880401790142,0.1993108838796615,0.1407988518476486,-0.4753980338573456,-0.0022167020943015,0.1483552455902099,0.0,0.0,0.5587254762649536,-0.9272897243499756
-0.0509168617427349,0.1885991394519806,0.1477290242910385,-0.4760917723178863,0.0070492434315383,0.1853188723325729,0.0,0.0,0.7435276508331299,-0.9571082592010498
-0.0494343750178813,0.1782228499650955,0.1371593922376632,-0.4612530469894409,0.0179972574114799,0.2189602106809616,0.0,0.0,0.5198290348052979,-0.4761289358139038
-0.047835923731327,0.1685729771852493,0.148535817861557,-0.4290551543235779,0.0291710216552019,0.2234752625226974,0.0,0.0,0.0957616567611694,-0.4750691652297973
-0.0462119095027446,0.1590223163366317,0.1512962430715561,-0.4247251152992248,0.0401353202760219,0.2192860841751098,0.0,0.0,0.1002649068832397,-0.8255051374435425
-0.0447196960449218,0.1497975885868072,0.1366546154022216,-0.4103707671165466,0.0525554567575454,0.2484027594327926,0.0,0.0,0.1000939607620239,0.1549957990646362
-0.0431432723999023,0.1408076882362365,0.144945427775383,-0.4000396728515625,0.0650992691516876,0.2508761286735534,0.0,0.0,-0.1572990417480468,-0.623350203037262
-0.0415709502995014,0.1313516497611999,0.1433428525924682,-0.4209295511245727,0.0788457840681076,0.2749305665493011,0.0,0.0,0.8869283199310303,0.0480515956878662
-0.0401111617684364,0.1226978376507759,0.1326949894428253,-0.3853656649589538,0.0920049771666526,0.2631837129592895,0.0,0.0,0.3099219799041748,0.1882345676422119
-0.0386592857539653,0.1141654849052429,0.1321728676557541,-0.3800690770149231,0.1049200817942619,0.2583019137382507,0.0,0.0,0.1062479019165039,-0.3220291137695312
-0.0372800827026367,0.1057557165622711,0.1254324316978454,-0.3746882677078247,0.1173185333609581,0.2479691505432129,0.0,0.0,0.2310643196105957,-0.6915148496627808
-0.0360796935856342,0.0974284261465072,0.1065161824226379,-0.3712183535099029,0.1307663321495056,0.2689563632011413,0.0,0.0,0.7529340982437134,0.8473672866821289
-0.0347448363900184,0.0898116677999496,0.1216290369629859,-0.3396078646183014,0.1425817161798477,0.2363077849149704,0.0,0.0,0.4952605962753296,0.7066361904144287
-0.033297348767519,0.0822431892156601,0.1343774050474167,-0.3374038338661194,0.1529390960931778,0.2071473151445388,0.0,0.0,0.4938180446624756,0.4230192899703979
-0.0317829139530658,0.0752607882022857,0.1406368017196655,-0.3114753663539886,0.1637401431798935,0.2160209715366363,0.0,0.0,0.3078677654266357,-0.0503654479980468
-0.0303456299006938,0.0687165558338165,0.1331936568021774,-0.292048841714859,0.1742930263280868,0.2110574543476104,0.0,0.0,-0.024770975112915,-0.0888856053352356
-0.0288688652217388,0.0617057643830776,0.1373170316219329,-0.31284099817276,0.1846803128719329,0.2077458649873733,0.0,0.0,0.8907642364501953,0.7026079893112183
-0.0273286812007427,0.0552475079894065,0.1450123190879821,-0.288178414106369,0.1937166154384613,0.1807263642549514,0.0,0.0,0.5682564973831177,-0.2219652533531189
-0.0259082801640033,0.0494610182940959,0.13325235247612,-0.2583494484424591,0.2025540024042129,0.1767479181289672,0.0,0.0,0.4778141975402832,0.1082632541656494
-0.024541949853301,0.044258888810873,0.1277695000171661,-0.2324397563934326,0.2114746123552322,0.1784120798110962,0.0,0.0,0.2122168540954589,-0.5294893980026245
-0.0231911651790142,0.0390878058969974,0.1252356767654419,-0.231265127658844,0.2214251905679702,0.1990118473768234,0.0,0.0,0.455146312713623,-0.1312273740768432
-0.0220345500856637,0.0342112630605697,0.1064976677298545,-0.2181393653154373,0.2307093292474746,0.1856826543807983,0.0,0.0,0.3975646495819092,0.371779203414917
-0.0210545547306537,0.0294661149382591,0.0894979909062385,-0.2122456431388855,0.2393232434988021,0.1722784340381622,0.0,0.0,0.6359221935272217,0.7024662494659424
-0.0201493259519338,0.0250780209898948,0.0836521163582801,-0.1961565762758255,0.246304377913475,0.1396228522062301,0.0,1.0,0.945702314376831,0.9939014911651612
-0.0193456653505563,0.0220921132713556,0.0926260501146316,-0.1310660988092422,0.2329817563295364,-0.2676921486854553,0.0,1.0,0.8591630458831787,0.1643710136413574
-0.0185999870300292,0.0199890471994876,0.1037516593933105,-0.0891517028212547,0.2033912241458892,-0.5919186472892761,0.0,1.0,0.4992307424545288,-0.5189138650894165
-0.0179844852536916,0.0187511537224054,0.0990192145109176,-0.0503226891160011,0.165676549077034,-0.7543875575065613,0.0,1.0,0.4273858070373535,-0.6508113145828247
-0.0174809452146291,0.0180544238537549,0.0850438848137855,-0.0274645928293466,0.1310460567474365,-0.6926097273826599,0.0,1.0,0.2514399290084839,-0.5732116103172302
-0.0170012470334768,0.0172519069164991,0.0815446227788925,-0.0330551266670227,0.0976682007312774,-0.6675574779510498,0.0,0.0,-0.986340880393982,-0.7695785760879517
