x_pos,y_pos,x_vel,y_vel,angle,ang_vel,leg_1,leg_2,main_booster,lat_booster
-0.0015474319225177,1.403407096862793,-0.1573871672153473,-0.3339095115661621,0.0023600016720592,0.0465975627303123,0.0,0.0,-0.5065396461322964,0.811248107294656
-0.00304965977557,1.3956962823867798,-0.1513718068599701,-0.3427033126354217,0.0034902228508144,0.0226076785475015,0.0,0.0,0.8699321630005685,-0.9177809974195396
-0.0044821738265454,1.3884475231170654,-0.1471309810876846,-0.3221818804740906,0.0073306867852807,0.0768163353204727,0.0,0.0,0.0566185696414403,0.8989161258944348
-0.0059598921798169,1.3814575672149658,-0.1504179090261459,-0.3106802403926849,0.0099471993744373,0.0523353107273578,0.0,0.0,-0.8219870960770232,-0.6444448571941254
-0.0075006484985351,1.3742518424987793,-0.158312439918518,-0.3202848732471466,0.0141389910131692,0.0838434845209121,0.0,0.0,-0.6693452162064168,0.8849172729192228
-0.0089788436889648,1.3668298721313477,-0.1504648923873901,-0.3298993706703186,0.016751617193222,0.0522574260830879,0.0,0.0,-0.087118225523213,-0.9994235859415844
-0.0105611803010106,1.3591885566711426,-0.1635379493236541,-0.3396739661693573,0.021989606320858,0.104769691824913,0.0,0.0,0.3026855492798168,-0.9640776306562608
-0.012116527184844,1.352100849151611,-0.163428708910942,-0.3151518106460571,0.0297953765839338,0.1561298668384552,0.0,0.0,0.7726503045666626,-0.9775538305419108
-0.0138124469667673,1.346149444580078,-0.1799909770488739,-0.2647399008274078,0.0400840006768703,0.2057918608188629,0.0,0.0,0.1001447096926628,0.6517615624150804
-0.0154990199953317,1.340714454650879,-0.1783221960067749,-0.2418446540832519,0.0496499426662921,0.1913365125656128,0.0,0.0,-0.8929246737274832,-0.6018185576776076
-0.0172476768493652,1.3350611925125122,-0.1861359775066375,-0.2516631782054901,0.0608103536069393,0.2232287377119064,0.0,0.0,-0.0679788953892737,0.7157911520682784
-0.0189545638859272,1.3291969299316406,-0.1809213906526565,-0.261076956987381,0.0709541589021682,0.2028944194316864,0.0,0.0,-0.1758119497562766,-0.687539448549747
-0.0207246784120798,1.3231165409088137,-0.1888939440250396,-0.2708438634872436,0.0827382355928421,0.2357028275728225,0.0,0.0,-0.4897561912249484,-0.6594899126422188
-0.022560691460967,1.3168096542358398,-0.1972164809703827,-0.2811091244220733,0.0962530970573425,0.2703218162059784,0.0,0.0,-0.9762532194551804,-0.916024986643148
-0.024472426623106,1.3102906942367554,-0.2067445218563079,-0.2908138334751129,0.1117285266518592,0.3095364570617676,0.0,0.0,0.7360510400090277,-0.6886222190538887
-0.0263677593320608,1.304028034210205,-0.2073167264461517,-0.2797607183456421,0.129438042640686,0.3542225956916809,0.0,0.0,-0.7506894011921541,0.966548707389219
-0.0281905177980661,1.2975821495056152,-0.1982141733169555,-0.2879481017589569,0.145341619849205,0.3181004226207733,0.0,0.0,0.2422926055611982,0.7503992797016431
-0.0298937801271677,1.2913740873336792,-0.1854476779699325,-0.2774584889411926,0.1604668498039245,0.3025321364402771,0.0,0.0,0.7310869880056634,-0.6736825971755411
-0.0316938385367393,1.286218762397766,-0.1972562372684478,-0.2310812324285507,0.1777598410844802,0.345890998840332,0.0,0.0,-0.8993590203237245,0.95261947026027
-0.0334476456046104,1.280867576599121,-0.1914934813976287,-0.2398410141468048,0.1939642429351806,0.3241172432899475,0.0,0.0,0.4430015962705336,0.7262181444013853
-0.0351685509085655,1.2763278484344482,-0.1874696463346481,-0.203852966427803,0.2094842344522476,0.3104278445243835,0.0,0.0,0.2994871890318149,0.8668027935383201
-0.0369004234671592,1.27210533618927,-0.1873738318681717,-0.1897356510162353,0.2238373011350631,0.2870870530605316,0.0,0.0,0.1606250001236766,-0.7383334045305401
-0.0386887565255165,1.2682437896728516,-0.1950850188732147,-0.1741729080677032,0.2403432577848434,0.3301488757133484,0.0,0.0,-0.1027773896175288,-0.7438635658883179
-0.0405417457222938,1.2641441822052002,-0.2033415138721466,-0.1852678954601287,0.2587412595748901,0.3679928481578827,0.0,0.0,-0.9197845321832804,-0.7081045975551905
-0.0424771308898925,1.259809136390686,-0.213760644197464,-0.1963709890842437,0.2794650197029114,0.4145130217075348,0.0,0.0,-0.5411850736459236,-0.747701164869325
-0.0444945320487022,1.2552179098129272,-0.2242265045642852,-0.2085320353507995,0.3026260137557983,0.4632198810577392,0.0,0.0,0.946335943390222,0.8847281839511782
-0.0467110648751258,1.251681923866272,-0.2427774667739868,-0.1617070287466049,0.3245459794998169,0.4383996129035949,0.0,0.0,-0.9875726892936644,0.711102014594371
-0.0489009842276573,1.247964859008789,-0.239414095878601,-0.1699300706386566,0.3458749651908874,0.4265803396701813,0.0,0.0,-0.3226716591577894,-0.8263661034574957
-0.051180075854063,1.244005560874939,-0.2506216168403625,-0.1816116869449615,0.3698081076145172,0.4786627888679504,0.0,0.0,0.7199954106745179,-0.6892401829103948
-0.0537273399531841,1.2405047416687012,-0.279035747051239,-0.1620955616235733,0.3956597447395324,0.5170329809188843,0.0,0.0,-0.8299738695297905,-0.8241239460382891
-0.0563475601375103,1.2367706298828125,-0.2880981862545013,-0.1734802722930908,0.423695832490921,0.5607222318649292,0.0,0.0,-0.726963118217328,-0.718494656943758
-0.0590372085571289,1.2327892780303955,-0.2967583537101745,-0.1855974495410919,0.4539660513401031,0.6054050922393799,0.0,0.0,-0.5625594739823137,0.7932954043732232
-0.0616935715079307,1.2286465167999268,-0.2921997904777527,-0.1930563896894455,0.4833345413208008,0.5873703360557556,0.0,0.0,-0.3292191863968279,0.7672364347645346
-0.0643120780587196,1.224331021308899,-0.287214457988739,-0.2009603381156921,0.5118075013160706,0.5694594979286194,0.0,0.0,0.8194983670778764,-0.8862505937509462
-0.067324161529541,1.2206804752349854,-0.3282898366451263,-0.1727196872234344,0.5427166819572449,0.6181834936141968,0.0,0.0,0.458938588935019,0.6592144414267435
-0.0706353187561035,1.2177424430847168,-0.356971800327301,-0.1412986069917678,0.5727746486663818,0.6011594533920288,0.0,0.0,-0.7036806626559236,0.7984306038537592
-0.0739057511091232,1.2146456241607666,-0.351484477519989,-0.1484519690275192,0.6017270088195801,0.5790477991104126,0.0,0.0,0.6478970990869664,0.9705264579270352
-0.0775215178728103,1.21238911151886,-0.3842692375183105,-0.1109503358602523,0.6291361451148987,0.5481827259063721,0.0,0.0,-0.2671445591499781,-0.900339476874908
-0.0812111869454383,1.20987069606781,-0.3932878971099853,-0.1240692511200904,0.6591252684593201,0.5997821092605591,0.0,0.0,-0.90738822593571,0.8623797166062355
-0.0848556533455848,1.207213044166565,-0.3870548903942108,-0.1301048994064331,0.6876481771469116,0.570457935333252,0.0,0.0,0.8346076692845741,0.6048496566118321
-0.0891216248273849,1.205280303955078,-0.4478143155574798,-0.0978095084428787,0.7150222659111023,0.5474817156791687,0.0,0.0,-0.998778760433197,0.9970128536224364
-0.093324564397335,1.2032312154769895,-0.4393820166587829,-0.1023890152573585,0.740237295627594,0.5043007135391235,0.0,0.0,-0.9913839101791382,0.9893004894256592
-0.0974638015031814,1.2010562419891355,-0.4310846924781799,-0.1073287054896354,0.7634034752845764,0.4633235335350036,0.0,0.0,-0.99757182598114,0.999305248260498
-0.1015431433916091,1.1987648010253906,-0.4231968522071838,-0.1117680594325065,0.7844496369361877,0.4209237992763519,0.0,0.0,-0.9980120658874512,0.9984112977981568
-0.1055708900094032,1.1963318586349487,-0.4166046679019928,-0.1174854040145874,0.803897500038147,0.3889577388763428,0.0,0.0,-0.9984992146492004,0.9939579963684082
-0.109540656208992,1.193771243095398,-0.4091956615447998,-0.1223897859454155,0.8214120864868164,0.3502918779850006,0.0,0.0,-0.9844773411750792,0.9915121793746948
-0.1134538650512695,1.1910884380340576,-0.4019387662410736,-0.1269466876983642,0.8369153738021851,0.3100652396678924,0.0,0.0,-0.9942468404769896,0.980006217956543
-0.1173337921500206,1.188269853591919,-0.3975057005882263,-0.1323980838060379,0.8510313630104065,0.2823203802108764,0.0,0.0,-0.9745842814445496,0.9973571300506592
-0.1211806312203407,1.1853125095367432,-0.3931531012058258,-0.1379494071006775,0.8637909293174744,0.2551911771297455,0.0,0.0,-0.9993971586227416,0.8964691162109375
-0.1249840706586837,1.1822171211242676,-0.3876891732215881,-0.1433473378419876,0.8749971985816956,0.224124863743782,0.0,0.0,-0.998800814151764,0.8207311630249023
-0.1287381201982498,1.178998947143555,-0.3814045488834381,-0.1478604227304458,0.884280264377594,0.1856615990400314,0.0,0.0,-0.9986178278923036,0.9360083341598512
-0.1324542015790939,1.1756470203399658,-0.3765524327754974,-0.1530197262763977,0.8920007944107056,0.1544100642204284,0.0,0.0,-0.9995087385177612,0.92333722114563
-0.1361145973205566,1.1721762418746948,-0.3695903718471527,-0.1572054028511047,0.897596538066864,0.1119153499603271,0.0,0.0,-0.9989157319068908,0.7879238128662109
-0.139739990234375,1.168567419052124,-0.3651370704174042,-0.1625695824623108,0.9017167091369628,0.0824033170938491,0.0,0.0,-0.9904629588127136,0.5754451751708984
-0.1433287560939788,1.1648082733154297,-0.3606387674808502,-0.1685680896043777,0.9045307636260986,0.0562805458903312,0.0,0.0,-0.9912229180336,0.7043623924255371
-0.1468859612941742,1.1608867645263672,-0.3568402826786041,-0.1752374470233917,0.906310498714447,0.0355951115489006,0.0,0.0,-0.99854838848114,0.7905066013336182
-0.1504020690917968,1.1568379402160645,-0.3515845239162445,-0.1799326986074447,0.9062735438346864,-0.000738502247259,0.0,0.0,-0.9987768530845642,0.6071081161499023
-0.1538821160793304,1.1526433229446411,-0.3470765054225921,-0.1856363117694854,0.9047955870628356,-0.0295594576746225,0.0,0.0,-0.9994235634803772,0.4109165668487549
-0.1573596000671386,1.1482343673706057,-0.346998780965805,-0.1953115016222,0.9035860300064088,-0.0241911932826042,0.0,0.0,-0.7020018696784973,0.7393026351928711
-0.1608076095581054,1.1436725854873655,-0.3432474136352539,-0.2014345228672027,0.901116132736206,-0.0493985339999198,0.0,0.0,-0.9975952506065368,0.6077821254730225
-0.1642189919948578,1.1389518976211548,-0.3387636244297027,-0.2078161239624023,0.8973512649536133,-0.0752975791692733,0.0,0.0,-0.9908055067062378,0.4409879446029663
-0.1676277220249176,1.134016036987305,-0.3386154770851135,-0.2174870073795318,0.8937811255455017,-0.0714022666215896,0.0,0.0,-0.999003529548645,0.4795622825622558
-0.1710338592529297,1.1288647651672363,-0.3384504616260528,-0.2271560281515121,0.8903791308403015,-0.0680404528975486,0.0,0.0,-0.9966288208961488,0.4523961544036865
-0.174437329173088,1.1234978437423706,-0.3382717072963714,-0.236823171377182,0.8871176242828369,-0.0652301162481308,0.0,0.0,-0.9997304677963256,0.3456573486328125
-0.1778384149074554,1.117914795875549,-0.3380824029445648,-0.246488407254219,0.8839682936668396,-0.0629869252443313,0.0,0.0,-0.9984051585197448,0.1118572950363159
-0.1812370270490646,1.1121153831481934,-0.337885707616806,-0.2561517059803009,0.880902111530304,-0.0613236241042614,0.0,0.0,-0.9923489689826964,0.6647940874099731
-0.1846038848161697,1.106165051460266,-0.3337137997150421,-0.2620632350444793,0.8762910962104797,-0.0922201424837112,0.0,0.0,-0.9910845160484314,0.3746037483215332
-0.1879688203334808,1.0999979972839355,-0.3335109353065491,-0.2717233300209045,0.8717039227485657,-0.091742031276226,0.0,0.0,-0.9918138384819032,0.126802921295166
-0.1913319528102874,1.093613624572754,-0.3333105444908142,-0.2813814878463745,0.8671107888221741,-0.0918624997138977,0.0,0.0,-0.9999203085899352,-0.0927587747573852
-0.1946934759616851,1.0870118141174316,-0.3331159651279449,-0.2910377085208893,0.8624817728996277,-0.0925805419683456,0.0,0.0,-0.9932276606559752,0.0205260515213012
-0.1980538368225097,1.0801920890808103,-0.3329305052757263,,0.8577872514724731,-0.093891754746437,0.0,0.0,-0.998915195465088,0.0622901916503906
-0.2014132440090179,1.0731544494628906,-0.3327575623989105,-0.3103446960449219,0.8529978394508362,-0.0957881361246109,0.0,0.0,-0.9949506521224976,-0.4007037878036499
-0.2047720402479171,1.065898299217224,-0.3326005339622497,-0.3199955523014068,0.8480849266052246,-0.0982583090662956,0.0,0.0,-0.9912909865379332,-0.6192402243614197
-0.2081582099199295,1.0583767890930176,-0.3360468745231628,-0.3323542177677154,0.8442625403404236,-0.0764474421739578,0.0,0.0,-0.9990668892860411,-0.4605885148048401
-0.2115445137023925,1.0506364107131958,-0.3359329998493194,-0.3420012295246124,0.8402615785598755,-0.080019824206829,0.0,0.0,-0.9980700016021729,-0.3628862500190735
-0.2149314433336258,1.0426769256591797,-0.3358453512191772,-0.3516467213630676,0.8360558152198792,-0.0841153562068939,0.0,0.0,-0.9959973692893982,-0.5606523156166077
-0.2183469831943512,1.0344440937042236,-0.3394539058208465,-0.3643670678138733,0.8329746127128601,-0.0616244785487651,0.0,0.0,-0.9995585083961488,-0.4253479242324829
-0.2217640429735183,1.0259913206100464,-0.3394299149513244,-0.374009221792221,0.8296395540237427,-0.0667006373405456,0.0,0.0,-0.999724268913269,-0.5229751467704773
-0.2252092808485031,1.0172836780548096,-0.3427492976188659,-0.3857152163982391,0.8270500898361206,-0.051789291203022,0.0,0.0,-0.9943038821220398,-0.4206469058990478
-0.2286571562290191,1.008355975151062,-0.3428022265434265,-0.3953545391559601,0.8241625428199768,-0.0577503740787506,0.0,0.0,-0.9956234097480774,-0.3066670298576355
-0.2321082651615142,0.9992078542709352,-0.3428983688354492,-0.4049927592277527,0.8209567070007324,-0.0641164258122444,0.0,0.0,-0.9945247769355774,-0.3195136785507202
-0.235563188791275,0.989839255809784,-0.3430409729480743,-0.4146300256252289,0.8174135684967041,-0.0708622187376022,0.0,0.0,-0.9966297149658204,-0.5860839486122131
-0.2390584498643875,0.98019278049469,-0.3478984236717224,-0.4275855720043182,0.8150687217712402,-0.0468971133232116,0.0,0.0,-0.9941301345825196,-0.1828845739364624
-0.2425587624311447,0.970325231552124,-0.3481444120407104,-0.4372206032276153,0.8123522996902466,-0.0543282628059387,0.0,0.0,-0.9995381832122804,-0.2568962574005127
-0.2460649013519287,0.9602368474006652,-0.3484464287757873,-0.4468548595905304,0.8092489838600159,-0.0620661377906799,0.0,0.0,-0.9744746685028076,-0.2524340748786926
-0.249577522277832,0.9499274492263794,-0.3488074541091919,-0.4564884305000305,0.8057445883750916,-0.0700878947973251,0.0,0.0,-0.9934219717979432,-0.3791118860244751
-0.2530973851680755,0.9393967390060424,-0.3492303192615509,-0.4661214053630829,0.801826000213623,-0.0783716067671775,0.0,0.0,-0.994141161441803,-0.609752893447876
-0.2566505372524261,0.9285992383956908,-0.3530784547328949,-0.4783548712730407,0.7986551523208618,-0.0634168460965156,0.0,0.0,-0.9706806540489196,-0.360137939453125
-0.2602124214172363,0.9175803065299988,-0.3536341488361358,-0.4879865646362304,0.7950469851493835,-0.0721634030342102,0.0,0.0,-0.9694077372550964,0.1089464426040649
-0.2637838721275329,0.9063398838043212,-0.3542597889900207,-0.4976179003715515,0.7909913063049316,-0.0811129957437515,0.0,0.0,-0.9948328733444214,-0.2469942569732666
-0.2673656344413757,0.894878089427948,-0.3549578785896301,-0.5072489976882935,0.7864788770675659,-0.0902483537793159,0.0,0.0,-0.997727632522583,-0.4077396392822265
-0.270958662033081,0.8831949234008789,-0.3557306230068207,-0.5168799757957458,0.7815012335777283,-0.0995532944798469,0.0,0.0,-0.9571179747581482,-0.3046621084213257
-0.274563729763031,0.8712902069091797,-0.3565801978111267,-0.5265108346939087,0.7760505676269531,-0.1090127602219581,0.0,0.0,-0.9616239666938782,-0.4527705907821655
-0.2781818509101867,0.8591640591621399,-0.3575085997581482,-0.5361417531967163,0.7701199054718018,-0.1186128035187721,0.0,0.0,-0.9903072118759156,-0.4335131645202636
-0.2818138003349304,0.8468164801597595,-0.3585176467895508,-0.5457727909088135,0.7637028694152832,-0.1283404231071472,0.0,0.0,-0.9890359044075012,-0.3530038595199585
-0.2854605615139007,0.8342475295066833,-0.3596090376377105,-0.5554040670394897,0.7567936778068542,-0.1381836682558059,0.0,0.0,-0.9909526705741882,-0.4002121686935425
-0.2891231179237366,0.8214573264122009,-0.3607842326164245,-0.5650357007980347,0.7493870854377747,-0.1481315791606903,0.0,0.0,-0.9872732162475586,-0.1270244717597961
-0.2928023338317871,0.8084458708763123,-0.3620446324348449,-0.574667751789093,0.7414783835411072,-0.158173993229866,0.0,0.0,-0.9689637422561646,-0.3502800464630127
-0.2964993417263031,0.7952131628990173,-0.363391250371933,-0.58430016040802,0.7330633401870728,-0.1683014631271362,0.0,0.0,-0.9802106022834778,-0.3431011438369751
-0.3002150654792785,0.7817592024803162,-0.3648251295089721,-0.5939332842826843,0.724138081073761,-0.1785057038068771,0.0,0.0,-0.9892675280570984,-0.4197121858596802
-0.3039504587650299,0.7680842280387878,-0.3663470149040222,-0.6035670638084412,0.7146991491317749,-0.1887786090373993,0.0,0.0,-0.9735786318778992,-0.2608212232589721
-0.3077065050601959,0.7541885375976562,-0.3679574728012085,-0.6132015585899353,0.704743504524231,-0.1991130709648132,0.0,0.0,-0.9828864932060242,-0.5403563380241394
-0.3115223944187164,0.7400239109992981,-0.3745729625225067,-0.6255925893783569,0.6956925988197327,-0.1810193508863449,0.0,0.0,-0.965874195098877,-0.2534438967704773
-0.3153607249259949,0.7256383895874023,-0.3763639032840729,-0.6352271437644958,0.6861196756362915,-0.1914582699537277,0.0,0.0,-0.931820511817932,-0.0721164941787719
-0.3192226886749267,0.7110323309898376,-0.3782441318035126,-0.6448625326156616,0.6760226488113403,-0.2019407749176025,0.0,0.0,-0.919719934463501,0.3741242885589599
-0.3231090903282165,0.6962054967880249,-0.3802135586738586,-0.6544989347457886,0.6653996109962463,-0.2124617397785186,0.0,0.0,-0.918988823890686,0.2515516281127929
-0.3270210325717926,0.6811583638191223,-0.3822717070579529,-0.6641362905502319,0.6542487740516663,-0.2230165302753448,0.0,0.0,-0.705204427242279,0.5856853723526001
-0.3309269547462463,0.6659348607063293,-0.3801643252372741,-0.6713269352912903,0.6413299441337585,-0.2583771347999573,0.0,0.0,-0.8664293885231018,0.4020054340362549
-0.3348605036735534,0.6504917740821838,-0.3823959231376648,-0.6809688210487366,0.6278806328773499,-0.2689858973026275,0.0,0.0,-0.6998274326324463,0.3432376384735107
-0.3388227820396423,0.6348292231559753,-0.3847141861915588,-0.6906121373176575,0.613899827003479,-0.2796162068843841,0.0,0.0,-0.6915217041969299,0.776839017868042
-0.3427692055702209,0.6190055012702942,-0.3811713755130768,-0.6970402002334595,0.5977128744125366,-0.323738694190979,0.0,0.0,-0.4178259372711181,0.6407291889190674
-0.3467035293579101,0.6030146479606628,-0.378064900636673,-0.7038495540618896,0.5794632434844971,-0.3649925291538238,0.0,0.0,-0.2501822710037231,0.3481477499008178
-0.3506699502468109,0.5868065357208252,-0.3806286454200744,-0.7135055065155029,0.5606800317764282,-0.3756640553474426,0.0,0.0,0.1091201305389404,0.2320482730865478
-0.3549595475196838,0.5708433985710144,-0.4119738042354584,-0.7025023698806763,0.5409830212593079,-0.3939399123191833,0.0,0.0,-0.167377233505249,0.0583580732345581
-0.3592832088470459,0.5546637177467346,-0.4146983027458191,-0.7121642827987671,0.5207517147064209,-0.4046259522438049,0.0,0.0,0.3563246726989746,-0.1538379192352295
-0.3638872504234314,0.5388571619987488,-0.4419872164726257,-0.6956242918968201,0.4999040961265564,-0.4169521331787109,0.0,0.0,-0.0604700446128845,-0.3122377395629883
-0.3685269951820373,0.5228350758552551,-0.444866806268692,-0.7052918672561646,0.4785218834877014,-0.4276441037654876,0.0,0.0,0.1787109375,-0.1721564531326294
-0.3732386231422424,0.5070038437843323,-0.4517509043216705,-0.6970534920692444,0.4570359289646148,-0.4297192990779876,0.0,0.0,0.7349767684936523,-0.5116355419158936
-0.3782432079315185,0.491971492767334,-0.4816029965877533,-0.662060558795929,0.4363820552825928,-0.4130774140357971,0.0,0.0,0.1466150283813476,-0.550028383731842
-0.3835453391075134,0.4774746298789978,-0.5117611885070801,-0.6387032866477966,0.416364461183548,-0.4003521502017975,0.0,0.0,-0.0848048329353332,-0.6747623085975647
-0.3889269828796386,0.4627267122268677,-0.5202206373214722,-0.6502959728240967,0.3970743417739868,-0.3858024477958679,0.0,0.0,0.4298129081726074,-0.747835099697113
