x_pos,y_pos,x_vel,y_vel,angle,ang_vel,leg_1,leg_2,main_booster,lat_booster
-0.001505947089754,1.4034503698349,-0.1517900675535202,-0.3319934904575348,0.0010596930515021,0.0208514891564846,0.0,0.0,-0.2798041105270386,0.649813175201416
-0.0029391287826001,1.3958263397216797,-0.1422370225191116,-0.3388442993164062,-1.994816557271406e-06,-0.0212352909147739,0.0,0.0,0.1964263916015625,0.0645786523818969
-0.0042579649016261,1.388466477394104,-0.1305638998746872,-0.3271062076091766,-0.0012951471144333,-0.0258656740188598,0.0,0.0,-0.3306734561920166,0.036199927330017
-0.0055590630508959,1.3809322118759155,-0.1280964761972427,-0.3348563313484192,-0.0032841428183019,-0.0397834777832031,0.0,0.0,0.1894218921661377,-0.0749531388282775
-0.0067481994628906,1.3739277124404907,-0.1166399121284484,-0.3113190233707428,-0.0055225025862455,-0.0447717420756816,0.0,0.0,-0.1483683586120605,0.1314953565597534
-0.0079195974394679,1.3667491674423218,-0.1141795292496681,-0.3190682530403137,-0.0084542334079742,-0.0586403682827949,0.0,0.0,-0.2770669460296631,0.0621743202209472
-0.0090734483674168,1.3593963384628296,-0.1117226630449295,-0.3268099427223205,-0.0120775522664189,-0.0724728181958198,0.0,0.0,-0.649030327796936,0.0277321338653564
-0.0102097513154149,1.351869821548462,-0.1092703118920326,-0.3345536291599273,-0.0163911394774913,-0.0862795785069465,0.0,0.0,-0.6869861483573914,-0.2128220796585083
-0.011328506283462,1.3441694974899292,-0.1068231090903282,-0.3422984480857849,-0.0213933959603309,-0.1000541299581527,0.0,0.0,-0.7123603820800781,-0.2910343408584595
-0.0124299051240086,1.3362957239151,-0.1043820008635521,-0.3500441014766693,-0.0270825438201427,-0.1137935742735862,0.0,0.0,-0.7254877090454102,-0.0375670194625854
-0.0135137559846043,1.3282482624053955,-0.1019478663802146,-0.3577905893325805,-0.0334566794335842,-0.1274945139884948,0.0,0.0,-0.5625531077384949,-0.2550414800643921
-0.0145804407075047,1.3200275897979736,-0.0995218455791473,-0.3655381500720978,-0.0405136905610561,-0.1411531865596771,0.0,0.0,-0.6848680973052979,-0.586686372756958
-0.0156658180058002,1.3116389513015747,-0.1016423553228378,-0.373031347990036,-0.0473385974764823,-0.1365108489990234,0.0,0.0,-0.8364495038986206,-0.1112685799598693
-0.0167340282350778,1.3030771017074585,-0.0992386117577552,-0.3807809054851532,-0.0548421069979667,-0.1500839442014694,0.0,0.0,-0.7763491272926331,-0.4667887091636657
-0.0177850723266601,1.2943423986434937,-0.0968461036682128,-0.3885312378406524,-0.0630208775401115,-0.1635904759168625,0.0,0.0,-0.8575296998023987,-0.7237778306007385
-0.0188661571592092,1.2854305505752563,-0.1003531068563461,-0.3964142799377441,-0.0706979483366012,-0.153555616736412,0.0,0.0,-0.9140419960021972,-0.3142974376678467
-0.0199302677065134,1.2763460874557495,-0.0979917272925376,-0.4041663110256195,-0.0790449455380439,-0.1669550091028213,0.0,0.0,-0.9384039640426636,-0.4230653047561645
-0.0209775920957326,1.2670892477035522,-0.0956461727619171,-0.4119195938110351,-0.0880575776100158,-0.1802686750888824,0.0,0.0,-0.0070797204971313,-0.8612154126167297
-0.0220645908266305,1.2576755285263062,-0.1004020422697067,-0.4188956916332245,-0.0962924361228942,-0.164712443947792,0.0,0.0,-0.5122849345207214,-0.4613133668899536
-0.0231350902467966,1.24808931350708,-0.0980988070368766,-0.4266506433486938,-0.1051859930157661,-0.1778873652219772,0.0,0.0,-0.8192704916000366,-0.6142128705978394
-0.0242269523441791,1.2383413314819336,-0.1005597859621048,-0.4338729977607727,-0.1137666255235672,-0.1716282069683075,0.0,0.0,-0.4789909124374389,-0.920415222644806
-0.0253740306943655,1.2284278869628906,-0.1072380319237709,-0.4411825239658355,-0.1211993545293808,-0.1486680656671524,0.0,0.0,-0.7850896120071411,-0.7654250264167786
-0.0265524871647357,1.2183493375778198,-0.1109378933906555,-0.4485049247741699,-0.1280789375305175,-0.1376038491725921,0.0,0.0,-0.6765518188476562,-0.6057586073875427
-0.0277580264955759,1.2080997228622437,-0.1140758767724037,-0.4561050236225128,-0.1345309317111969,-0.1290510892868042,0.0,0.0,-0.7900048494338989,-0.413980484008789
-0.0289482120424509,1.1976773738861084,-0.1119210869073867,-0.4638603329658508,-0.1416152417659759,-0.1416990607976913,0.0,0.0,-0.4219248294830322,-0.3098976612091064
-0.030125617980957,1.1870619058609009,-0.11000307649374,-0.4725613296031952,-0.1493254154920578,-0.1542033702135086,0.0,0.0,-0.6537795662879944,-0.6562031507492065
-0.0313389785587787,1.176289439201355,-0.114307165145874,-0.4794929623603821,-0.1563484668731689,-0.1404610276222229,0.0,0.0,-0.2743685245513916,-0.7564903497695923
-0.0326092727482318,1.1653695106506348,-0.1212432533502578,-0.485952228307724,-0.1621361076831817,-0.1157529577612876,0.0,0.0,-0.3379779458045959,-0.431988000869751
-0.0338659286499023,1.1542770862579346,-0.1192772015929222,-0.4937043786048889,-0.1685266941785812,-0.1278120130300521,0.0,0.0,-0.582179605960846,-0.7716902494430542
-0.0351717956364154,1.143025279045105,-0.1252146065235138,-0.500697910785675,-0.1739130467176437,-0.1077271848917007,0.0,0.0,-0.5534868240356445,-0.4507113695144653
-0.0364649780094623,1.1316012144088743,-0.123357281088829,-0.5084499716758728,-0.1798834353685379,-0.1194080561399459,0.0,0.0,-0.7100761532783508,-0.6066931486129761
-0.0377994552254676,1.1200156211853027,-0.1282967627048492,-0.5155460238456726,-0.1850558370351791,-0.1034476533532142,0.0,0.0,-0.1831092834472656,-0.7188891768455505
-0.0391847603023052,1.1082820892333984,-0.1344630420207977,-0.5220072269439697,-0.1891459822654724,-0.0818028002977371,0.0,0.0,-0.2768533229827881,-0.73146653175354
-0.0406225211918354,1.0963873863220217,-0.1407746225595474,-0.5290417075157166,-0.1921671479940414,-0.0604231841862201,0.0,0.0,-0.5067566633224487,-0.4873057603836059
-0.0420497879385948,1.0843199491500854,-0.1391876190900802,-0.5367922186851501,-0.1957254260778427,-0.0711659789085388,0.0,0.0,-0.4788318872451782,-0.6587992906570435
-0.0435159690678119,1.0720994472503662,-0.1438408643007278,-0.543505072593689,-0.1985204964876175,-0.0559015348553657,0.0,0.0,-0.021386444568634,-0.5940119028091431
-0.0450214371085166,1.0597174167633057,-0.1484933793544769,-0.5505784749984741,-0.200580894947052,-0.0412078760564327,0.0,0.0,-0.7188897132873535,-0.3908961415290832
-0.046518325805664,1.047163009643555,-0.1471596211194992,-0.5583283305168152,-0.2031340897083282,-0.0510642752051353,0.0,0.0,0.6869642734527588,-0.3322881460189819
-0.0478734001517295,1.0357117652893066,-0.1323114335536956,-0.5093851685523987,-0.2063492238521576,-0.0643027871847152,0.0,0.0,-0.2940093278884887,-0.7904223799705505
-0.0492795929312706,1.0241069793701172,-0.1384804397821426,-0.5160692930221558,-0.2085075229406356,-0.0431658513844013,0.0,0.0,-0.7208763360977173,-0.3803475499153137
-0.0506797805428504,1.0123292207717896,-0.1374429315328598,-0.5238185524940491,-0.2111056298017501,-0.0519625432789325,0.0,0.0,0.0842120647430419,-0.8631628155708313
-0.0519769676029682,1.0008721351623535,-0.128456175327301,-0.5093843936920166,-0.2123702466487884,-0.0252922438085079,0.0,0.0,-0.4610422253608703,-0.7144384980201721
-0.0533171668648719,0.989249348640442,-0.1335649192333221,-0.5166399478912354,-0.2128348499536514,-0.0092920744791626,0.0,0.0,-0.5623875856399536,0.1319211721420288
-0.054654024541378,0.977453351020813,-0.1328605115413665,-0.5243878960609436,-0.2136773914098739,-0.0168506931513547,0.0,0.0,-0.8880486488342285,-0.7082235813140869
-0.0560482032597065,0.9654948115348816,-0.1397298574447631,-0.5314387679100037,-0.2133603543043136,0.0063407765701413,0.0,0.0,-0.9081804156303406,-0.5121600031852722
-0.0574782378971576,0.9533699750900269,-0.1439283341169357,-0.5387494564056396,-0.2124272286891937,0.0186624694615602,0.0,0.0,-0.9274000525474548,-0.3160702586174011
-0.0589078888297081,0.9410719871520996,-0.1435829252004623,-0.5464962124824524,-0.2118016481399536,0.0125117134302854,0.0,0.0,-0.9742051362991332,0.0881906747817993
-0.0603381171822547,0.9286003708839417,-0.143360286951065,-0.5542423725128174,-0.2114584594964981,0.0068640867248177,0.0,0.0,-0.6997179388999939,0.4450775384902954
-0.0617698654532432,0.915955364704132,-0.1432609856128692,-0.5619880557060242,-0.2113717198371887,0.0017346299719065,0.0,0.0,-0.9420773983001708,-0.4201200008392334
-0.0632041916251182,0.9031368494033812,-0.1432848423719406,-0.5697333812713623,-0.2115148901939392,-0.0028632988687604,0.0,0.0,-0.9292708039283752,-0.4024837017059326
-0.0646419525146484,0.8901447653770447,-0.1434311419725418,-0.5774781703948975,-0.2118607759475708,-0.0069180773571133,0.0,0.0,-0.9320991635322572,-0.4352203607559204
-0.0660841017961502,0.8769788146018982,-0.1436984837055206,-0.5852224826812744,-0.2123817801475525,-0.0104200569912791,0.0,0.0,-0.9976699352264404,-0.3405603766441345
-0.0675314888358116,0.8636391162872314,-0.1440848708152771,-0.5929663777351379,-0.2130498737096786,-0.0133615164086222,0.0,0.0,-0.8751406073570251,-0.9311606287956238
-0.069055363535881,0.8501572608947754,-0.153458684682846,-0.5990397334098816,-0.2119667679071426,0.0216620229184627,0.0,0.0,-0.936898708343506,-0.8333090543746948
-0.070635125041008,0.8365140557289124,-0.1602081209421157,-0.6060454845428467,-0.2097147107124328,0.0450415425002574,0.0,0.0,-0.8005486726760864,0.603797197341919
-0.0721838921308517,0.822681725025177,-0.1560367047786712,-0.6146053671836853,-0.2085481435060501,0.0233311578631401,0.0,0.0,-0.9901977181434632,-0.346399188041687
-0.0737414360046386,0.8086754679679871,-0.1568695604801178,-0.6223472952842712,-0.2074148803949356,0.0226655360311269,0.0,0.0,-0.9751933217048644,-0.5677252411842346
-0.0753417983651161,0.7945078015327454,-0.1620263755321502,-0.6293917298316956,-0.2054049521684646,0.0401986800134182,0.0,0.0,-0.9808186292648317,-0.7803147435188293
-0.0770038589835167,0.7801904082298279,-0.1695963442325592,-0.6358600854873657,-0.2019921094179153,0.0682572871446609,0.0,0.0,-0.8105564117431641,-0.5390222668647766
-0.0787230506539344,0.7657180428504944,-0.176568329334259,-0.6425899267196655,-0.1973049193620681,0.0937438756227493,0.0,0.0,-0.8870933055877686,-0.512886106967926
-0.0804903954267501,0.751078188419342,-0.1824122369289398,-0.6499167084693909,-0.1916002035140991,0.1140941753983497,0.0,0.0,-0.5822500586509705,0.1357302665710449
-0.0822697654366493,0.7362642288208008,-0.1837123483419418,-0.6576589345932007,-0.1857908815145492,0.1161865815520286,0.0,0.0,-0.8324563503265381,0.186590313911438
-0.0840614289045333,0.7212762236595154,-0.1850920468568802,-0.6654008626937866,-0.1798509210348129,0.1187996491789817,0.0,0.0,-0.6815431118011475,0.1915900707244873
-0.085866168141365,0.7061142325401306,-0.1865467429161071,-0.673142671585083,-0.173754945397377,0.1219194531440734,0.0,0.0,-0.7774745225906372,-0.2632912993431091
-0.0876842513680458,0.6907781362533569,-0.1880719512701034,-0.6808843612670898,-0.1674784123897552,0.125530794262886,0.0,0.0,-0.6561791300773621,0.457816481590271
-0.0895161628723144,0.6752678155899048,-0.1896633058786392,-0.6886260509490967,-0.1609975397586822,0.1296174973249435,0.0,0.0,-0.2505455017089844,0.434421181678772
-0.0913621932268142,0.6595836877822876,-0.191316545009613,-0.6963676810264587,-0.1542894095182418,0.1341626048088073,0.0,0.0,-0.3665530681610107,0.9044452905654908
-0.0931436568498611,0.6436957120895386,-0.1830522119998932,-0.7056296467781067,-0.1493944227695465,0.0979001373052597,0.0,0.0,0.1484392881393432,0.2852069139480591
-0.0948330909013748,0.6285094022750854,-0.1742115020751953,-0.6744270920753479,-0.1441420316696167,0.1050482168793678,0.0,0.0,-0.4122712612152099,0.4858710765838623
-0.0965377837419509,0.6131486892700195,-0.1760262697935104,-0.682167112827301,-0.1385989338159561,0.1108615398406982,0.0,0.0,-0.0715816617012023,0.723250150680542
-0.0982096642255783,0.5976067185401917,-0.1718309670686721,-0.6903350353240967,-0.1339695006608963,0.0925886556506156,0.0,0.0,0.1836014986038208,0.160621166229248
-0.0998158454895019,0.5825484991073608,-0.1656969934701919,-0.6688040494918823,-0.1289097368717193,0.1011953577399253,0.0,0.0,0.0009440183639526,0.3297741413116455
-0.1014494895935058,0.5680920481681824,-0.1684397757053375,-0.6420788168907166,-0.1238651275634765,0.1008923649787902,0.0,0.0,-0.7130834460258484,0.8639051914215088
-0.1030232459306716,0.5534468293190002,-0.1608694493770599,-0.6506112813949585,-0.1203934699296951,0.0694331973791122,0.0,0.0,-0.3399173021316528,0.7548199892044067
-0.104557991027832,0.5386109948158264,-0.1559076011180877,-0.6591764688491821,-0.117968663573265,0.0484962090849876,0.0,0.0,-0.2396951913833618,0.61944580078125
-0.1060555428266525,0.523584246635437,-0.1512081325054168,-0.6677405834197998,-0.116529643535614,0.0287802163511514,0.0,0.0,0.6537615060806274,0.7779563665390015
-0.1075044646859169,0.5088765621185303,-0.1451176851987838,-0.6536571383476257,-0.116304375231266,0.0045054713264107,0.0,0.0,-0.2426949143409729,0.3096013069152832
-0.1089701652526855,0.4939940273761749,-0.1472221314907074,-0.6613941788673401,-0.115659050643444,0.0129064265638589,0.0,0.0,-0.0086629986763,0.496772289276123
-0.1104528456926345,0.4789366722106933,-0.1493516266345977,-0.669131338596344,-0.1145812943577766,0.0215549636632204,0.0,0.0,0.8214216232299805,0.8653619289398193
-0.1119164451956749,0.465067595243454,-0.1459013521671295,-0.6164405941963196,-0.1150331944227218,-0.0090380292385816,0.0,0.0,-0.3959200382232666,0.9209370613098145
-0.1133410483598709,0.451004296541214,-0.1410143822431564,-0.6251464486122131,-0.1164769753813743,-0.028875445947051,0.0,0.0,-0.1795625686645507,0.9180786609649658
-0.1147053688764572,0.4367608428001404,-0.1334826648235321,-0.6332752108573914,-0.1194071397185325,-0.0586034059524536,0.0,0.0,-0.3428546190261841,0.136853814125061
-0.1160870566964149,0.4223425686359405,-0.1356941312551498,-0.64101243019104,-0.1218626201152801,-0.049109935760498,0.0,0.0,0.7432656288146973,0.3833752870559692
-0.1174565330147743,0.4088247418403625,-0.1346979439258575,-0.6009759306907654,-0.1241020485758781,-0.0447886995971202,0.0,0.0,0.6895537376403809,0.6896365880966187
-0.1187138557434082,0.3961923122406006,-0.1225538402795791,-0.5617080330848694,-0.1272542178630828,-0.0630434900522232,0.0,0.0,-0.8140373229980469,0.8398327827453613
-0.119913101196289,0.3833707869052887,-0.1153388246893882,-0.5702458024024963,-0.1318268328905105,-0.0914520621299743,0.0,0.0,-0.7666012048721313,0.248622179031372
-0.1211299896240234,0.3703743815422058,-0.1176086291670799,-0.5779831409454346,-0.1358927339315414,-0.0813178792595863,0.0,0.0,-0.3161898851394653,0.4731040000915527
-0.1223645210266113,0.3572030961513519,-0.1198899000883102,-0.5857199430465698,-0.1394452899694442,-0.0710512399673461,0.0,0.0,0.3924750089645386,0.3494778871536255
-0.1234271079301834,0.344545841217041,-0.1037856563925743,-0.5627764463424683,-0.14190474152565,-0.049189269542694,0.0,0.0,-0.1521478295326233,-0.1871220469474792
-0.1245073303580284,0.3317134380340576,-0.1060868054628372,-0.5705119371414185,-0.1438390910625457,-0.0386871024966239,0.0,0.0,-0.3413353562355041,-0.8866565227508545
-0.1256747245788574,0.3187276124954223,-0.1171312183141708,-0.5771137475967407,-0.1434504836797714,0.0077720126137137,0.0,0.0,-0.4955838918685913,0.3774418830871582
-0.1268599480390548,0.3055665493011474,-0.119448684155941,-0.5848485231399536,-0.1425268054008484,0.0184733495116233,0.0,0.0,0.2448756694793701,0.7657480239868164
-0.1278261244297027,0.2929438054561615,-0.0966667532920837,-0.5610039830207825,-0.1424756348133087,0.0010237140813842,0.0,0.0,0.2568455934524536,0.2754758596420288
-0.1286989152431488,0.2804983556270599,-0.0882316008210182,-0.5530433058738708,-0.1415261626243591,0.018989872187376,0.0,0.0,0.5753437280654907,0.525931715965271
-0.1295332908630371,0.2685997188091278,-0.0837392583489418,-0.5287961363792419,-0.1412218064069748,0.0060865790583193,0.0,0.0,-0.4093576669692993,0.4542374610900879
-0.1303854882717132,0.2565259933471679,-0.0860802009701728,-0.5365309119224548,-0.1403672397136688,0.0170912854373455,0.0,0.0,-0.7185518741607666,0.6313282251358032
-0.1312082260847091,0.2442667037248611,-0.0824595764279365,-0.5448377132415771,-0.1401728242635727,0.0038883038796484,0.0,0.0,0.7604730129241943,0.7640161514282227
-0.1320134103298187,0.233115941286087,-0.0794514343142509,-0.4956917762756347,-0.1412442326545715,-0.021428283303976,0.0,0.0,-0.8315011262893677,0.7148716449737549
-0.1327722519636154,0.221779927611351,-0.0737245604395866,-0.5040304660797119,-0.1433916389942169,-0.0429477132856845,0.0,0.0,-0.4430099725723266,0.7473366260528564
-0.1334951370954513,0.2102625221014022,-0.0693343430757522,-0.5121715068817139,-0.1463379114866256,-0.0589254014194011,0.0,0.0,0.090359091758728,0.8932287693023682
-0.1341568976640701,0.199308305978775,-0.0619983673095703,-0.4872694611549377,-0.1505129337310791,-0.0835005491971969,0.0,0.0,0.6540477275848389,0.6081972122192383
-0.1347411125898361,0.1889117807149887,-0.0535197183489799,-0.4625749289989471,-0.1554079949855804,-0.0979010239243507,0.0,0.0,-0.4844509363174438,-0.0976044535636901
-0.1353432685136795,0.1783400923013687,-0.0558772608637809,-0.470310777425766,-0.1597394198179245,-0.0866284817457199,0.0,0.0,0.7298648357391357,-0.2574348449707031
-0.1360315382480621,0.1684430241584777,-0.0643365308642387,-0.4403595924377441,-0.1642352789640426,-0.0899170488119125,0.0,0.0,0.6305334568023682,-0.3629103899002075
-0.1365185678005218,0.1593946069478988,-0.0452654436230659,-0.402536004781723,-0.1676826775074005,-0.0689479783177375,0.0,0.0,0.851967453956604,-0.565658688545227
-0.1369269341230392,0.1507704854011535,-0.0392834618687629,-0.3834681212902069,-0.1692322045564651,-0.0309906415641307,0.0,0.0,0.7221781015396118,-0.4846293330192566
-0.1370700895786285,0.1431086659431457,-0.0140346316620707,-0.3405597507953644,-0.169517308473587,-0.0057021668180823,0.0,0.0,0.2266887426376342,-0.7865325212478638
-0.1372135132551193,0.1361503005027771,-0.0161783080548048,-0.3090506196022033,-0.1676767468452453,0.0368111729621887,0.0,0.0,0.0592241287231445,-0.516141414642334
-0.1372230499982834,0.129817709326744,-0.0045757093466818,-0.2810462117195129,-0.1640564054250717,0.0724065080285072,0.0,0.0,-0.4077739715576172,-0.1044803261756897
-0.1372505128383636,0.1233098804950714,-0.0069220787845551,-0.2887807786464691,-0.159872829914093,0.0836714431643486,0.0,0.0,-0.3434791564941406,-0.3921692371368408
-0.1372956335544586,0.116626963019371,-0.0092648258432745,-0.296515941619873,-0.1551271080970764,0.0949148684740066,0.0,0.0,0.3997764587402344,0.2259712219238281
-0.1372046470642089,0.1107460558414459,0.0035487606655806,-0.260805994272232,-0.1495827138423919,0.1108880043029785,0.0,0.0,-0.281917929649353,0.5210874080657959
-0.1370854377746582,0.1046771854162216,0.0069912052713334,-0.2692399322986603,-0.1446622163057327,0.098409965634346,0.0,0.0,0.4130606651306152,-0.1497003436088562
-0.1370111405849456,0.0992409586906433,0.0024210952688008,-0.2411308586597442,-0.1396682113409042,0.0998804196715354,0.0,0.0,0.1316696405410766,0.6944528818130493
-0.1369497328996658,0.0941610634326934,0.0020667160861194,-0.2253963053226471,-0.1356186866760254,0.0809907466173172,0.0,0.0,0.0680736303329467,0.5559954643249512
-0.1368285119533538,0.0894418060779571,0.0086376201361417,-0.2094343602657318,-0.1321519613265991,0.0693344920873642,0.0,0.0,0.1548007726669311,0.6676744222640991
-0.1366032660007476,0.0850861892104148,0.0198048111051321,-0.1933434158563614,-0.129442811012268,0.0541831254959106,0.0,0.0,-0.3393107652664184,0.7517454624176025
-0.136324405670166,0.0805347263813018,0.0264552328735589,-0.2021636217832565,-0.1280164718627929,0.0285271760076284,0.0,0.0,0.0668655633926391,0.0879311561584472
-0.1359441727399826,0.0764530524611473,0.0357534810900688,-0.1812142729759216,-0.1257545799016952,0.0452375300228595,0.0,0.0,-0.3614673018455505,0.7395052909851074
-0.1355201750993728,0.07219198346138,0.0411210730671882,-0.1892766952514648,-0.1244867518544197,0.0253567397594451,0.0,0.0,-0.0162926912307739,0.504464864730835
