x_pos,y_pos,x_vel,y_vel,angle,ang_vel,leg_1,leg_2,main_booster,lat_booster
-0.001622486161068,1.4035158157348633,-0.1644099950790405,-0.3290762603282928,0.0019410535460337,0.0383022725582122,0.0,0.0,0.1385776031975911,-0.7149296738044888
-0.0033598900772631,1.3964996337890625,-0.1772298216819763,-0.3118400871753692,0.0053951889276504,0.0690898150205612,0.0,0.0,0.8030092354731346,0.89399363432436
-0.0049657821655273,1.390031099319458,-0.1627096235752105,-0.2875016629695892,0.0074813747778534,0.041727602481842,0.0,0.0,-0.464142191317993,0.8542511547099028
-0.0066146850585937,1.3834517002105713,-0.1657204926013946,-0.2924248278141022,0.0082993721589446,0.0163615383207798,0.0,0.0,0.1146351826615248,0.7979914894506948
-0.0081999776884913,1.37742817401886,-0.15792116522789,-0.2677091062068939,0.0077009368687868,-0.0119699044153094,0.0,0.0,-0.951537149533108,0.9805169909277668
-0.0097852703183889,1.371295690536499,-0.1555995047092437,-0.2725421786308288,0.0047993748448789,-0.0580368340015411,0.0,0.0,0.7236445467542632,-0.7335584048838768
-0.0115505214780569,1.3659579753875732,-0.1750737726688385,-0.2372327297925949,0.0033663376234471,-0.0286631397902965,0.0,0.0,0.6547589244109315,0.7596529455602419
-0.0131860729306936,1.3614869117736816,-0.1609923392534256,-0.1987152695655822,0.0008377887425012,-0.0505754947662353,0.0,0.0,-0.251960106309758,-0.6828359375225688
-0.0149674415588378,1.3569144010543823,-0.1770383715629577,-0.2032200545072555,-0.0002462973352521,-0.0216837115585804,0.0,0.0,-0.4133952938897545,-0.9336910693516726
-0.0169119834899902,1.3522393703460691,-0.1952978670597076,-0.2077818065881729,0.000580750638619,0.0165424738079309,0.0,0.0,0.0541541783692722,0.9021118649672356
-0.0188087467104196,1.3480253219604492,-0.1887566596269607,-0.187286376953125,-0.0003197940532118,-0.018012611195445,0.0,0.0,0.7668571601125718,-0.8291668378261934
-0.0207736007869243,1.3445483446121216,-0.1974623501300811,-0.1545309871435165,0.0006404402665793,0.01920672878623,0.0,0.0,-0.3405315814274692,-0.6909175966769836
-0.022865867242217,1.3409662246704102,-0.2113316804170608,-0.1592070609331131,0.0027196903247386,0.0415889248251915,0.0,0.0,-0.3111224035306659,0.9224338668406534
-0.0249597541987895,1.337267279624939,-0.2094761878252029,-0.1643936336040496,0.0028024341445416,0.0016552985180169,0.0,0.0,-0.5430926652531101,0.7330039177402861
-0.0270629879087209,1.3334678411483765,-0.2086261212825775,-0.1688657850027084,0.0011304068611934,-0.0334437862038612,0.0,0.0,0.5722781049751442,-0.735780090066406
-0.029188061133027,1.3299756050109863,-0.2125508338212967,-0.1552136987447738,0.0011782116489484,0.0009560897015035,0.0,0.0,0.6011434404158795,-0.794802156432616
-0.0313049331307411,1.3276275396347046,-0.2136355638504028,-0.1043568029999733,0.0030986634083092,0.0384124331176281,0.0,0.0,0.8581793651479679,-0.7278735383227213
-0.0333805084228515,1.3257973194122314,-0.2113981992006302,-0.0813521891832351,0.0068991342559456,0.0760163813829422,0.0,0.0,0.069989537807491,0.6718426767120785
-0.0354061126708984,1.324646234512329,-0.205162689089775,-0.0511762276291847,0.0094664441421628,0.0513508915901184,0.0,0.0,0.7106717624927088,0.9103643944923424
-0.0375267043709754,1.324264645576477,-0.2126963436603546,-0.0169598944485187,0.0100970147177577,0.0126126585528254,0.0,0.0,0.8432540556100685,-0.909234052140352
-0.0396352782845497,1.3250406980514526,-0.2136229276657104,0.0344700999557971,0.0128311067819595,0.0546868033707141,0.0,0.0,-0.4073028034611108,-0.6001862019734774
-0.0418525710701942,1.3257040977478027,-0.2256835401058197,0.0294357445091009,0.0167445112019777,0.078274980187416,0.0,0.0,0.1546367913128687,-0.7232978261460231
-0.0440893173217773,1.3268299102783203,-0.2292031794786453,0.0499665588140487,0.0222155731171369,0.1094307899475097,0.0,0.0,0.220096698562487,0.6247524096403487
-0.0462800040841102,1.328189730644226,-0.2234323024749755,0.0603649392724037,0.0265443939715623,0.0865839272737503,0.0,0.0,-0.8370701503045015,-0.9332097833952382
-0.0486137382686138,1.3294402360916138,-0.2400798499584198,0.0554484650492668,0.0331685654819011,0.1324952691793441,0.0,0.0,0.3355464322584049,-0.6860540358475056
-0.0511994361877441,1.3314093351364136,-0.2664406895637512,0.0873160138726234,0.040940023958683,0.1554292291402816,0.0,0.0,-0.6516971683031234,-0.8289699959337521
-0.0538948066532611,1.333271861076355,-0.2790574133396148,0.0824934020638465,0.0503449365496635,0.1880983412265777,0.0,0.0,0.9208280991268388,-0.7206302358077004
-0.0569002144038677,1.3364555835723877,-0.3111024796962738,0.1411024928092956,0.0607830770313739,0.2087627202272415,0.0,0.0,0.1958763321385772,-0.7723542667899254
-0.0601449012756347,1.340362787246704,-0.3364599347114563,0.1731195002794265,0.0726427137851715,0.2371928989887237,0.0,0.0,0.0817162871827186,-0.9618051254800234
-0.0635372176766395,1.3446273803710938,-0.3531343340873718,0.1888077110052108,0.0864083692431449,0.2753131985664367,0.0,0.0,0.1397033373306715,-0.8947502349662878
-0.0670642852783203,1.349661946296692,-0.3683679401874542,0.2227809131145477,0.1019419729709625,0.3106721043586731,0.0,0.0,0.6254979781661834,-0.709568210521186
-0.0707980170845985,1.3552093505859375,-0.3902550935745239,0.2453144490718841,0.1187023892998695,0.3352084159851074,0.0,0.0,0.450950874080559,0.852921996976318
-0.0746496170759201,1.3617055416107178,-0.4001786112785339,0.2874558269977569,0.1336346119642257,0.2986443638801574,0.0,0.0,0.937354701628126,0.6776694475060591
-0.0785990729928016,1.3687129020690918,-0.4083388447761535,0.3101884424686432,0.1469914019107818,0.2671362161636352,0.0,0.0,-0.9740039242121784,0.9413017337363064
-0.0824839621782302,1.375632643699646,-0.3999055027961731,0.3063735067844391,0.158390462398529,0.2279815673828125,0.0,0.0,0.1930108086183202,0.8923947841488098
-0.0863774269819259,1.383281111717224,-0.3989433646202087,0.3388791084289551,0.1679817140102386,0.1918253898620605,0.0,0.0,0.5908776368363202,0.9591780736473496
-0.0902992263436317,1.3914772272109983,-0.3997814655303955,0.3633965253829956,0.1755959242582321,0.1522844582796096,0.0,0.0,0.921817154294868,0.6485701250701796
-0.0942769050598144,1.4009040594100952,-0.4041462540626526,0.4181984066963196,0.1820036321878433,0.1281541436910629,0.0,0.0,0.6856752247946687,0.6158068833691056
-0.0983991622924804,1.4114990234375,-0.4172416627407074,0.4702658951282501,0.1870405673980713,0.1007387191057205,0.0,0.0,-0.5876940390837639,-0.8548686855182551
-0.1025739684700965,1.4219690561294556,-0.4241000711917877,0.4644844233989715,0.1936857849359512,0.1329045444726944,0.0,0.0,0.1156643095689362,0.6399714996556107
-0.1068658828735351,1.4331012964248655,-0.4343821406364441,0.4940792024135589,0.1989110112190246,0.1045047789812088,0.0,0.0,-0.99993097782135,0.8057358264923096
-0.1110634803771972,1.4441461563110352,-0.422986090183258,0.490444153547287,0.2021622657775879,0.0650251731276512,0.0,0.0,-0.999125063419342,0.832795262336731
-0.1151619926095008,1.4550964832305908,-0.4111427664756775,0.4865043759346008,0.2034527957439422,0.0258109029382467,0.0,0.0,-0.9999770522117616,0.6315908432006836
-0.1191768646240234,1.4659545421600342,-0.401278555393219,0.4826084971427917,0.2032434046268463,-0.0041878661140799,0.0,0.0,-0.9999433755874634,-0.0293881893157959
-0.1231613159179687,1.4767040014266968,-0.3982208371162414,0.477784663438797,0.2030138373374939,-0.0045912833884358,0.0,0.0,-0.9999938011169434,-0.7624093294143677
-0.1271652281284332,1.4873204231262207,-0.401555597782135,0.4716820418834686,0.2041873037815094,0.0234697367995977,0.0,0.0,-0.9999936819076538,0.17124605178833
-0.1311317384243011,1.4978283643722534,-0.3978021442890167,0.4668580293655395,0.2053453773260116,0.0231614001095294,0.0,0.0,-0.9934348464012146,-0.0969405770301818
-0.1350576430559158,1.5082275867462158,-0.3937214016914367,0.4620339572429657,0.2064909636974334,0.0229113232344388,0.0,0.0,-0.99996680021286,-0.1453647017478943
-0.1389396637678146,1.5185184478759766,-0.3893274664878845,0.4572098553180694,0.2076272815465927,0.0227261595427989,0.0,0.0,-0.9999356865882874,0.4274005889892578
-0.1427748650312423,1.528700590133667,-0.3846345245838165,0.4523856937885284,0.2087579220533371,0.0226129312068223,0.0,0.0,-0.9997220039367676,-0.5041953325271606
-0.14658984541893,1.538764715194702,-0.3833869099617004,0.4470284581184387,0.2106593698263168,0.0380288548767566,0.0,0.0,-0.9995104670524596,-0.6022148728370667
-0.1504038870334625,1.5487079620361328,-0.3846023082733154,0.4414650499820709,0.2138874977827072,0.064562551677227,0.0,0.0,-0.9989020824432372,-0.1752423644065857
-0.1541627943515777,1.5585429668426514,-0.3790969252586365,0.4366399049758911,0.2171227037906646,0.0647043660283088,0.0,0.0,-0.9999720454216005,-0.4351315498352051
-0.1578640937805175,1.5682696104049685,-0.3733484148979187,0.4318147003650665,0.2203698903322219,0.0649438127875328,0.0,0.0,-0.9998981952667236,-0.1038460731506347
-0.1615056097507476,1.577887773513794,-0.3673701882362366,0.4269894063472748,0.2236342281103134,0.0652867406606674,0.0,0.0,-0.9989099502563475,-0.4518899917602539
-0.1650849282741546,1.5873976945877075,-0.3611752688884735,0.4221639931201935,0.2269211560487747,0.0657386481761932,0.0,0.0,-0.9999191164970398,-0.6716060042381287
-0.168644517660141,1.596790075302124,-0.3603531718254089,0.4167616963386535,0.2313735336065292,0.0890474617481231,0.0,0.0,-0.9936850070953368,-0.1426429748535156
-0.1721380203962326,1.606074571609497,-0.3537620604038238,0.4119352400302887,0.2358601987361908,0.0897329449653625,0.0,0.0,-0.9999998211860656,-0.5195561647415161
-0.1755990982055664,1.6152433156967163,-0.3514686822891235,0.4066358208656311,0.241300880908966,0.1088140755891799,0.0,0.0,-0.9311270117759703,-0.6348564028739929
-0.1790461540222168,1.6242895126342771,-0.3515135645866394,0.4009158313274383,0.2482273429632187,0.1385291069746017,0.0,0.0,-0.9971834421157836,-0.4991098642349243
-0.1824217736721038,1.633227825164795,-0.3444145321846008,0.3960866928100586,0.2552072703838348,0.1395993679761886,0.0,0.0,-0.9997256994247437,0.502732515335083
-0.1856929808855056,1.642073392868042,-0.3331835865974426,0.3920701742172241,0.2613979279994964,0.1238131150603294,0.0,0.0,-0.9999918937683104,-0.1840529441833496
-0.1888898909091949,1.6508111953735352,-0.325799286365509,0.3872414529323578,0.2676558792591095,0.1251589804887771,0.0,0.0,-0.999833643436432,-0.7998460531234741
-0.1920695304870605,1.6594185829162598,-0.3256701529026031,0.3811172544956207,0.2755436301231384,0.1577549874782562,0.0,0.0,-0.9902802109718324,0.0522119998931884
-0.1951723992824554,1.6679184436798096,-0.3180373609066009,0.3762862384319305,0.2835130095481872,0.1593873351812362,0.0,0.0,-0.9995142817497252,-0.1569480299949646
-0.1981969773769378,1.6763110160827637,-0.3102937638759613,0.3714549243450165,0.2915713191032409,0.1611665040254593,0.0,0.0,-0.999598741531372,-0.2397767305374145
-0.2011424601078033,1.6845961809158323,-0.302447497844696,0.3666232228279114,0.2997260391712188,0.1630941331386566,0.0,0.0,-0.999802827835083,-0.4417076110839844
-0.2040076702833175,1.6927740573883057,-0.2945063710212707,0.3617911338806152,0.3079846203327179,0.1651714593172073,0.0,0.0,-0.999535083770752,-0.5633918642997742
-0.2068335562944412,1.700831651687622,-0.2917032241821289,0.3561546206474304,0.3174437582492828,0.1891827583312988,0.0,0.0,-0.9993839859962464,-0.1718328595161438
-0.2095774710178375,1.708782434463501,-0.2835934162139892,0.351320207118988,0.327021837234497,0.1915616542100906,0.0,0.0,-0.996092677116394,0.1536922454833984
-0.2122386395931244,1.7166264057159424,-0.2754099071025848,0.3464853167533874,0.3367264866828918,0.1940921247005462,0.0,0.0,-0.991467833518982,0.0748889446258544
-0.2148162871599197,1.7243636846542358,-0.2671590745449066,0.3416500091552734,0.3465651869773865,0.1967738568782806,0.0,0.0,-0.9772682189941406,-0.6475508213043213
-0.2173696458339691,1.7319695949554443,-0.2663567662239074,0.3353484570980072,0.358147919178009,0.231654405593872,0.0,0.0,-0.9996089935302734,-0.1000774502754211
-0.2198384255170822,1.7394695281982422,-0.2579878866672516,0.3305093050003052,0.3698797523975372,0.2346367835998535,0.0,0.0,-0.9968844056129456,-0.4194014072418213
-0.2222220450639724,1.7468631267547607,-0.249569222331047,0.3256696164608001,0.3817681670188904,0.2377685755491256,0.0,0.0,-0.9985093474388124,-0.2452166080474853
-0.2245200127363205,1.7541509866714478,-0.2411061078310012,0.320829302072525,0.393820583820343,0.2410483658313751,0.0,0.0,-0.999600112438202,-0.5345985889434814
-0.2267713546752929,1.7613027095794678,-0.2376322299242019,0.3143387138843536,0.4072135686874389,0.2678598463535309,0.0,0.0,-0.9889197945594788,0.0053131580352783
-0.2289363443851471,1.768349051475525,-0.2290939837694168,0.3094947934150696,0.4207850992679596,0.2714300453662872,0.0,0.0,-0.9977383613586426,-0.2370423674583435
-0.2310147732496261,1.7752902507781982,-0.2205261439085006,0.3046501576900482,0.4345422387123108,0.2751429677009582,0.0,0.0,-0.994820773601532,-0.3670786619186401
-0.2330062836408615,1.7821261882781982,-0.2119333297014236,0.2998047769069671,0.4484920501708984,0.2789962887763977,0.0,0.0,-0.9920082688331604,-0.4897501468658447
-0.2349107265472412,1.788857340812683,-0.203320026397705,0.2949585914611816,0.4626413881778717,0.2829875946044922,0.0,0.0,-0.9806101322174072,0.2746884822845459
-0.2367279082536697,1.7954834699630735,-0.1946906149387359,0.2901116609573364,0.4769971072673797,0.287114143371582,0.0,0.0,-0.9459347128868104,0.2065534591674804
-0.2384577244520187,1.8020048141479488,-0.1860493272542953,0.2852639257907867,0.4915657639503479,0.291373074054718,0.0,0.0,-0.9885975122451782,-0.3916698694229126
-0.2401001453399658,1.8084213733673096,-0.1774003803730011,0.2804153263568878,0.5063538551330566,0.2957615554332733,0.0,0.0,-0.9103199243545532,0.2589510679244995
-0.2416551113128662,1.8147335052490237,-0.1687478125095367,0.275565892457962,0.5213676691055298,0.3002764880657196,0.0,0.0,-0.8783537149429321,0.3697319030761719
-0.2431226670742035,1.8209410905838013,-0.1600956469774246,0.270715594291687,0.536613404750824,0.3049147725105285,0.0,0.0,-0.9151898622512816,-0.0673949718475341
-0.2445029318332672,1.827044486999512,-0.1514478623867035,0.2658644020557403,0.5520970821380615,0.3096732199192047,0.0,0.0,-0.925501823425293,0.250051736831665
-0.2457959651947021,1.8330440521240237,-0.1428083777427673,0.2610122859477997,0.5678245425224304,0.3145486712455749,0.0,0.0,-0.3228347301483154,-0.330104112625122
-0.2470019310712814,1.838939547538757,-0.1341810673475265,0.2561593353748321,0.5838014483451843,0.3195378184318542,0.0,0.0,-0.7641088962554932,0.0913275480270385
-0.2481210678815841,1.844731092453003,-0.1255698204040527,0.2513054311275482,0.6000334024429321,0.3246374130249023,0.0,0.0,-0.8486666679382324,0.0931731462478637
-0.249153658747673,1.8504194021224976,-0.1169784814119339,0.2464506030082702,0.6165255904197693,0.3298441767692566,0.0,0.0,-0.8588566780090332,0.5310871601104736
-0.250066190958023,1.8560444116592407,-0.1040316075086593,0.2438833564519882,0.6320677995681763,0.3108444809913635,0.0,0.0,-0.7919203639030457,0.2967481613159179
-0.2508925795555115,1.8615659475326536,-0.0954945906996727,0.2390293478965759,0.6478806138038635,0.3162563443183899,0.0,0.0,-0.7352806329727173,-0.0340659618377685
-0.2516332268714905,1.8669835329055784,-0.0869892463088035,0.2341744005680084,0.6639688611030579,0.3217648863792419,0.0,0.0,-0.854617714881897,0.0029629468917846
-0.2522885799407959,1.8722976446151731,-0.0785194933414459,0.2293185442686081,0.6803371906280518,0.3273669779300689,0.0,0.0,-0.9201349020004272,-0.0320638418197631
-0.2528591156005859,1.8775084018707275,-0.0700892806053161,0.2244617789983749,0.6969901323318481,0.3330593109130859,0.0,0.0,-0.8807716965675354,-0.2426760196685791
-0.2533454000949859,1.8826161623001096,-0.0617025718092918,0.2196040898561477,0.7139320969581604,0.3388388752937317,0.0,0.0,-0.8865703344345093,-0.5726078748703003
-0.2537907063961029,1.887572646141052,-0.0587907023727893,0.2119183093309402,0.7326875925064087,0.3751104176044464,0.0,0.0,-0.7736451625823975,0.4622621536254883
-0.254153311252594,1.892426609992981,-0.0504984967410564,0.207055315375328,0.7517403364181519,0.3810544610023498,0.0,0.0,-0.9360620975494384,0.1691107749938964
-0.2544338703155517,1.8971787691116333,-0.0422617271542549,0.2021914422512054,0.7710942029953003,0.3870777487754822,0.0,0.0,-0.8109340667724609,0.4630510807037353
-0.2546330988407135,1.9018287658691408,-0.034084565937519,0.1973266899585724,0.7907530665397644,0.3931775093078613,0.0,0.0,-0.9477669596672058,0.0643893480300903
-0.2547518610954284,1.90637731552124,-0.0259712096303701,0.1924610733985901,0.8107205629348755,0.3993508815765381,0.0,0.0,-0.8504475355148315,-0.0246737003326416
-0.2547909319400787,1.9108235836029053,-0.0179259441792964,0.1875946372747421,0.8310003280639648,0.4055950045585632,0.0,0.0,-0.4751819372177124,0.6789062023162842
-0.2547240257263183,1.9152101278305051,-0.006456546485424,0.1851805746555328,0.8504395484924316,0.3887839913368225,0.0,0.0,-0.8554104566574097,0.1200295686721801
-0.2545789778232574,1.919495105743408,0.0014351779827848,0.1803151220083236,0.8701976537704468,0.3951626420021057,0.0,0.0,-0.9474907517433168,-0.1282737255096435
-0.2543568015098572,1.923677921295166,0.0092454897239804,0.1754489243030548,0.8902777433395386,0.4016030728816986,0.0,0.0,-0.9649828672409058,-0.1119129657745361
-0.2540585398674011,1.927758812904358,0.0169699229300022,0.1705820113420486,0.9106828570365906,0.4081026017665863,0.0,0.0,-0.6344088315963745,0.1434717178344726
-0.2536852955818176,1.9317378997802732,0.0246039666235446,0.1657143980264663,0.9314157962799072,0.414658635854721,0.0,0.0,-0.9780977368354796,-0.3813719749450683
-0.2532381415367126,1.9356155395507808,0.0321430675685405,0.1608461439609527,0.9524793028831482,0.4212684631347656,0.0,0.0,-0.7207361459732056,-0.2021434307098388
-0.2527183592319488,1.9393917322158811,0.0395826585590839,0.155977264046669,0.9738757610321044,0.4279294610023498,0.0,0.0,-0.7082738876342773,-0.1298239231109619
-0.2521272301673889,1.9430664777755735,0.0469181165099144,0.1511078476905822,0.9956076741218568,0.4346389770507812,0.0,0.0,-0.8222262859344482,-0.2546455264091491
-0.2514659762382507,1.946640133857727,0.0541448704898357,0.1462379544973373,1.0176774263381958,0.4413942694664001,0.0,0.0,-0.4143136739730835,-0.1069051623344421
-0.2507360577583313,1.950112581253052,0.0612583085894584,0.1413676589727401,1.040087103843689,0.448192685842514,0.0,0.0,-0.9276939034461976,0.0362852811813354
-0.2499388754367828,1.9534837007522583,0.0682538300752639,0.1364969611167907,1.0628386735916138,0.4550313055515289,0.0,0.0,-0.6934241056442261,-0.2739425897598266
-0.2490759342908859,1.956753253936768,0.0751269087195396,0.1316259950399398,1.085934042930603,0.4619073867797851,0.0,0.0,-0.516967236995697,-0.5112127065658569
-0.2481674700975418,1.9598692655563357,0.0794271230697631,0.1236313953995704,1.110646367073059,0.4942463934421539,0.0,0.0,-0.7757192850112915,0.066189169883728
-0.247196763753891,1.9628844261169436,0.0860487520694732,0.1187577471137046,1.1357057094573977,0.5011865496635437,0.0,0.0,-0.5565579533576965,-0.2727611660957336
-0.2461655586957931,1.9657989740371704,0.0925348922610282,0.1138842031359672,1.1611133813858032,0.5081561207771301,0.0,0.0,-0.7320789098739624,-0.2213313579559326
-0.2450755536556244,1.968612551689148,0.098881259560585,0.1090108305215835,1.1868709325790403,0.515151858329773,0.0,0.0,-0.9652360677719116,-0.5415218472480774
-0.2439467012882232,1.9712733030319212,0.1028213649988174,0.1010211706161499,1.2142395973205566,0.5473744869232178,0.0,0.0,-0.8786332011222839,-0.4952237606048584
-0.2427630871534347,1.9738327264785769,0.1088838726282119,0.0961464866995811,1.2419601678848269,0.5544095039367676,0.0,0.0,-0.7706308960914612,-0.6597105264663696
