x_pos,y_pos,x_vel,y_vel,angle,ang_vel,leg_1,leg_2,main_booster,lat_booster
-0.0014780998462811,1.4029713869094849,-0.149465799331665,-0.353270411491394,0.0014831010485067,0.0292347110807895,0.0,0.0,0.0458236950660368,0.7981672467350046
-0.0028120041824877,1.394827365875244,-0.1329818069934845,-0.3619576096534729,0.0010842195479199,-0.0079776551574468,0.0,0.0,-0.9089352454784908,-0.911969202580329
-0.0041598319076001,1.3860230445861816,-0.1354795396327972,-0.3913041949272156,0.0017733987187966,0.0137849207967519,0.0,0.0,-0.8691913504729822,-0.9460079584207024
-0.0055568693205714,1.376562476158142,-0.1423227936029434,-0.4204763770103454,0.0043576462194323,0.051689613610506,0.0,0.0,-0.0367784931218277,-0.6394950429786299
-0.0069558145478367,1.3664507865905762,-0.1431394666433334,-0.449422150850296,0.0075654932297766,0.0641628205776214,0.0,0.0,0.2748170112499446,0.9853082050209234
-0.0081212045624852,1.3563156127929688,-0.1174745336174964,-0.4504570662975311,0.0084911230951547,0.0185142755508422,0.0,0.0,0.5087474067402322,0.7307142889441882
-0.0092226024717092,1.3463187217712402,-0.1091451868414878,-0.4442974925041199,0.007508922368288,-0.0196458641439676,0.0,0.0,0.9721068374691124,0.9818394073243064
-0.0100232120603322,1.336833119392395,-0.0770302638411521,-0.4215656220912933,0.0045126080513,-0.0599320530891418,0.0,0.0,-0.950955979397327,-0.9444989185542664
-0.0108698848634958,1.3267042636871338,-0.0831055119633674,-0.450164794921875,0.0029656318947672,-0.0309417657554149,0.0,0.0,-0.102958716112953,-0.7732631894771821
-0.0117498394101858,1.315927267074585,-0.0874983817338943,-0.4789809584617615,0.0024743052199482,-0.0098277470096945,0.0,0.0,0.9242251267071055,0.9489562076446364
-0.012419986538589,1.3055371046066284,-0.0643110647797584,-0.4617794752120971,-0.0001846057275542,-0.0531832687556743,0.0,0.0,-0.67447429850143,0.7657085732041902
-0.0129985809326171,1.294492483139038,-0.0529484972357749,-0.4908799231052398,-0.0050478973425924,-0.0972747132182121,0.0,0.0,0.2774935035287769,0.811587414806852
-0.0133739467710256,1.2836095094680786,-0.0305858645588159,-0.4837212562561035,-0.0119148157536983,-0.1373509764671325,0.0,0.0,0.1744965667327973,0.6573061064802753
-0.013619327917695,1.2724452018737793,-0.0158071778714656,-0.496288388967514,-0.0205396469682455,-0.1725125610828399,0.0,0.0,-0.3656101012333543,-0.8158837975986384
-0.0138954166322946,1.260638952255249,-0.0195906702429056,-0.5248550772666931,-0.0284723360091447,-0.1586680263280868,0.0,0.0,-0.2770367354735197,0.623262692928582
-0.0140970228239893,1.248171091079712,-0.0101015400141477,-0.554343581199646,-0.0384277366101741,-0.1991261690855026,0.0,0.0,-0.1217197232573663,-0.7034409272028082
-0.0143264774233102,1.2350623607635498,-0.0134007604792714,-0.5828724503517151,-0.0478731840848922,-0.1889258623123169,0.0,0.0,-0.6618236284715397,-0.8739185074821447
-0.014595890417695,1.2212986946105957,-0.0181483719497919,-0.6120214462280273,-0.0565736033022403,-0.1740238219499588,0.0,0.0,0.9627396533892052,0.697178393469392
-0.0146205900236964,1.2083032131195068,0.0079693654552102,-0.5780001878738403,-0.0669284164905548,-0.2071152180433273,0.0,0.0,-0.776968197288135,0.7526301539293578
-0.0145844463258981,1.1946511268615725,0.0159715600311756,-0.6073490381240845,-0.0791730433702468,-0.2449143826961517,0.0,0.0,0.3075278261622336,-0.992041891844748
-0.0144535060971975,1.1812412738800049,0.0239853169769048,-0.5966122150421143,-0.0899887979030609,-0.216334730386734,0.0,0.0,-0.5602214580473497,0.8729620152514291
-0.0142465587705373,1.1671663522720337,0.0339937135577201,-0.6264021992683411,-0.1031862646341323,-0.2639729380607605,0.0,0.0,0.9458211023855924,0.9895634656738432
-0.0137217519804835,1.1533591747283936,0.0680607333779335,-0.614797830581665,-0.1186811029911041,-0.3099247217178345,0.0,0.0,-0.0439970591780611,-0.6849620049533538
-0.0132413860410451,1.1389037370681765,0.0630006492137909,-0.6437163949012756,-0.133587509393692,-0.2981549501419067,0.0,0.0,-0.0769380432229704,-0.609025717009674
-0.0128175737336277,1.123812913894653,0.056437499821186,-0.6720240712165833,-0.1476113051176071,-0.2805008292198181,0.0,0.0,-0.0441825223971044,-0.7588452970290906
-0.0124682430177927,1.1080719232559204,0.0476996265351772,-0.7009208798408508,-0.1603745967149734,-0.2552655339241028,0.0,0.0,-0.4100774160221991,0.8222897803125915
-0.0120547292754054,1.0916712284088137,0.0563901551067829,-0.7306106686592102,-0.1754225343465805,-0.3009591698646545,0.0,0.0,-0.9627746141235244,0.8098303040552939
-0.0115926740691065,1.074617624282837,0.0630868524312973,-0.7600215077400208,-0.1923704892396927,-0.3389595448970794,0.0,0.0,0.8254523774358014,0.8663502123634845
-0.011057948693633,1.058210372924805,0.0729480534791946,-0.7318647503852844,-0.2119800597429275,-0.3921915888786316,0.0,0.0,0.4531928259112205,-0.9219053288841964
-0.0105289462953805,1.04181170463562,0.0711025446653366,-0.7315497994422913,-0.2303977608680725,-0.3683544099330902,0.0,0.0,-0.937412343036361,0.799022009839724
-0.0099402423948049,1.024753451347351,0.0792641192674636,-0.7614638805389404,-0.251111090183258,-0.4142668843269348,0.0,0.0,0.0362730723096638,-0.8805304281433839
-0.0094129564240574,1.0074915885925293,0.0718928650021553,-0.7705949544906616,-0.2706892192363739,-0.3915624618530273,0.0,0.0,0.8402153436917421,0.7734461013950876
-0.0086899753659963,0.9908980131149292,0.0937027633190155,-0.7416094541549683,-0.2926843464374542,-0.4399026334285736,0.0,0.0,0.9069918179021472,0.681766551375327
-0.0078797340393066,0.9742638468742372,0.1044498682022094,-0.7441886067390442,-0.3169125914573669,-0.4845646321773529,0.0,0.0,0.9834995439476903,-0.6698381854374429
-0.0068723680451512,0.9580760598182678,0.1232452765107154,-0.7245520949363708,-0.3403687179088592,-0.4691223502159118,0.0,0.0,0.4997244585804161,-0.7723645713938623
-0.0056826593354344,0.942242443561554,0.1403691172599792,-0.7089383006095886,-0.3628591299057007,-0.4498079717159271,0.0,0.0,-0.0268188176271142,0.8508121361611597
-0.0044430731795728,0.9257277846336364,0.1473652124404907,-0.7401105165481567,-0.3876789212226867,-0.4963961243629455,0.0,0.0,0.8955260817359829,0.9630470910664288
-0.0027652741409838,0.9097210764884948,0.1933141648769378,-0.7186051607131958,-0.4150534868240356,-0.5474921464920044,0.0,0.0,0.2919052869510039,0.7724439196862555
-0.0008046150323934,0.8939713835716248,0.2234023064374923,-0.7082995772361755,-0.4447101950645447,-0.5931345820426941,0.0,0.0,0.6481405559094304,0.6504788978383605
0.0014823913807049,0.8783533573150635,0.2573979496955871,-0.7035935521125793,-0.4763103127479553,-0.6320030689239502,0.0,0.0,0.4471485177073644,0.7597090625669294
0.0040364265441894,0.8630443215370178,0.2857583165168762,-0.6912274956703186,-0.5103006362915039,-0.6798071265220642,0.0,0.0,0.2863893508911133,-0.9982354044914246
0.0068106651306152,0.8476062417030334,0.3059423267841339,-0.6971469521522522,-0.5428275465965271,-0.6505388021469116,0.0,0.0,0.3773725032806396,-0.9952306151390076
0.0097214700654149,0.8318452835083008,0.3177857398986816,-0.7115648984909058,-0.5738770365715027,-0.6209901571273804,0.0,0.0,0.2157500982284546,-0.9990677833557128
0.0128408428281545,0.8159281611442566,0.3368989527225494,-0.7184961438179016,-0.6034610867500305,-0.5916807055473328,0.0,0.0,0.2153043746948242,-0.9980013966560364
0.0159769058227539,0.7997260093688965,0.3368472754955292,-0.7310612201690674,-0.6315629482269287,-0.5620368123054504,0.0,0.0,0.2812354564666748,-0.998527765274048
0.0192237850278615,0.7832216620445251,0.3462470173835754,-0.7443126440048218,-0.658173680305481,-0.5322151184082031,0.0,0.0,0.3695363998413086,-0.9996780157089232
0.0226704590022563,0.7665294408798218,0.3645883798599243,-0.752386748790741,-0.683256983757019,-0.5016657710075378,0.0,0.0,-0.2418832778930664,-0.9973592758178712
0.026041030883789,0.7492906451225281,0.3550693988800049,-0.7761522531509399,-0.7063805460929871,-0.4624713361263275,0.0,0.0,-0.075225293636322,-0.9941931366920472
0.0293341632932424,0.7315073609352112,0.3454404771327972,-0.7997159361839294,-0.7274684906005859,-0.4217589795589447,0.0,0.0,0.0497833490371704,-0.9979932904243468
0.0327612869441509,0.7135339975357056,0.357366532087326,-0.8076746463775635,-0.7469913363456726,-0.3904563784599304,0.0,0.0,-0.436596155166626,-0.9993313550949096
0.0361350998282432,0.694976806640625,0.3510160148143768,-0.8333288431167603,-0.7654784321784973,-0.3697421252727508,0.0,0.0,-0.1706950664520263,-0.9984315633773804
0.0394413955509662,0.6758679151535034,0.3427183330059051,-0.8571590781211853,-0.7821648120880127,-0.3337273895740509,0.0,0.0,-0.3609508275985718,-0.9982272386550904
0.0426902770996093,0.6561770439147949,0.335972398519516,-0.882584810256958,-0.7976862192153931,-0.310427576303482,0.0,0.0,-0.2119314670562744,-0.9980720281600952
0.0458806976675987,0.6359298825263977,0.3288304507732391,-0.9066506028175354,-0.8116124868392944,-0.2785257995128631,0.0,0.0,-0.4200854301452636,-0.9916318655014038
0.0490202903747558,0.6150974631309509,0.3229058384895324,-0.9322392344474792,-0.8245183825492859,-0.25811767578125,0.0,0.0,-0.3140008449554443,-0.998654007911682
0.052088163793087,0.5937147736549377,0.3142842352390289,-0.9557983875274658,-0.8354665637016296,-0.2189635783433914,0.0,0.0,-0.6005990505218506,-0.9958469271659852
0.0551086440682411,0.5717642307281494,0.3085988759994507,-0.9804500341415404,-0.8451473712921143,-0.193615972995758,0.0,0.0,-0.7210685610771179,-0.9866297245025636
0.058084201067686,0.5492358803749084,0.3033103346824646,-1.0056164264678955,-0.8537479639053345,-0.1720118373632431,0.0,0.0,-0.5820375084877014,-0.990456998348236
0.0610135085880756,0.526143491268158,0.2977467477321625,-1.030036449432373,-0.8610087633132935,-0.1452158540487289,0.0,0.0,-0.4279121160507202,-0.9665818810462952
0.0638855919241905,0.5025053024291992,0.2907779812812805,-1.0533665418624878,-0.8664223551750183,-0.1082720756530761,0.0,0.0,-0.315417468547821,-0.9984989762306212
0.0667014122009277,0.4782954454421997,0.2841959595680237,-1.0780527591705322,-0.8704177737236023,-0.0799087584018707,0.0,0.0,-0.1194987297058105,-0.9874393939971924
0.0694572478532791,0.4535436630249023,0.2768904864788055,-1.10111403465271,-0.8724209666252136,-0.0400637462735176,0.0,0.0,-0.0497967004776001,-0.9862768054008484
0.072168156504631,0.428212970495224,0.2716570198535919,-1.1262563467025757,-0.8732887506484985,-0.0173557586967945,0.0,0.0,0.1739767789840698,-0.9747239947319032
0.0751742348074913,0.4027197360992431,0.3001486659049988,-1.132670760154724,-0.8725849986076355,0.0140744764357805,0.0,0.0,0.0536470413208007,-0.9888227581977844
0.0783243179321289,0.376902163028717,0.3135077357292175,-1.146260380744934,-0.8702887892723083,0.0459240153431892,0.0,0.0,0.2517158985137939,-0.9495296478271484
0.0816978439688682,0.3510797023773193,0.3348445296287536,-1.1456916332244873,-0.8664557337760925,0.0766613632440567,0.0,0.0,0.4754698276519775,-0.7619836330413818
0.0856331810355186,0.325401246547699,0.3902704119682312,-1.1387110948562622,-0.8614901304244995,0.0993119850754737,0.0,0.0,0.5634026527404785,-0.8733510971069336
0.0897860527038574,0.2993178069591522,0.4110628962516784,-1.1560018062591553,-0.8551119565963745,0.127563789486885,0.0,0.0,0.5610419511795044,-0.7400209903717041
0.0945343971252441,0.2734200358390808,0.4698384404182434,-1.1472117900848389,-0.8476382493972778,0.149474412202835,0.0,0.0,0.7537781000137329,-0.7239031195640564
0.0995513945817947,0.2475575357675552,0.4961389899253845,-1.1452717781066897,-0.8393740057945251,0.1652864813804626,0.0,0.0,0.7441357374191284,-0.3787846565246582
0.1050390228629112,0.221873477101326,0.5438863039016724,-1.1379210948944092,-0.8322101831436157,0.1432771235704422,0.0,0.0,0.76372230052948,-0.5162143111228943
0.111019417643547,0.196220189332962,0.5927168726921082,-1.1362717151641846,-0.8244280815124512,0.1556425392627716,0.0,0.0,0.7104213237762451,-0.3359096050262451
0.1175567656755447,0.1709579974412918,0.6492282748222351,-1.1195366382598877,-0.8179110288619995,0.1303409039974212,0.0,0.0,0.6836389303207397,-0.34322190284729
0.1245812401175499,0.1455712169408798,0.6981238126754761,-1.1252448558807373,-0.8116937875747681,0.124344490468502,0.0,0.0,0.3061671257019043,0.1684367656707763
0.13181933760643,0.1198863089084625,0.7199990153312683,-1.138889193534851,-0.8062435388565063,0.1090055555105209,0.0,0.0,0.5620279312133789,0.1413969993591308
0.139332577586174,0.0938042998313903,0.7477375864982605,-1.156713843345642,-0.8011369109153748,0.1021330505609512,0.0,0.0,0.7882839441299438,0.4318451881408691
0.1470960676670074,0.067496120929718,0.7732940316200256,-1.1671671867370603,-0.7968264222145081,0.0862093120813369,1.0,0.0,0.7448976039886475,0.999234676361084
0.1536086052656173,0.0567109212279319,0.6635215878486633,-0.4876940846443176,-0.8175409436225891,-0.4186041355133056,1.0,0.0,0.7939789295196533,-0.6535910367965698
0.1612789183855056,0.0462020263075828,0.7663975954055786,-0.4666091203689575,-0.8166202902793884,0.0184196587651968,1.0,0.0,0.9299681186676024,-0.9400447010993958
0.1694290190935135,0.0373491607606411,0.8048721551895142,-0.3862911164760589,-0.7978575229644775,0.380502313375473,1.0,0.0,0.9198737144470216,-0.9872915744781494
0.1777976006269455,0.0293249934911727,0.8095334768295288,-0.3386469483375549,-0.7601380348205566,0.7541590929031372,1.0,0.0,0.7588775157928467,-0.9998076558113098
0.1868469268083572,0.0223765708506107,0.8616781234741211,-0.2829345762729645,-0.7026003003120422,1.1509497165679932,1.0,0.0,0.7080889940261841,-0.9999950528144836
0.1962358504533767,0.0161388255655765,0.8819600939750671,-0.2472538501024246,-0.6308649778366089,1.4348398447036743,1.0,0.0,0.7217620611190796,-0.9999984502792358
0.2059790641069412,0.0103846648707985,0.9103168249130248,-0.2268714904785156,-0.5544131398200989,1.5292401313781738,1.0,0.0,0.7042462825775146,-0.9999993443489076
0.2160219252109527,0.0050150966271758,0.936759114265442,-0.2129975408315658,-0.4776381254196167,1.5355592966079712,1.0,0.0,0.7073030471801758,-0.9999999403953552
0.2263874113559723,-0.0001474046730436,0.9642756581306458,-0.2067499756813049,-0.3987249433994293,1.5783228874206543,0.0,0.0,0.9987447261810304,-0.9664443135261536
0.2369027137756347,-0.0052878404967486,0.9755164980888368,-0.2093484848737716,-0.3184678554534912,1.6052024364471436,0.0,0.0,0.99904465675354,-0.3725765943527221
0.2477060258388519,-0.0103511000052094,1.0024083852767944,-0.2100637108087539,-0.2383554130792617,1.6023086309432983,0.0,0.0,0.9989943504333496,-0.7315734028816223
0.2588292062282562,-0.0150171061977744,1.031571865081787,-0.1964750438928604,-0.1569659113883972,1.627850890159607,0.0,0.0,0.9994955062866212,-0.895413875579834
0.2701621949672699,-0.0195680279284715,1.049965739250183,-0.1956875324249267,-0.074077270925045,1.6578338146209717,0.0,1.0,1.0,0.9927763938903807
0.2814289927482605,-0.0227983370423316,1.0636463165283203,-0.1414612680673599,-0.0134510863572359,1.2104129791259766,0.0,1.0,0.9999998807907104,0.988304615020752
0.2925690710544586,-0.0247019547969102,1.0750799179077148,-0.0847514644265174,0.0249002370983362,0.7669348120689392,0.0,1.0,0.941992998123169,-0.816205620765686
0.3035439550876617,-0.025535549968481,1.076745867729187,-0.0375318937003612,0.0453744605183601,0.4094532430171966,0.0,1.0,-0.97499018907547,-0.9991429448127748
0.3142368197441101,-0.0265174526721239,1.0663187503814695,-0.0437324456870555,0.0483040437102317,0.0585913360118866,0.0,1.0,-0.9993757605552672,-0.9998353123664856
0.3246520161628723,-0.0276986267417669,1.053714156150818,-0.0521530732512474,0.0362293682992458,-0.2415177524089813,0.0,1.0,-0.9522144794464112,-0.9999465346336364
0.3348729014396667,-0.0292119644582271,1.044056415557861,-0.0668854489922523,0.0144954435527324,-0.4347344040870666,0.0,1.0,-0.8224061727523804,-0.9993664622306824
0.3449519276618957,-0.031220830976963,1.0334430932998655,-0.089247241616249,-0.010767881758511,-0.5053352117538452,0.0,1.0,-0.615533173084259,-0.9989342093467712
0.3549151420593261,-0.0338057652115821,1.0216137170791626,-0.1152757257223129,-0.0357890427112579,-0.5004854798316956,1.0,1.0,-0.5704061985015869,-0.9999991655349731
0.3646629452705383,-0.0362898483872413,0.9854900240898132,-0.1107530146837234,-0.0452850013971328,-0.1885458528995514,1.0,1.0,-0.5161059498786926,-0.9999634623527528
0.3742039799690246,-0.0385293513536453,0.9554504156112672,-0.0995773300528526,-0.046756088733673,-0.0296024940907955,1.0,1.0,-0.4645974636077881,-0.9999354481697084
0.3832221925258636,-0.0384149439632892,0.8313050270080566,0.0592050142586231,-0.0174297485500574,0.904456913471222,1.0,1.0,-0.4645974636077881,-0.9999354481697084
