x_pos,y_pos,x_vel,y_vel,angle,ang_vel,leg_1,leg_2,main_booster,lat_booster
-0.0016284942394122,1.4031037092208862,-0.1643597781658172,-0.3473913073539734,0.0013432673877105,0.0264663752168416,0.0,0.0,-0.1297633313758228,0.6626492680122965
-0.0033060074783861,1.394786715507507,-0.1671256572008133,-0.3696417212486267,0.0007292292430065,-0.0122810592874884,0.0,0.0,-0.6931689318012597,0.9826942564102784
-0.0049939155578613,1.3859416246414185,-0.1652698665857315,-0.3931174874305725,-0.002758840797469,-0.0697679966688156,0.0,0.0,-0.414272085765764,0.6281870532358064
-0.0067465780302882,1.376573920249939,-0.1702212542295456,-0.4163627922534942,-0.0077463504858314,-0.0997591614723205,0.0,0.0,0.9450273325415736,-0.8586472209766657
-0.0084982868283987,1.367838740348816,-0.1717109084129333,-0.3882469534873962,-0.0111749470233917,-0.0685782358050346,0.0,0.0,0.5010862903858122,0.6813003822624056
-0.0101574901491403,1.3593192100524902,-0.1608674526214599,-0.3786972761154175,-0.016169648617506,-0.0999032706022262,0.0,0.0,-0.4865951008502103,0.8015136319390871
-0.0118586542084813,1.3502779006958008,-0.1630161255598068,-0.4019239246845245,-0.0231979545205831,-0.1405790597200393,0.0,0.0,-0.2047377495599558,-0.7167721365080622
-0.0137043949216604,1.3407204151153564,-0.1780357360839843,-0.4248910248279571,-0.0296652521938085,-0.1293576508760452,0.0,0.0,-0.4884291060052919,0.9858884095705304
-0.0155754089355468,1.330650806427002,-0.1781061589717865,-0.4477489590644836,-0.0385548882186412,-0.1778092831373214,0.0,0.0,0.2705287057172698,0.9532242684009652
-0.0174508094787597,1.320900797843933,-0.1761451363563537,-0.4336605966091156,-0.0498411953449249,-0.225747138261795,0.0,0.0,-0.062968849165776,0.7221531613814044
-0.019361114129424,1.310628056526184,-0.1774600893259048,-0.4570681154727936,-0.0632724836468696,-0.2686504423618316,0.0,0.0,-0.6711494107270459,0.940750773338545
-0.0212875362485647,1.2998285293579102,-0.1764682084321975,-0.4807462990283966,-0.079298198223114,-0.3205440044403076,0.0,0.0,-0.1087577486643973,0.9971587514250038
-0.0232159607112407,1.2885066270828247,-0.1737562716007232,-0.504318118095398,-0.0982382968068122,-0.3788371682167053,0.0,0.0,-0.7081192715808644,0.659660286632424
-0.0251833908259868,1.2766554355621338,-0.1757181137800216,-0.5282392501831055,-0.1191493421792984,-0.4182592034339905,0.0,0.0,0.0106952418119405,-0.9039652846722712
-0.0271536819636821,1.2650444507598877,-0.1773388534784317,-0.5177332162857056,-0.1387781500816345,-0.3926118016242981,0.0,0.0,0.298839009423413,0.8073676902715788
-0.0290265083312988,1.2532236576080322,-0.1656373888254165,-0.5275343060493469,-0.1604170352220535,-0.4328173696994781,0.0,0.0,0.3974606177007009,0.6404943719071877
-0.0306987762451171,1.2419257164001465,-0.1441393792629242,-0.504787802696228,-0.1835815161466598,-0.4633318781852722,0.0,0.0,-0.7190523836924341,-0.9088520096768936
-0.0325164794921875,1.2301223278045654,-0.1596477627754211,-0.527491569519043,-0.2058659493923187,-0.4457293450832367,0.0,0.0,0.775860859174067,0.9924459224433432
-0.0340541824698448,1.2190229892730713,-0.129463791847229,-0.4968774020671844,-0.2304731458425521,-0.4921890795230865,0.0,0.0,-0.953140660210888,0.8614503330358101
-0.0356215462088584,1.2073919773101809,-0.1306031793355941,-0.5212384462356567,-0.2570845782756805,-0.5322769284248352,0.0,0.0,-0.4266794831941884,0.7916752965057968
-0.0371992103755474,1.195228934288025,-0.1294546127319336,-0.5458152890205383,-0.2861295044422149,-0.5809516906738281,0.0,0.0,-0.6004567805635972,-0.6877775201164034
-0.0389107689261436,1.1825759410858154,-0.1439062803983688,-0.567953884601593,-0.3143081963062286,-0.5636252164840698,0.0,0.0,0.4508947298053198,-0.7486121484607613
-0.0404901504516601,1.1700631380081177,-0.1321112811565399,-0.5619505047798157,-0.3412596583366394,-0.539077877998352,0.0,0.0,0.8225845682598694,0.6684943639111124
-0.0419055931270122,1.1574528217315674,-0.1143829375505447,-0.5671525597572327,-0.3698855936527252,-0.572569727897644,0.0,0.0,0.0360739811678856,-0.8139209421554848
-0.0434059128165245,1.1449912786483765,-0.124264620244503,-0.560757040977478,-0.3973453938961029,-0.5492454171180725,0.0,0.0,-0.8172893045106322,0.9448498979125012
-0.0449309349060058,1.1319732666015625,-0.1251627802848816,-0.586502730846405,-0.4267743229866028,-0.5885778665542603,0.0,0.0,0.4103925775477079,0.7378013019539938
-0.0462109558284282,1.1192615032196045,-0.0992000550031662,-0.5740267038345337,-0.4582193195819855,-0.6289007067680359,0.0,0.0,-0.416578530989661,0.8310365262542807
-0.0475081428885459,1.1060185432434082,-0.0996939018368721,-0.5988225936889648,-0.4915046691894531,-0.6657074689865112,0.0,0.0,-0.1296231588775742,0.7234633516128415
-0.0488255508244037,1.0922454595565796,-0.1007802486419677,-0.6236024498939514,-0.5264633297920227,-0.6991749405860901,0.0,0.0,-0.7154080777587923,0.9958574645521568
-0.0501361861824989,1.077910542488098,-0.0985544845461845,-0.6501985192298889,-0.5639529824256897,-0.7497947216033936,0.0,0.0,0.1566373640367333,0.6481123228071901
-0.0511241927742958,1.0637803077697754,-0.0655093491077423,-0.6426042318344116,-0.60328209400177,-0.786581814289093,0.0,0.0,0.4765464143093347,-0.9540225365143686
-0.0520658493041992,1.0497589111328125,-0.0629899054765701,-0.6380166411399841,-0.6410961747169495,-0.756281852722168,0.0,0.0,-0.0040903794797153,0.793788341050284
-0.0530047416687011,1.0351948738098145,-0.0620346441864967,-0.6637295484542847,-0.6808637380599976,-0.7953514456748962,0.0,0.0,0.0466221370128863,-0.766353318043987
-0.0539229400455951,1.020491123199463,-0.061890959739685,-0.6702480316162109,-0.7194390296936035,-0.7715055346488953,0.0,0.0,0.6724301284610583,-0.850496746151903
-0.0544912330806255,1.0060495138168335,-0.0289495252072811,-0.6586809158325195,-0.7565664052963257,-0.7425486445426941,0.0,0.0,-0.9776671736704856,0.7798427580960682
-0.0550399795174598,0.9910461902618408,-0.0263587050139904,-0.6854050755500793,-0.795941174030304,-0.7874953150749207,0.0,0.0,0.2140389444901564,-0.7087768793263995
-0.055427361279726,0.9759709239006042,-0.0121045988053083,-0.688787579536438,-0.8341963887214661,-0.7651048898696899,0.0,0.0,-0.4466340988097803,-0.8892924083902236
-0.0558720603585243,0.9604672789573668,-0.0198876075446605,-0.7077339291572571,-0.870989978313446,-0.735871434211731,0.0,0.0,-0.8769650544649144,0.997407680916282
-0.056277085095644,0.9443850517272948,-0.0153679279610514,-0.735397458076477,-0.9103452563285828,-0.7871068120002747,0.0,0.0,-0.6917826029902854,0.9335099837208972
-0.056640625,0.9277127385139464,-0.0108605865389108,-0.7637454867362976,-0.9523940682411194,-0.8409774899482727,0.0,0.0,-0.1212728991633504,0.6351551908622999
-0.0569758415222168,0.9104928374290466,-0.0085809892043471,-0.7896950840950012,-0.99607652425766,-0.8736499547958374,0.0,0.0,-0.9455121755599976,-0.9982282519340516
-0.0573368072509765,0.8928448557853699,-0.0135281886905431,-0.8085779547691345,-1.0383005142211914,-0.8444793820381165,0.0,0.0,-0.8533807396888733,-0.9833594560623168
-0.0577225685119628,0.8747679591178894,-0.0182994715869426,-0.8273449540138245,-1.0789788961410522,-0.8135682344436646,0.0,0.0,-0.9034002423286438,-0.9984485507011414
-0.0581210143864154,0.8562671542167664,-0.0217691492289304,-0.8457337021827698,-1.1180486679077148,-0.7813976407051086,0.0,0.0,-0.951868176460266,-0.9960603713989258
-0.0585388168692588,0.8373616337776184,-0.0259897820651531,-0.8628267049789429,-1.1549428701400757,-0.7378842234611511,0.0,0.0,-0.7739259004592896,-0.998854398727417
-0.0589634887874126,0.8180379867553711,-0.0286514367908239,-0.8806073665618896,-1.1899700164794922,-0.7005430459976196,0.0,0.0,-0.9021005630493164,-0.9980833530426024
-0.0593847259879112,0.798295795917511,-0.0300977192819118,-0.8983602523803711,-1.223158597946167,-0.6637706160545349,0.0,0.0,-0.93156498670578,-0.9938660860061646
-0.059793185442686,0.7781699299812317,-0.0306912269443273,-0.914012372493744,-1.2537695169448853,-0.6122182011604309,0.0,0.0,-0.8788629770278931,-0.9865499138832092
-0.0601842887699604,0.7576619982719421,-0.0306150615215301,-0.9294626116752625,-1.2817161083221436,-0.5589322447776794,0.0,0.0,-0.938055455684662,-0.990310549736023
-0.0605549812316894,0.7367497682571411,-0.0299351774156093,-0.9461368918418884,-1.307423710823059,-0.5141531229019165,0.0,0.0,-0.9042960405349731,-0.9945738911628724
-0.0608925819396972,0.7154043912887573,-0.0276539325714111,-0.9644436240196228,-1.3315256834030151,-0.4820395410060882,0.0,0.0,-0.9331073760986328,-0.9897850751876832
-0.0611931793391704,0.6936628818511963,-0.0250607971101999,-0.9805272221565248,-1.3531785011291504,-0.4330554902553558,0.0,0.0,-0.9619925022125244,-0.9333491921424866
-0.0614538192749023,0.6714873909950256,-0.0218645557761192,-0.9987751841545104,-1.3731621503829956,-0.3996737599372864,0.0,0.0,-0.8936464190483093,-0.9829549193382264
-0.0616635307669639,0.6489042043685913,-0.0175843946635723,-1.0154712200164795,-1.390906810760498,-0.3548922538757324,0.0,0.0,-0.9371709227561952,-0.9471344351768494
-0.0618224143981933,0.6258812546730042,-0.0130829513072967,-1.0339865684509275,-1.407055377960205,-0.3229716718196869,0.0,0.0,-0.9311827421188354,-0.8844224810600281
-0.0619305595755577,0.6024526953697205,-0.0086229005828499,-1.0504343509674072,-1.420800805091858,-0.2749083936214447,0.0,0.0,-0.886598527431488,-0.8676608204841614
-0.0619725212454795,0.5785877704620361,-0.0024425331503152,-1.0687097311019895,-1.4328409433364868,-0.2408018559217453,0.0,0.0,-0.8842026591300964,-0.635897159576416
-0.0619457252323627,0.554258406162262,0.0041364827193319,-1.0886082649230957,-1.443757176399231,-0.2183254659175872,0.0,0.0,-0.8921199440956116,-0.2750858664512634
-0.0618439689278602,0.5294097661972046,0.0115294242277741,-1.11175537109375,-1.4547516107559204,-0.2198887169361114,0.0,0.0,-0.8983258008956909,0.036715030670166
-0.0616642013192176,0.504041314125061,0.0192088764160871,-1.1348999738693235,-1.4657964706420898,-0.2208982408046722,0.0,0.0,-0.8724352717399597,0.3917816877365112
-0.0614038482308387,0.4781526923179626,0.0271548777818679,-1.1580424308776855,-1.4768636226654053,-0.2213440239429474,0.0,0.0,-0.8528599739074707,0.2840125560760498
-0.0610602386295795,0.4517434537410736,0.0353482775390148,-1.1811822652816772,-1.4879244565963743,-0.2212177962064743,0.0,0.0,-0.8058173656463623,0.4271191358566284
-0.0606310851871967,0.4248133599758148,0.04377081990242,-1.2043194770812988,-1.4989501237869265,-0.2205137461423874,0.0,0.0,-0.8136427402496338,0.4977259635925293
-0.0601143836975097,0.3973618447780609,0.052405197173357,-1.2274540662765503,-1.5099115371704102,-0.2192282378673553,0.0,0.0,-0.6698435544967651,0.4935375452041626
-0.0595081336796283,0.3693885505199432,0.0612350925803184,-1.2505861520767212,-1.5207794904708862,-0.2173599302768707,0.0,0.0,-0.4962711334228515,0.2543115615844726
-0.0588105209171772,0.3408931195735931,0.0702451840043068,-1.273715615272522,-1.5315250158309937,-0.2149099111557006,0.0,0.0,-0.3059296011924743,0.6944534778594971
-0.0580122955143451,0.3117949962615967,0.0802430734038353,-1.3016180992126465,-1.5439261198043823,-0.2480225563049316,0.0,0.0,-0.0634099245071411,0.7569715976715088
-0.0571233741939067,0.2820776402950287,0.089194968342781,-1.33048415184021,-1.5583107471466064,-0.2876930236816406,0.0,0.0,0.0429059267044067,0.5544335842132568
-0.0555937774479389,0.2517567873001098,0.1530559659004211,-1.358100175857544,-1.573864459991455,-0.3110747337341308,0.0,0.0,0.196566104888916,0.4728381633758545
-0.0536228194832801,0.2210127413272857,0.1969389170408249,-1.3769594430923462,-1.5894964933395386,-0.3126400709152221,0.0,0.0,0.4611515998840332,0.6794129610061646
-0.0509509071707725,0.1897850334644317,0.2667368650436401,-1.3995040655136108,-1.6066879034042358,-0.3438276648521423,0.0,0.0,0.1760058403015136,0.87317955493927
-0.047737218439579,0.1578734070062637,0.3205121755599975,-1.4311848878860474,-1.6257944107055664,-0.382130354642868,0.0,0.0,-0.0083497762680053,0.8686555624008179
-0.0444170944392681,0.1253599524497985,0.3306730687618255,-1.4588642120361328,-1.6463011503219604,-0.4101347923278808,0.0,0.0,0.4065577983856201,0.9410210847854614
-0.0405133254826068,0.0920539945363998,0.3884234428405761,-1.495426058769226,-1.6688272953033447,-0.4505224823951721,0.0,0.0,0.552675724029541,0.9598243236541748
-0.0361466407775878,0.0581148229539394,0.4339585900306701,-1.5249027013778689,-1.693402647972107,-0.4915077090263366,0.0,0.0,0.8087148666381836,0.9445383548736572
-0.0313449874520301,0.0233571864664554,0.4765743613243103,-1.5624988079071045,-1.7198717594146729,-0.5293815732002258,1.0,0.0,0.0601799488067626,0.9993398189544678
-0.0246684066951274,0.0031178093049675,0.5981546640396118,-1.0684446096420288,-1.9451494216918943,-4.395446300506592,1.0,0.0,0.1392133235931396,-0.9806464910507202
-0.019603919237852,0.0055409525521099,0.4811905026435852,0.0656461343169212,-1.98259711265564,-0.750285267829895,1.0,0.0,0.1392133235931396,-0.9806464910507202
