x_pos,y_pos,x_vel,y_vel,angle,ang_vel,leg_1,leg_2,main_booster,lat_booster
-0.0016201973194256,1.4029345512390137,-0.1649130880832672,-0.3549166023731231,0.0025907654780894,0.0511668734252452,0.0,0.0,-0.0017347931861877,0.863983154296875
-0.0032630921341478,1.3942782878875732,-0.1657447665929794,-0.3847267031669616,0.0040273861959576,0.0287357680499553,0.0,0.0,0.6212574243545532,0.8311234712600708
-0.0047920225188136,1.385521411895752,-0.1537404060363769,-0.3891949653625488,0.004862199537456,0.0166979674249887,0.0,0.0,0.3711588382720947,0.965428113937378
-0.00645532598719,1.3766930103302002,-0.1659347116947174,-0.3923716247081756,0.0044765067286789,-0.0077148638665676,0.0,0.0,0.0665476322174072,0.9585373401641846
-0.0080389976501464,1.3678102493286133,-0.1568552702665329,-0.3947849571704864,0.0029855193570256,-0.0298223346471786,0.0,0.0,-0.2767379283905029,0.9077026844024658
-0.0096270563080906,1.3582367897033691,-0.1558912694454193,-0.4254903197288513,9.625571692595258e-05,-0.0577905364334583,0.0,0.0,0.4748553037643432,0.775963306427002
-0.011267471127212,1.3487465381622314,-0.1603594571352005,-0.4217863976955414,-0.0035525781568139,-0.0729832202196121,0.0,0.0,0.4331398010253906,0.8659656047821045
-0.0127809522673487,1.3394098281860352,-0.1469526290893554,-0.4149871468544006,-0.0079002492129802,-0.0869612544775009,0.0,0.0,0.2064346075057983,0.8521029949188232
-0.014320945367217,1.3303083181381226,-0.1487277448177337,-0.4045480191707611,-0.0131141599267721,-0.1042876690626144,0.0,0.0,0.0261474847793579,0.8004896640777588
-0.0158793441951274,1.3211973905563354,-0.1498133540153503,-0.404990941286087,-0.0190778523683547,-0.1192848458886146,0.0,0.0,0.1169757843017578,0.6610438823699951
-0.0173976905643939,1.311996579170227,-0.1454164087772369,-0.4090162813663482,-0.0254208091646432,-0.126870721578598,0.0,0.0,-0.2070627212524414,0.7847182750701904
-0.0189306251704692,1.3021018505096436,-0.1459801793098449,-0.4399052262306213,-0.0326555408537387,-0.1447077393531799,0.0,0.0,0.1803199052810669,0.8054704666137695
-0.0203588493168354,1.2922626733779907,-0.1348494440317154,-0.4374949336051941,-0.0405409559607505,-0.1577228009700775,0.0,0.0,-0.1144044995307922,0.4160506725311279
-0.0218671802431345,1.281733512878418,-0.1437187045812606,-0.4681701958179474,-0.047571588307619,-0.1406254768371582,0.0,0.0,0.2273712158203125,-0.0738261342048645
-0.0233196262270212,1.2714245319366455,-0.1395090222358703,-0.4583679437637329,-0.0532509870827198,-0.1135985255241394,0.0,0.0,-0.000230848789215,0.3354517221450805
-0.0248480793088674,1.2604252099990845,-0.147977739572525,-0.4890412986278534,-0.058070283383131,-0.0963945761322975,0.0,0.0,-0.1213366985321044,0.8464198112487793
-0.0263679511845111,1.248738408088684,-0.145903393626213,-0.5196636915206909,-0.0640900060534477,-0.1204053536057472,0.0,0.0,0.2779281139373779,0.7284832000732422
-0.0277597419917583,1.236771583557129,-0.1326950341463089,-0.5321513414382935,-0.0705184713006019,-0.1285811364650726,0.0,0.0,0.6543598175048828,-0.1203019618988037
-0.0290665626525878,1.2253066301345823,-0.1255299746990203,-0.5098007321357727,-0.0756253749132156,-0.102147676050663,0.0,0.0,0.134046196937561,-0.8915257453918457
-0.0305448528379201,1.2137469053268433,-0.1453231424093246,-0.5138958692550659,-0.0781137570738792,-0.0497718751430511,0.0,0.0,0.3824582099914551,-0.1017882823944091
-0.0319308266043663,1.2024245262145996,-0.1374649703502655,-0.5032714009284973,-0.0792365744709968,-0.0224583819508552,0.0,0.0,-0.3838886618614197,0.271219253540039
-0.0333769805729389,1.1904113292694092,-0.144359141588211,-0.5339378118515015,-0.0794912800192833,-0.0050943987444043,0.0,0.0,0.1795229911804199,0.0076552629470825
-0.0347569473087787,1.1782772541046145,-0.1390415728092193,-0.539230227470398,-0.0784466415643692,0.0208946168422698,0.0,0.0,-0.5975847840309143,0.6599525213241577
-0.0361328125,1.1654382944107056,-0.1380351781845092,-0.5706027746200562,-0.0780030712485313,0.0088724261149764,0.0,0.0,0.4098480939865112,0.7525491714477539
-0.0375913605093956,1.152740478515625,-0.14545539021492,-0.5643631219863892,-0.078398011624813,-0.0078995199874043,0.0,0.0,-0.2467827796936035,0.3642283678054809
-0.0390974059700965,1.1393303871154783,-0.1510820537805557,-0.5959782004356384,-0.0779260993003845,0.0094382399693131,0.0,0.0,-0.9313296675682068,-0.1243224740028381
-0.0406459793448448,1.1252295970916748,-0.1562134176492691,-0.6266371011734009,-0.0765890628099441,0.02674076333642,0.0,0.0,-0.8330947756767273,0.8514646291732788
-0.0421801581978797,1.110440731048584,-0.1543001234531402,-0.6572420597076416,-0.0757140293717384,0.0175008215010166,0.0,0.0,-0.4994115829467773,-0.2305141687393188
-0.0437488555908203,1.0949608087539673,-0.1586211323738098,-0.6879011988639832,-0.0739774629473686,0.0347312055528163,0.0,0.0,-0.3896137475967407,0.1637722253799438
-0.0453477874398231,1.078790307044983,-0.1625187695026397,-0.7185605764389038,-0.0713815242052078,0.0519190616905689,0.0,0.0,-0.2291149497032165,0.3901098966598511
-0.0469727516174316,1.0619293451309204,-0.1659826785326004,-0.7492205500602722,-0.0679284781217575,0.0690606534481048,0.0,0.0,-0.5945971012115479,0.5149208307266235
-0.048583984375,1.0443711280822754,-0.1645751297473907,-0.7802159786224365,-0.0645143687725067,0.0682821869850158,0.0,0.0,0.1286684274673462,0.6198078393936157
-0.0501908287405967,1.026949167251587,-0.1636546552181244,-0.774182915687561,-0.0615727417171001,0.0588327832520008,0.0,0.0,-0.246920108795166,0.1887862682342529
-0.0518101677298545,1.0088367462158203,-0.1657706201076507,-0.8048438429832458,-0.0577819682657718,0.0758154839277267,0.0,0.0,-0.3231045007705688,0.3818645477294922
-0.0534375198185443,0.9900339841842652,-0.1674276143312454,-0.835505485534668,-0.0531450025737285,0.0927395597100257,0.0,0.0,0.3197124004364013,0.6415679454803467
-0.054969310760498,0.9714453220367432,-0.1574591398239135,-0.8260155916213989,-0.0489121675491333,0.0846563726663589,0.0,0.0,0.8426990509033203,0.6580420732498169
-0.0564546585083007,0.952922224998474,-0.1522652059793472,-0.8231263756752014,-0.0452277697622776,0.0736878737807273,0.0,0.0,0.974470853805542,0.6014208793640137
-0.0577970519661903,0.935070276260376,-0.137736901640892,-0.7933199405670166,-0.0417678318917751,0.0691986978054046,0.0,0.0,0.4910573959350586,-0.1074429154396057
-0.0591327659785747,0.917669951915741,-0.1377623230218887,-0.7732359766960144,-0.0376389138400554,0.0825786665081977,0.0,0.0,0.4320662021636963,0.6582226753234863
-0.0603550896048545,0.9003656506538391,-0.1259760558605194,-0.7689904570579529,-0.0339374616742134,0.0740290135145187,0.0,0.0,-0.0206156969070434,0.6536641120910645
-0.0615156181156635,0.8823745250701904,-0.1195554360747337,-0.7995298504829407,-0.0304784830659627,0.0691796243190765,0.0,0.0,0.4718064069747925,0.6654133796691895
-0.0624652877449989,0.8643829822540283,-0.0981975644826889,-0.7995585799217224,-0.0272828284651041,0.0639129728078842,0.0,0.0,0.59792160987854,0.6436207294464111
-0.0632260292768478,0.8461428284645081,-0.0790800377726554,-0.8106220960617065,-0.0243203677237033,0.0592494308948516,0.0,0.0,0.8770396709442139,0.3354001045227051
-0.0638277977705001,0.8281092047691345,-0.0645267069339752,-0.8014328479766846,-0.0200202018022537,0.0860032588243484,0.0,0.0,0.1356894969940185,0.9172648191452026
-0.0643501281738281,0.8096770644187927,-0.0555630140006542,-0.8191655278205872,-0.0167388711124658,0.0656266659498214,0.0,0.0,0.9134012460708618,0.7340067625045776
-0.0647109001874923,0.7911249399185181,-0.0388776883482933,-0.8245105743408203,-0.0139743145555257,0.0552908070385456,0.0,0.0,0.8543511629104614,0.5846719741821289
-0.0649021118879318,0.77262943983078,-0.0217549987137317,-0.8220014572143555,-0.0113687925040721,0.0521104112267494,0.0,0.0,0.5884606838226318,0.7923588752746582
-0.0650942772626876,0.7546557784080505,-0.020870815962553,-0.7988185286521912,-0.0097433645278215,0.0325087122619152,0.0,0.0,-0.0834389925003051,0.7318556308746338
-0.0651911720633506,0.7359978556632996,-0.0109921637922525,-0.8292322754859924,-0.0084549905732274,0.0257670171558856,0.0,0.0,0.5244243144989014,0.6461310386657715
-0.0652008056640625,0.7173516154289246,-0.0017275821883231,-0.8287169337272644,-0.0077032186090946,0.0150355026125907,0.0,0.0,0.3569755554199219,0.6474759578704834
-0.0649690628051757,0.6987164616584778,0.022677693516016,-0.8282195329666138,-0.0072110574692487,0.0098432833328843,0.0,0.0,0.5884193181991577,-0.2349587082862854
-0.0647279769182205,0.6804545521736145,0.0230665747076272,-0.8116404414176941,-0.0061893486417829,0.0204343367367982,0.0,0.0,0.6011015176773071,0.8630836009979248
-0.0642354041337966,0.662142276763916,0.048992745578289,-0.813879668712616,-0.005923920776695,0.0053084138780832,0.0,0.0,0.5955226421356201,0.5578901767730713
-0.0636257156729698,0.6443002223968506,0.0610231161117553,-0.7929820418357849,-0.0059820059686899,-0.0011618401622399,0.0,0.0,0.3092706203460693,0.4889086484909057
-0.0628282576799392,0.6263465881347656,0.0784714221954345,-0.7979324460029602,-0.0047206990420818,0.0252261497080326,0.0,0.0,-0.1887602806091308,-0.1044973134994506
-0.0619609840214252,0.6077030301094055,0.0846735835075378,-0.8285968899726868,-0.0026905860286206,0.0406023487448692,0.0,0.0,-0.0523654818534851,0.510723352432251
-0.0609748847782611,0.5883740782737732,0.0969669222831726,-0.8590632677078247,-0.0010704052401706,0.0324038229882717,0.0,0.0,0.5991191864013672,0.4442751407623291
-0.0597803108394146,0.5693342089653015,0.1164140552282333,-0.8462169766426086,0.0019270195625722,0.0599487349390983,0.0,0.0,0.9347140789031982,0.5805118083953857
-0.0583724975585937,0.5510571599006653,0.1378945708274841,-0.8123205304145813,0.004785849712789,0.057176262140274,0.0,0.0,0.7467432022094727,-0.1476824283599853
-0.0569710731506347,0.53333580493927,0.1368577480316162,-0.7876254320144653,0.0080212773755192,0.0647087320685386,0.0,0.0,0.6838582754135132,-0.0857642889022827
-0.0554409995675087,0.5154916048049927,0.1487390697002411,-0.7931041121482849,0.0122417956590652,0.0844101905822753,0.0,0.0,0.6514495611190796,0.2578343152999878
-0.0539383888244628,0.4980076253414154,0.1457055211067199,-0.7771098613739014,0.0167365334928035,0.0898947641253471,0.0,0.0,0.7416204214096069,0.2317961454391479
-0.0522319786250591,0.480655163526535,0.1647333651781082,-0.7712978720664978,0.0225654020905494,0.1165775209665298,0.0,0.0,0.5075349807739258,-0.1838343739509582
-0.0504326820373535,0.4634529650211334,0.1731969863176345,-0.7646586894989014,0.0292191319167614,0.1330746859312057,0.0,0.0,0.8334400653839111,0.2006984949111938
-0.0485523231327533,0.4462291002273559,0.180535227060318,-0.7656691670417786,0.036631554365158,0.14824840426445,0.0,0.0,0.9562361240386964,-0.0392689108848571
-0.046757411211729,0.4293573796749115,0.1719478070735931,-0.7500590085983276,0.0440771542489528,0.1489119231700897,0.0,0.0,0.8429692983627319,0.6138808727264404
-0.0448430068790912,0.4132393598556518,0.1843625009059906,-0.7165782451629639,0.0510708577930927,0.1398741155862808,0.0,0.0,0.6824851036071777,0.2200703620910644
-0.0427718162536621,0.3968852758407593,0.1989600360393524,-0.7271500825881958,0.0591465272009372,0.1615133583545684,0.0,0.0,0.6836178302764893,0.1660010814666748
-0.0406349189579486,0.3811477124691009,0.2047013938426971,-0.6998246312141418,0.0680359601974487,0.1777883619070053,0.0,0.0,0.350367784500122,0.2192423343658447
-0.0385107025504112,0.3652930557727813,0.2031106650829315,-0.7050983905792236,0.0772465318441391,0.1842115223407745,0.0,0.0,0.7540156841278076,0.652748703956604
-0.0364047065377235,0.3498218655586242,0.2022027522325515,-0.6880666017532349,0.0855703502893447,0.1664760559797287,0.0,0.0,0.2142086029052734,0.315896987915039
-0.0342234596610069,0.3343487977981567,0.2089592516422271,-0.6882378458976746,0.0946548134088516,0.1816892772912979,0.0,0.0,0.9610543251037598,0.461299180984497
-0.0321968086063861,0.3196630477905273,0.1935684978961944,-0.6533018946647644,0.1036763787269592,0.1804311126470565,0.0,0.0,0.7709391117095947,0.3948012590408325
-0.0300630573183298,0.3052251040935516,0.2032869607210159,-0.6424157023429871,0.1136944368481636,0.2003611624240875,0.0,0.0,0.9051191806793212,0.5327972173690796
-0.0278860088437795,0.2907674908638,0.2082002162933349,-0.6433096528053284,0.1231497228145599,0.1891054809093475,0.0,0.0,0.9055817127227784,0.7819957733154297
-0.0255143158137798,0.2761991620063782,0.2284303456544876,-0.6482264399528503,0.1318387538194656,0.1737810373306274,0.0,0.0,0.933664083480835,0.5872030258178711
-0.0230934135615825,0.2615291178226471,0.2340631186962127,-0.6527316570281982,0.139837771654129,0.1599807441234588,0.0,0.0,0.9714622497558594,-0.0788570046424865
-0.0207198150455951,0.2475748360157013,0.2287952452898025,-0.6210120916366577,0.1483641862869262,0.170528382062912,0.0,0.0,0.974557876586914,0.3927688598632812
-0.0183013919740915,0.2344004660844802,0.2323075234889984,-0.5865064263343811,0.1578895896673202,0.1905082613229751,0.0,0.0,0.8510236740112305,0.0274004936218261
-0.0160564426332712,0.2218652516603469,0.2150162011384964,-0.5581521987915039,0.1673716306686401,0.1896409541368484,0.0,0.0,0.8508181571960449,0.8593170642852783
-0.013867950066924,0.2091595977544784,0.2108871042728424,-0.5656184554100037,0.1753559410572052,0.1596861481666565,0.0,0.0,0.7281397581100464,0.8194663524627686
-0.0116200447082519,0.1970233470201492,0.2178851664066314,-0.5402183532714844,0.1822764724493026,0.1384109258651733,0.0,0.0,0.847638726234436,-0.3447339534759521
-0.0095055578276515,0.18511763215065,0.2046137303113937,-0.5300024747848511,0.1891496032476425,0.1374626457691192,0.0,0.0,0.6437046527862549,0.3957873582839966
-0.0074765207245945,0.1735018044710159,0.1958630979061126,-0.5171738862991333,0.1962242871522903,0.1414936035871505,0.0,0.0,0.3516182899475097,0.6088054180145264
-0.0054282187484204,0.1620532870292663,0.1986151784658432,-0.50965815782547,0.2024827897548675,0.1251696646213531,0.0,0.0,0.6023598909378052,0.1226592063903808
-0.0033161162864416,0.1507711261510849,0.2042203396558761,-0.5024020075798035,0.2095370292663574,0.141084536910057,0.0,0.0,0.592524528503418,-0.6844435930252075
-0.0012056350242346,0.1392693817615509,0.2022540122270584,-0.5124582648277283,0.2184024304151535,0.1773083508014679,0.0,0.0,0.9266797304153442,0.3662664890289306
0.0010024070506915,0.1278025507926941,0.2112109661102295,-0.5110858678817749,0.2281188368797302,0.1943280696868896,0.0,0.0,0.9918277263641356,-0.0893580317497253
0.0033211708068847,0.1167142987251281,0.221173956990242,-0.4945067167282104,0.2389776408672332,0.2171761244535446,0.0,0.0,0.959336519241333,0.1050591468811035
0.0057829855941236,0.1056790426373481,0.2344699203968048,-0.4924041926860809,0.2508934736251831,0.2383166253566742,0.0,0.0,0.996504545211792,-0.5573877692222595
0.0080617908388376,0.0952607691287994,0.2148677557706833,-0.4653145968914032,0.2641727328300476,0.2655860185623169,0.0,0.0,0.9894402027130128,-0.120635449886322
0.0102302553132176,0.0854928120970726,0.2034835815429687,-0.436597615480423,0.2778546512126922,0.2736382186412811,0.0,0.0,0.8706514835357666,0.4056224822998047
0.0124186519533395,0.0761856883764267,0.204712226986885,-0.4164016544818878,0.2923870086669922,0.2906472980976105,0.0,0.0,0.8581535816192627,0.5136597156524658
0.014747142791748,0.0667835772037506,0.2192905247211456,-0.4206571280956268,0.3063962161540985,0.2801835536956787,0.0,0.0,0.9569432735443116,0.7007529735565186
0.0169733054935932,0.057549700140953,0.2105152606964111,-0.4130004346370697,0.3189492225646972,0.2510600090026855,0.0,0.0,0.9726312160491944,0.1701982021331787
0.0190622322261333,0.049143087118864,0.1963058710098266,-0.3764525651931762,0.3320681452751159,0.2623785138130188,0.0,0.0,0.9630743265151978,0.7125849723815918
0.0210448261350393,0.041020356118679,0.187117725610733,-0.3636166453361511,0.3437232673168182,0.2331025600433349,0.0,0.0,0.9180386066436768,0.5157492160797119
0.0226980205625295,0.0334612466394901,0.1556301414966583,-0.3383067548274994,0.3538970649242401,0.2034758627414703,0.0,1.0,0.9976726770401,0.9974038600921632
0.0242544170469045,0.0276308394968509,0.162690594792366,-0.2579918205738067,0.3446239531040191,-0.1881811916828155,0.0,1.0,0.9998648166656494,0.916161298751831
0.0253690723329782,0.0232049077749252,0.1402117013931274,-0.1901471763849258,0.3145687878131866,-0.601178765296936,0.0,1.0,0.9966862201690674,-0.3448729515075683
0.0260203368961811,0.0200161561369895,0.1091235429048538,-0.1330083608627319,0.2688063383102417,-0.9158159494400024,0.0,1.0,0.9404921531677246,-0.9181591868400574
0.0263634677976369,0.0172863099724054,0.0851641967892646,-0.1128503903746604,0.2169796973466873,-1.0366437435150146,0.0,1.0,0.9465711116790771,-0.9699587821960448
0.0263371467590332,0.0148555133491754,0.0465745590627193,-0.1015902534127235,0.1673841923475265,-0.9920225143432616,0.0,1.0,0.887077808380127,-0.9184020757675172
0.0259656906127929,0.0125644775107502,0.0101559683680534,-0.0971919670701026,0.1201513484120369,-0.9446960687637328,0.0,0.0,-0.7645487785339355,-0.8489181399345398
0.0256254188716411,0.0096076820045709,0.0121500492095947,-0.1283490508794784,0.0743201375007629,-0.9166615605354308,0.0,0.0,0.0706608295440673,-0.9791608452796936
0.0253248214721679,0.0063340640626847,0.0143554378300905,-0.1438841670751571,0.03039376065135,-0.8785644769668579,0.0,0.0,0.7531731128692627,-0.9879206418991088
0.0251810066401958,0.0036211346741765,0.0279102623462677,-0.1202516704797744,-0.0113889621570706,-0.8356890678405762,0.0,0.0,0.8364543914794922,-0.884009838104248
0.0250356681644916,0.0015439605340361,0.0261069890111684,-0.0931271761655807,-0.0515607111155986,-0.8034682273864746,1.0,0.0,0.863990068435669,-0.723157525062561
0.025126552209258,0.0008085703593678,0.033293679356575,-0.033990629017353,-0.0742203593254089,-0.4515326917171478,1.0,0.0,0.2221982479095459,-0.4874975681304931
0.0254366882145404,0.0006909107905812,0.0345159359276294,-0.00541309453547,-0.0776492282748222,-0.068533681333065,1.0,0.0,-0.2448666095733642,-0.2421737909317016
0.0258459094911813,0.000467000005301,0.0279462728649377,-0.009331383742392,-0.0647627636790275,0.2577776312828064,1.0,0.0,-0.7795282602310181,-0.2030940651893615
0.0263235084712505,-8.135080133797601e-05,0.0237818583846092,-0.0235101319849491,-0.0410391315817832,0.4745054841041565,1.0,0.0,-0.608345091342926,-0.1049684882164001
0.0268240924924612,-0.0011533045908436,0.021691532805562,-0.0471125654876232,-0.0130003914237022,0.5608137845993042,1.0,0.0,-0.041573166847229,-0.1011656522750854
0.0273223873227834,-0.0028888010419905,0.0211128517985343,-0.0771328657865524,0.0153731079772114,0.5675092935562134,1.0,1.0,0.857178807258606,0.6469793319702148
0.0276348106563091,-0.0040027759969234,0.0171742849051952,-0.0499589592218399,0.0280435215681791,0.251865416765213,1.0,1.0,0.8497775793075562,0.9743467569351196
0.0278061870485544,-0.0041893147863447,0.0183698367327451,-0.00826923456043,0.0268488377332687,-0.0238787364214658,1.0,1.0,-0.6119980812072754,-0.0781704783439636
0.02787446975708,-0.0042373086325824,0.0127812679857015,-0.0020394364837557,0.0209905542433261,-0.1171446293592453,1.0,1.0,-0.9049749970436096,0.0010116100311279
0.027927303686738,-0.0040646102279424,0.0095455218106508,0.0077268267050385,0.0167703777551651,-0.0844269022345542,1.0,1.0,-0.7063144445419312,0.0867382287979126
0.0280228611081838,-0.0036312723532319,0.0102358208969235,0.0192630160599946,0.0160815361887216,-0.0137972589582204,1.0,1.0,-0.9570977091789246,0.180632472038269
0.0281410217285156,-0.0029239559080451,0.0105931367725133,0.0314211919903755,0.0172727536410093,0.0238065924495458,1.0,1.0,-0.7498195171356201,-0.0100626945495605
0.0281824115663766,-0.0022462510969489,0.0092959087342023,0.0301692131906747,0.0121782794594764,-0.1019008159637451,1.0,1.0,-0.9586855173110962,-0.4761554002761841
