x_pos,y_pos,x_vel,y_vel,angle,ang_vel,leg_1,leg_2,main_booster,lat_booster
-0.0015761374961584,1.4035285711288452,-0.1596824377775192,-0.3285144567489624,0.0018461850704625,0.0364240780472755,0.0,0.0,0.9016222030323708,0.6530458345625455
-0.0030903816223144,1.3968578577041626,-0.1521622687578201,-0.2964807152748108,0.0025694034993648,0.0144665036350488,0.0,0.0,-0.6004808424736607,-0.6817406572977109
-0.0046984674409031,1.3900853395462036,-0.1626406013965606,-0.3010039627552032,0.0043796608224511,0.0362086370587348,0.0,0.0,0.0086493736925643,0.7238915066047922
-0.0063865659758448,1.3836719989776611,-0.1691657155752182,-0.2850415110588074,0.0047268467023968,0.0069444486871361,0.0,0.0,0.3240336570630697,-0.6758990447990825
-0.0080667492002248,1.3779488801956177,-0.1699717193841934,-0.2543608844280243,0.0066566038876771,0.038598708808422,0.0,0.0,0.9120509464241608,-0.8695192558237124
-0.0096959117799997,1.3730727434158323,-0.1670108437538147,-0.2167455106973648,0.0107076354324817,0.0810283571481704,0.0,0.0,0.0738163406231213,-0.8058198480384072
-0.0114598274230957,1.3686624765396118,-0.1821233630180359,-0.1960629969835281,0.0163745041936635,0.1133477240800857,0.0,0.0,-0.5157139829490707,-0.965014708575846
-0.0133307455107569,1.3641581535339355,-0.1943075954914093,-0.2002834975719452,0.0235090628266334,0.1427042186260223,0.0,0.0,-0.4193194305454426,0.6348264833831964
-0.0152020454406738,1.359567403793335,-0.1931308209896087,-0.2041461020708084,0.0294385328888893,0.1186005324125289,0.0,0.0,0.3328642587291166,0.603670396213804
-0.0170926097780466,1.3557653427124023,-0.1938594430685043,-0.1690790355205536,0.0341973379254341,0.0951850786805152,0.0,0.0,0.4070332293338148,-0.959125996557258
-0.0190397258847951,1.352627873420715,-0.2015502005815506,-0.1396157294511795,0.0409588105976581,0.1352414190769195,0.0,0.0,0.4575654661365254,0.8675997853938999
-0.0209146495908498,1.350100040435791,-0.1927033960819244,-0.1124986335635185,0.0461151227355003,0.1031359210610389,0.0,0.0,-0.2961091424237216,0.9795421511135164
-0.0227425582706928,1.3474879264831543,-0.1856371015310287,-0.1161832958459854,0.0489295721054077,0.0562944114208221,0.0,0.0,0.6614382598803994,-0.7232282162939949
-0.0246147159487009,1.3453097343444824,-0.1916925311088562,-0.0969543382525444,0.0533631667494773,0.0886798724532127,0.0,0.0,0.9798633838082664,0.8168112805729697
-0.0263368599116802,1.3445440530776978,-0.1754864156246185,-0.0341542772948741,0.0566057302057743,0.0648572742938995,0.0,0.0,0.9967338506420348,-0.642698440994935
-0.0280325897037982,1.3442206382751465,-0.1745405495166778,-0.0145720345899462,0.0615316778421402,0.098527505993843,0.0,0.0,0.7270540708862958,0.7274626891943179
-0.0296130180358886,1.3451685905456543,-0.1619182378053665,0.0419674627482891,0.0653667151927948,0.0767077207565307,0.0,0.0,0.9443530186983282,0.8016324123622108
-0.0310193058103323,1.3466978073120115,-0.1433216631412506,0.0678484141826629,0.0680291205644607,0.0532530024647712,0.0,0.0,-0.0245755590455967,0.711022886174576
-0.0324028022587299,1.3481446504592896,-0.139385387301445,0.0642515867948532,0.0690548047423362,0.0205154828727245,0.0,0.0,0.6269937328097082,0.7874894321151392
-0.0338912010192871,1.3503265380859375,-0.148132711648941,0.0970050171017646,0.0683571621775627,-0.0139541523531079,0.0,0.0,-0.5628439916409553,-0.6733406369585409
-0.0354616157710552,1.3524128198623655,-0.1574045568704605,0.0927127078175544,0.068715289235115,0.0071632070466876,0.0,0.0,0.3667099532773605,-0.8259267495267729
-0.0371502861380577,1.3549408912658691,-0.1708944141864776,0.1122630015015602,0.070727564394474,0.0402490124106407,0.0,0.0,0.2192360501234307,-0.6186788902871918
-0.0388482101261615,1.3579795360565186,-0.1732365041971206,0.1348796039819717,0.0741452723741531,0.0683602765202522,0.0,0.0,0.953875348528864,-0.9554120525074362
-0.0405943877995014,1.3614656925201416,-0.1801366657018661,0.1546590328216552,0.0796213522553443,0.109531320631504,0.0,0.0,-0.4684362809160787,-0.9947194215361056
-0.0424739830195903,1.3648475408554075,-0.1959293633699417,0.1498643457889557,0.0875319018959999,0.1582250446081161,0.0,0.0,0.1440587330782892,0.6977073473319554
-0.0444890968501567,1.3688373565673828,-0.207951471209526,0.1769345104694366,0.0939053446054458,0.1274689137935638,0.0,0.0,0.2069548137908698,0.8737768566718718
-0.0465164184570312,1.3735398054122925,-0.2073836773633957,0.2086973637342453,0.0985188037157058,0.0922691524028778,0.0,0.0,-0.7950799820265322,-0.9845575151218748
-0.0486717224121093,1.3781428337097168,-0.222561314702034,0.2041054517030716,0.1054954677820205,0.1395331472158432,0.0,0.0,-0.5474885651881836,-0.8574539553859122
-0.050941564142704,1.3826451301574707,-0.2360698729753494,0.1994250863790512,0.1145245805382728,0.1805821359157562,0.0,0.0,0.6346141856645426,0.6236633641402441
-0.0532703399658203,1.3877732753753662,-0.240634873509407,0.2273070961236953,0.1222283765673637,0.154076263308525,0.0,0.0,0.1260596738288404,0.8564015876194331
-0.0556180961430072,1.39368999004364,-0.2407626807689666,0.2624609172344208,0.1281914860010147,0.1192619055509567,0.0,0.0,-0.9792022043582094,0.7704191822484612
-0.0579411499202251,1.3995168209075928,-0.23692587018013,0.258565753698349,0.1327806562185287,0.0917837172746658,0.0,0.0,-0.4383821072229363,-0.9840275531870264
-0.0603802688419818,1.405239820480347,-0.2507113218307495,0.2537285983562469,0.139561116695404,0.135609358549118,0.0,0.0,0.7185221260204353,0.6738907235190572
-0.0629156082868576,1.411414384841919,-0.2587766349315643,0.2739303708076477,0.1447904109954834,0.1045860201120376,0.0,0.0,0.5871107563906526,-0.73923337054898
-0.0656038299202919,1.418380618095398,-0.2755292057991028,0.3089393079280853,0.1514826864004135,0.1338457018136978,0.0,0.0,0.9049588176189952,0.9805572884928896
-0.0683486014604568,1.426574468612671,-0.2791984975337982,0.363680750131607,0.1561969965696334,0.0942862182855606,0.0,0.0,0.3371427223823524,0.6341804758919755
-0.071146585047245,1.4352214336395264,-0.2831575870513916,0.3839570581912994,0.1595475971698761,0.0670119971036911,0.0,0.0,-0.7030443300278708,0.6742985980624572
-0.0739108100533485,1.4437910318374634,-0.2782749235630035,0.3806765973567962,0.1614033877849578,0.0371157526969909,0.0,0.0,0.6587191064812019,0.9143374758885628
-0.0768047347664833,1.4535341262817385,-0.2892879843711853,0.4330309331417084,0.1612995266914367,-0.0020773264113813,0.0,0.0,0.4131740551725504,-0.9576625586077536
-0.0798487663269043,1.4639405012130735,-0.3061769008636474,0.4623127281665802,0.1630709171295166,0.0354279577732086,0.0,0.0,0.8793575537094067,-0.854457637552548
-0.0832536667585372,1.475520133972168,-0.3436488509178161,0.5142968893051147,0.1662242859601974,0.063067190349102,0.0,0.0,-0.9996113181114196,-0.8308183550834656
-0.0867268592119216,1.48698890209198,-0.3517183661460876,0.5092287063598633,0.170632466673851,0.0881637781858444,0.0,0.0,-0.9996021389961244,-0.4726555347442627
-0.0902157798409462,1.4983620643615725,-0.353223979473114,0.5049659013748169,0.1749684363603592,0.0867193639278411,0.0,0.0,-0.9999741911888124,-0.3746564984321594
-0.093719482421875,1.5096392631530762,-0.3546164929866791,0.5007031559944153,0.1792293190956115,0.0852175280451774,0.0,0.0,-0.999748706817627,-0.849379301071167
-0.0973059684038162,1.52079176902771,-0.3646394908428192,0.4949297308921814,0.185236856341362,0.1201510652899742,0.0,0.0,-0.9996194243431092,-0.5514777898788452
-0.100943848490715,1.531832218170166,-0.3707154095172882,0.489798754453659,0.1921895742416381,0.1390543580055236,0.0,0.0,-0.9968298077583312,-0.6088124513626099
-0.1046354323625564,1.5427614450454712,-0.3770720660686493,0.484696477651596,0.200159877538681,0.1594060361385345,0.0,0.0,-0.9981995224952698,-0.4898065328598022
-0.1083375960588455,1.5535953044891355,-0.3780324757099151,0.4804304242134094,0.2080445438623428,0.1576931476593017,0.0,0.0,-0.9963811635971068,0.0381436347961425
-0.1120492964982986,1.5643339157104492,-0.3788915276527405,0.4761645495891571,0.2158411890268325,0.1559329628944397,0.0,0.0,-0.9999298453330994,0.3152651786804199
-0.1157695800065994,1.574977159500122,-0.379652202129364,0.4718989431858063,0.2235475778579712,0.1541277766227722,0.0,0.0,-0.999619960784912,0.3915199041366577
-0.1194975823163986,1.5855247974395752,-0.3803176283836365,0.4676335453987121,0.2311615645885467,0.1522798836231231,0.0,0.0,-0.99989116191864,0.1938796043395996
-0.123232364654541,1.5959773063659668,-0.3808910846710205,0.4633683562278747,0.2386811524629593,0.1503917872905731,0.0,0.0,-0.9999914169311525,0.5690877437591553
-0.1269209831953048,1.6063499450683594,-0.3748365044593811,0.4600192308425903,0.2447502017021179,0.1213810294866561,0.0,0.0,-0.9998360872268676,-0.0398410558700561
-0.1306146681308746,1.6166266202926636,-0.3752369284629822,0.4557559192180633,0.2507211863994598,0.1194202080368995,0.0,0.0,-0.9999641180038452,0.379538893699646
-0.1343127191066742,1.626807689666748,-0.375556081533432,0.4514928162097931,0.2565925419330597,0.1174267679452896,0.0,0.0,-0.9999963641166688,-0.0420949459075927
-0.1380141228437423,1.636892795562744,-0.3757977187633514,0.4472298920154571,0.2623627185821533,0.1154033318161964,0.0,0.0,-0.9872366189956664,-0.1067291498184204
-0.1417183876037597,1.646882176399231,-0.3759657442569732,0.4429671168327331,0.2680303454399109,0.1133525595068931,0.0,0.0,-0.9822444319725036,-0.2289098501205444
-0.1454247534275055,1.6567755937576294,-0.3760640621185303,0.4387045800685882,0.2735942006111145,0.1112771481275558,0.0,0.0,-0.9999967217445374,0.3110861778259277
-0.1491325348615646,1.666573166847229,-0.3760967850685119,0.4344421923160553,0.2790531814098358,0.1091798767447471,0.0,0.0,-0.9942790865898132,0.1582181453704834
-0.152841180562973,1.6762747764587402,-0.3760680556297302,0.4301799535751343,0.2844063639640808,0.1070635542273521,0.0,0.0,-0.9996853470802308,-0.4817095398902893
-0.1565500199794769,1.6858805418014526,-0.3759819865226745,0.4259179234504699,0.2896529138088226,0.10493104159832,0.0,0.0,-0.9636361002922058,0.0949759483337402
-0.1602585762739181,1.695390224456787,-0.3758428394794464,0.4216560423374176,0.2947921752929687,0.1027851700782775,0.0,0.0,-0.9994775056838988,-0.035485565662384
-0.1639663726091385,1.7048040628433228,-0.3756548464298248,0.4173942506313324,0.2998236119747162,0.100628949701786,0.0,0.0,-0.9990609288215636,0.0221089124679565
-0.1676730215549469,1.714121699333191,-0.3754222989082336,0.4131326377391815,0.3047468960285187,0.0984652712941169,0.0,0.0,-0.999886989593506,0.0796165466308593
-0.1713779419660568,1.7233434915542605,-0.375149518251419,0.4088711738586426,0.3095617592334747,0.0962971299886703,0.0,0.0,-0.999992311000824,-0.7899004817008972
-0.1751525849103927,1.7324353456497192,-0.3838613629341125,0.4027071893215179,0.3162077367305755,0.1329197138547897,0.0,0.0,-0.9953655004501344,0.119157075881958
-0.1789248436689376,1.7414315938949585,-0.3835203051567077,0.3984442353248596,0.3227453529834747,0.1307516396045684,0.0,0.0,-0.9995170831680298,0.6628901958465576
-0.1826367378234863,1.7503526210784912,-0.3758875727653503,0.3954300582408905,0.3276456594467163,0.0980061218142509,0.0,0.0,-0.9988982677459716,-0.7968341708183289
-0.1864045113325119,1.7591572999954224,-0.3828532993793487,0.3899347186088562,0.3339828252792358,0.1267433762550354,0.0,0.0,-0.9999473094940186,-0.1309940814971923
-0.1901694238185882,1.7678662538528442,-0.3824436068534851,0.3856722116470337,0.3402127921581268,0.1245993822813034,0.0,0.0,-0.999961256980896,-0.5868113040924072
-0.1939819306135177,1.7764551639556885,-0.3884086012840271,0.3800175786018371,0.3477178812026977,0.1501020789146423,0.0,0.0,-0.9999775886535645,-0.2441072463989257
-0.1977912932634353,1.784948468208313,-0.3879739642143249,0.3757539093494415,0.3551174104213714,0.1479901373386383,0.0,0.0,-0.9999048113822936,0.1995401382446289
-0.2015974968671798,1.7933458089828491,-0.3875336050987243,0.3714903593063354,0.3624123930931091,0.1458994895219802,0.0,0.0,-0.9973385334014891,0.1427228450775146
-0.2054003775119781,1.801647424697876,-0.3870918154716491,0.3672269582748413,0.3696040511131286,0.1438334286212921,0.0,0.0,-0.9988418817520142,-0.2437517642974853
-0.2091999948024749,1.8098535537719729,-0.3866528272628784,0.3629637360572815,0.3766937851905823,0.1417955011129379,0.0,0.0,-0.99965637922287,-0.1363824605941772
-0.2129963934421539,1.8179636001586916,-0.386220782995224,0.3587006330490112,0.3836832344532013,0.1397892087697982,0.0,0.0,-0.9998865723609924,-0.2275090813636779
-0.2167897224426269,1.8259779214859009,-0.3857998251914978,0.3544376492500305,0.3905741572380066,0.1378181725740432,0.0,0.0,-0.9999641180038452,-0.7404733896255493
-0.2206363677978515,1.833869218826294,-0.3924625217914581,0.3485561907291412,0.3989099860191345,0.1667172610759735,0.0,0.0,-0.9993240833282472,0.3402072191238403
-0.2244803011417389,1.8416649103164675,-0.3920748233795166,0.344291627407074,0.4071513414382934,0.1648273020982742,0.0,0.0,-0.9997554421424866,-0.0544614195823669
-0.2283217459917068,1.8493651151657104,-0.3917102217674255,0.3400272130966186,0.4153005182743072,0.1629836112260818,0.0,0.0,-0.9998043775558472,-0.3525269031524658
-0.2321608960628509,1.8569693565368648,-0.3913726508617401,0.3357629179954529,0.4233600497245788,0.1611900478601455,0.0,0.0,-0.9996013045310974,-0.5481232404708862
-0.236036017537117,1.864458084106445,-0.395833820104599,0.3303048312664032,0.4323882460594177,0.1805638372898101,0.0,0.0,-0.9982370138168336,-0.1146710515022277
-0.2399094998836517,1.8718515634536743,-0.3955608010292053,0.3260392844676971,0.4413323402404785,0.1788817644119262,0.0,0.0,-0.991566836833954,-0.4022409915924072
-0.2437817603349685,1.879149436950684,-0.3953260779380798,0.3217738568782806,0.4501954615116119,0.177261546254158,0.0,0.0,-0.996542513370514,-0.043295681476593
-0.2476530969142913,1.8863520622253416,-0.3951332569122314,0.3175084292888641,0.4589807689189911,0.1757070571184158,0.0,0.0,-0.9965240359306335,0.3776425123214721
-0.2515240609645843,1.8934592008590696,-0.3949858248233795,0.3132430911064148,0.4676918983459472,0.1742223054170608,0.0,0.0,-0.993232488632202,0.3482553958892822
-0.2553949952125549,1.900470733642578,-0.3948871493339538,0.3089778125286102,0.4763324558734894,0.172811359167099,0.0,0.0,-0.9971171617507936,-0.247355580329895
-0.2592663764953613,1.9073872566223145,-0.3948405981063843,0.304712563753128,0.4849063754081726,0.1714781820774078,0.0,0.0,-0.9959595203399658,0.0837564468383789
-0.2631387114524841,1.914207935333252,-0.3948492705821991,0.3004472851753235,0.4934176802635193,0.170226901769638,0.0,0.0,-0.9838000535964966,-0.2098262310028076
-0.2670126557350158,1.9209336042404173,-0.3949163258075714,0.2961819469928741,0.5018707513809204,0.169061467051506,0.0,0.0,-0.9925079345703124,0.3016344308853149
-0.2708886563777923,1.927563428878784,-0.395044595003128,0.29191654920578,0.5102700591087341,0.1679859310388565,0.0,0.0,-0.9043964743614196,0.3731834888458252
-0.2747673988342285,1.9340980052948,-0.3952369093894958,0.2876511514186859,0.5186202526092529,0.1670042276382446,0.0,0.0,-0.9956872463226318,-0.1820331811904907
-0.2786494791507721,1.940536975860596,-0.3954960703849792,0.283385694026947,0.5269263386726379,0.1661203056573867,0.0,0.0,-0.9020571112632751,-0.3108682632446289
-0.2825354933738708,1.9468810558319087,-0.3958244323730469,0.2791200876235962,0.5351932048797607,0.1653380095958709,0.0,0.0,-0.9143549799919128,0.1838753223419189
-0.2864261567592621,1.953129291534424,-0.3962244987487793,0.2748543322086334,0.5434262752532959,0.1646611541509628,0.0,0.0,-0.9839038848876952,0.1879163980484008
-0.2903221547603607,1.959282398223877,-0.3966984450817108,0.2705883979797363,0.5516309142112732,0.1640933603048324,0.0,0.0,-0.9817440509796144,0.3115415573120117
-0.2942242622375488,1.9653401374816892,-0.3972483277320862,0.2663223147392273,0.5598128437995911,0.1636381447315216,0.0,0.0,-0.9744645357131958,0.2484756708145141
-0.2981331348419189,1.9713027477264404,-0.3978760838508606,0.2620560228824615,0.567977786064148,0.1632988899946212,0.0,0.0,-0.972892999649048,-0.3059331774711609
-0.3020494878292084,1.9771701097488403,-0.3985834121704101,0.2577895224094391,0.5761317014694214,0.1630788147449493,0.0,0.0,-0.7621082663536072,-0.3686997294425964
-0.3059741556644439,1.9829422235488887,-0.3993718028068542,0.2535228133201599,0.5842806696891785,0.1629808843135833,0.0,0.0,-0.966048002243042,-0.0470909476280212
-0.3099079132080078,1.988619089126587,-0.4002427160739898,0.249255821108818,0.5924311280250549,0.1630079299211502,0.0,0.0,-0.979544460773468,-0.1511726379394531
-0.3138515055179596,1.994201183319092,-0.4011972844600677,0.2449885457754135,0.6005892157554626,0.1631624102592468,0.0,0.0,-0.9163657426834106,0.031319260597229
-0.3178057074546814,1.9996877908706665,-0.4022364616394043,0.2407209873199463,0.6087614893913269,0.1634466499090194,0.0,0.0,-0.757165253162384,0.0062917470932006
-0.3217714428901672,2.005079746246338,-0.4033611416816711,0.236453115940094,0.6169546246528625,0.1638625860214233,0.0,0.0,-0.9617648720741272,-0.2255687713623047
-0.3257494568824768,2.0103766918182373,-0.4045718312263489,0.2321849167346954,0.6251752376556396,0.1644118726253509,0.0,0.0,-0.9910905957221984,0.2697682380676269
-0.3297405242919922,2.015578508377075,-0.4058689475059509,0.227916345000267,0.6334300637245178,0.1650958806276321,0.0,0.0,-0.9668707251548768,0.4499156475067138
-0.333745539188385,2.0206854343414307,-0.4072527885437011,0.2236474454402923,0.6417258381843567,0.1659155339002609,0.0,0.0,-0.9714975357055664,-0.0362432599067688
-0.3377652168273926,2.025697946548462,-0.4087232947349548,0.2193781435489654,0.6500694155693054,0.1668715178966522,0.0,0.0,-0.9191547632217408,0.5280427932739258
-0.3417626917362213,2.0306661128997803,-0.4053510725498199,0.217949241399765,0.6570321321487427,0.1392543017864227,0.0,0.0,-0.99268639087677,0.5052871704101562
-0.3457415699958801,2.0355796813964844,-0.4025106430053711,0.2159897685050964,0.6628124117851257,0.1156050339341163,0.0,0.0,-0.990173876285553,0.2061681747436523
-0.3497374057769775,2.040398120880127,-0.4042425751686096,0.2117217630147934,0.6686609983444214,0.1169712096452713,0.0,0.0,-0.9984405636787416,0.3826261758804321
-0.353751003742218,2.045121908187866,-0.406059592962265,0.2074533402919769,0.6745846271514893,0.118473008275032,0.0,0.0,-0.9535172581672668,0.186264157295227
-0.357783168554306,2.049750804901123,-0.407960832118988,0.203184500336647,0.6805900931358337,0.1201092600822448,0.0,0.0,-0.9923120737075806,0.4671674966812134
-0.3618348240852356,2.054284811019897,-0.4099452495574951,0.1989151984453201,0.6866840124130249,0.1218784600496292,0.0,0.0,-0.987565279006958,0.5498872995376587
-0.3658800721168518,2.0587546825408936,-0.4086191654205322,0.1964164227247238,0.6919235587120056,0.1047914624214172,0.0,0.0,-0.9459942579269408,-0.3798270225524902
-0.369946151971817,2.063130140304565,-0.4107667803764343,0.1921469569206237,0.6972646117210388,0.1068208664655685,0.0,0.0,-0.9640998244285583,0.3770787715911865
-0.3740338385105133,2.067410469055176,-0.4129934906959533,0.1878770440816879,0.7027134299278259,0.1089769005775451,0.0,0.0,-0.9851182699203492,0.5153377056121826
-0.3781048655509949,2.0716397762298584,-0.4103307723999023,0.1861370950937271,0.7068998217582703,0.0837279558181762,0.0,0.0,-0.986130714416504,0.705024003982544
-0.3821521699428558,2.075838327407837,-0.406644731760025,0.1855053901672363,0.7093899250030518,0.0498017519712448,0.0,0.0,-0.9977138042449952,0.3212155103683471
-0.3862231373786926,2.079941987991333,-0.4091001152992248,0.1812358498573303,0.7120059728622437,0.0523212179541587,0.0,0.0,-0.9796329140663148,0.6919577121734619
-0.3902701735496521,2.084003210067749,-0.4055252075195312,0.1800247579813003,0.7130742073059082,0.0213645976036787,0.0,0.0,-0.9909080862998962,0.637568473815918
-0.3942993581295013,2.088026762008667,-0.4025839865207672,0.1790108382701873,0.712636411190033,-0.0087558114901185,0.0,0.0,-0.901509165763855,0.2193976640701294
