x_pos,y_pos,x_vel,y_vel,angle,ang_vel,leg_1,leg_2,main_booster,lat_booster
-0.0015408515464514,1.4029325246810913,-0.1554055958986282,-0.3550077378749847,0.0011712827254086,0.0230610705912113,0.0,0.0,0.0741456856139428,0.6892785449222372
-0.0030069351196289,1.3947227001190186,-0.1458158642053604,-0.3648843169212341,0.0003857738047372,-0.0157107971608638,0.0,0.0,-0.4321070603192114,0.8725410906954082
-0.0044062612578272,1.38581383228302,-0.1363933235406875,-0.3959475457668304,-0.0031120732892304,-0.0699637979269027,0.0,0.0,-0.2239537572651666,-0.8647409700812738
-0.0059036253951489,1.3762106895446775,-0.147660419344902,-0.4268114864826202,-0.0051639261655509,-0.0410405769944191,0.0,0.0,-0.4025482102578928,-0.7110050192250179
-0.0074613569304347,1.3659181594848633,-0.1542128324508667,-0.4574510455131531,-0.0067110043019056,-0.0309444852173328,0.0,0.0,-0.9079425355518858,-0.5133380966778021
-0.0090664867311716,1.354933261871338,-0.159140333533287,-0.4882237613201141,-0.0080706384032964,-0.0271952152252197,0.0,0.0,-0.7605645005847328,-0.7105721541106577
-0.01074562035501,1.343257188796997,-0.1674038916826248,-0.5189420580863953,-0.0085656065493822,-0.0099005717784166,0.0,0.0,0.5713548276379379,-0.5328256119808821
-0.0123243331909179,1.331812024116516,-0.1582669168710708,-0.5086642503738403,-0.0081812487915158,0.0076881451532244,0.0,0.0,-0.5025041828674559,0.6701369444730687
-0.0138667104765772,1.3196816444396973,-0.1527082473039627,-0.5391414165496826,-0.0096857035532593,-0.0300919953733682,0.0,0.0,-0.9654351226737892,-0.8511081587881163
-0.0154909137636423,1.3068654537200928,-0.1620209813117981,-0.5696049928665161,-0.0100841810926795,-0.007970449514687,0.0,0.0,-0.4392515251863862,-0.8776147954410349
-0.0171889308840036,1.2933590412139893,-0.1703213602304458,-0.6002848744392395,-0.0095724053680896,0.0102366190403699,0.0,0.0,0.0980232976138155,-0.5548865317345284
-0.0188893321901559,1.2796859741210938,-0.1711850464344024,-0.60768723487854,-0.0084422631189227,0.0226051025092601,0.0,0.0,-0.6964969703262962,0.9020219789857964
-0.0205169674009084,1.2653241157531738,-0.1611295342445373,-0.6383050084114075,-0.0100564174354076,-0.0322862863540649,0.0,0.0,-0.5452149482616744,-0.5825140762597127
-0.0221985820680856,1.2502657175064087,-0.1669840067625045,-0.669268012046814,-0.0112102013081312,-0.0230778008699417,0.0,0.0,0.8359436091544816,0.980691822719203
-0.023630142211914,1.2358955144882202,-0.1397495567798614,-0.6387056112289429,-0.0145836174488067,-0.0674748495221138,0.0,0.0,-0.4051565139543442,0.6903327309788767
-0.0250096321105957,1.2208240032196045,-0.1323395669460296,-0.6699140667915344,-0.0201258286833763,-0.1108539476990699,0.0,0.0,0.4323437929921867,0.6266947729383963
-0.0262053497135639,1.2061752080917358,-0.1124404817819595,-0.6511667370796204,-0.0271766260266304,-0.141028806567192,0.0,0.0,0.6620419115021023,0.6673731144005766
-0.0271934513002634,1.191386342048645,-0.0901650935411453,-0.6574653387069702,-0.0357286222279071,-0.1710551679134369,0.0,0.0,0.7830966673810751,-0.8746921286870062
-0.028113842010498,1.177210807800293,-0.0848360955715179,-0.6302076578140259,-0.0428568795323371,-0.1425782144069671,0.0,0.0,-0.086380548098806,-0.6528904969817433
-0.0291025154292583,1.1623475551605225,-0.0926257595419883,-0.6607836484909058,-0.0490312725305557,-0.1234992891550064,0.0,0.0,-0.7193683048604136,0.6839141465008445
-0.0300348289310932,1.1467933654785156,-0.0848109647631645,-0.6915881037712097,-0.0573576539754867,-0.166542500257492,0.0,0.0,-0.4013887227301769,-0.6130466884984487
-0.0310230255126953,1.130549073219299,-0.0911256372928619,-0.7222806215286255,-0.0649821981787681,-0.1525044292211532,0.0,0.0,-0.616849867023435,-0.7315788839135438
-0.0320644378662109,1.1136173009872437,-0.0971108675003051,-0.7528436183929443,-0.0719474703073501,-0.1393180787563324,0.0,0.0,-0.6393364993959132,-0.9744432074106236
-0.0331814773380756,1.0959908962249756,-0.1059351116418838,-0.7836796641349792,-0.0776693150401115,-0.114446997642517,0.0,0.0,-0.9294968041478504,-0.6132445826225708
-0.0343647971749305,1.0776821374893188,-0.1136223450303077,-0.8139791488647461,-0.0823356956243515,-0.0933357924222946,0.0,0.0,-0.1568468293740996,-0.591013328052433
-0.0356127731502056,1.0586707592010498,-0.1211298927664756,-0.845154345035553,-0.0859774649143219,-0.0728350579738617,0.0,0.0,0.8386645529394694,-0.845277256407668
-0.0368583686649799,1.040189504623413,-0.1221619248390197,-0.8215271830558777,-0.0883464217185974,-0.0473794937133789,0.0,0.0,0.313923096784453,0.8109107673116358
-0.0381033904850482,1.0220130681991575,-0.119952879846096,-0.8081158995628357,-0.0928624272346496,-0.0903200134634971,0.0,0.0,0.4737846670157948,-0.9145835350041684
-0.0394912734627723,1.0042133331298828,-0.135539174079895,-0.7913061380386353,-0.0960807278752327,-0.0643656775355339,0.0,0.0,0.9336396644222278,0.7779018971865865
-0.0407929420471191,0.986566424369812,-0.1249316781759262,-0.7846536040306091,-0.1012734547257423,-0.1038545593619346,0.0,0.0,-0.4335481308969904,0.7620626534979345
-0.0420343391597271,0.9682276844978333,-0.1169976592063903,-0.8155599236488342,-0.1083705425262451,-0.1419418454170227,0.0,0.0,0.8772778511047363,-0.9906241297721864
-0.0433997139334678,0.9499633312225342,-0.1309053599834442,-0.8121671080589294,-0.1139645278453826,-0.1118795722723007,0.0,0.0,0.953715205192566,-0.8092343211174011
-0.0448267944157123,0.9324570298194884,-0.1381735503673553,-0.7784073948860168,-0.1184628382325172,-0.0899659842252731,0.0,0.0,0.4536080360412597,-0.943389654159546
-0.0463545806705951,0.9147481322288512,-0.1498192846775055,-0.7873007655143738,-0.1214073672890663,-0.0588905811309814,0.0,0.0,0.8409364223480225,-0.8910634517669678
-0.0478468909859657,0.8973991870880127,-0.1478556245565414,-0.771171510219574,-0.1227740570902824,-0.027333777397871,0.0,0.0,0.3044155836105346,-0.7534503936767578
-0.0493071563541889,0.8802613615989685,-0.1459782421588897,-0.7616886496543884,-0.1228216439485549,-0.0009513775585219,0.0,0.0,0.1986924409866333,-0.8371965289115906
-0.0508125312626361,0.862935483455658,-0.1519722193479538,-0.7699213027954102,-0.121393397450447,0.0285650007426738,0.0,0.0,0.534843921661377,-0.5035272836685181
-0.0522308349609375,0.8459750413894653,-0.1442322432994842,-0.7536043524742126,-0.1190056502819061,0.0477549061179161,0.0,0.0,-0.2628744840621948,-0.1059158444404602
-0.0536454208195209,0.8283229470252991,-0.1437445282936096,-0.7843614220619202,-0.1167334020137786,0.0454447157680988,0.0,0.0,0.4222176074981689,0.4116644859313965
-0.0549704544246196,0.810754120349884,-0.1348185986280441,-0.7806504368782043,-0.1144315749406814,0.0460364669561386,0.0,0.0,-0.0159013271331787,-0.3808661103248596
-0.0562904365360736,0.7924936413764954,-0.1342547535896301,-0.8114067316055298,-0.1121797487139701,0.0450365766882896,0.0,0.0,0.6689472198486328,-0.1067557334899902
-0.0574213974177837,0.7743085622787476,-0.1159251555800437,-0.8080160617828369,-0.1093678846955299,0.0562373511493206,0.0,0.0,0.8309284448623657,0.0477329492568969
-0.0584008209407329,0.7559322118759155,-0.1012967973947525,-0.8164869546890259,-0.1060413122177124,0.0665313601493835,0.0,0.0,0.6356531381607056,0.2122722864151001
-0.0592200271785259,0.7376289367675781,-0.085775539278984,-0.8132099509239197,-0.1022101864218711,0.0766226723790168,0.0,0.0,0.5385003089904785,0.6842312812805176
-0.0599913597106933,0.7190330028533936,-0.0796235874295234,-0.8263231515884399,-0.0997467190027237,0.0492693409323692,0.0,0.0,0.8254209756851196,-0.0105709433555603
-0.0606671348214149,0.7002882957458496,-0.0704100951552391,-0.8329082727432251,-0.0969333574175834,0.056267213076353,0.0,0.0,0.8378164768218994,0.0039136409759521
-0.06121826171875,0.6815839409828186,-0.0584116950631141,-0.8310951590538025,-0.0936593487858772,0.0654801875352859,0.0,0.0,0.765451192855835,0.536898136138916
-0.0617611892521381,0.6635357737541199,-0.0563477054238319,-0.8020144104957581,-0.0916318446397781,0.0405502021312713,0.0,0.0,-0.1741535663604736,-0.0949417352676391
-0.0622941963374614,0.6447954773902893,-0.0555517859756946,-0.8327685594558716,-0.0893970057368278,0.0446969047188758,0.0,0.0,0.9219484329223632,0.4296412467956543
-0.0627882033586502,0.6262502074241638,-0.0517867878079414,-0.8240938186645508,-0.0870399847626686,0.0471405163407325,0.0,0.0,0.8714172840118408,-0.1916588544845581
-0.0630532279610633,0.6079581379890442,-0.0298953391611576,-0.812785804271698,-0.0836677551269531,0.0674442499876022,0.0,0.0,0.7659785747528076,-0.0561187863349914
-0.0633021369576454,0.5901586413383484,-0.0283007677644491,-0.7908996939659119,-0.0802905261516571,0.0675446540117263,0.0,0.0,0.7568540573120117,-0.2620453834533691
-0.0633852928876876,0.5723599791526794,-0.0125882672145962,-0.7908313870429993,-0.0760609656572341,0.0845911353826522,0.0,0.0,0.630487322807312,0.6497800350189209
-0.063341237604618,0.5550462603569031,0.0010854720603674,-0.7693337202072144,-0.0727781057357788,0.0656573548913002,0.0,0.0,0.5083425045013428,-0.2267513275146484
-0.0631165504455566,0.5376915335655212,0.0181621760129928,-0.7711192965507507,-0.0685057863593101,0.0854462534189224,0.0,0.0,0.5300130844116211,0.3249512910842895
-0.0629370659589767,0.5203067064285278,0.0136571107432246,-0.772466242313385,-0.0642619282007217,0.0848769769072532,0.0,0.0,0.7068471908569336,-0.221030056476593
-0.0625943168997764,0.5034530758857727,0.0291206203401088,-0.7488384246826172,-0.0591685213148593,0.1018684059381485,0.0,0.0,0.3542513847351074,0.3175328969955444
-0.0620923042297363,0.4867253303527832,0.0441017225384712,-0.7432276010513306,-0.0531335026025772,0.1207003593444824,0.0,0.0,0.6215531826019287,0.2336490154266357
-0.0614600181579589,0.4705103933811188,0.0563343688845634,-0.720434844493866,-0.0463241301476955,0.1361873894929886,0.0,0.0,0.2410966157913208,0.3297209739685058
-0.0608433708548545,0.4544923305511474,0.0545911379158496,-0.7117135524749756,-0.0393287762999534,0.1399070024490356,0.0,0.0,0.6549205780029297,-0.3806009292602539
-0.0601463317871093,0.4383356273174286,0.0619133189320564,-0.717889666557312,-0.0316312089562416,0.1539512872695922,0.0,0.0,0.5969175100326538,0.3405680656433105
-0.0595099441707134,0.4225085973739624,0.0558137483894825,-0.7032775282859802,-0.0239037182182073,0.1545497179031372,0.0,0.0,0.7524099349975586,0.3084669113159179
-0.0587144866585731,0.4068082869052887,0.0706060081720352,-0.6976755261421204,-0.0150796696543693,0.1764809191226959,0.0,0.0,0.8234598636627197,0.4688891172409057
-0.0578676238656044,0.3914310932159424,0.0751107633113861,-0.6833662390708923,-0.0056335236877202,0.1889230161905288,0.0,0.0,0.7472273111343384,0.8532419204711914
-0.0569265373051166,0.3759917020797729,0.0857299491763114,-0.6861835718154907,0.0026440906804054,0.1655523777008056,0.0,0.0,0.7837072610855103,0.6075448989868164
-0.0560670867562294,0.3608183562755584,0.0786340907216072,-0.6744043231010437,0.0098652997985482,0.1444243490695953,0.0,0.0,0.8986687660217285,0.4841281175613403
-0.0551770217716693,0.3464293479919433,0.0810411795973777,-0.6395848989486694,0.0177310276776552,0.1573144644498825,0.0,0.0,0.6057137250900269,0.7915037870407104
-0.0541252121329307,0.3317699432373047,0.0981092005968093,-0.6516254544258118,0.0247160792350769,0.1397010833024978,0.0,0.0,0.7664661407470703,0.6750688552856445
-0.05299549177289,0.3177990913391113,0.1066320389509201,-0.6210461258888245,0.0309768486768007,0.1252153515815735,0.0,0.0,0.5486869812011719,0.8154373168945312
-0.0518972389400005,0.3037970066070556,0.1047270894050598,-0.6224297881126404,0.0360138118267059,0.1007389649748802,0.0,0.0,0.7970777750015259,0.583686113357544
-0.0508702285587787,0.2902067303657532,0.0985062718391418,-0.6041214466094971,0.0401628278195858,0.0829802900552749,0.0,0.0,0.8695056438446045,0.865081787109375
-0.0497486107051372,0.2769884467124939,0.1090560927987098,-0.5875661373138428,0.0432277880609035,0.0612991675734519,0.0,0.0,0.7912490367889404,0.5880995988845825
-0.048753548413515,0.2644505798816681,0.0974146053194999,-0.5572972893714905,0.0452951118350029,0.0413464084267616,0.0,0.0,0.8201141357421875,0.4383227825164795
-0.0476901046931743,0.2521800100803375,0.1032903417944908,-0.5454532504081726,0.0483107455074787,0.0603129342198371,0.0,0.0,0.6932721138000488,0.6964681148529053
-0.0466120727360248,0.2398143112659454,0.1056524664163589,-0.5496583580970764,0.0504374057054519,0.0425330027937889,0.0,0.0,0.8447539806365967,0.2240722179412841
-0.0454601272940635,0.2273065000772476,0.1121005564928054,-0.5560064315795898,0.0534973628818988,0.061198890209198,0.0,0.0,0.8699989318847656,-0.36847984790802
-0.0443480499088764,0.214679941534996,0.107692465186119,-0.5613107085227966,0.0569774471223354,0.0696017667651176,0.0,0.0,0.9612827301025392,0.1618318557739257
-0.0432829856872558,0.2027713656425476,0.1024372726678848,-0.5294331312179565,0.0610004663467407,0.0804603919386863,0.0,0.0,0.914252996444702,-0.3751451969146728
-0.0421664230525493,0.1915951371192932,0.1065497398376464,-0.4969374537467956,0.066044345498085,0.1008777171373367,0.0,0.0,0.8874614238739014,-0.8013919591903687
-0.0412983894348144,0.1811134219169616,0.0797904953360557,-0.4661794304847717,0.072980523109436,0.1387235522270202,0.0,0.0,0.7646535634994507,-0.4270139932632446
-0.0405776016414165,0.1704551130533218,0.0651212260127067,-0.4740599393844604,0.0798744335770607,0.1378780603408813,0.0,0.0,0.8340320587158203,0.752190351486206
-0.039802648127079,0.1604376584291458,0.0713308379054069,-0.4455591142177582,0.085974134504795,0.1219941154122352,0.0,0.0,0.6628544330596924,-0.6737311482429504
-0.039224624633789,0.1505740731954574,0.0499299094080925,-0.4388546347618103,0.0937715843319892,0.1559491455554962,0.0,0.0,0.483997106552124,0.1769843101501464
-0.0387362465262413,0.140922337770462,0.0405981466174125,-0.4295018911361694,0.1019444540143013,0.1634575873613357,0.0,0.0,0.6452920436859131,0.976539134979248
-0.0382392890751361,0.1316341012716293,0.0428427122533321,-0.4132958054542541,0.1087567135691642,0.1362451165914535,0.0,0.0,0.519495964050293,0.9537168741226196
-0.0376182571053504,0.1224803328514099,0.0564449355006217,-0.4072529375553131,0.1143683493137359,0.1122328415513038,0.0,0.0,0.8107620477676392,0.9214600324630736
-0.0369219779968261,0.1132033914327621,0.0651701167225837,-0.412657767534256,0.1188006475567817,0.0886462479829788,0.0,0.0,0.7565571069717407,0.965810775756836
-0.0360739715397357,0.1038994193077087,0.0815016776323318,-0.4137771725654602,0.1220766305923461,0.0655196458101272,0.0,0.0,0.9421473741531372,0.9159314632415771
-0.0350302681326866,0.0949517786502838,0.1019455194473266,-0.3978737294673919,0.1244877129793167,0.0482217036187648,0.0,0.0,0.9704433679580688,0.0579100847244262
-0.0338637344539165,0.0860443413257598,0.1128430739045143,-0.3962082266807556,0.1282791346311569,0.0758285373449325,0.0,0.0,0.9898854494094848,-0.3302119970321655
-0.0328035354614257,0.0777910053730011,0.101631224155426,-0.3671990633010864,0.1326511949300766,0.0874412581324577,0.0,0.0,0.9809377193450928,-0.2760327458381653
-0.0318106636404991,0.0702067241072654,0.0941092669963836,-0.3375490605831146,0.1378078758716583,0.1031335145235061,0.0,0.0,0.8782548904418945,0.584897518157959
-0.0307106021791696,0.063101515173912,0.1049769669771194,-0.3162603676319122,0.1428214162588119,0.1002708077430725,0.0,0.0,0.7512829303741455,-0.2632844448089599
-0.0295379646122455,0.0558424554765224,0.1111235171556472,-0.3232244849205017,0.1489437669515609,0.1224469095468521,0.0,0.0,0.9392191171646118,-0.2260403037071228
-0.0284992214292287,0.0487660728394985,0.0974185913801193,-0.315164715051651,0.1553956419229507,0.1290374398231506,0.0,0.0,0.990886688232422,0.4585950374603271
-0.0275047309696674,0.0425640903413295,0.0919026508927345,-0.2764508128166199,0.1629346013069152,0.1507790982723236,0.0,0.0,0.9543461799621582,0.4952921867370605
-0.0266310684382915,0.0366620868444442,0.0793486908078193,-0.2632149159908294,0.1709616035223007,0.1605398654937744,0.0,0.0,0.939042329788208,0.9582329988479614
-0.0259864814579486,0.0314368568360805,0.0580410175025463,-0.2329868674278259,0.1774002313613891,0.1287722885608673,0.0,0.0,0.902885675430298,0.9218554496765136
-0.0252879150211811,0.0267613753676414,0.064463660120964,-0.2084507346153259,0.1828003227710724,0.1080022454261779,0.0,0.0,0.8605726957321167,0.3258002996444702
-0.0247869491577148,0.0226256940513849,0.044383268803358,-0.1845239698886871,0.1885378062725067,0.1147500127553939,0.0,0.0,0.8477276563644409,0.786749005317688
-0.0244667045772075,0.0190283879637718,0.0274944752454757,-0.1604642570018768,0.1930977255105972,0.0911981686949729,0.0,1.0,0.913360357284546,0.970172882080078
-0.0242864601314067,0.0164363719522953,0.0329871624708175,-0.1137095391750335,0.1770481318235397,-0.3224029839038849,0.0,1.0,0.7475368976593018,0.2648237943649292
-0.0244423858821392,0.0146506642922759,0.0159768722951412,-0.075928695499897,0.145385056734085,-0.6333602666854858,0.0,1.0,0.1440093517303466,0.0734126567840576
-0.0247967727482318,0.0129926297813653,0.0040445090271532,-0.0703277662396431,0.1060153618454933,-0.7874921560287476,0.0,1.0,0.3802716732025146,0.1788468360900879
-0.0250979419797658,0.0115325786173343,0.0075264805927872,-0.0626470819115638,0.0687048360705375,-0.7462114095687866,0.0,1.0,0.1740095615386963,-0.1939460039138794
-0.0253745075315237,0.009795687161386,0.0098889293149113,-0.07589141279459,0.0315982289612293,-0.7421330213546753,0.0,0.0,-0.4958878755569458,-0.9578882455825806
-0.0256937984377145,0.0073889945633709,0.0035646180622279,-0.1065873056650161,-0.0034430895466357,-0.7008272409439087,0.0,0.0,0.4765775203704834,-0.9051312804222108
-0.0260902401059865,0.0053539131768047,-0.0065823225304484,-0.090849794447422,-0.0360935032367706,-0.6530090570449829,0.0,0.0,0.1226176023483276,-0.9107309579849244
-0.026408290490508,0.0035182095598429,-0.0012510097585618,-0.0825979486107826,-0.0662960931658744,-0.6040524244308472,1.0,0.0,0.5165393352508545,-0.3340877294540405
-0.0265650749206542,0.0023103929124772,0.0017929088789969,-0.0548389218747615,-0.0823626667261123,-0.3197288811206817,1.0,0.0,-0.0276188850402832,-0.2705160975456238
-0.0265970230102539,0.0010749315842986,-0.0058208163827657,-0.0547754392027854,-0.0797344744205474,0.0526001751422882,1.0,0.0,-0.0530895590782165,0.3081147670745849
-0.0265246387571096,-0.0002392792666796,-0.0126957464963197,-0.0574762187898159,-0.0599697344005107,0.3953407108783722,1.0,0.0,0.0912269353866577,0.086771011352539
-0.0263149254024028,-0.0014107966562733,-0.0100199673324823,-0.0511189103126525,-0.0293072704225778,0.6132980585098267,1.0,0.0,-0.044678509235382,0.6602497100830078
-0.0260436050593853,-0.0031164670363068,-0.0068474062718451,-0.0754963606595993,0.0042735380120575,0.6716697216033936,1.0,1.0,0.7026546001434326,0.9203811883926392
-0.025924015790224,-0.0041543748229742,-0.0060615139082074,-0.0465573668479919,0.0207900796085596,0.328714370727539,1.0,1.0,0.4561250209808349,0.9878604412078856
-0.0258749965578317,-0.0043974900618195,0.0050894655287265,-0.0108218463137745,0.0205835755914449,-0.0041541410610079,1.0,1.0,-0.6877130270004272,0.1299918889999389
-0.0258569717407226,-0.0044424794614315,0.0084725869819521,-0.0019352785311639,0.0140113271772861,-0.131437674164772,1.0,1.0,-0.863830029964447,-0.1672644019126892
-0.0258134845644235,-0.0042462851852178,0.0104066561907529,0.0087879402562975,0.0080513535067439,-0.1191707029938697,1.0,1.0,-0.4415509700775146,-0.1143379807472229
-0.0257308967411518,-0.003784587373957,0.0110110910609364,0.0205294527113437,0.0053142169490456,-0.0547543279826641,1.0,1.0,-0.6230085492134094,-0.3391772508621216
-0.0256128311157226,-0.0030493044760078,0.0116004049777984,0.0326758436858654,0.0055125402286648,0.0039553167298436,1.0,1.0,-0.5314187407493591,0.277618408203125
-0.0254813190549612,-0.0020758414175361,0.0118196718394756,0.0432566925883293,0.0068237576633691,0.0262120962142944,1.0,1.0,-0.3985846042633056,-0.0188286304473876
