x_pos,y_pos,x_vel,y_vel,angle,ang_vel,leg_1,leg_2,main_booster,lat_booster
-0.0015264510875567,1.4033515453338623,-0.1542703211307525,-0.3363793790340423,0.0014487549196928,0.0285547915846109,0.0,0.0,-0.1492873891750026,0.7233066854373843
-0.0029944418929517,1.395529866218567,-0.1463211923837661,-0.3476297259330749,0.0009823573054745,-0.0093282852321863,0.0,0.0,0.766060512526008,-0.829429809701457
-0.0043737413361668,1.388076663017273,-0.139122873544693,-0.3312547504901886,0.0021547230426222,0.023449508473277,0.0,0.0,0.0749430068890391,-0.9572841357356378
-0.0059247016906738,1.3808343410491943,-0.1578602492809295,-0.3218860924243927,0.0048957103863358,0.0548247881233692,0.0,0.0,0.1480898581348952,0.9134280250330138
-0.0073042870499193,1.3740029335021973,-0.1386137008666992,-0.3036162555217743,0.0055464864708483,0.0130166318267583,0.0,0.0,0.0823194529427573,0.9759587474004524
-0.0085049625486135,1.3674325942993164,-0.1184321269392967,-0.2920166850090027,0.0039317957125604,-0.032296996563673,0.0,0.0,-0.1936582505969826,-0.8664477115770659
-0.0097797391936182,1.3605886697769165,-0.1273107826709747,-0.3041704297065735,0.0037712240591645,-0.0032119681127369,0.0,0.0,-0.3683515006641618,-0.9933483546118396
-0.011116886511445,1.3534746170043943,-0.1347130537033081,-0.3161871135234833,0.0047634979709982,0.019847260788083,0.0,0.0,0.0388333810261052,0.801801199022636
-0.012405777350068,1.3468858003616333,-0.1279583275318145,-0.2928281426429748,0.0038367093075066,-0.0185376442968845,0.0,0.0,-0.0420660862854873,-0.8615957265961169
-0.0137663837522268,1.340029001235962,-0.136522501707077,-0.3047466278076172,0.0042939106933772,0.0091451546177268,0.0,0.0,-0.8908433730647056,0.7342980635682044
-0.0150647163391113,1.3329004049301147,-0.1282805353403091,-0.3168255686759949,0.0027608345262706,-0.0306642539799213,0.0,0.0,-0.6055855585480721,0.939869857677379
-0.0162840839475393,1.3254973888397217,-0.1179555431008338,-0.3290217518806457,-0.0011782852234318,-0.0787896960973739,0.0,0.0,-0.9620490539004848,0.8955425960758474
-0.0174215324223041,1.317826271057129,-0.1072470545768737,-0.3409568667411804,-0.0076012755744159,-0.1284717619419098,0.0,0.0,0.6496054501338111,-0.7801963194907038
-0.0185458175837993,1.310407042503357,-0.1073169708251953,-0.3297715485095978,-0.0126536954194307,-0.1010574921965599,0.0,0.0,0.9837034065637038,0.6825099946703859
-0.0194257739931345,1.3042027950286863,-0.0816750153899192,-0.2758152782917022,-0.0189047418534755,-0.1250323057174682,0.0,0.0,-0.8089428470636648,0.9799912759516992
-0.0202187541872262,1.297711968421936,-0.0703187584877014,-0.2886138260364532,-0.0277788359671831,-0.1774978041648864,0.0,0.0,-0.8826006468031926,-0.7992815812935173
-0.0210643764585256,1.2909609079360962,-0.0765027925372123,-0.300217717885971,-0.0357514321804046,-0.1594665795564651,0.0,0.0,-0.0551441979505158,-0.892698878770814
-0.0219683647155761,1.283933162689209,-0.0833837762475013,-0.3125293552875519,-0.0426964163780212,-0.1389123201370239,0.0,0.0,-0.6293999307036917,0.9179784475614524
-0.0227925293147563,1.2766366004943848,-0.0729361549019813,-0.3245795965194702,-0.052081674337387,-0.1877221763134002,0.0,0.0,0.5231532015562839,0.8906304450157179
-0.0236074440181255,1.2698513269424438,-0.0697941556572914,-0.3020175695419311,-0.063669741153717,-0.2317818850278854,0.0,0.0,0.1588436724253641,0.710405455781397
-0.024236012250185,1.2635748386383057,-0.0495303347706794,-0.279571920633316,-0.0768728628754615,-0.2640864551067352,0.0,0.0,0.0345497591109444,0.7947333104767749
-0.0247770305722951,1.2574301958084106,-0.0388676598668098,-0.2739517986774444,-0.0919773578643798,-0.3021172285079956,0.0,0.0,0.2983130140906975,0.7028735620355266
-0.0251145362854003,1.2516309022903442,-0.0169817339628934,-0.2588575780391693,-0.1086301431059837,-0.3330858051776886,0.0,0.0,-0.2790877836305654,0.8222804863178824
-0.0253850929439067,1.245542287826538,-0.0081641841679811,-0.2720812559127807,-0.1274366825819015,-0.3761645257472992,0.0,0.0,-0.7316199448506755,0.6936540624338965
-0.0256183631718158,1.2391804456710815,-0.0031061549670994,-0.2846058905124664,-0.1476195305585861,-0.4036931991577148,0.0,0.0,-0.3831414319663992,-0.6932447171721223
-0.0259257312864065,1.2325485944747925,-0.0119275413453578,-0.2967214286327362,-0.1663989871740341,-0.3755890429019928,0.0,0.0,-0.4403155809167769,0.6053259380675192
-0.026190185919404,1.2256412506103516,-0.006178508978337,-0.3093847036361694,-0.1867174506187439,-0.4063691198825836,0.0,0.0,-0.4942493128406082,0.9074381309374392
-0.0264032371342182,1.218461275100708,0.0005978321423754,-0.322012722492218,-0.2087758779525756,-0.4411683976650238,0.0,0.0,0.4548960644092803,-0.7138548242074677
-0.0266587249934673,1.2120792865753174,-0.004625482019037,-0.2867366671562195,-0.2299343347549438,-0.4231690764427185,0.0,0.0,0.5222913457243155,0.7224190287600842
-0.0267826076596975,1.2060730457305908,0.0102189220488071,-0.2706342935562134,-0.2529089152812958,-0.4594916701316833,0.0,0.0,-0.7909065323711837,0.6734374820970773
-0.0268569942563772,1.19978928565979,0.016704723238945,-0.2836348116397857,-0.2775984704494476,-0.4937910437583923,0.0,0.0,0.4214078218506736,0.9745158427693232
-0.0268337242305278,1.1937808990478516,0.0285730008035898,-0.2722634673118591,-0.3046410679817199,-0.540851891040802,0.0,0.0,-0.6529069977039175,0.6963590969623679
-0.026768397539854,1.1874955892562866,0.0340452492237091,-0.2853737473487854,-0.3332158923149109,-0.5714969635009766,0.0,0.0,-0.4804289847211536,-0.8597582364613744
-0.0267794616520404,1.1809778213500977,0.0245775617659091,-0.2958429455757141,-0.3601697385311126,-0.539077639579773,0.0,0.0,0.1362038494734054,0.6915347013388276
-0.0265796668827533,1.174769639968872,0.0470369383692741,-0.2829741537570953,-0.3888424932956695,-0.5734554529190063,0.0,0.0,0.6999693866940289,0.9440499749731625
-0.0259984023869037,1.169333815574646,0.0869179517030716,-0.2497691363096237,-0.4197394847869873,-0.6179402470588684,0.0,0.0,0.2228169489619531,-0.7040330684726754
-0.0253544803708791,1.1641433238983154,0.091775432229042,-0.2391243875026703,-0.4495164752006531,-0.5955395698547363,0.0,0.0,0.3748103083198522,0.8382159169893115
-0.0243449211120605,1.1594886779785156,0.129757672548294,-0.2164804637432098,-0.4813078641891479,-0.6358285546302795,0.0,0.0,0.5625734946688858,-0.9222648932635508
-0.0230669975280761,1.1557221412658691,0.1547130793333053,-0.1770896911621093,-0.5114990472793579,-0.603824257850647,0.0,0.0,0.9549780052348352,-0.9227798126123852
-0.0214701648801565,1.1526622772216797,0.1846566498279571,-0.1456222236156463,-0.5399801135063171,-0.5696219205856323,0.0,0.0,-0.6354597298104898,-0.8412934390609312
-0.0199403762817382,1.1494059562683103,0.1759847998619079,-0.1541740298271179,-0.5666471123695374,-0.5333402752876282,0.0,0.0,-0.3451811075210571,-0.999699592590332
-0.0184672363102436,1.1459342241287231,0.1687646359205246,-0.1636209636926651,-0.5919196009635925,-0.5054512619972229,0.0,0.0,-0.4726002216339111,-0.9933083653450012
-0.0170557983219623,1.1422439813613892,0.161005288362503,-0.1731298863887787,-0.615718424320221,-0.4759768545627594,0.0,0.0,-0.7209576964378357,-0.9962381720542908
-0.0157018657773733,1.1383429765701294,0.1536894589662552,-0.182197093963623,-0.6380190253257751,-0.446011483669281,0.0,0.0,-0.4505738019943237,-0.9806005358695984
-0.0144225116819143,1.134239673614502,0.1443779915571212,-0.1906521767377853,-0.6583589911460876,-0.4068004190921783,0.0,0.0,-0.5245625376701355,-0.9963529109954834
-0.0132084842771291,1.129927396774292,0.1362341344356537,-0.199443519115448,-0.676999032497406,-0.3728007674217224,0.0,0.0,-0.6735897660255432,-0.987510859966278
-0.0120555879548192,1.1254082918167114,0.1286356598138809,-0.2081067264080047,-0.6939912438392639,-0.3398444652557373,0.0,0.0,-0.3817963600158691,-0.9931688904762268
-0.0109732626006007,1.120716571807861,0.1195794716477394,-0.2148992717266082,-0.7086546421051025,-0.2932679951190948,0.0,0.0,-0.0965821146965026,-0.990056335926056
-0.0099637983366847,1.115854024887085,0.1103337407112121,-0.2215403616428375,-0.7209144830703735,-0.2451965063810348,0.0,0.0,-0.3782739043235779,-0.980567991733551
-0.0090206144377589,1.110797643661499,0.1021269187331199,-0.2293393611907959,-0.7312081456184387,-0.205873042345047,0.0,0.0,-0.1649304628372192,-0.9801039695739746
-0.0081267356872558,1.1055290699005127,0.0960894376039505,-0.2381872236728668,-0.7401179075241089,-0.1781946718692779,0.0,0.0,-0.4355949163436889,-0.9902999997138976
-0.0072979927062988,1.1000802516937256,0.0879134684801101,-0.2452590614557266,-0.7468693256378174,-0.1350280046463012,0.0,0.0,-0.4761586189270019,-0.9410884380340576
-0.0065217018127441,1.0944178104400637,0.0815535485744476,-0.2541012763977051,-0.7521770000457764,-0.1061536073684692,0.0,0.0,-0.8576661348342896,-0.961384654045105
-0.0058019636198878,1.0885668992996216,0.0745056495070457,-0.2616179287433624,-0.7555920481681824,-0.0683007761836052,0.0,0.0,-0.716762125492096,-0.9852479100227356
-0.0051321983337402,1.0825015306472778,0.0684643313288688,-0.2705047726631164,-0.7576096057891846,-0.0403510853648185,0.0,0.0,-0.869785487651825,-0.9035875797271729
-0.0045295716263353,1.0762457847595217,0.0602063760161399,-0.2779993116855621,-0.7575393319129944,0.0014051998732611,0.0,0.0,-0.8035269975662231,-0.9905610084533693
-0.0039762496016919,1.0697921514511108,0.0540738403797149,-0.2860311567783355,-0.755822479724884,0.0343374237418174,0.0,0.0,-0.8561322093009949,-0.9834040999412536
-0.003470039460808,1.0631306171417236,0.0482608973979949,-0.2945898771286011,-0.7526353001594543,0.0637433901429176,0.0,0.0,-0.7669440507888794,-0.9879504442214966
-0.0030142783652991,1.0562740564346311,0.0419303625822067,-0.3024714589118957,-0.7477197647094727,0.0983118936419487,0.0,0.0,-0.8981789946556091,-0.9730481505393982
-0.0026227950584143,1.0492392778396606,0.0338063016533851,-0.3093858063220978,-0.7405569553375244,0.1432552486658096,0.0,0.0,-0.9311794638633728,-0.9682611227035522
-0.0022917748428881,1.0419968366622925,0.026412546634674,-0.3178355395793915,-0.7316402196884155,0.1783352345228195,0.0,0.0,-0.9822406768798828,-0.9839394688606262
-0.0020301819313317,1.034576654434204,0.0176284853368997,-0.3247179985046386,-0.7203567624092102,0.2256687879562378,0.0,0.0,-0.9661484360694884,-0.9640687704086304
-0.0018194199074059,1.0269434452056885,0.0112787038087844,-0.3335889875888824,-0.7075618505477905,0.2558979094028473,0.0,0.0,-0.9843962788581848,-0.9320147633552552
-0.001665687537752,1.0191092491149902,0.0040537761524319,-0.3418250679969787,-0.6929565072059631,0.2921074330806732,0.0,0.0,-0.9875064492225648,-0.9671976566314696
-0.0015767097938805,1.0110713243484497,-0.0040714838542044,-0.3501721322536468,-0.6764202117919922,0.3307265341281891,0.0,0.0,-0.9882076978683472,-0.9303933382034302
-0.0015594481956213,1.0028469562530518,-0.013267321512103,-0.3576463162899017,-0.6575680375099182,0.3770448565483093,0.0,0.0,-0.994292676448822,-0.9143255949020386
-0.0015954971313476,0.9944257736206056,-0.0202930103987455,-0.3658515214920044,-0.6369037628173828,0.413284957408905,0.0,0.0,-0.9948638677597046,-0.7996712327003479
-0.0016818046569824,0.9857777953147888,-0.0267082210630178,-0.3756299316883087,-0.6148734092712402,0.4406076967716217,0.0,0.0,-0.990825355052948,-0.7662110924720764
-0.0018139838939532,0.9769194722175598,-0.0328272730112075,-0.3846718668937683,-0.5913492441177368,0.4704831540584564,0.0,0.0,-0.9967261552810668,-0.7686277031898499
-0.002007293747738,0.9678507447242736,-0.0408004149794578,-0.3936789631843567,-0.5660077929496765,0.5068293809890747,0.0,0.0,-0.9938957691192628,-0.7460455894470215
-0.0022578239440917,0.958573877811432,-0.0484151877462863,-0.4026794135570526,-0.5388957262039185,0.5422414541244507,0.0,0.0,-0.998543381690979,-0.6865373849868774
-0.0025529861450195,0.9490732550621032,-0.0544358007609844,-0.4125953018665313,-0.510454535484314,0.5688235759735107,0.0,0.0,-0.9976691603660583,-0.3790034651756286
-0.0028495788574218,0.9393097758293152,-0.0549331679940223,-0.4247829616069793,-0.4820560812950134,0.5679690837860107,0.0,0.0,-0.9980039596557616,-0.7031559348106384
-0.003189945127815,0.9293169379234314,-0.0608586557209491,-0.4350733757019043,-0.4523865878582001,0.5933902859687805,0.0,0.0,-0.9952310919761658,-0.1679004430770874
-0.0035313605330884,0.9190617203712464,-0.0613370537757873,-0.4472669064998626,-0.4227272570133209,0.5931864976882935,0.0,0.0,-0.9984734654426576,-0.2697744369506836
-0.003873634384945,0.9085444808006288,-0.0618023797869682,-0.4594607055187225,-0.3930617272853851,0.5933107137680054,0.0,0.0,-0.996653378009796,0.1247366666793823
-0.004216861911118,0.8977649807929993,-0.0622538924217224,-0.4716549515724182,-0.3633736968040466,0.59376060962677,0.0,0.0,-0.990858793258667,-0.22365403175354
-0.0045608519576489,0.8867235779762268,-0.0626907497644424,-0.4838497340679168,-0.3336471021175384,0.5945326089859009,0.0,0.0,-0.9908512830734252,0.0563037395477294
-0.0049056052230298,0.8754199743270874,-0.063112124800682,-0.496045172214508,-0.3038660585880279,0.5956209897994995,0.0,0.0,-0.9709883332252502,-0.1729907989501953
-0.0052509307861328,0.863854706287384,-0.0635171085596084,-0.5082413554191589,-0.2740151584148407,0.5970185995101929,0.0,0.0,-0.9745003581047058,-0.4397026896476745
-0.0055969236418604,0.8520275354385376,-0.0639047771692276,-0.5204383134841919,-0.2440793216228485,0.5987172722816467,0.0,0.0,-0.9902360439300536,0.6536083221435547
-0.005889224819839,0.8399242758750916,-0.0574579536914825,-0.5335006713867188,-0.2154473662376403,0.5726393461227417,0.0,0.0,-0.995924174785614,0.6155366897583008
-0.0061426162719726,0.8275448679924011,-0.0528384633362293,-0.5464197993278503,-0.1877321451902389,0.5543045997619629,0.0,0.0,-0.9874294400215148,0.9091415405273438
-0.0063319206237792,0.814887285232544,-0.0450536757707595,-0.5594625473022461,-0.1615456044673919,0.5237313508987427,0.0,0.0,-0.9964069724082948,0.8403501510620117
-0.0064571378752589,0.8019536137580872,-0.0372378304600715,-0.5723336338996887,-0.1368653327226638,0.4936054646968841,0.0,0.0,-0.9917975664138794,0.761427640914917
-0.006514549255371,0.7887403964996338,-0.0289417207241058,-0.5852910876274109,-0.1137741431593895,0.4618240296840668,0.0,0.0,-0.9842901825904846,0.9745049476623536
-0.0064933774992823,0.7752370834350586,-0.0192784145474433,-0.5986465215682983,-0.0925433114171028,0.4246168732643127,0.0,0.0,-0.9461032748222352,0.8550618886947632
-0.0063951490446925,0.7614492774009705,-0.0097938627004623,-0.6116909384727478,-0.0731055587530136,0.388755053281784,0.0,0.0,-0.8808866739273071,0.9570326805114746
-0.0062027932144701,0.7473823428153992,0.0017884334083646,-0.6244360208511353,-0.0558531880378723,0.3450477123260498,0.0,0.0,-0.9116551876068116,0.985133171081543
-0.0059147835709154,0.7330301403999329,0.0136027233675122,-0.6373710632324219,-0.0408208407461643,0.3006468415260315,0.0,0.0,-0.7738917469978333,0.976231336593628
-0.0055494308471679,0.7184101939201355,0.0230556614696979,-0.6494620442390442,-0.0275062192231416,0.2662923634052276,0.0,0.0,-0.7194821834564209,0.977980375289917
-0.0051016807556152,0.7035233974456787,0.0331398770213127,-0.6614612936973572,-0.0160223711282014,0.2296769171953201,0.0,0.0,-0.3767499923706054,0.995896577835083
-0.0045576095581054,0.688366711139679,0.0449668392539024,-0.6735606789588928,-0.0067069209180772,0.1863088905811309,0.0,0.0,-0.4718905687332153,0.9297184944152832
-0.0039262771606445,0.6729274988174438,0.0556569024920463,-0.6861779689788818,0.0006787161692045,0.1477129757404327,0.0,0.0,-0.6815544366836548,0.9224532842636108
-0.0032263756729662,0.6572133302688599,0.063961274921894,-0.6984232664108276,0.0066257664002478,0.1189410537481308,0.0,0.0,-0.6429926753044128,0.990654230117798
-0.0024349212180823,0.6412393450737,0.0751471817493438,-0.7099776864051819,0.0105675486847758,0.0788356736302375,0.0,0.0,-0.874513566493988,0.4593682289123535
-0.0016409873496741,0.6249926090240479,0.0751463323831558,-0.7221065163612366,0.0147572001442313,0.0837931931018829,0.0,0.0,-0.8237935900688171,0.7035770416259766
-0.0008001327514648,0.6084808111190796,0.0807107537984848,-0.7338953018188477,0.018089547753334,0.0666470006108284,0.0,0.0,-0.7100122570991516,0.8239541053771973
0.0001184463471872,0.5917024612426758,0.0901265814900398,-0.7457262873649597,0.0198041442781686,0.0342916622757911,0.0,0.0,-0.8531454801559448,-0.0970000624656677
0.0010406493674963,0.5746514201164246,0.0902136415243148,-0.757854163646698,0.0217813570052385,0.0395443961024284,0.0,0.0,-0.7900529503822327,-0.1942933797836303
0.0019666671287268,0.5573276281356812,0.0903307497501373,-0.7699821591377258,0.0240253582596778,0.0448800548911094,0.0,0.0,-0.1644858717918396,-0.5360299348831177
0.0028528212569653,0.5397277474403381,0.0849399715662002,-0.7822784185409546,0.0276502389460802,0.0724977701902389,0.0,0.0,0.5466272830963135,0.4712034463882446
0.0036187171936035,0.5226949453353882,0.0731577053666114,-0.7570804953575134,0.0310442373156547,0.0678799301385879,0.0,0.0,-0.3052093982696533,0.3905179500579834
0.0043895719572901,0.5053895711898804,0.0733660459518432,-0.7692095637321472,0.0347155034542083,0.0734252706170082,0.0,0.0,0.4102580547332763,0.3617492914199829
0.0052347183227539,0.4887359738349914,0.0800906717777252,-0.7402700185775757,0.0390850417315959,0.0873905718326568,0.0,0.0,-0.2216308116912841,0.5004310607910156
0.0061290739104151,0.4718080163002014,0.0858427956700325,-0.7524513602256775,0.0426410213112831,0.0711195468902587,0.0,0.0,0.5241429805755615,0.2587701082229614
0.0071331025101244,0.4556708335876465,0.0958870127797126,-0.7173396348953247,0.0471010319888591,0.0892003178596496,0.0,0.0,-0.1135775446891784,0.1399600505828857
0.0081432340666651,0.4392613768577575,0.0962162539362907,-0.7294695973396301,0.0518485605716705,0.0949505940079689,0.0,0.0,0.8267644643783569,0.1710526943206787
0.0092685697600245,0.4240071773529053,0.1066989302635192,-0.678176760673523,0.0576151311397552,0.1153314486145973,0.0,0.0,0.095678687095642,0.3655855655670166
0.0104290964081883,0.4090608358383178,0.1096891909837722,-0.6645393967628479,0.0639070495963096,0.1258383095264434,0.0,0.0,-0.286758542060852,0.7806148529052734
0.0116572380065917,0.3938559293746948,0.1177165061235427,-0.6759986281394958,0.068954698741436,0.1009529083967208,0.0,0.0,-0.1131076216697692,0.3206595182418823
0.0128928180783987,0.3783788681030273,0.1181609407067298,-0.6881296634674072,0.0742969289422035,0.1068442612886428,0.0,0.0,0.456457257270813,0.7616302967071533
0.0142453191801905,0.3632457852363586,0.1309561133384704,-0.6727990508079529,0.0785447284579277,0.0849561765789985,0.0,0.0,0.683112621307373,-0.2281637191772461
0.0154320718720555,0.3487677276134491,0.1146738678216934,-0.6436868906021118,0.0825135707855224,0.0793768316507339,0.0,0.0,0.3256324529647827,0.0288088321685791
0.0164905544370412,0.3346219658851623,0.1020116657018661,-0.6289149522781372,0.0863045081496238,0.075818583369255,0.0,0.0,0.2087311744689941,0.6787185668945312
0.0175578109920024,0.320824533700943,0.1039884686470031,-0.6133825778961182,0.0890179798007011,0.0542694255709648,0.0,0.0,0.5253093242645264,-0.1161984205245971
0.0186139103025198,0.3074936866760254,0.1024612188339233,-0.5926740169525146,0.092142529785633,0.062490951269865,0.0,0.0,0.3388564586639404,0.24379563331604
0.0197576526552438,0.2943403422832489,0.1104222685098648,-0.584840714931488,0.0960574224591255,0.0782981440424919,0.0,0.0,0.4902952909469604,0.1615947484970092
0.0209389682859182,0.2818483114242553,0.1134695410728454,-0.5555056929588318,0.1006806045770645,0.0924635082483291,0.0,0.0,0.208544373512268,0.5614783763885498
0.0221343040466308,0.269979864358902,0.1156635135412216,-0.5277543663978577,0.1045227348804473,0.0768425613641738,0.0,0.0,0.1387594938278198,-0.3869621157646179
0.023360539227724,0.2581667900085449,0.1182427555322647,-0.5253375172615051,0.1088706627488136,0.0869588330388069,0.0,0.0,0.2589873075485229,0.0342624187469482
