x_pos,y_pos,x_vel,y_vel,angle,ang_vel,leg_1,leg_2,main_booster,lat_booster
-0.0016013145213946,1.403312921524048,-0.1621017009019851,-0.3381012380123138,0.0017691883258521,0.034899141639471,0.0,0.0,-0.5664234757423401,0.8756238222122192
-0.0032055855263024,1.3954130411148071,-0.1602102667093277,-0.3511025011539459,0.0015525736380368,-0.0043322006240487,0.0,0.0,-0.3943431973457336,0.7016549110412598
-0.0048194886185228,1.3871961832046509,-0.1593920588493347,-0.3651944100856781,-0.0004254844388924,-0.0395646765828132,0.0,0.0,-0.1475273966789245,-0.151960551738739
-0.006509780883789,1.3786675930023191,-0.1669520884752273,-0.3790487051010132,-0.0024767071008682,-0.0410283394157886,0.0,0.0,-0.2924187183380127,0.4197335243225097
-0.0082757947966456,1.3698275089263916,-0.1744406223297119,-0.392900139093399,-0.0046084583736956,-0.0426388457417488,0.0,0.0,0.4655271768569946,0.7403228282928467
-0.0099211689084768,1.361396074295044,-0.1610732972621917,-0.3747445046901703,-0.0080432435497641,-0.0687022283673286,0.0,0.0,0.0435067415237426,0.2873300313949585
-0.0116520877927541,1.3532003164291382,-0.1694566905498504,-0.3642790913581848,-0.0116390269249677,-0.0719223767518997,0.0,0.0,0.2743706703186035,0.770909309387207
-0.0132595058530569,1.3454406261444092,-0.1556302309036255,-0.3449245393276214,-0.016689945012331,-0.1010275036096572,0.0,0.0,-0.6824178695678711,0.171821117401123
-0.0149391172453761,1.3373695611953735,-0.162748709321022,-0.3587809801101684,-0.0218469463288784,-0.103149339556694,0.0,0.0,-0.2153023481369018,0.5498278141021729
-0.016646672040224,1.3289895057678225,-0.1643248945474624,-0.3725574314594269,-0.0282050315290689,-0.1271735876798629,0.0,0.0,-0.2099379301071167,0.428351879119873
-0.0184242241084575,1.320298433303833,-0.1712049096822738,-0.3864114582538605,-0.0346824526786804,-0.1295604109764099,0.0,0.0,-0.0780922770500183,0.2176488637924194
-0.02027053758502,1.3112962245941162,-0.1779514998197555,-0.4002656042575836,-0.0412866733968257,-0.1320967674255371,0.0,0.0,-0.628353476524353,0.6649562120437622
-0.0221203807741403,1.3019827604293823,-0.1765521466732025,-0.4141895174980163,-0.0496275499463081,-0.1668329089879989,0.0,0.0,-0.5723580718040466,0.9035948514938354
-0.0239567756652832,1.292344331741333,-0.1730661690235138,-0.4287498891353607,-0.0601074770092964,-0.2096176594495773,0.0,0.0,-0.4127168655395508,0.7698040008544922
-0.0257821083068847,1.2823976278305054,-0.1699106097221374,-0.4426324665546417,-0.0726174414157867,-0.2502219080924988,0.0,0.0,-0.7046018838882446,0.368253231048584
-0.0276696197688579,1.272141456604004,-0.1759799271821975,-0.4564970731735229,-0.0852798372507095,-0.2532710433006286,0.0,0.0,-0.4794909954071045,0.5047463178634644
-0.0295681953430175,1.261575698852539,-0.1756960451602935,-0.4704513847827911,-0.0993334501981735,-0.2810978293418884,0.0,0.0,-0.2854593992233276,0.0950121879577636
-0.031524658203125,1.2507013082504272,-0.1813432574272155,-0.4843208491802215,-0.1135527342557907,-0.2844113111495971,0.0,0.0,-0.668191134929657,0.643787145614624
-0.0334775932133197,1.2395143508911133,-0.1793510466814041,-0.4984830915927887,-0.1294320523738861,-0.3176150321960449,0.0,0.0,-0.6125785708427429,-0.7520063519477844
-0.0355504043400287,1.228031873703003,-0.1928936392068863,-0.5116475820541382,-0.1437897235155105,-0.2871794104576111,0.0,0.0,-0.0481940507888793,-0.2474116683006286
-0.0376737602055072,1.2162407636642456,-0.1977875530719757,-0.5255206227302551,-0.1583350598812103,-0.2909331619739532,0.0,0.0,-0.0061812400817871,-0.3673205375671386
-0.0398447997868061,1.2041411399841309,-0.2023932933807373,-0.5393935441970825,-0.1730734854936599,-0.2947951555252075,0.0,0.0,-0.6951273679733276,-0.2316834926605224
-0.042060375213623,1.1917331218719482,-0.2066932469606399,-0.5532689690589905,-0.1880121529102325,-0.2987998127937317,0.0,0.0,-0.1243277788162231,-0.761603593826294
-0.0443707481026649,1.179023027420044,-0.2173387259244918,-0.5666835308074951,-0.201812744140625,-0.27603679895401,0.0,0.0,0.7546194791793823,-0.6593182682991028
-0.0467927940189838,1.1670750379562378,-0.2292616665363311,-0.5328342914581299,-0.2148886322975158,-0.2615413665771484,0.0,0.0,-0.0292401909828186,-0.4502984285354614
-0.049252700060606,1.1547973155975342,-0.2328468859195709,-0.547644317150116,-0.2281863838434219,-0.2659549713134765,0.0,0.0,-0.1420592665672302,-0.6028897762298584
-0.0517893806099891,1.14223051071167,-0.2415266931056976,-0.5604517459869385,-0.2405036687850952,-0.2463459223508834,0.0,0.0,0.484444260597229,-0.8482053875923157
-0.0543684959411621,1.1305145025253296,-0.2470994442701339,-0.5225204229354858,-0.2515102028846741,-0.2201308310031891,0.0,0.0,0.3913488388061523,-0.7546120882034302
-0.0569843277335166,1.1195108890533447,-0.251882255077362,-0.4907450675964355,-0.2614078223705292,-0.197952538728714,0.0,0.0,0.0451836585998535,-0.7690295577049255
-0.0596138946712017,1.1086713075637815,-0.2545459866523742,-0.4832866787910461,-0.2700095474720001,-0.1720345020294189,0.0,0.0,-0.5385463237762451,-0.7903744578361511
-0.0623153671622276,1.097554326057434,-0.263019323348999,-0.4954125583171844,-0.2773086428642273,-0.1459816396236419,0.0,0.0,0.4279375076293945,-0.4192700386047363
-0.0649887099862098,1.0867016315460205,-0.259676992893219,-0.483815997838974,-0.2851823568344116,-0.1574745178222656,0.0,0.0,0.0172991752624511,0.112023115158081
-0.0675788894295692,1.0762711763381958,-0.2508644461631775,-0.4651903212070465,-0.2935611307621002,-0.1675762385129928,0.0,0.0,-0.8981763124465942,-0.8625105023384094
-0.0702446922659874,1.0655560493469238,-0.2600691616535187,-0.4775572121143341,-0.3002851903438568,-0.1344813704490661,0.0,0.0,-0.904291331768036,-0.5412806272506714
-0.0729478821158409,1.0545504093170166,-0.2645865082740783,-0.490337073802948,-0.306218683719635,-0.1186698228120803,0.0,0.0,-0.0542743802070617,-0.6128504872322083
-0.0756884589791297,1.0432603359222412,-0.2692269384860992,-0.5028147101402283,-0.311225026845932,-0.100126564502716,0.0,0.0,0.8108381032943726,-0.1952125430107116
-0.078293040394783,1.0323858261108398,-0.2552212476730346,-0.4844427704811096,-0.3166578710079193,-0.1086569428443908,0.0,0.0,-0.5040510892868042,-0.7349688410758972
-0.0809330940246582,1.021232008934021,-0.259847342967987,-0.4966426789760589,-0.3209792971611023,-0.0864281728863716,0.0,0.0,0.2000496387481689,-0.268409252166748
-0.0833882316946983,1.010652780532837,-0.2409471571445465,-0.4712101817131042,-0.325736939907074,-0.0951525941491127,0.0,0.0,0.2547645568847656,-0.6697553992271423
-0.0856998413801193,1.0004340410232544,-0.227646991610527,-0.4549576938152313,-0.3293995857238769,-0.0732528418302536,0.0,0.0,0.2819228172302246,-0.460050106048584
-0.0878676399588584,0.9908031821250916,-0.2126066237688064,-0.4290026128292084,-0.3337590396404266,-0.0871888846158981,0.0,0.0,-0.8126314282417297,-0.5380035638809204
-0.0900371521711349,0.9808775782585144,-0.2133062779903412,-0.4419847726821899,-0.3375630974769592,-0.0760814249515533,0.0,0.0,-0.7530966401100159,-0.4458234906196594
-0.092172622680664,0.9706419706344604,-0.2096055299043655,-0.455843836069107,-0.3416892886161804,-0.0825239717960357,0.0,0.0,-0.0411396622657775,-0.5126132965087891
-0.0943027511239051,0.9601123929023744,-0.2095953524112701,-0.4687970876693725,-0.3452661633491516,-0.0715376287698745,0.0,0.0,0.7326217889785767,-0.1925232410430908
-0.0963278785347938,0.9497303366661072,-0.1986003220081329,-0.4623656570911407,-0.3493699133396148,-0.0820750147104263,0.0,0.0,0.3382731676101684,-0.6444532871246338
-0.0982273072004318,0.9394187331199646,-0.187039703130722,-0.4590051770210266,-0.3524218499660492,-0.061038564890623,0.0,0.0,0.2129684686660766,-0.5290476679801941
-0.0999608039855957,0.9292523860931396,-0.1712520122528076,-0.4523519873619079,-0.3546310365200043,-0.0441831313073635,0.0,0.0,0.3078517913818359,-0.9804349541664124
-0.10158272087574,0.9198081493377686,-0.1616588979959488,-0.419869065284729,-0.3551912605762481,-0.0112042594701051,0.0,0.0,0.8003139495849609,-0.670624315738678
-0.1030488014221191,0.911376416683197,-0.1467219591140747,-0.37472003698349,-0.3550756573677063,0.0023118001408874,0.0,0.0,0.7934081554412842,-0.8024621605873108
-0.1043524742126464,0.903455138206482,-0.1316630393266677,-0.3517429530620575,-0.3537087440490722,0.0273381769657135,0.0,0.0,0.8846727609634399,-0.6959735155105591
-0.1052601784467697,0.8960768580436707,-0.0934884026646614,-0.3272556066513061,-0.3508439660072326,0.0572957694530487,0.0,0.0,0.6940994262695312,-0.6500464081764221
-0.1059571281075477,0.8895160555839539,-0.0732308030128479,-0.2907309234142303,-0.3471353650093078,0.0741718560457229,0.0,0.0,0.4140009880065918,-0.6743789911270142
-0.1064186096191406,0.8831533193588257,-0.0508317239582538,-0.2816738784313202,-0.3422175645828247,0.0983558595180511,0.0,0.0,-0.3630504608154297,-0.5826312899589539
-0.1068601608276367,0.8765085935592651,-0.0496567524969577,-0.2940211296081543,-0.3364588916301727,0.1151726022362709,0.0,0.0,-0.5036695599555969,-0.470243752002716
-0.1072385758161544,0.8695542812347412,-0.0430195070803165,-0.3078824579715729,-0.331053763628006,0.1081027239561081,0.0,0.0,0.2172033786773681,-0.6138558387756348
-0.1075597777962684,0.8628419041633606,-0.038040317595005,-0.2969863712787628,-0.3248781859874725,0.123511753976345,0.0,0.0,-0.5076383948326111,-0.5772926807403564
-0.1078502684831619,0.8558432459831238,-0.0356002934277057,-0.3095940947532654,-0.3180577456951141,0.1364085376262664,0.0,0.0,-0.9076515436172484,0.440800666809082
-0.1080736145377159,0.8485350608825684,-0.0285636987537145,-0.3234561085700989,-0.3115939795970917,0.1292752623558044,0.0,0.0,-0.9002723097801208,-0.3667582273483276
-0.1082288771867752,0.8409172892570496,-0.0214150696992874,-0.337317556142807,-0.3054875433444977,0.1221285834908485,0.0,0.0,-0.942343771457672,0.4263567924499511
-0.1083148941397667,0.8329896926879883,-0.0141638498753309,-0.3511785268783569,-0.2997388839721679,0.1149724274873733,0.0,0.0,-0.9527478218078612,-0.2163602113723755
-0.1083309203386306,0.8247522711753845,-0.0068187611177563,-0.3650389611721039,-0.2943483591079712,0.1078105941414833,0.0,0.0,-0.94843327999115,-0.3538228273391723
-0.1082759872078895,0.8162050843238831,0.0006121652550064,-0.3788989782333374,-0.2893159985542297,0.1006469279527664,0.0,0.0,-0.9587495923042296,0.0062148571014404
-0.1081492453813552,0.8073477745056152,0.0081215444952249,-0.3927585184574127,-0.2846417427062988,0.0934851765632629,0.0,0.0,-0.6049070358276367,-0.6967449188232422
-0.1080006584525108,0.7982038259506226,0.009338573552668,-0.4053283929824829,-0.2789652645587921,0.1135296821594238,0.0,0.0,-0.9974360466003418,-0.4355965852737427
-0.1077790260314941,0.7887499928474426,0.016984611749649,-0.4191882014274597,-0.2736461162567138,0.1063827276229858,0.0,0.0,-0.9879379272460938,-0.709216833114624
-0.1075484305620193,0.7790140509605408,0.0165199283510446,-0.431500107049942,-0.2669502794742584,0.133916899561882,0.0,0.0,-0.9915767908096312,-0.1118601560592651
-0.1072436347603797,0.7689684629440308,0.0242796652019023,-0.4453605711460113,-0.2606103122234344,0.1267994195222854,0.0,0.0,-0.9800530076026917,-0.6415538191795349
-0.1069076508283615,0.758622407913208,0.0266399625688791,-0.4586041569709778,-0.2535108923912048,0.1419881582260131,0.0,0.0,-0.9956388473510742,-0.6364715099334717
-0.106541633605957,0.7479918599128723,0.0287714693695306,-0.4711379110813141,-0.2455297708511352,0.1596229821443557,0.0,0.0,-0.9942063689231871,0.1957110166549682
-0.1060998886823654,0.7370516061782837,0.0366669446229934,-0.4849992394447326,-0.2379008680582046,0.1525782644748687,0.0,0.0,-0.9939588904380798,0.2257192134857177
-0.1055821403861045,0.7258014678955078,0.0446002297103405,-0.4988598823547363,-0.2306225597858429,0.1455662995576858,0.0,0.0,-0.9987103939056396,-0.303493320941925
-0.1049880981445312,0.7142415046691895,0.0525679104030132,-0.5127198696136475,-0.2236929833889007,0.1385915875434875,0.0,0.0,-0.9856606125831604,-0.0592999458312988
-0.1043172851204872,0.7023717164993286,0.0605668611824512,-0.5265792012214661,-0.2171100527048111,0.1316587626934051,0.0,0.0,-0.9818784594535828,-0.0035539269447326
-0.1035696044564247,0.6901916265487671,0.0685942023992538,-0.5404378771781921,-0.2108714133501052,0.1247727051377296,0.0,0.0,-0.9887795448303224,-0.2901227474212646
-0.1027446761727333,0.6777014136314392,0.0766472667455673,-0.5542959570884705,-0.2049745023250579,0.1179385185241699,0.0,0.0,-0.9911983609199524,-0.2786803245544433
-0.1018423065543174,0.6649010181427002,0.0847236067056655,-0.5681535601615906,-0.1994164288043975,0.1111613661050796,0.0,0.0,-0.9537935256958008,-0.6062987446784973
-0.1009123772382736,0.6517993807792664,0.0865294784307479,-0.5814371705055237,-0.1929162591695785,0.1300030052661895,0.0,0.0,-0.9952811598777772,-0.8024422526359558
-0.0999667197465896,0.6384133696556091,0.0868071243166923,-0.5939457416534424,-0.1851099729537964,0.1561257392168045,0.0,0.0,-0.9788815975189208,-0.3464336395263672
-0.0989428535103797,0.6247172355651855,0.0949395149946212,-0.6078048348426819,-0.1776323318481445,0.149552583694458,0.0,0.0,-0.9857380390167236,-0.4813557267189026
-0.097840592265129,0.6107110977172852,0.1030871421098709,-0.6216631531715393,-0.1704793274402618,0.1430596858263015,0.0,0.0,-0.9427229166030884,-0.7256017923355103
-0.0967294722795486,0.5964050889015198,0.1025365814566612,-0.6348587870597839,-0.1618849486112594,0.171887531876564,0.0,0.0,-0.8854552507400513,-0.362317144870758
-0.0955394729971885,0.5817890763282776,0.1107091084122657,-0.6487181186676025,-0.1536062061786651,0.1655747145414352,0.0,0.0,-0.8440114855766296,-0.50078284740448
-0.0943163856863975,0.5668737292289734,0.1131501048803329,-0.6619859337806702,-0.1444675326347351,0.182773619890213,0.0,0.0,-0.7279826998710632,-0.4220184087753296
-0.0930144339799881,0.5516483783721924,0.1213417649269104,-0.6758455038070679,-0.1356340497732162,0.176669955253601,0.0,0.0,-0.6971336007118225,-0.4099775552749634
-0.0916333198547363,0.5361129641532898,0.1295411586761474,-0.6897042989730835,-0.1270998865365982,0.1706829369068145,0.0,0.0,-0.7318037748336792,-0.457154631614685
-0.0901729613542556,0.5202673673629761,0.1377469599246978,-0.7035624980926514,-0.1188588589429855,0.164820909500122,0.0,0.0,-0.7783705592155457,-0.4940217137336731
-0.0886333435773849,0.5041115880012512,0.1459578871726989,-0.7174199223518372,-0.1109042391180992,0.1590926945209503,0.0,0.0,-0.3983571529388428,-0.7232633829116821
-0.0870628356933593,0.4876482784748077,0.1480955183506012,-0.7310625910758972,-0.1020103767514228,0.1778770238161087,0.0,0.0,-0.2813360691070556,-0.5180215835571289
-0.0854435935616493,0.4708794057369232,0.1524449437856674,-0.7446628212928772,-0.0926076993346214,0.1880534142255783,0.0,0.0,0.3017281293869018,-0.7060719728469849
-0.0836496353149414,0.4542500674724579,0.1685641705989837,-0.7384468913078308,-0.0818809419870376,0.2145352810621261,0.0,0.0,0.2759655714035034,-0.4489641189575195
-0.0817329436540603,0.4381788372993469,0.1811147481203079,-0.7137333750724792,-0.0714294388890266,0.2090298384428024,0.0,0.0,-0.0537402629852294,-0.4420584440231323
-0.079736515879631,0.4217976331710815,0.1893332302570343,-0.7275928854942322,-0.0612238496541976,0.2041117697954177,0.0,0.0,0.3391169309616089,-0.5180875062942505
-0.0775587111711502,0.4059117138385772,0.2063985615968704,-0.7056135535240173,-0.049969233572483,0.2250920236110687,0.0,0.0,0.4112966060638428,-0.1470223665237426
-0.0752009376883506,0.3901273012161255,0.2242074757814407,-0.7011807560920715,-0.0385422706604003,0.2285392731428146,0.0,0.0,0.1746305227279663,-0.6024141907691956
-0.0728385001420974,0.3745794296264648,0.2237523347139358,-0.6907402276992798,-0.0262008383870124,0.2468287944793701,0.0,0.0,0.6127129793167114,-0.0169790983200073
-0.0702912360429763,0.3599817156791687,0.242038294672966,-0.6486127972602844,-0.0136814750730991,0.25038743019104,0.0,0.0,0.3177614212036133,-0.2353335618972778
-0.0676763504743576,0.345755785703659,0.2490871399641037,-0.6321984529495239,-0.00144054798875,0.2448186129331588,0.0,0.0,0.173098087310791,0.0737384557723999
-0.0650689154863357,0.3320674896240234,0.2489401549100875,-0.6083953380584717,0.0102115785703063,0.2330425977706909,0.0,0.0,0.0929286479949951,-0.2977721691131592
-0.0623285286128521,0.3187627494335174,0.2621411681175232,-0.5914434790611267,0.0219628140330314,0.2350245416164398,0.0,0.0,0.2938902378082275,-0.4364638328552246
-0.0595627799630165,0.306027889251709,0.2650306820869446,-0.5661994218826294,0.0333661995828151,0.228067547082901,0.0,0.0,-0.0398237705230712,-0.6145594120025635
-0.056772232055664,0.2929849326610565,0.2662465274333954,-0.5800173282623291,0.0460192710161209,0.2530616521835327,0.0,0.0,0.3578195571899414,-0.3595672249794006
-0.0539407730102539,0.2802442908287048,0.2705686092376709,-0.5666837096214294,0.0584519132971763,0.248652845621109,0.0,0.0,0.3126872777938843,-0.0256975889205932
-0.0511496551334857,0.2679013311862945,0.2670949101448059,-0.549087643623352,0.0703445747494697,0.2378533333539962,0.0,0.0,0.1854485273361206,-0.4749590754508972
-0.0484124198555946,0.2557993531227112,0.2623096704483032,-0.5384383797645569,0.0816415920853614,0.225940465927124,0.0,0.0,0.3611980676651001,-0.2555041313171386
-0.0455563552677631,0.2442833036184311,0.2738776504993438,-0.512505292892456,0.0932613983750343,0.2323960959911346,0.0,0.0,-0.4171684384346008,-0.0941438674926757
-0.0426202788949012,0.2324572652578354,0.2819629907608032,-0.5263650417327881,0.1048159003257751,0.231090098619461,0.0,0.0,0.738400936126709,-0.0599311590194702
-0.0395363792777061,0.2215430289506912,0.2960996925830841,-0.4859864115715027,0.1170268133282661,0.2442182600498199,0.0,0.0,-0.0077326893806457,-0.4582193493843078
-0.0363724716007709,0.2103190273046493,0.3041430115699768,-0.4998475015163421,0.1292040944099426,0.2435457706451416,0.0,0.0,0.6691427230834961,-0.5441875457763672
-0.0331301689147949,0.2000976651906967,0.3105246424674988,-0.4555303454399109,0.1428568810224533,0.2730559408664703,0.0,0.0,0.1281111240386963,-0.4399634599685669
-0.029813002794981,0.1901658326387405,0.3177998960018158,-0.4428074657917022,0.1567489504814148,0.2778414487838745,0.0,0.0,0.3293519020080566,0.0561267137527465
-0.026524543762207,0.180897057056427,0.3149659037590027,-0.4134697318077087,0.1706284582614898,0.2775905430316925,0.0,0.0,0.1165820360183715,-0.6266964673995972
-0.0232513435184955,0.1721107065677642,0.312138170003891,-0.3923148214817047,0.1858536005020141,0.3045024275779724,0.0,0.0,-0.2950242757797241,-0.6595271825790405
-0.0199430473148822,0.1630005687475204,0.3145050704479217,-0.4070263206958771,0.202272891998291,0.3283862173557281,0.0,0.0,-0.3079791665077209,0.0816330909729003
-0.0165560729801654,0.1535825133323669,0.3223727941513061,-0.4208984971046448,0.2187533676624298,0.3296095132827759,0.0,0.0,0.014469027519226,-0.2476823329925537
-0.0132361408323049,0.1442936211824417,0.3160097599029541,-0.4152879416942596,0.234945610165596,0.3238447308540344,0.0,0.0,0.2243208885192871,-0.4423643350601196
-0.0099508287385106,0.1353007107973098,0.3125936388969421,-0.4023110568523407,0.2511551976203918,0.3241916298866272,0.0,0.0,0.2336522340774536,-0.163960576057434
-0.0066678998991847,0.1265860348939895,0.3122270703315735,-0.3901552855968475,0.267560064792633,0.3280971646308899,0.0,0.0,0.2673723697662353,-0.3550206422805786
-0.0032839775085449,0.1180024743080139,0.3218364119529724,-0.3846098482608795,0.2845478951931,0.3397566080093384,0.0,0.0,0.8436136245727539,-0.281447172164917
6.704330735374242e-05,0.1102558970451355,0.3180087208747864,-0.3477219641208648,0.302171915769577,0.3524804711341858,0.0,0.0,0.7536107301712036,-0.4154545068740845
0.0032649040222167,0.1034403666853904,0.3025355935096741,-0.306603342294693,0.3200651407241821,0.3578645586967468,0.0,0.0,0.4628775119781494,-0.3903443217277527
