x_pos,y_pos,x_vel,y_vel,angle,ang_vel,leg_1,leg_2,main_booster,lat_booster
-0.0016429901588708,1.4033327102661133,-0.1665481328964233,-0.3372147679328918,0.002018078463152,0.0398272238671779,0.0,0.0,-0.1753988862037658,0.3007223606109619
-0.0034049034584313,1.3954769372940063,-0.1783582419157028,-0.3491514027118683,0.0041566384024918,0.0427760034799575,0.0,0.0,0.402104377746582,0.9482159614562988
-0.0050814626738429,1.3878376483917236,-0.1682289093732834,-0.3395269811153412,0.0047249696217477,0.0113676618784666,0.0,0.0,0.1654589176177978,0.7246266603469849
-0.0069140433333814,1.3804326057434082,-0.1824463009834289,-0.32911416888237,0.0039211809635162,-0.0160774607211351,0.0,0.0,-0.4491077661514282,0.7835985422134399
-0.0087864873930811,1.3727385997772217,-0.1847040355205536,-0.3419470191001892,0.0014224216574802,-0.0499799735844135,0.0,0.0,-0.1283479928970337,0.7145693302154541
-0.0107025150209665,1.3647522926330566,-0.1875224709510803,-0.3549469709396362,-0.0026204795576632,-0.0808655470609664,0.0,0.0,-0.5090422034263611,0.8257720470428467
-0.0126670841127634,1.3564743995666504,-0.1909691989421844,-0.3679257333278656,-0.0080407261848449,-0.1084148660302162,0.0,0.0,-0.3332816362380981,0.424598217010498
-0.014740657992661,1.347905158996582,-0.2020693570375442,-0.3808918595314026,-0.0132602425292134,-0.1044001132249832,0.0,0.0,-0.5549684762954712,0.6570155620574951
-0.0168702118098735,1.3390508890151978,-0.2065965682268142,-0.3935967981815338,-0.0195505917072296,-0.12581866979599,0.0,0.0,-0.8403575420379639,-0.2170949578285217
-0.0191042907536029,1.3299052715301514,-0.2172607183456421,-0.4065636098384857,-0.0256318692117929,-0.121636688709259,0.0,0.0,-0.6311399340629578,0.794558048248291
-0.0213688854128122,1.32046639919281,-0.2187072485685348,-0.4196584820747375,-0.03330098092556,-0.1533964276313781,0.0,0.0,-0.5841888189315796,0.8246508836746216
-0.0236601829528808,1.3107311725616455,-0.2197565138339996,-0.432904988527298,-0.0425804555416107,-0.1856066882610321,0.0,0.0,-0.7209056615829468,0.915316104888916
-0.0259599685668945,1.3007047176361084,-0.2186038494110107,-0.445980042219162,-0.053847536444664,-0.2253620326519012,0.0,0.0,-0.5978719592094421,0.6140916347503662
-0.028299331665039,1.2903783321380615,-0.221406489610672,-0.4594505131244659,-0.0662513151764869,-0.2480980157852172,0.0,0.0,-0.3964799642562866,0.9428203105926514
-0.0306363105773925,1.2797629833221436,-0.219083696603775,-0.4725021421909332,-0.080738216638565,-0.289764791727066,0.0,0.0,-0.4652671813964844,0.4008525609970093
-0.0330593101680278,1.268858551979065,-0.2279290854930877,-0.4854826927185058,-0.0949973315000534,-0.2852082252502441,0.0,0.0,-0.4323371648788452,0.2554559707641601
-0.0355644226074218,1.257664680480957,-0.2363928258419037,-0.498462975025177,-0.1090281009674072,-0.2806411981582641,0.0,0.0,-0.4986484050750732,0.8725290298461914
-0.0380635261535644,1.2461605072021484,-0.2338796406984329,-0.5125457644462585,-0.1249796375632286,-0.319059282541275,0.0,0.0,-0.182369589805603,0.1870279312133789
-0.040636159479618,1.2343673706054688,-0.2414955645799636,-0.5255306959152222,-0.1406987756490707,-0.3144116699695587,0.0,0.0,-0.4550814628601074,0.1209608316421508
-0.0432776436209678,1.2222853899002075,-0.2486518323421478,-0.5385156869888306,-0.1561863124370575,-0.3097788095474243,0.0,0.0,0.1309758424758911,0.357226014137268
-0.0458168014883995,1.2106562852859497,-0.2390936613082885,-0.5184676647186279,-0.1710342168807983,-0.2969849705696106,0.0,0.0,-0.5852220058441162,-0.4232029914855957
-0.0484148971736431,1.198737621307373,-0.2452546060085296,-0.5314567685127258,-0.1856504678726196,-0.2923511564731598,0.0,0.0,-0.254143476486206,-0.8542240262031555
-0.0511186607182025,1.1865427494049072,-0.2574264705181122,-0.5436704754829407,-0.198692038655281,-0.2608546614646911,0.0,0.0,-0.074406623840332,-0.3715660572052002
-0.0538704879581928,1.1740577220916748,-0.2624936401844024,-0.5566497445106506,-0.2115037888288498,-0.256257563829422,0.0,0.0,0.1172759532928466,-0.5841235518455505
-0.0567225441336631,1.161970138549805,-0.2737776935100555,-0.5389050841331482,-0.2230780720710754,-0.2315065860748291,0.0,0.0,0.0329290628433227,-0.8198047876358032
-0.0596835128962993,1.150275707244873,-0.2865116000175476,-0.5212331414222717,-0.2327931076288223,-0.1943003535270691,0.0,0.0,-0.6821774244308472,-0.4669893980026245
-0.0626750960946083,1.1382901668548584,-0.289810836315155,-0.5341989994049072,-0.2422842383384704,-0.1898225545883178,0.0,0.0,0.0460094213485717,-0.8142256140708923
-0.0657203644514083,1.1268402338027954,-0.2970162630081177,-0.510147213935852,-0.2499288618564605,-0.152892380952835,0.0,0.0,-0.2214366793632507,-0.5495680570602417
-0.0688338279724121,1.1151224374771118,-0.305399626493454,-0.5218192338943481,-0.2559990286827087,-0.1214035898447036,0.0,0.0,-0.2079925537109375,0.6025738716125488
-0.071914866566658,1.103093147277832,-0.3012190163135528,-0.53585284948349,-0.2630304396152496,-0.1406280398368835,0.0,0.0,-0.1468363404273986,0.0599709749221801
-0.0750008597970008,1.0907721519470217,-0.301934152841568,-0.5488146543502808,-0.2698475122451782,-0.1363414525985717,0.0,0.0,-0.5437121987342834,-0.1139917969703674
-0.0780851393938064,1.078159213066101,-0.3019930124282837,-0.5617761015892029,-0.2764529287815094,-0.1321085095405578,0.0,0.0,0.2302027940750122,-0.5319707989692688
-0.0811025649309158,1.0661652088165283,-0.2964327335357666,-0.534081757068634,-0.2819025814533233,-0.1089932098984718,0.0,0.0,0.5307683944702148,0.3180063962936401
-0.0840691551566124,1.0543851852416992,-0.291300505399704,-0.5245987772941589,-0.2874194085597992,-0.1103362888097763,0.0,0.0,0.1600942611694336,0.0052210092544555
-0.0868791565299034,1.0429420471191406,-0.2758901715278625,-0.5096077919006348,-0.2926801741123199,-0.1052153930068016,0.0,0.0,0.0279861688613891,0.3843858242034912
-0.0895154029130935,1.031877517700195,-0.2587729692459106,-0.4927355349063873,-0.2976882755756378,-0.1001612097024917,0.0,0.0,0.1542177200317382,-0.8320799469947815
-0.0921090096235275,1.0210111141204834,-0.2563280165195465,-0.4835748970508575,-0.3008219003677368,-0.0626724287867546,0.0,0.0,0.5984952449798584,-0.2375697493553161
-0.0944102257490158,1.0108911991119385,-0.2274428158998489,-0.4503330290317535,-0.3035903871059418,-0.0553698763251304,0.0,0.0,-0.0413047075271606,-0.0109648704528808
-0.0966667160391807,1.000478982925415,-0.2231630384922027,-0.4632912576198578,-0.3061668276786804,-0.0515288598835468,0.0,0.0,0.7291082143783569,-0.1201363801956176
-0.0986531227827072,0.9906708598136902,-0.1964676082134246,-0.4363758862018585,-0.3084171712398529,-0.0450066104531288,0.0,0.0,0.6562590599060059,-0.6151918172836304
-0.1005023941397667,0.981765627861023,-0.1838865429162979,-0.3960115313529968,-0.3094952702522278,-0.0215619001537561,0.0,0.0,0.9079532623291016,-0.3998074531555176
-0.1019713431596756,0.9733664989471436,-0.1466700732707977,-0.3733393549919128,-0.3097299635410309,-0.0046941344626247,0.0,0.0,0.563511848449707,0.0299683809280395
-0.1031970977783203,0.9650570750236512,-0.1229363456368446,-0.3692335784435272,-0.3093577623367309,0.0074441009201109,0.0,0.0,0.3403904438018799,-0.5341276526451111
-0.1041795760393142,0.9570462107658386,-0.1000147685408592,-0.3556624054908752,-0.3075262308120727,0.036631166934967,0.0,0.0,0.1094182729721069,-0.8106541633605957
-0.1051211357116699,0.9490601420402528,-0.0976730212569236,-0.3542031943798065,-0.303891658782959,0.0726912394165992,0.0,0.0,0.4962440729141235,-0.402938961982727
-0.1058545112609863,0.9411963224411012,-0.0772076398134231,-0.3487032353878021,-0.2998901903629303,0.0800294354557991,0.0,0.0,0.0227113962173461,-0.819510281085968
-0.1064446419477462,0.9334415197372437,-0.0646702498197555,-0.3435020446777344,-0.2940481603145599,0.1168409809470176,0.0,0.0,-0.0759220123291015,0.1150847673416137
-0.1069494262337684,0.925394892692566,-0.0563117675483226,-0.3564631044864654,-0.2880361676216125,0.1202396899461746,0.0,0.0,-0.580795168876648,-0.1601717472076416
-0.1073655113577842,0.917056441307068,-0.0476212278008461,-0.3694244623184204,-0.2818564474582672,0.1235946416854858,0.0,0.0,-0.6355324983596802,0.3222919702529907
-0.1076899543404579,0.9084262847900392,-0.0386208556592464,-0.3823861479759216,-0.2755111157894134,0.1269068419933319,0.0,0.0,-0.8570393323898315,-0.1118802428245544
-0.1079197898507118,0.8995043635368347,-0.0293319262564182,-0.3953481018543243,-0.269002228975296,0.1301771849393844,0.0,0.0,-0.8835968375205994,0.1617510318756103
-0.10805244743824,0.8902906775474548,-0.0197746884077787,-0.4083103835582733,-0.2623319029808044,0.1334064304828643,0.0,0.0,-0.9281659722328186,0.1510263681411743
-0.1080851554870605,0.8807855248451233,-0.0099683450534939,-0.4212729036808014,-0.2555021643638611,0.1365951597690582,0.0,0.0,-0.9795024394989014,-0.1866669058799743
-0.1080159172415733,0.8709887862205505,6.897711136844009e-05,-0.4342358410358429,-0.2485149651765823,0.1397437751293182,0.0,0.0,-0.9712802171707152,0.1958342790603637
-0.1078425422310829,0.8609005808830261,0.0103202126920223,-0.4471990168094635,-0.2413723170757293,0.1428525447845459,0.0,0.0,-0.9913712739944458,-0.0857253074645996
-0.1075630187988281,0.85052090883255,0.0207693520933389,-0.4601625502109527,-0.2340762466192245,0.1459214985370636,0.0,0.0,-0.9723859429359436,-0.0324997305870056
-0.1071755439043045,0.8398497104644775,0.0314014069736003,-0.4731264114379883,-0.2266287058591842,0.1489506214857101,0.0,0.0,-0.9804475903511048,0.5832788944244385
-0.106622889637947,0.8288702368736267,0.0491771437227726,-0.4870546460151672,-0.2204746305942535,0.1230817809700965,0.0,0.0,-0.983359396457672,-0.5854469537734985
-0.1059977561235427,0.8176184296607971,0.0552518963813781,-0.4990132451057434,-0.2131358534097671,0.1467756628990173,0.0,0.0,-0.9920802116394044,-0.3320907354354858
-0.1052599921822547,0.8060753345489502,0.0663526207208633,-0.51197749376297,-0.2056516855955124,0.1496832966804504,0.0,0.0,-0.9846343398094176,-0.3841880559921264
-0.1044085472822189,0.7942410111427307,0.0775857716798782,-0.5249421000480652,-0.1980242282152176,0.1525488495826721,0.0,0.0,-0.9624629020690918,-0.2100392580032348
-0.103441908955574,0.7821153998374939,0.0889408439397811,-0.5379070043563843,-0.1902556717395782,0.1553712040185928,0.0,0.0,-0.9851205348968506,-0.4458744525909424
-0.1023590117692947,0.769698441028595,0.1004081219434738,-0.5508722066879272,-0.1823482364416122,0.1581490635871887,0.0,0.0,-0.9984099268913268,-0.4530847668647766
-0.1011589989066124,0.756990373134613,0.1119785532355308,-0.5638377666473389,-0.1743041425943374,0.1608819961547851,0.0,0.0,-0.9938795566558838,-0.692783772945404
-0.0998947173357009,0.7440004348754883,0.1168968677520752,-0.5762428641319275,-0.1647585481405258,0.1909122765064239,0.0,0.0,-0.9686298370361328,-0.31203293800354
-0.0985114127397537,0.7307198643684387,0.1286485642194748,-0.589211106300354,-0.1550812423229217,0.1935460269451141,0.0,0.0,-0.9312067031860352,-0.6656914353370667
-0.0970577225089073,0.7171680331230164,0.1342609077692031,-0.601182222366333,-0.1439860165119171,0.2219045907258987,0.0,0.0,-0.9472442269325256,0.4591965675354004
-0.0954833999276161,0.7033261656761169,0.1461650133132934,-0.6141534447669983,-0.1327645033597946,0.2244307100772857,0.0,0.0,-0.9748048782348632,-0.4552459716796875
-0.0937880501151084,0.6891939640045166,0.1581360399723053,-0.6271249055862427,-0.1214195415377616,0.2268993407487869,0.0,0.0,-0.915267288684845,-0.4042047262191772
-0.0919710174202919,0.6747715473175049,0.1701682060956955,-0.6400968432426453,-0.10995414853096,0.2293076515197754,0.0,0.0,-0.7997891902923584,-0.3057067394256592
-0.0900317206978797,0.6600591540336609,0.182256132364273,-0.6530691981315613,-0.0983715131878852,0.2316526919603347,0.0,0.0,-0.7019205689430237,-0.5763013958930969
-0.0880126953125,0.6450644135475159,0.1889977753162384,-0.6656383275985718,-0.0855843871831893,0.2557424902915954,0.0,0.0,-0.731764018535614,-0.5545539855957031
-0.0859232917428016,0.629793107509613,0.1945571601390838,-0.6779579520225525,-0.0713438093662262,0.2848116159439087,0.0,0.0,-0.831350564956665,0.448091983795166
-0.0837103873491287,0.6142328977584839,0.2067827433347702,-0.6909367442131042,-0.056996650993824,0.286943256855011,0.0,0.0,-0.7273128628730774,0.6088056564331055
-0.0813285857439041,0.5983747839927673,0.2247256785631179,-0.7043435573577881,-0.0436916761100292,0.2660994231700897,0.0,0.0,-0.4140760898590088,0.289555549621582
-0.0788226127624511,0.5822274684906006,0.23702272772789,-0.7173203229904175,-0.0302881561219692,0.2680705487728119,0.0,0.0,-0.607833981513977,0.2412226200103759
-0.0761924758553505,0.5657907724380493,0.2493496835231781,-0.7302975058555603,-0.0167904403060674,0.2699541747570038,0.0,0.0,0.0107078552246093,-0.2350580692291259
-0.0734347328543663,0.5497927665710449,0.2620315551757812,-0.7109247446060181,-0.0032268904615193,0.2712709009647369,0.0,0.0,-0.5270728468894958,0.3497285842895508
-0.0705523490905761,0.5335055589675903,0.2744080126285553,-0.7239024639129639,0.0104213170707225,0.2729643583297729,0.0,0.0,-0.3263018131256103,-0.1843181848526001
-0.0675452202558517,0.5169291496276855,0.2868043780326843,-0.7368805408477783,0.0241490416228771,0.2745545506477356,0.0,0.0,-0.0573066473007202,-0.402834415435791
-0.0644133538007736,0.5000637173652649,0.2992176413536072,-0.7498589158058167,0.0379508323967456,0.2760356366634369,0.0,0.0,-0.0010872483253479,-0.4943637251853943
-0.0611565597355365,0.4829092025756836,0.3116448521614074,-0.7628375291824341,0.0518209226429462,0.2774015665054321,0.0,0.0,0.5699715614318848,-0.6763021349906921
-0.0579616539180278,0.4662726521492004,0.3042523860931396,-0.7399963736534119,0.0668800175189971,0.3011820018291473,0.0,0.0,0.3358477354049682,0.0669841766357421
-0.0547226890921592,0.4501633644104004,0.3088231682777405,-0.7167109251022339,0.0817898213863372,0.2981964647769928,0.0,0.0,0.4245145320892334,0.0018242597579956
-0.0514184944331646,0.4346654415130615,0.3153721988201141,-0.6896848082542419,0.0967009514570236,0.2982229888439178,0.0,0.0,0.5903050899505615,-0.1913259029388427
-0.0479599945247173,0.4197272360324859,0.3303854465484619,-0.664990246295929,0.1120422855019569,0.306826651096344,0.0,0.0,0.4104993343353271,-0.4614254236221313
-0.0443894378840923,0.4049395322799682,0.3414917588233948,-0.6584682464599609,0.1275117546319961,0.3093897700309753,0.0,0.0,0.7231844663619995,-0.4395050406455993
-0.0406518951058387,0.3905068337917328,0.3577540516853332,-0.6428988575935364,0.1434555798768997,0.3188763856887817,0.0,0.0,0.8845092058181763,0.0282506942749023
-0.036717128008604,0.3767890930175781,0.376724898815155,-0.6113795638084412,0.1601943224668502,0.3347746133804321,0.0,0.0,0.3365321159362793,0.1901087760925293
-0.0325977317988872,0.3632829189300537,0.3946905136108398,-0.6022243499755859,0.177464872598648,0.3454108238220215,0.0,0.0,0.507564902305603,-0.0855426788330078
-0.0284806247800588,0.3504997789859772,0.3945385813713074,-0.5702852010726929,0.1947129219770431,0.3449609279632568,0.0,0.0,0.2074886560440063,0.0712906122207641
-0.0243250839412212,0.3382513225078583,0.3983486294746399,-0.5467322468757629,0.212057963013649,0.3469007313251495,0.0,0.0,0.6858196258544922,-0.2368263006210327
-0.0200653076171875,0.3267534375190735,0.4082708954811096,-0.5136577486991882,0.2299737781286239,0.3583159446716308,0.0,0.0,0.2019965648651123,-0.0665016770362854
-0.015665341168642,0.3153399527072906,0.4220548570156097,-0.5101668238639832,0.2482023239135742,0.3645710349082947,0.0,0.0,0.4643586874008178,-0.6177785396575928
-0.0113499639555811,0.3042572736740112,0.4125928878784179,-0.4958827197551727,0.2675374448299408,0.3867020905017853,0.0,0.0,0.4495202302932739,0.7448205947875977
-0.0069780349731445,0.2940468788146972,0.4197375178337097,-0.4570878446102142,0.2854404747486114,0.358061134815216,0.0,0.0,0.4292731285095215,-0.0523891448974609
-0.0026424408424645,0.284248799085617,0.4163455367088318,-0.4389394223690033,0.3031933903694153,0.3550585806369781,0.0,0.0,0.773993730545044,-0.2892410159111023
0.0014318466419354,0.2753256261348724,0.3909749388694763,-0.4001117348670959,0.3202610909938812,0.3413539528846741,0.0,0.0,0.765918493270874,-0.3090615272521972
0.0054804803803563,0.267220139503479,0.3881616294384002,-0.3640350103378296,0.3376812934875488,0.3484042882919311,0.0,0.0,0.802337646484375,-0.1492209434509277
0.0093232151120901,0.2599557042121887,0.3680087327957153,-0.3267641365528106,0.35474294424057,0.3412333130836487,0.0,0.0,0.812873363494873,-0.7709460258483887
0.0128490449860692,0.2534807920455932,0.3352308273315429,-0.292170912027359,0.3730784952640533,0.3667106330394745,0.0,0.0,0.9131864309310912,-0.2668699026107788
0.0162569992244243,0.2475076019763946,0.3237865269184112,-0.2700237929821014,0.3911711573600769,0.3618530929088592,0.0,0.0,0.6397116184234619,-0.5586901903152466
0.0194002147763967,0.2419782429933548,0.2967660129070282,-0.2506881356239319,0.409984678030014,0.3762703537940979,0.0,0.0,0.544745683670044,0.5262137651443481
0.0223657600581645,0.2367676049470901,0.2806065678596496,-0.2363007217645645,0.4272005558013916,0.3443180322647095,0.0,0.0,0.1829907894134521,0.1277215480804443
0.0253042224794626,0.2320177406072616,0.2778356671333313,-0.2160628736019134,0.4446266591548919,0.348522275686264,0.0,0.0,-0.2283771634101867,-0.0067132115364074
0.0283591262996196,0.2269790470600128,0.2897409796714782,-0.2290429770946502,0.4619022011756897,0.345511257648468,0.0,0.0,-0.0511422753334045,0.0426687002182006
0.0315295234322547,0.2216511815786361,0.3015787899494171,-0.2420219480991363,0.4790175259113312,0.3423062860965729,0.0,0.0,0.4610946178436279,0.6381020545959473
0.0345214828848838,0.2169711887836456,0.285257875919342,-0.2129030525684356,0.4945723116397857,0.3110955655574798,0.0,0.0,0.1239556074142456,-0.389501690864563
0.0374369621276855,0.2128379493951797,0.2774944007396698,-0.1888370513916015,0.5103973150253296,0.3165004253387451,0.0,0.0,-0.1894332766532898,-0.513401985168457
0.0404350273311138,0.2083894163370132,0.2852029800415039,-0.2032606750726699,0.5269826650619507,0.331707239151001,0.0,0.0,-0.0366833806037902,0.0663871765136718
0.0435451492667198,0.2036509811878204,0.2967154085636139,-0.2162349075078964,0.5433722138404846,0.3277910351753235,0.0,0.0,0.3318865299224853,-0.3884013295173645
0.0464797988533973,0.1994756758213043,0.2792966663837433,-0.1913696080446243,0.5597842335700989,0.3282405734062195,0.0,0.0,0.1165165901184082,-0.4706382751464844
0.0494059547781944,0.1954475045204162,0.2785557508468628,-0.1850007623434066,0.57623690366745,0.3290535509586334,0.0,0.0,-0.1525039672851562,0.3624621629714966
0.0524407401680946,0.1911290735006332,0.2897591292858124,-0.1979723870754242,0.5924714207649231,0.3246894478797912,0.0,0.0,0.1087286472320556,0.0056909322738647
0.0553188323974609,0.1868778020143509,0.2747441232204437,-0.1948940753936767,0.6080827116966248,0.3122257590293884,0.0,0.0,-0.0241160988807678,0.7469468116760254
0.0583492293953895,0.1823831349611282,0.2916028797626495,-0.2051481753587722,0.6219078898429871,0.2765032649040222,0.0,0.0,0.0862690210342407,0.3884236812591553
0.0612943656742572,0.1780395358800888,0.2833160758018493,-0.1984750628471374,0.6355754137039185,0.2733510136604309,0.0,0.0,0.2275146245956421,0.5707395076751709
0.064308263361454,0.1738568693399429,0.2913486361503601,-0.1908950209617614,0.6479489207267761,0.2474706172943115,0.0,0.0,0.1727867126464843,0.456460952758789
-999.0,0.1700254529714584,0.2778420448303222,-0.175400510430336,0.660395622253418,0.2489345073699951,0.0,0.0,-0.468086838722229,0.9731767177581788
0.0702242851257324,0.1659809648990631,0.295802354812622,-0.1839045882225036,0.6703581213951111,0.1992495208978653,0.0,0.0,-0.3675302267074585,0.8198637962341309
0.0734200477600097,0.1617018729448318,0.3134498000144958,-0.193440705537796,0.6780944466590881,0.1547260582447052,0.0,0.0,-0.1509609222412109,0.6845802068710327
