x_pos,y_pos,x_vel,y_vel,angle,ang_vel,leg_1,leg_2,main_booster,lat_booster
-0.0015230178833007,1.403118371963501,-0.1542660892009735,-0.3467465043067932,0.0017586811445653,0.034691222012043,0.0,0.0,0.1450112382023116,-0.5275386457814318
-0.0030481338035315,1.395310640335083,-0.1553677916526794,-0.347018152475357,0.0045850188471376,0.0565329566597938,0.0,0.0,-0.7525403393954442,-0.8128941927674854
-0.0046225548721849,1.3869900703430176,-0.161554217338562,-0.369823545217514,0.0086466502398252,0.0812402367591857,0.0,0.0,0.867979082110798,0.7211900953992925
-0.0062908171676099,1.3790072202682495,-0.1691071689128875,-0.3548081815242767,0.0108997467905282,0.0450660847127437,0.0,0.0,-0.9088108829952544,-0.6720311503601517
-0.0080005647614598,1.370519518852234,-0.1742861717939376,-0.3772557973861694,0.0141820404678583,0.0656520873308181,0.0,0.0,0.8501528708655708,-0.9522112488759964
-0.0096229556947946,1.3624390363693235,-0.1677605360746383,-0.3591976463794708,0.0196355450898408,0.109079971909523,0.0,0.0,0.8781303175185453,-0.899199907136457
-0.0113574983552098,1.3548344373703003,-0.1806968450546264,-0.3380992114543915,0.0267922449856996,0.1431474983692169,0.0,0.0,0.264836185528325,-0.7655945419664427
-0.0130367279052734,1.3474719524383545,-0.176843449473381,-0.3274028599262237,0.0356134884059429,0.1764412820339203,0.0,0.0,0.8630303764131919,-0.980982473039788
-0.0148427011445164,1.3410249948501587,-0.1914342939853668,-0.2868288159370422,0.0463281497359275,0.2143131494522094,0.0,0.0,0.2812817476297766,-0.6007012177284216
-0.0167237278074026,1.334917664527893,-0.2001020461320877,-0.2718454301357269,0.0582080520689487,0.2376196384429931,0.0,0.0,0.3479728773673431,0.8776958717286655
-0.0184849742799997,1.3290457725524902,-0.1864102631807327,-0.2614009976387024,0.0684077888727188,0.2040132731199264,0.0,0.0,-0.7576101555754111,-0.872693214297025
-0.0203077308833599,1.3226611614227295,-0.1940819919109344,-0.2843349277973175,0.080113373696804,0.2341326773166656,0.0,0.0,0.3005466317514151,0.936422281130624
-0.0219844821840524,1.316623330116272,-0.177649587392807,-0.2689143121242523,0.0900150015950203,0.1980505287647247,0.0,0.0,-0.6404183875801692,0.5202932150154077
-0.0236166957765817,1.3100814819335938,-0.1720160096883773,-0.2912963628768921,0.0987415537238121,0.1745468974113464,0.0,0.0,-0.7524068728118991,0.5784351089689407
-0.0251949317753314,1.303048610687256,-0.1651492416858673,-0.3130671679973602,0.1060213521122932,0.1456093788146972,0.0,0.0,-0.0911884236427476,-0.9773679346705147
-0.0268366821110248,1.2954890727996826,-0.1730776727199554,-0.3366345167160034,0.1148715317249298,0.1770197302103042,0.0,0.0,-0.1526120705330387,0.8542691148991957
-0.0283988956362009,1.287448167800903,-0.1629853099584579,-0.3579047620296478,0.1216004341840744,0.1345901042222976,0.0,0.0,-0.955933521325846,-0.8847139408069267
-0.0300154685974121,1.2788845300674438,-0.1697373390197754,-0.381278932094574,0.1296540349721908,0.1610868722200393,0.0,0.0,0.1583153115877948,0.8769635028332089
-0.0315605178475379,1.2706897258758545,-0.1608337610960006,-0.3647823929786682,0.1359641700983047,0.1262143403291702,0.0,0.0,-0.860592991747678,0.7595646733078154
-0.0330564491450786,1.2619991302490234,-0.1545698195695877,-0.3867165744304657,0.140935942530632,0.0994443446397781,0.0,0.0,0.9035654335396844,-0.8917842821385846
-0.034586526453495,1.254114866256714,-0.1600479185581207,-0.3510852456092834,0.1479675471782684,0.1406448185443878,0.0,0.0,-0.7681626460647113,-0.8277760267171658
-0.0361822135746479,1.24570631980896,-0.1682040989398956,-0.3745943605899811,0.1565952599048614,0.1725696176290512,0.0,0.0,-0.2799040351070967,0.5698257275171364
-0.0377267822623252,1.2368042469024658,-0.1616712510585785,-0.3964139819145202,0.1638107746839523,0.1443233340978622,0.0,0.0,0.4876868011683719,0.700381682785483
-0.039196491241455,1.2278352975845337,-0.1528774052858352,-0.3992738127708435,0.1697320938110351,0.1184374094009399,0.0,0.0,-0.7858715827759784,0.9782534283101572
-0.0406115539371967,1.2183781862258911,-0.1458829641342163,-0.4208234548568725,0.1741275042295456,0.0879159569740295,0.0,0.0,0.0654570943897066,0.7347105190437222
-0.0421557426452636,1.2090555429458618,-0.157226949930191,-0.4146722555160522,0.1769434213638305,0.0563184916973114,0.0,0.0,-0.1806283781826545,-0.9008572699144396
-0.0437736511230468,1.1992137432098389,-0.1663553416728973,-0.4379639327526092,0.1815245151519775,0.0916217789053917,0.0,0.0,-0.415504872257284,-0.8358991883602048
-0.0454752929508686,1.1888530254364014,-0.1767255514860153,-0.4612959623336792,0.1881145238876342,0.1318001449108123,0.0,0.0,0.5354279007042195,-0.97684440709993
-0.0475276932120323,1.1789952516555786,-0.2135831415653228,-0.4392082989215851,0.1964976489543914,0.1676624715328216,0.0,0.0,0.9340867739029532,-0.7381213270263289
-0.049778651446104,1.1694444417953491,-0.2347916364669799,-0.4258011281490326,0.2062776684761047,0.1956000179052353,0.0,0.0,-0.8266908168160778,0.6284720135864498
-0.0519845969974994,1.159411072731018,-0.2289678156375885,-0.4471154808998108,0.2147241532802581,0.1689303368330001,0.0,0.0,-0.8948202729225159,0.9982345104217528
-0.0541270263493061,1.1488887071609497,-0.2208470553159713,-0.4686416089534759,0.2214004844427108,0.1335268020629882,0.0,0.0,-0.9770439267158508,0.9995895624160768
-0.0562088973820209,1.1378918886184692,-0.213039830327034,-0.4894775152206421,0.2263074666261673,0.0981397330760955,0.0,0.0,-0.957234501838684,0.997962236404419
-0.0582254417240619,1.1264041662216189,-0.2046992480754852,-0.5110401511192322,0.2293989360332489,0.0618290081620216,0.0,0.0,-0.9213586449623108,0.9839744567871094
-0.0601692199707031,1.1144393682479858,-0.195403054356575,-0.5319241881370544,0.2304273098707199,0.0205679070204496,0.0,0.0,-0.960996150970459,0.995102047920227
-0.0620404258370399,1.102003574371338,-0.1860656887292862,-0.5525446534156799,0.2293589115142822,-0.0213676895946264,0.0,0.0,-0.9958558678627014,0.9974374771118164
-0.0638424903154373,1.0890820026397705,-0.1772399395704269,-0.5738233327865601,0.2263479679822921,-0.0602187626063823,0.0,0.0,-0.991904079914093,0.9972050189971924
-0.0655694976449012,1.0756902694702148,-0.1675845384597778,-0.5944095849990845,0.2211711704730987,-0.1035358533263206,0.0,0.0,-0.9959229230880736,0.9973303079605104
-0.0672317519783973,1.0618280172348022,-0.1592188775539398,-0.6150707006454468,0.2140856087207794,-0.1417112648487091,0.0,0.0,-0.9684070348739624,0.9953134059906006
-0.0688193291425705,1.047487735748291,-0.1496430188417434,-0.6360476613044739,0.2048797905445099,-0.1841165721416473,0.0,0.0,-0.973239541053772,0.984107255935669
-0.0703513175249099,1.032670497894287,-0.1424137353897094,-0.6570967435836792,0.1940183937549591,-0.2172280848026275,0.0,0.0,-0.9506656527519226,0.9074251651763916
-0.0718042403459549,1.0173717737197876,-0.1322758346796035,-0.6782938838005066,0.1809412986040115,-0.2615419328212738,0.0,0.0,-0.957721710205078,0.6276984214782715
-0.073205754160881,1.0015780925750732,-0.1256267577409744,-0.7002367377281189,0.1663858145475387,-0.2911097705364227,0.0,0.0,-0.888144850730896,-0.2233234047889709
-0.0746133774518966,0.9852809309959412,-0.1261930167675018,-0.7227481603622437,0.1518100798130035,-0.2915144562721252,0.0,0.0,-0.7913889288902283,0.0362018346786499
-0.0760274901986122,0.9684805870056152,-0.1267704963684082,-0.7452598214149475,0.1372146904468536,-0.2919079959392547,0.0,0.0,-0.8033800721168518,-0.3953306674957275
-0.0774477943778038,0.9511768221855164,-0.1273586004972458,-0.7677715420722961,0.1226002126932144,-0.292290061712265,0.0,0.0,-0.5762662291526794,-0.8834179043769836
-0.0789365768432617,0.9333532452583312,-0.1357422620058059,-0.7911393642425537,0.1095542758703231,-0.2609187364578247,0.0,0.0,-0.6782847046852112,-0.5786367654800415
-0.0804861038923263,0.9150226712226868,-0.1431726515293121,-0.8138701915740967,0.09785757958889,-0.2339338362216949,0.0,0.0,-0.3989335298538208,-0.8955634236335754
-0.0821287184953689,0.8961827158927917,-0.1546408534049987,-0.8367329239845276,0.0883193239569664,-0.190764918923378,0.0,0.0,0.8158283233642578,-0.4523645639419555
-0.0838502869009971,0.8776699900627136,-0.1624036133289337,-0.8222414255142212,0.078656680881977,-0.1932528167963028,0.0,0.0,-0.0888234376907348,-0.5406359434127808
-0.0856108665466308,0.8586483597755432,-0.1671121418476104,-0.8449640870094299,0.0697982460260391,-0.1771687567234039,0.0,0.0,0.2263801097869873,-0.2893507480621338
-0.0874588936567306,0.8399355411529541,-0.1756269037723541,-0.8312861919403076,0.0607266090810298,-0.1814327836036682,0.0,0.0,0.3169761896133423,0.3669712543487549
-0.0892479866743087,0.8212561011314392,-0.1701301634311676,-0.8298690319061279,0.0520432516932487,-0.1736670881509781,0.0,0.0,0.3067623376846313,-0.0374374985694885
-0.0910740867257118,0.8030167818069458,-0.1738188564777374,-0.8103557229042053,0.0433574542403221,-0.1737157106399536,0.0,0.0,-0.5529165863990784,-0.4930434226989746
-0.0929067581892013,0.7842723727226257,-0.17447230219841,-0.8328562378883362,0.0346582792699337,-0.1739836931228637,0.0,0.0,-0.3288151621818542,0.5851602554321289
-0.0947072952985763,0.7650223970413208,-0.1702374070882797,-0.8553596138954163,0.0249674059450626,-0.1938173770904541,0.0,0.0,0.7316412925720215,0.2047756910324096
-0.0964368805289268,0.7465237379074097,-0.1635898351669311,-0.8220330476760864,0.0157203748822212,-0.184940755367279,0.0,0.0,0.7189685106277466,0.4574828147888183
-0.0980405807495117,0.7285758256912231,-0.1516673862934112,-0.797615110874176,0.0071262344717979,-0.1718825101852417,0.0,0.0,0.4213991165161133,-0.2065304517745971
-0.0995917320251464,0.7111861109733582,-0.1467049419879913,-0.7728644609451294,-0.0011810689466074,-0.1661463677883148,0.0,0.0,0.0430264472961425,-0.7061154842376709
-0.1012601852416992,0.6940412521362305,-0.1597873866558075,-0.7620086073875427,-0.0081388968974351,-0.1391567885875702,0.0,0.0,0.26558518409729,0.8699986934661865
-0.102819062769413,0.6768078804016113,-0.1471107900142669,-0.7660029530525208,-0.016801793128252,-0.1732580363750457,0.0,0.0,-0.4823002815246582,-0.4719260931015014
-0.1043846160173416,0.6590692400932312,-0.1477710902690887,-0.7885034680366516,-0.0254729893058538,-0.1734240800142288,0.0,0.0,-0.6262348890304565,-0.839302122592926
-0.1060095801949501,0.6408253908157349,-0.155054897069931,-0.810985803604126,-0.0328250974416732,-0.1470421254634857,0.0,0.0,0.8223540782928467,-0.3769782781600952
-0.1075930595397949,0.6230883002281189,-0.1510122418403625,-0.7884899973869324,-0.0400638170540332,-0.144774705171585,0.0,0.0,-0.0338546633720397,-0.6791626214981079
-0.1092361435294151,0.6048438549041748,-0.1583269834518432,-0.8110341429710388,-0.0459758676588535,-0.1182411313056945,0.0,0.0,0.9972935914993286,0.7906686067581177
-0.1109527572989463,0.5871719717979431,-0.1637033522129058,-0.7856827974319458,-0.0538353696465492,-0.1571899503469467,0.0,0.0,0.6338202953338623,-0.0700083971023559
-0.1126090064644813,0.5702607035636902,-0.1577657759189605,-0.7519155144691467,-0.0616013780236244,-0.1553201973438263,0.0,0.0,-0.2864415645599365,-0.6257743239402771
-0.1143144592642784,0.5528404712677002,-0.1637857556343078,-0.774526059627533,-0.068297229707241,-0.1339170932769775,0.0,0.0,0.7927780151367188,0.6232209205627441
-0.1158820167183876,0.5363000631332397,-0.1488126218318939,-0.7355128526687622,-0.0761555433273315,-0.157166451215744,0.0,0.0,0.364058256149292,-0.2090520858764648
-0.1175033599138259,0.5198477506637573,-0.1538386642932891,-0.7316576242446899,-0.0843759253621101,-0.1644074022769928,0.0,0.0,-0.0698294043540954,-0.0984956622123718
-0.1191308945417404,0.5028902888298035,-0.1544454246759414,-0.7541574835777283,-0.0925982668995857,-0.1644468605518341,0.0,0.0,0.8585505485534668,0.6281466484069824
-0.1206129044294357,0.4864623844623565,-0.1387455314397812,-0.7307387590408325,-0.1019774228334426,-0.1875834167003631,0.0,0.0,0.4776520729064941,0.4471962451934814
-0.1221384033560752,0.4706743955612182,-0.1425627470016479,-0.702400803565979,-0.1118902638554573,-0.1982570141553878,0.0,0.0,-0.1288889646530151,-0.5919065475463867
-0.1237104386091232,0.4543883204460144,-0.1482627391815185,-0.7245190739631653,-0.1207664236426353,-0.1775231063365936,0.0,0.0,0.0502662658691406,-0.5473461747169495
-0.1253248155117035,0.4379751980304718,-0.1535843908786773,-0.7301297783851624,-0.1285893768072128,-0.1564590632915496,0.0,0.0,0.1798921823501587,-0.5196447372436523
-0.1269034445285797,0.4213941395282745,-0.1511448472738266,-0.7375269532203674,-0.1352686136960983,-0.1335847675800323,0.0,0.0,0.9243028163909912,-0.5356333255767822
-0.1285149604082107,0.4049063622951507,-0.1554089039564132,-0.7333260178565979,-0.1409928053617477,-0.1144837290048599,0.0,0.0,0.8479655981063843,-0.4073811769485473
-0.1300160437822342,0.3892323076725006,-0.144330084323883,-0.6971790790557861,-0.1467583179473877,-0.1153101921081543,0.0,0.0,-0.0438674688339233,-0.682413637638092
-0.1315675675868988,0.3730696141719818,-0.1505669951438903,-0.7188036441802979,-0.1513345539569854,-0.0915244594216346,0.0,0.0,0.9726178646087646,0.1034015417098999
-0.1331090033054351,0.3578784465789795,-0.1489466875791549,-0.6757012605667114,-0.1565276980400085,-0.1038631647825241,0.0,0.0,0.4305800199508667,-0.5712613463401794
-0.1347756385803222,0.3426395654678345,-0.1623410880565643,-0.6777439117431641,-0.1608501523733139,-0.0864494666457176,0.0,0.0,0.8575489521026611,0.6635187864303589
-0.1362034827470779,0.3281923234462738,-0.1372603178024292,-0.6427050828933716,-0.1663732081651687,-0.1104611754417419,0.0,0.0,0.7184332609176636,-0.3683343529701233
-0.1376399993896484,0.3141511380672455,-0.1376563757658004,-0.6247370839118958,-0.1723797619342804,-0.1201310530304908,0.0,0.0,0.9040684700012208,0.2612699270248413
-0.1390084326267242,0.3007749915122986,-0.1305672377347946,-0.5952393412590027,-0.1786742508411407,-0.1258897185325622,0.0,0.0,0.1701078414916992,-0.0471637248992919
-0.1403006613254547,0.2876265048980713,-0.1229131445288658,-0.5851501822471619,-0.1850033104419708,-0.1265810430049896,0.0,0.0,0.7667386531829834,-0.8629990220069885
-0.1414471566677093,0.2748800814151764,-0.1102611646056175,-0.5670626163482666,-0.1894154101610183,-0.0882424265146255,0.0,0.0,0.7546151876449585,-0.433220624923706
-0.1425034552812576,0.2621562480926513,-0.1013583093881607,-0.5660573840141296,-0.193706065416336,-0.0858132019639015,0.0,0.0,0.8898401260375977,-0.4796286821365356
-0.1433694809675216,0.2495737671852111,-0.0828362703323364,-0.5597204566001892,-0.1975007206201553,-0.0758930668234825,0.0,0.0,0.972061038017273,-0.7975768446922302
-0.1439785957336425,0.237449899315834,-0.059158194810152,-0.5390737056732178,-0.1992672383785247,-0.0353303700685501,0.0,0.0,0.9945467710494996,-0.5281168222427368
-0.1443625390529632,0.2254755049943924,-0.0382208004593849,-0.5322158932685852,-0.1994373649358749,-0.0034025020431727,0.0,0.0,0.7233357429504395,-0.0857794284820556
-0.1445986777544021,0.2141489386558532,-0.0234209354966878,-0.5034288167953491,-0.199629470705986,-0.003842006670311,0.0,0.0,0.9895262718200684,-0.3739538192749023
-0.144618421792984,0.2036480456590652,-0.0019645628053694,-0.4667051434516907,-0.199643850326538,-0.0002876831276807,0.0,0.0,0.9722223281860352,-0.7459571957588196
-0.144381046295166,0.1937843114137649,0.021888930350542,-0.4381414651870727,-0.1977744400501251,0.0373880602419376,0.0,0.0,0.970489501953125,-0.5758724808692932
-0.1439876556396484,0.1839569211006164,0.035962525755167,-0.4363283216953277,-0.1943845003843307,0.0677988156676292,0.0,0.0,0.590423583984375,-0.7297961115837097
-0.143611341714859,0.1743757873773574,0.0329084806144237,-0.4252134263515472,-0.1896314024925232,0.0950618907809257,0.0,0.0,0.94693124294281,0.0285446643829345
-0.1429452002048492,0.1657584458589553,0.061414897441864,-0.3823374509811401,-0.1844120323657989,0.1043872684240341,0.0,0.0,0.3261114358901977,-0.6350663900375366
-0.1422644555568695,0.1573283076286316,0.0616365149617195,-0.373886227607727,-0.1779512166976928,0.129216194152832,0.0,0.0,-0.2430274486541748,-0.1859229803085327
-0.1415827721357345,0.1483926177024841,0.0617151036858558,-0.3963838815689087,-0.1714858561754226,0.1293070912361145,0.0,0.0,0.6876224279403687,0.144252061843872
-0.1406906098127365,0.139982134103775,0.0823500826954841,-0.3730204701423645,-0.1646050065755844,0.1376170665025711,0.0,0.0,0.5071393251419067,-0.6344959735870361
-0.139785960316658,0.1321090310811996,0.0824149698019027,-0.3490477800369262,-0.1565598994493484,0.1609022468328476,0.0,0.0,0.145015001296997,0.0341840982437133
-0.13885498046875,0.1245128735899925,0.08530855178833,-0.3368057012557983,-0.1487764865159988,0.1556679308414459,0.0,0.0,0.0813784599304199,-0.0911260247230529
-0.1378891915082931,0.1168986186385154,0.0888457745313644,-0.3376623690128326,-0.1410652995109558,0.1542236655950546,0.0,0.0,0.5794281959533691,-0.8365965485572815
-0.1370282173156738,0.1096738874912262,0.0768759027123451,-0.320250540971756,-0.1318707019090652,0.183891624212265,0.0,0.0,0.3230063915252685,-0.2455805540084839
-0.1362282782793045,0.1025915741920471,0.0713278129696846,-0.3140270113945007,-0.1232313960790634,0.1727859675884246,0.0,0.0,0.2964315414428711,0.9059286117553712
-0.1351885795593261,0.095817744731903,0.0970291122794151,-0.3004993200302124,-0.1163306161761283,0.1380155831575393,0.0,0.0,0.6045756340026855,-0.0206889510154724
-0.1340439766645431,0.0890620797872543,0.1072348356246948,-0.2997082471847534,-0.1091532111167907,0.143547773361206,0.0,0.0,0.4006948471069336,0.3564443588256836
-0.1327021569013595,0.0827453732490539,0.126380369067192,-0.2801939845085144,-0.1014066115021705,0.1549320966005325,0.0,0.0,0.1369414329528808,-0.4198006391525268
-0.1313170492649078,0.0767226293683052,0.1307814419269561,-0.2671728432178497,-0.0937330946326255,0.1534703522920608,0.0,0.0,0.3315132856369018,0.2291421890258789
-0.1297474801540374,0.0712069347500801,0.1486686021089553,-0.2446460425853729,-0.0855286195874214,0.1640893518924713,0.0,0.0,0.3291670083999634,-0.4017747044563293
-0.1280713975429535,0.0658751353621482,0.1590484976768493,-0.2365057468414306,-0.0770419165492057,0.1697340756654739,0.0,0.0,-0.0338436961174011,-0.6421612501144409
-0.1264400482177734,0.0600505918264389,0.153252899646759,-0.2583900094032287,-0.0672615990042686,0.1956061571836471,0.0,0.0,0.5383957624435425,0.21089768409729
-0.1246964484453201,0.0548130609095096,0.1641997396945953,-0.2323541045188903,-0.0572232827544212,0.2007664740085601,0.0,0.0,0.2300846576690673,-0.3034917116165161
-0.1228668242692947,0.0495767444372177,0.1725429892539978,-0.23235484957695,-0.0469115301966667,0.2062349617481231,0.0,0.0,0.346523642539978,-0.5806540846824646
-0.1211609840393066,0.0446029268205165,0.1592085063457489,-0.2207414805889129,-0.0356757268309593,0.2247159928083419,0.0,0.0,0.5879530906677246,0.1411952972412109
-0.1195532828569412,0.0398727990686893,0.1499765068292617,-0.2100034058094024,-0.0250164382159709,0.2131857872009277,0.0,0.0,0.6838626861572266,-0.2018068432807922
-0.1179453879594802,0.0355004407465457,0.1501130312681198,-0.1941809356212616,-0.0144654065370559,0.2110203206539154,0.0,0.0,0.5992270708084106,0.0645829439163208
-0.116296574473381,0.0313973054289817,0.1540800184011459,-0.1822869479656219,-0.0038058091886341,0.2131917923688888,0.0,0.0,0.613277792930603,0.6977908611297607
-0.114443302154541,0.0273087602108716,0.1756552755832672,-0.1817170083522796,0.0057463464327156,0.1910433918237686,0.0,0.0,0.5967607498168945,0.2721579074859619
-0.1124907508492469,0.0237073749303817,0.185143694281578,-0.1601280719041824,0.0157245937734842,0.1995650976896286,0.0,0.0,0.4830237627029419,0.1742939949035644
-0.1105179786682128,0.0206876378506422,0.1870694160461425,-0.1343428194522857,0.0257962327450513,0.2014327347278595,0.0,0.0,0.2480936050415039,-0.8271979689598083
