x_pos,y_pos,x_vel,y_vel,angle,ang_vel,leg_1,leg_2,main_booster,lat_booster
-0.001575183821842,1.4030394554138184,-0.1589720547199249,-0.350253701210022,0.0012997947633266,0.025605047121644,0.0,0.0,0.1988852726493122,-0.9808209068199784
-0.0032370567787438,1.3950941562652588,-0.1689242869615554,-0.3531302213668823,0.0040123132057487,0.0542562417685985,0.0,0.0,-0.6750712437023385,-0.6462784358619907
-0.0049931528046727,1.386558175086975,-0.1788423657417297,-0.3793832063674927,0.007210174575448,0.0639630034565925,0.0,0.0,0.2895086757243457,-0.9224486668849416
-0.0069879530929028,1.3780174255371094,-0.2039518803358078,-0.3796192705631256,0.0116363372653722,0.0885312557220459,0.0,0.0,-0.6868201594346379,-0.6667632114152255
-0.0090813636779785,1.3688929080963137,-0.2143454998731613,-0.4055758714675903,0.016587633639574,0.0990346819162368,0.0,0.0,0.6392542515065269,0.8905967338967757
-0.0110201835632324,1.3599960803985596,-0.1968360394239425,-0.3954522311687469,0.0195133779197931,0.0585201606154441,0.0,0.0,0.2851675391449453,-0.6499515455779259
-0.013098144903779,1.3511855602264404,-0.2114973962306976,-0.3916279971599579,0.0231772270053625,0.0732835531234741,0.0,0.0,-0.5994958793138756,0.741188329817839
-0.0151642803102731,1.341794729232788,-0.207949012517929,-0.4173967540264129,0.0244947262108325,0.0263523701578378,0.0,0.0,0.2203802265796139,-0.6374598863681268
-0.0173678398132324,1.3327502012252808,-0.2224270105361938,-0.4020107090473175,0.0265438500791788,0.0409864820539951,0.0,0.0,-0.3601568092338529,0.7256371218875897
-0.0195775032043457,1.3231271505355835,-0.2210710048675537,-0.4276931881904602,0.0266412086784839,0.0019472332205623,0.0,0.0,0.3171837115238134,-0.5923421107543114
-0.0218352321535348,1.313631296157837,-0.2267026156187057,-0.4220606088638305,0.0275573395192623,0.0183247067034244,0.0,0.0,0.915413231012996,-0.5812415093318377
-0.0241333954036235,1.304468870162964,-0.2316522598266601,-0.4072586297988891,0.0293639749288558,0.036135971546173,0.0,0.0,-0.4029193495138083,-0.7985138596831123
-0.0265472419559955,1.2947229146957395,-0.2439474612474441,-0.4332055747509002,0.0318975746631622,0.0506767220795154,0.0,0.0,0.5683302682298148,0.9594998244995008
-0.0288889892399311,1.2848953008651731,-0.2343817204236984,-0.4367802739143371,0.0321074053645134,0.004196940921247,0.0,0.0,0.4869430870107656,-0.5680010928521985
-0.0312299728393554,1.275605082511902,-0.2352668941020965,-0.4129198491573334,0.0332673527300357,0.0232007838785648,0.0,0.0,-0.5464970313193047,0.5928540777761129
-0.033584214746952,1.2657253742218018,-0.2346831262111663,-0.4390849471092224,0.0325260460376739,-0.014827293343842,0.0,0.0,-0.3511826780950124,-0.6716926247669297
-0.0360491760075092,1.255266189575195,-0.2462674677371978,-0.4648464918136596,0.0323045998811721,-0.0044292327947914,0.0,0.0,0.8310213403361619,-0.6871728249797041
-0.0384812355041503,1.2448441982269287,-0.2442784309387207,-0.4632269144058227,0.0333580635488033,0.0210713353008031,0.0,0.0,-0.728022391953753,0.7622945665939591
-0.0409148223698139,1.2338474988937378,-0.2421243488788604,-0.4887197315692901,0.0321465320885181,-0.024233192205429,0.0,0.0,-0.2286527834941221,-0.5978884605746037
-0.0434735305607318,1.2222625017166138,-0.2554975152015686,-0.5148766040802002,0.0317799896001815,-0.0073315217159688,0.0,0.0,-0.4638544557035251,-0.9139038929937436
-0.0461615547537803,1.21009624004364,-0.2693775296211242,-0.5407333374023438,0.032342467457056,0.0112506840378046,0.0,0.0,0.1400729189283673,-0.8026686976225326
-0.0489864349365234,1.197795271873474,-0.2841781675815582,-0.5467450022697449,0.0340089201927185,0.0333322025835514,0.0,0.0,-0.4059407869338332,0.5439711845358199
-0.0518325790762901,1.184911012649536,-0.2844746708869934,-0.5726356506347656,0.0338654033839702,-0.0028703291900455,0.0,0.0,-0.7375534224167217,-0.8920963465707243
-0.0548149123787879,1.1714282035827637,-0.299176424741745,-0.5992538928985596,0.0348002687096595,0.0186989624053239,0.0,0.0,0.3298290607508545,-0.9245219487577484
-0.0580944046378135,1.1581286191940308,-0.3301661908626556,-0.5911433100700378,0.0369878560304641,0.0437559075653553,0.0,0.0,0.2773652432077407,-0.5756937444562615
-0.0616376884281635,1.1450320482254028,-0.3569692969322204,-0.5821397304534912,0.0395914912223815,0.0520728826522827,0.0,0.0,0.2181401432459493,-0.8633974450086621
-0.0653428062796592,1.1321545839309692,-0.3743929266929626,-0.5724382996559143,0.0434329472482204,0.0768290013074874,0.0,0.0,0.9723760341386468,0.6783119001472329
-0.0692803412675857,1.1201679706573486,-0.3953637480735779,-0.5327821373939514,0.0450175888836383,0.0316927954554557,0.0,0.0,0.2604415361526768,0.9070439412325152
-0.0733641609549522,1.108486294746399,-0.4076019823551178,-0.5191654562950134,0.0442536585032939,-0.0152786914259195,0.0,0.0,-0.7720473008595163,-0.8462154363052695
-0.0775933265686035,1.0962114334106443,-0.4234408736228943,-0.5455633401870728,0.0447638109326362,0.0102032963186502,0.0,0.0,-0.4658611891660413,0.5020653850065968
-0.0818584412336349,1.083359718322754,-0.4255149960517883,-0.5711582899093628,0.0437792502343654,-0.0196911171078681,0.0,0.0,-0.6086828708648682,0.9847512245178224
-0.0861324295401573,1.0699214935302734,-0.4242119789123535,-0.5971649289131165,0.0406308956444263,-0.0629669651389122,0.0,0.0,-0.3163379430770874,0.987436294555664
-0.0904163345694542,1.0559115409851074,-0.4230283796787262,-0.622524619102478,0.0353331565856933,-0.1059549450874328,0.0,0.0,-0.6451811790466309,0.990025758743286
-0.0947072058916091,1.041311740875244,-0.4214895367622375,-0.6487196087837219,0.0278288908302783,-0.1500852853059768,0.0,0.0,-0.7731953263282776,0.987023115158081
-0.0989953055977821,1.0261332988739014,-0.4187164306640625,-0.6744466423988342,0.0178680624812841,-0.1992168128490448,0.0,0.0,-0.7119065523147583,0.986358642578125
-0.1032804474234581,1.0103808641433716,-0.4159364104270935,-0.700006902217865,0.0054528140462934,-0.2483048737049102,0.0,0.0,-0.9016119837760924,0.993335485458374
-0.1075676903128624,0.9940412640571594,-0.4138127267360687,-0.7262129187583923,-0.0092769963666796,-0.2945960462093353,0.0,0.0,-0.8658987283706665,0.9828908443450928
-0.1118496879935264,0.9771265983581544,-0.4107522070407867,-0.751960813999176,-0.0265019237995147,-0.3444985747337341,0.0,0.0,-0.5231082439422607,0.9828040599822998
-0.1161362677812576,0.959639608860016,-0.4089413285255432,-0.7776641249656677,-0.0459612533450126,-0.3891869187355041,0.0,0.0,0.3014085292816162,0.9469237327575684
-0.1203771606087684,0.9422852396965028,-0.4021126329898834,-0.7721236944198608,-0.0676888972520828,-0.4345534443855285,0.0,0.0,0.3562759160995483,0.9474273920059204
-0.1246771812438964,0.925320327281952,-0.4056949615478515,-0.7552699446678162,-0.0917608961462974,-0.4814402163028717,0.0,0.0,0.4062566757202148,0.98241925239563
-0.1288152635097503,0.90841543674469,-0.3872753977775574,-0.7531699538230896,-0.1180851384997367,-0.5264850854873657,0.0,0.0,0.4005099534988403,-0.0304388999938964
-0.1329163610935211,0.8913166522979736,-0.3836706578731537,-0.7622494101524353,-0.1443951874971389,-0.5262014865875244,0.0,0.0,0.8431441783905029,0.1993889808654785
-0.1368985176086425,0.8744940161705017,-0.372049480676651,-0.7504187226295471,-0.1705478727817535,-0.5230540037155151,0.0,0.0,0.879326581954956,0.1912693977355957
-0.1409447640180587,0.8576032519340515,-0.3780072927474975,-0.7539744973182678,-0.1972568929195404,-0.5341805815696716,0.0,0.0,0.8799285888671875,-0.2995117902755737
-0.1449398100376129,0.8406814336776733,-0.3729543089866638,-0.7558346390724182,-0.2240532487630844,-0.5359269380569458,0.0,0.0,0.921696662902832,0.2141978740692138
-0.1488243043422699,0.8239213824272156,-0.3620752990245819,-0.749115526676178,-0.2508364617824554,-0.5356640219688416,0.0,0.0,0.9143145084381104,-0.7510799765586853
-0.1527355164289474,0.8080726265907288,-0.3658022880554199,-0.7089252471923828,-0.2767140865325928,-0.5175524950027466,0.0,0.0,0.723633885383606,-0.5902590751647949
-0.1566819250583648,0.7929196357727051,-0.3700286149978637,-0.6783274412155151,-0.3020510673522949,-0.5067394971847534,0.0,0.0,0.3559908866882324,-0.6478258371353149
-0.1606439650058746,0.7778179049491882,-0.3727658689022064,-0.6762464046478271,-0.3263738751411438,-0.4864563345909118,0.0,0.0,0.3524401187896728,-0.5608946084976196
-0.1644488275051117,0.7627630233764648,-0.3583403825759887,-0.6742743253707886,-0.3495319783687591,-0.4631625711917877,0.0,0.0,0.7076737880706787,-0.7877960205078125
-0.1681826561689376,0.7482739686965942,-0.3526253700256347,-0.649158239364624,-0.3714226484298706,-0.4378126263618469,0.0,0.0,0.0185471773147583,-0.8232240676879883
-0.1718754768371582,0.7335774302482605,-0.3500872254371643,-0.6583022475242615,-0.3918345868587494,-0.4082385003566742,0.0,0.0,0.5270247459411621,-0.9172634482383728
-0.1754181832075119,0.7193706035614014,-0.3368268311023712,-0.6363312005996704,-0.4105317890644073,-0.3739444017410278,0.0,0.0,0.9286036491394044,-0.9451472163200378
-0.1786960661411285,0.7052924036979675,-0.3124157786369324,-0.6302499771118164,-0.4271285235881805,-0.3319340050220489,0.0,0.0,0.8724102973937988,-0.8273849487304688
-0.1819895803928375,0.6914727687835693,-0.3153239786624908,-0.6185422539710999,-0.4423899054527282,-0.3052275478839874,0.0,0.0,0.9326114654541016,-0.8249588012695312
-0.1848998069763183,0.6783062219619751,-0.2787664532661438,-0.5891088843345642,-0.4558097124099731,-0.2683963775634765,0.0,0.0,0.875516414642334,-0.8611467480659485
-0.1874451637268066,0.6655222773551941,-0.2441898137331009,-0.5716031789779663,-0.4672181904315948,-0.2281698286533355,0.0,0.0,0.9393582344055176,-0.9718061089515686
-0.189599797129631,0.6534439325332642,-0.207077145576477,-0.5396638512611389,-0.4765048325061798,-0.1857328116893768,0.0,0.0,0.8138618469238281,-0.9672951698303224
-0.1915715187788009,0.6420552134513855,-0.1904922574758529,-0.5084837675094604,-0.4839355647563934,-0.1486145257949829,0.0,0.0,0.9336416721343994,-0.9685583114624025
-0.1934169828891754,0.6306567192077637,-0.17976775765419,-0.5082842111587524,-0.4892702996730804,-0.1066945046186447,0.0,0.0,0.778815746307373,-0.9895623326301576
-0.1951439827680587,0.6198174357414246,-0.1696584522724151,-0.4828256964683532,-0.4926730096340179,-0.0680542960762977,0.0,0.0,0.9260258674621582,-0.9748712182044984
-0.1965750753879547,0.6091286540031433,-0.1421336978673935,-0.4754082560539245,-0.4937609732151031,-0.0217592120170593,0.0,0.0,0.8860340118408203,-0.9788691401481628
-0.1977755576372146,0.5988130569458008,-0.1209991797804832,-0.458130270242691,-0.4926938712596893,0.0213421396911144,0.0,0.0,0.7265673875808716,-0.9544394016265868
-0.1988967955112457,0.5885058641433716,-0.1149415001273155,-0.4570923149585724,-0.4895416498184204,0.0630449056625366,0.0,0.0,0.5055763721466064,-0.9714580774307252
-0.2000021934509277,0.5784708261489868,-0.1151966899633407,-0.4443590044975281,-0.4843444526195526,0.103943645954132,0.0,0.0,0.8158924579620361,-0.9778884649276732
-0.2007657587528228,0.5691440105438232,-0.0830372720956802,-0.4122005701065063,-0.476910650730133,0.1486758440732956,0.0,0.0,0.7760353088378906,-0.9237631559371948
-0.2014191597700119,0.5596235394477844,-0.0740474164485931,-0.4201630651950836,-0.467255562543869,0.1931020021438598,0.0,0.0,0.7254588603973389,-0.8824654817581177
-0.2017528563737869,0.5507468581199646,-0.0440248399972915,-0.3909845948219299,-0.4555080831050873,0.2349498569965362,0.0,0.0,0.7503700256347656,-0.8757113218307495
-0.2020770609378814,0.542076051235199,-0.0448373109102249,-0.3813779950141907,-0.4419034719467163,0.2720913887023926,0.0,0.0,0.1544485092163086,-0.4424970149993896
-0.2023040354251861,0.5335038304328918,-0.0351327061653137,-0.3771288692951202,-0.4283629655838012,0.2708098292350769,0.0,0.0,-0.1496526598930359,-0.576179563999176
-0.2026145011186599,0.5243752598762512,-0.0448493584990501,-0.4015864133834839,-0.413426399230957,0.2987312376499176,0.0,0.0,0.3465659618377685,-0.1909404993057251
-0.2027869671583175,0.5156715512275696,-0.0309502724558115,-0.3828930258750915,-0.3986934125423431,0.2946595847606659,0.0,0.0,0.6119673252105713,-0.0900213718414306
-0.2027145326137542,0.507121205329895,-0.0071459403261542,-0.3760541081428528,-0.3833232522010803,0.307402640581131,0.0,0.0,-0.0401749610900878,-0.1959128975868225
-0.2026794850826263,0.497987151145935,-0.011278667487204,-0.402063637971878,-0.3676248788833618,0.3139668703079223,0.0,0.0,0.5239365100860596,0.0999670028686523
-0.2025127410888672,0.4886554479598999,0.0011928947642445,-0.410852700471878,-0.3512864708900451,0.3267673850059509,0.0,0.0,0.1800267696380615,0.5008953809738159
-0.2022817581892013,0.4790693521499634,0.0082056811079382,-0.4224864244461059,-0.3356611132621765,0.3125073313713074,0.0,0.0,0.3500685691833496,0.452553391456604
-0.2018726766109466,0.4698210954666137,0.0255914032459259,-0.407553881406784,-0.3196770250797272,0.3196819424629211,0.0,0.0,0.048710823059082,0.2104452848434448
-0.2012784034013748,0.4607028067111969,0.043396383523941,-0.4018073678016662,-0.3030489385128021,0.3325613141059875,0.0,0.0,-0.626945972442627,0.5369347333908081
-0.2006730586290359,0.4509910047054291,0.0448751300573349,-0.4284548759460449,-0.2868780493736267,0.3234175145626068,0.0,0.0,0.2062488794326782,0.7882521152496338
-0.2000642269849777,0.4410550892353058,0.0463653095066547,-0.4388119876384735,-0.2719658613204956,0.2982439398765564,0.0,0.0,-0.4819141626358032,0.7237910032272339
-0.1994119584560394,0.4305168688297272,0.051728505641222,-0.4659183621406555,-0.2581542134284973,0.2762330770492553,0.0,0.0,0.1719858646392822,0.5856653451919556
-0.1987008154392242,0.4199991822242737,0.0583940334618091,-0.4652701318264007,-0.2451875656843185,0.2593329846858978,0.0,0.0,0.1753046512603759,0.658336877822876
-0.1978736817836761,0.4095981419086456,0.0708323866128921,-0.4603322446346283,-0.2331212610006332,0.2413258254528045,0.0,0.0,-0.2693065404891968,0.7809133529663086
-0.1969932615756988,0.3985953032970428,0.0771651118993759,-0.4873345196247101,-0.222096785902977,0.2204896658658981,0.0,0.0,0.1337568759918213,0.5140914916992188
-0.1959236115217209,0.3875564634799957,0.0964572057127952,-0.4890655279159546,-0.2114709615707397,0.2125164568424224,0.0,0.0,0.1838302612304687,0.6254673004150391
-0.1947353333234787,0.3762647211551666,0.1090064868330955,-0.5004777312278748,-0.2015587091445922,0.1982450038194656,0.0,0.0,0.1879656314849853,0.7201147079467773
-0.1933551728725433,0.3647683560848236,0.1290057450532913,-0.5097478628158569,-0.192482054233551,0.1815330535173416,0.0,0.0,0.4618431329727173,0.0193737745285034
-0.1917417496442794,0.3533933460712433,0.1511773765087127,-0.5042672753334045,-0.182264819741249,0.2043445408344268,0.0,0.0,-0.4489293098449707,0.4812841415405273
-0.1901156455278396,0.3414334058761596,0.1518738269805908,-0.5302690267562866,-0.1715012639760971,0.2152711898088455,0.0,0.0,0.2927206754684448,0.7790107727050781
-0.1883164346218109,0.3297485709190368,0.1701759845018386,-0.5182340145111084,-0.1617477536201477,0.1950703263282776,0.0,0.0,0.2459392547607422,0.5105061531066895
-0.1863395720720291,0.3183134198188782,0.1883289963006973,-0.5072380900382996,-0.1523989140987396,0.1869767755270004,0.0,0.0,-0.0229265093803405,-0.7552889585494995
-0.1843853890895843,0.3063070774078369,0.1842878609895706,-0.5325129628181458,-0.1412843167781829,0.2222921848297119,0.0,0.0,0.4765827655792236,0.5857095718383789
-0.1822201758623123,0.294112890958786,0.2057451754808426,-0.5409771203994751,-0.1305520683526992,0.2146448642015457,0.0,0.0,0.5117077827453613,-0.1381288766860962
-0.1800107061862945,0.2820367217063904,0.2098066359758377,-0.5357850193977356,-0.1194666996598243,0.2217073142528534,0.0,0.0,0.5644881725311279,0.077123999595642
-0.1775892227888107,0.2705786824226379,0.2300238609313964,-0.5083189606666565,-0.1074310466647148,0.2407131642103195,0.0,0.0,-0.2702780961990356,-0.4572569131851196
-0.1751295030117035,0.2585368454456329,0.2332633435726165,-0.5343272686004639,-0.094812087714672,0.2523789703845978,0.0,0.0,0.4010578393936157,-0.3124499320983886
-0.1726689338684082,0.2469336837530136,0.2332170456647873,-0.5149305462837219,-0.0820946767926216,0.2543485760688782,0.0,0.0,0.1198811531066894,0.4012987613677978
-0.1700656861066818,0.2354470342397689,0.2466088533401489,-0.5098199844360352,-0.0685149431228637,0.2715948224067688,0.0,0.0,-0.1202055811882019,-0.0808659195899963
-0.1674139946699142,0.223377376794815,0.2508335709571838,-0.535833477973938,-0.0543431863188743,0.283435046672821,0.0,0.0,0.7259587049484253,0.0466996431350708
-0.1647547781467437,0.2119036763906479,0.2513910830020904,-0.5094776749610901,-0.0399768650531768,0.2873262763023376,0.0,0.0,0.6722238063812256,0.6296522617340088
-0.1619983613491058,0.2005992084741592,0.2618198096752167,-0.5021083950996399,-0.0263319723308086,0.2728980779647827,0.0,0.0,0.7546944618225098,0.3333591222763061
-0.1592918336391449,0.1896746009588241,0.2568067908287048,-0.4853493273258209,-0.0126620102673769,0.2733989953994751,0.0,0.0,0.7824952602386475,0.4999183416366577
-0.1566805839538574,0.1790180802345276,0.2474295347929,-0.4735663831233978,0.0008567712502554,0.2703756690025329,0.0,0.0,0.841611385345459,0.5990242958068848
-0.1538337767124176,0.1689841151237487,0.2712472975254059,-0.4460133612155914,0.0141218993812799,0.2653024792671203,0.0,0.0,0.8153975009918213,0.5621330738067627
-0.1508112847805023,0.1589731127023697,0.2891338169574737,-0.4451037049293518,0.0270695406943559,0.2589529752731323,0.0,0.0,0.8517651557922363,-0.2730618715286255
-0.1475822478532791,0.1496687084436416,0.308421790599823,-0.413854718208313,0.0413725078105926,0.2860594391822815,0.0,0.0,0.6990557909011841,-0.4336016774177551
-0.1443404257297516,0.1409770548343658,0.3092098236083984,-0.3867786228656769,0.0561710372567176,0.2959706783294678,0.0,0.0,0.7329179048538208,0.062711477279663
-0.14092817902565,0.1330588161945343,0.3249556422233581,-0.3526091873645782,0.0722669884562492,0.3219190239906311,0.0,0.0,0.3662285804748535,0.0747660398483276
-0.1374144554138183,0.1252837032079696,0.3342192769050598,-0.3464760184288025,0.0892606675624847,0.3398734331130981,0.0,0.0,0.7167972326278687,-0.2093642950057983
-0.1339088380336761,0.1181948781013488,0.3328541219234466,-0.3162116110324859,0.1068262606859207,0.3513118624687195,0.0,0.0,0.5841602087020874,0.2362886667251587
-0.1303493529558181,0.1116617321968078,0.3373937308788299,-0.2917925417423248,0.1252680867910385,0.3688364624977112,0.0,0.0,0.2295269966125488,0.0177313089370727
-0.126694768667221,0.1050683557987213,0.3460376560688019,-0.2947839200496673,0.1445949673652649,0.38653764128685,0.0,0.0,-0.073025643825531,0.2085074186325073
-0.1229609474539756,0.0978962033987045,0.3534214198589325,-0.3208238184452057,0.1645300537347793,0.3987021148204803,0.0,0.0,0.3704915046691894,0.1531763076782226
-0.1193213462829589,0.0907512307167053,0.3439390361309051,-0.31989187002182,0.1845813989639282,0.4010270237922668,0.0,0.0,0.5733857154846191,0.3705880641937256
-0.1157188415527343,0.0838141068816185,0.3398170173168182,-0.310992568731308,0.2051470428705215,0.4113132059574127,0.0,0.0,0.647491455078125,-0.0792493820190429
-0.1121163368225097,0.0770884156227111,0.339169830083847,-0.3019842803478241,0.2264420241117477,0.4258996844291687,0.0,0.0,0.6457240581512451,-0.1046923398971557
-0.1083837524056434,0.0703531354665756,0.351094901561737,-0.3029079735279083,0.2489485591650009,0.4501303732395172,0.0,0.0,0.495969295501709,0.3337923288345337
-0.1046335250139236,0.063974343240261,0.3519828021526336,-0.2875776886940002,0.2724734246730804,0.4704978466033935,0.0,0.0,0.4484846591949463,0.5217182636260986
-0.1009268760681152,0.0580723397433757,0.3481663465499878,-0.2666707932949066,0.2956043779850006,0.4626188278198242,0.0,0.0,0.4278392791748047,0.5246492624282837
-0.0971150398254394,0.0520197004079818,0.3591307997703552,-0.2736457288265228,0.3184271156787872,0.4564549028873443,0.0,0.0,0.3360315561294555,0.4791653156280517
