x_pos,y_pos,x_vel,y_vel,angle,ang_vel,leg_1,leg_2,main_booster,lat_booster
-0.0015722274547442,1.4032387733459473,-0.1588742136955261,-0.3413880467414856,0.0014738583704456,0.0290516801178455,0.0,0.0,-0.9617678688083308,0.0519216516866538
-0.0031961440108716,1.3951950073242188,-0.163503348827362,-0.3574978113174438,0.0025779260322451,0.0220839437097311,0.0,0.0,0.9114575349785454,0.5508060454606692
-0.0046675680205225,1.387463092803955,-0.1473271697759628,-0.3436392843723297,0.0027598934248089,0.0036399338860064,0.0,0.0,0.4146523967213789,-0.0740216213793856
-0.0062980651855468,1.3799866437911987,-0.1624045670032501,-0.3322826623916626,0.0021173397544771,-0.0128521602600812,0.0,0.0,0.8031613425332811,0.3354984641457884
-0.0078472141176462,1.373192548751831,-0.1546086370944976,-0.3019559681415558,0.0018123553600162,-0.0061003710143268,0.0,0.0,-0.0882502667164757,-0.473816961100469
-0.0094562526792287,1.3660128116607666,-0.1602489054203033,-0.3190996050834656,0.0011682793265208,-0.0128827020525932,0.0,0.0,-0.1284817134106628,-0.906486002165016
-0.0112008098512887,1.3584474325180054,-0.1753469556570053,-0.3362401723861694,0.0020462898537516,0.017561811953783,0.0,0.0,0.7226128235361189,-0.7056877454621535
-0.0128959659487009,1.351510763168335,-0.1718779802322387,-0.3083022236824035,0.0043760775588452,0.0465998984873294,0.0,0.0,0.3263404837799928,-0.9835142698030508
-0.0147477146238088,1.3452060222625732,-0.1891411542892456,-0.2802184820175171,0.0083033088594675,0.0785517022013664,0.0,0.0,0.3686131059021491,-0.8337879809881308
-0.0167370792478323,1.3394230604171753,-0.2042313516139984,-0.2570617198944092,0.0135372281074523,0.1046881675720214,0.0,0.0,0.6585634231856066,0.1439678198800704
-0.0187155716121196,1.3341516256332395,-0.203206181526184,-0.2343479841947555,0.01883658580482,0.1059967055916786,0.0,0.0,-0.009678199791234,-0.1668407610333485
-0.020762825384736,1.328494668006897,-0.2097302675247192,-0.2514908611774444,0.0237906631082296,0.0990901961922645,0.0,0.0,-0.3842295989804265,0.8997757237598635
-0.0227935798466205,1.3224599361419678,-0.2055493146181106,-0.268250435590744,0.0262292139232158,0.0487756021320819,0.0,0.0,0.8656285233858749,0.993164770212087
-0.0247402191162109,1.3166382312774658,-0.1949338763952255,-0.2587510347366333,0.0264963861554861,0.0053441384807229,0.0,0.0,0.5200110855782172,0.8966016131296676
-0.0265616420656442,1.311585783958435,-0.1804602146148681,-0.2245223820209503,0.024833682924509,-0.0332573726773262,0.0,0.0,0.105322046731815,0.0021553255276732
-0.0283870697021484,1.306448459625244,-0.1808528453111648,-0.2282965928316116,0.0231704600155353,-0.0332676395773887,0.0,0.0,-0.2117721576358533,-0.7395544852306499
-0.0303306579589843,1.3009326457977295,-0.1934736669063568,-0.245136484503746,0.0222926475107669,-0.0175577290356159,0.0,0.0,0.3569446903417235,-0.0693887246577268
-0.0322380065917968,1.2954964637756348,-0.1900474727153778,-0.241595983505249,0.0216174162924289,-0.0135059831663966,0.0,0.0,-0.8077854129632294,0.4588750789200169
-0.034219741821289,0.0,-0.1971425116062164,-0.2587370276451111,0.0205966103821992,-0.0204182118177413,0.0,0.0,-0.5484210945897101,0.5300286982398736
-0.0362402908504009,1.2834678888320925,-0.1997448801994323,-0.2758216559886932,0.018319334834814,-0.0455498769879341,0.0,0.0,-0.4160038698103112,0.6150152796444438
-0.0382774360477924,1.2768816947937012,-0.199564129114151,-0.292669415473938,0.0142174828797578,-0.0820444896817207,0.0,0.0,-0.2137382584402805,-0.7933047995375316
-0.0404519066214561,1.269904375076294,-0.2145178765058517,-0.3100810348987579,0.0113186193630099,-0.057982463389635,0.0,0.0,-0.3987509582988959,0.9619078874683008
-0.042610265314579,1.262541651725769,-0.2102115154266357,-0.3271909952163696,0.0057526230812072,-0.111329935491085,0.0,0.0,-0.684829472737317,0.022127019047463
-0.0448452942073345,1.254794001579285,-0.2175358980894088,-0.3443315923213959,-0.0001533473987365,-0.1181297898292541,0.0,0.0,0.9180567689173944,-0.4270640528027861
-0.0473222732543945,1.2477819919586182,-0.2406014204025268,-0.3116585612297058,-0.0071642231196165,-0.1402300298213958,0.0,0.0,0.1300690008846026,-0.2076486393263203
-0.0499730110168457,1.2410871982574463,-0.257159024477005,-0.2976078987121582,-0.0149751733988523,-0.156219020485878,0.0,0.0,-0.1004194491479559,0.2265527346764199
-0.0527015700936317,1.2340075969696045,-0.2646021246910095,-0.3147493600845337,-0.0231249816715717,-0.1629964262247085,0.0,0.0,-0.5012395391123179,-0.4698711702310588
-0.0555083267390728,1.2265435457229614,-0.2720737755298614,-0.3318915069103241,-0.0316127240657806,-0.1697548180818557,0.0,0.0,0.8746122048125988,0.5981046636871733
-0.0584763512015342,1.220023274421692,-0.2862364649772644,-0.2900513410568237,-0.0420535765588283,-0.2088171541690826,0.0,0.0,0.5041271072639861,-0.7817710106985524
-0.0615874305367469,1.2137863636016846,-0.3017457127571106,-0.2774850726127624,-0.0513093508780002,-0.185115247964859,0.0,0.0,-0.9021829821889812,-0.1658934751910247
-0.0647772774100303,1.2071654796600342,-0.3092889189720154,-0.2946295738220215,-0.0608991794288158,-0.1917965710163116,0.0,0.0,-0.8879320025444031,-0.6102309226989746
-0.0681008324027061,1.200161695480347,-0.3236956596374511,-0.3116552233695984,-0.069450668990612,-0.1710299700498581,0.0,0.0,-0.9373541474342346,0.1680645942687988
-0.0715033560991287,1.192773461341858,-0.331276535987854,-0.3287991881370544,-0.0783327519893646,-0.17764213681221,0.0,0.0,-0.9512450695037842,0.0616410970687866
-0.0749850273132324,1.1850014925003052,-0.33887380361557,-0.3459438681602478,-0.0875434204936027,-0.1842134147882461,0.0,0.0,-0.9176724553108216,0.9497888088226318
-0.0784690827131271,1.17683744430542,-0.3368251621723175,-0.363566130399704,-0.0990234464406967,-0.2296009957790374,0.0,0.0,-0.968797504901886,-0.6496169567108154
-0.0820817947387695,1.1683021783828735,-0.350644588470459,-0.3800881206989288,-0.109569601714611,-0.2109233438968658,0.0,0.0,-0.7270553708076477,0.763887882232666
-0.0857168212532997,1.1593700647354126,-0.3510994017124176,-0.3979378938674927,-0.1218959242105484,-0.2465259730815887,0.0,0.0,-0.8278331756591797,0.6093103885650635
-0.089380070567131,1.1500505208969116,-0.3523257970809936,-0.4154042303562164,-0.1358316391706466,-0.2787143588066101,0.0,0.0,-0.7969627380371094,0.8409180641174316
-0.0930603966116905,1.1403456926345823,-0.3521688878536224,-0.4328530430793762,-0.1516482979059219,-0.3163335621356964,0.0,0.0,-0.810197651386261,0.497719407081604
-0.0968200713396072,1.1302591562271118,-0.3598396182060241,-0.4500136077404022,-0.1677763611078262,-0.3225614428520202,0.0,0.0,-0.8331874012947083,0.2914775609970093
-0.1006591767072677,1.1197913885116575,-0.3675188422203064,-0.4671753346920013,-0.1842120885848999,-0.3287146389484405,0.0,0.0,-0.8130812644958496,0.6993656158447266
-0.1045123115181922,1.1089229583740234,-0.3669967353343963,-0.4854293465614319,-0.2026431411504745,-0.3686209321022033,0.0,0.0,-0.8230688571929932,-0.4164730310440063
-0.1084448844194412,1.0976742506027222,-0.3746917247772217,-0.502598226070404,-0.2213733792304992,-0.3746047019958496,0.0,0.0,-0.5468807220458984,-0.4878674745559692
-0.1124565154314041,1.086045265197754,-0.382392942905426,-0.5197683572769165,-0.2403980940580368,-0.3804952502250671,0.0,0.0,-0.3098270893096924,-0.7731200456619263
-0.116611860692501,1.0740506649017334,-0.3982062935829162,-0.536034345626831,-0.2580543160438537,-0.3531246781349182,0.0,0.0,-0.6327117681503296,-0.3625606298446655
-0.1208463683724403,1.0616754293441772,-0.4059157967567444,-0.5532017946243286,-0.2759947776794433,-0.3588095307350158,0.0,0.0,-0.4663362503051758,-0.2126175165176391
-0.125159740447998,1.048919677734375,-0.4136290550231933,-0.570370078086853,-0.2942136824131012,-0.3643786013126373,0.0,0.0,-0.4258796572685241,-0.6441569924354553
-0.1296082437038421,1.0358161926269531,-0.4284800887107849,-0.5857768654823303,-0.3111441731452942,-0.3386094272136688,0.0,0.0,-0.2084918022155761,-0.6656654477119446
-0.1341954171657562,1.022366642951965,-0.443760871887207,-0.6010465621948242,-0.3266788125038147,-0.3106929361820221,0.0,0.0,0.0551228523254394,0.5196354389190674
-0.1387327164411544,1.008983492851257,-0.4375852644443512,-0.598551869392395,-0.343560516834259,-0.33763387799263,0.0,0.0,0.336259126663208,-0.2199622988700866
-0.1430839598178863,0.9958129525184632,-0.419332206249237,-0.5892091393470764,-0.3601565957069397,-0.3319211900234222,0.0,0.0,0.0698077678680419,-0.497033417224884
-0.1473803520202636,0.9829509258270264,-0.4135621190071106,-0.5757774710655212,-0.3771680295467376,-0.3402291238307953,0.0,0.0,0.1981639862060547,-0.7066455483436584
-0.1516059935092926,0.9701351523399352,-0.4078183174133301,-0.5735670924186707,-0.3928606212139129,-0.3138518333435058,0.0,0.0,0.5027575492858887,0.2161905765533447
-0.155629351735115,0.9579418897628784,-0.3874959349632263,-0.5461147427558899,-0.4087649285793304,-0.3180868327617645,0.0,0.0,0.0991841554641723,-0.6329729557037354
-0.1595458984375,0.945774257183075,-0.378048837184906,-0.5447801351547241,-0.4234425127506256,-0.2935514450073242,0.0,0.0,-0.7861636281013489,-0.5266276597976685
-0.1635847985744476,0.933251976966858,-0.3913474678993225,-0.5603733062744141,-0.4370608329772949,-0.2723662555217743,0.0,0.0,0.2224906682968139,-0.6374041438102722
-0.1674254387617111,0.9211365580558776,-0.3727547526359558,-0.5420370101928711,-0.4494231343269348,-0.2472459971904754,0.0,0.0,0.7460770606994629,-0.2845498323440552
-0.1709030121564865,0.9095063209533693,-0.3369553983211517,-0.5204175710678101,-0.4612933993339538,-0.2374047040939331,0.0,0.0,-0.6158507466316223,-0.3511426448822021
-0.174458310008049,0.8974931836128235,-0.3446391224861145,-0.5375703573226929,-0.4733339250087738,-0.2408104389905929,0.0,0.0,0.4617977142333984,-0.5564450621604919
-0.177876278758049,0.8861091732978821,-0.3317365646362304,-0.5094307661056519,-0.4845214486122131,-0.2237502783536911,0.0,0.0,0.4979227781295776,-0.818675696849823
-0.1812283545732498,0.8747896552085876,-0.326659083366394,-0.5061158537864685,-0.4940736293792724,-0.1910438239574432,0.0,0.0,0.4980957508087158,-0.6418725848197937
-0.1844865828752517,0.8640355467796326,-0.3182300627231598,-0.4807088673114776,-0.5025933980941772,-0.1703957617282867,0.0,0.0,0.8224706649780273,0.2617232799530029
-0.1874276101589203,0.8535490036010742,-0.2870086431503296,-0.4686959385871887,-0.5105976462364197,-0.1600847989320755,0.0,0.0,0.5946786403656006,-0.9182332754135132
-0.1901961266994476,0.8434872031211853,-0.2714413106441498,-0.4492245614528656,-0.5167283415794373,-0.1226148158311843,0.0,0.0,0.714410662651062,-0.8695833086967468
-0.1928892135620117,0.8336212635040283,-0.2654614746570587,-0.4399493336677551,-0.5210975408554077,-0.08738424628973,0.0,0.0,0.9485175609588624,-0.7599098682403564
-0.1955001801252365,0.8244399428367615,-0.2583091259002685,-0.4091289937496185,-0.5242663621902466,-0.0633765235543251,0.0,0.0,0.9700913429260254,-0.3665213584899902
-0.1976541578769683,0.8161793351173401,-0.2126850336790084,-0.368186891078949,-0.5273655652999878,-0.061983872205019,0.0,0.0,0.8559188842773438,-0.8228532075881958
-0.1996902525424957,0.8079231381416321,-0.2025481462478637,-0.3673549592494964,-0.5285767316818237,-0.0242229308933019,0.0,0.0,0.9448163509368896,-0.8162785172462463
-0.2013167440891266,0.8006131052970886,-0.1631608009338379,-0.3246908187866211,-0.5279837846755981,0.0118595045059919,0.0,0.0,0.952976942062378,-0.8117380738258362
-0.2028967887163162,0.7937788367271423,-0.1598193943500518,-0.3030430972576141,-0.5259130001068115,0.0414156168699264,0.0,0.0,0.921056032180786,-0.804425835609436
-0.2043097466230392,0.7877179980278015,-0.1444386690855026,-0.2681619524955749,-0.5223390460014343,0.0714786648750305,0.0,0.0,0.9146087169647216,-0.8831650614738464
-0.205462172627449,0.7822327017784119,-0.1201298385858535,-0.2419214248657226,-0.5167766809463501,0.1112469211220741,0.0,0.0,0.950473427772522,-0.7149955034255981
-0.2063837498426437,0.77783203125,-0.0981310084462165,-0.1933411210775375,-0.5100036263465881,0.135460689663887,0.0,0.0,0.7291756868362427,-0.8181180357933044
-0.2070648223161697,0.7738218903541565,-0.0758455321192741,-0.1753726154565811,-0.5012724995613098,0.174622893333435,0.0,0.0,0.3966208696365356,-0.9040234684944152
-0.2077518999576568,0.7699295878410339,-0.0782373398542404,-0.1695454865694046,-0.4905658960342407,0.2141319215297699,0.0,0.0,0.7361718416213989,-0.6460967659950256
-0.2083279192447662,0.7660795450210571,-0.0686803311109542,-0.1672153174877166,-0.478208988904953,0.2471379339694976,0.0,0.0,0.3503792285919189,-0.6399257779121399
-0.2089185267686844,0.7622632384300232,-0.0714970380067825,-0.165378987789154,-0.4644236862659454,0.2757058441638946,0.0,0.0,0.5576479434967041,-0.006266176700592
-0.2092508822679519,0.7590710520744324,-0.0458785519003868,-0.1377245485782623,-0.4505125880241394,0.2782220840454101,0.0,0.0,0.0021693706512451,-0.3583678007125854
-0.2093930691480636,0.7561308741569519,-0.0273131933063268,-0.1265144050121307,-0.4361956119537353,0.2863395810127258,0.0,0.0,-0.1698652505874633,-0.4372929334640503
-0.2096033543348312,0.7528066635131836,-0.0343979485332965,-0.1436587423086166,-0.4216787219047546,0.2903379499912262,0.0,0.0,-0.1066347360610961,0.0537036657333374
-0.2098808735609054,0.7490983605384827,-0.0414120964705944,-0.1608032435178756,-0.4069437980651855,0.2946987748146057,0.0,0.0,0.3285822868347168,0.6010477542877197
-0.2098957002162933,0.7458370923995972,-0.0143514070659875,-0.1413091570138931,-0.3931443393230438,0.2759893238544464,0.0,0.0,0.4150838851928711,-0.0380885601043701
-0.209867238998413,0.742924153804779,-0.0099570825695991,-0.1259842216968536,-0.3794936835765838,0.2730129063129425,0.0,0.0,-0.1226536631584167,0.3236986398696899
-0.2099030464887619,0.7396265268325806,-0.016713660210371,-0.1431262344121933,-0.3655741214752197,0.2783912122249603,0.0,0.0,0.1223323345184326,0.3405972719192505
-0.2098398208618164,0.7366144061088562,-0.007108717225492,-0.1305086463689804,-0.3514076471328735,0.2833297252655029,0.0,0.0,-0.1622835397720337,0.7243342399597168
-0.2097772657871246,0.7331842184066772,-0.0059122582897543,-0.1495372354984283,-0.3386423289775848,0.255306214094162,0.0,0.0,-0.5308895707130432,0.5287675857543945
-0.2097357809543609,0.7293422818183899,-0.0072960304096341,-0.1681053638458252,-0.3266942501068115,0.2389617413282394,0.0,0.0,-0.6202457547187805,0.5360076427459717
-0.2097084522247314,0.7250880599021912,-0.0078447256237268,-0.1867242455482483,-0.3156872987747192,0.2201390564441681,0.0,0.0,-0.7279807329177856,-0.0301369428634643
-0.2097389250993728,0.72044837474823,-0.0139863239601254,-0.2038609683513641,-0.3043410181999206,0.2269255667924881,0.0,0.0,-0.725925624370575,0.5173351764678955
-0.2097783982753753,0.7153972387313843,-0.0140112293884158,-0.2224313169717788,-0.2939448654651642,0.2079230844974517,0.0,0.0,0.2935535907745361,0.2110228538513183
-0.2097060233354568,0.7108065485954285,-0.0031867423094809,-0.20195372402668,-0.2832073271274566,0.2147509157657623,0.0,0.0,-0.7532238960266113,0.6337234973907471
-0.2096346914768219,0.7058131098747253,-0.0023730697575956,-0.2201180756092071,-0.2734454870223999,0.1952368319034576,0.0,0.0,-0.7310600280761719,0.0231109857559204
-0.2096136510372162,0.7004340887069702,-0.0078056836500763,-0.2372530251741409,-0.2633023560047149,0.202863410115242,0.0,0.0,-0.7951147556304932,0.5361533164978027
-0.2095941603183746,0.6946445107460022,-0.007118662353605,-0.2557098567485809,-0.2540415227413177,0.1852166801691055,0.0,0.0,-0.7496347427368164,0.5438358783721924
-0.2095828503370285,0.688452959060669,-0.0073622963391244,-0.2737374603748321,-0.245388001203537,0.173070341348648,0.0,0.0,-0.8620553612709045,-0.5000090599060059
-0.2096466124057769,0.6818937659263611,-0.0161526892334222,-0.2899221181869507,-0.2354568094015121,0.1986242681741714,0.0,0.0,-0.9857646226882936,0.2023029327392578
-0.2097510397434234,0.6749491095542908,-0.0206387750804424,-0.3070579767227173,-0.2251145094633102,0.206846073269844,0.0,0.0,-0.493510365486145,0.8006008863449097
-0.2098432034254074,0.6676092743873596,-0.0185900293290615,-0.3248167335987091,-0.2156294584274292,0.189701110124588,0.0,0.0,-0.7709399461746216,-0.2740321159362793
-0.209970086812973,0.6598839163780212,-0.0225066002458333,-0.3419524431228637,-0.2057225555181503,0.1981381475925445,0.0,0.0,-0.8525498509407043,0.0913426876068115
-0.2101287394762039,0.6517730951309204,-0.0261151734739542,-0.3590890765190124,-0.1953893452882766,0.2066638022661209,0.0,0.0,-0.914070725440979,0.3041113615036011
-0.2103157490491867,0.643277108669281,-0.0294007305055856,-0.3762267827987671,-0.1846260279417038,0.2152664959430694,0.0,0.0,-0.6203113794326782,0.9132096767425536
-0.2104600369930267,0.6343739032745361,-0.0238382667303085,-0.3945626616477966,-0.1751877963542938,0.1887645721435547,0.0,0.0,-0.7741453647613525,0.49456787109375
-0.2106257975101471,0.625085175037384,-0.0264355055987834,-0.4116995930671692,-0.1653133034706115,0.1974898725748062,0.0,0.0,-0.9408386945724488,0.5236426591873169
-0.2107788622379303,0.615402340888977,-0.0248355194926261,-0.4293171763420105,-0.1557876467704773,0.1905130445957183,0.0,0.0,-0.8810508847236633,0.6787458658218384
-0.2108832895755767,0.6053233742713928,-0.0188260544091463,-0.4470985233783722,-0.1474166065454483,0.1674207895994186,0.0,0.0,-0.8078027367591858,0.8083949089050293
-0.2109291106462478,0.5948362946510315,-0.0116257118061184,-0.4654116034507751,-0.1403887569904327,0.1405566781759262,0.0,0.0,-0.9715370535850524,-0.0104048252105712
-0.2109812796115875,0.5839634537696838,-0.0127193359658122,-0.4825463891029358,-0.1329178214073181,0.1494187265634536,0.0,0.0,-0.908133327960968,-0.3426665663719177
-0.2110360115766525,0.5727052092552185,-0.0134213389828801,-0.4996820092201233,-0.1250029951333999,0.158296450972557,0.0,0.0,-0.9273422360420228,0.4032135009765625
-0.2110892236232757,0.5610615015029907,-0.013729466125369,-0.5168185234069824,-0.1166437938809394,0.1671840250492096,0.0,0.0,-0.5357097387313843,0.5408601760864258
-0.2110891789197921,0.5490240454673767,-0.0076326876878738,-0.5344234108924866,-0.1090561375021934,0.1517531871795654,0.0,0.0,0.6466196775436401,0.1560790538787841
-0.2109983414411544,0.5378156304359436,0.0010238200193271,-0.4975828528404236,-0.1010570973157882,0.1599808633327484,0.0,0.0,-0.9561939239501952,0.387197732925415
-0.210894301533699,0.5262220501899719,0.0018891629297286,-0.5147203207015991,-0.0926135778427124,0.168870210647583,0.0,0.0,-0.895702064037323,0.6882944107055664
-0.210712045431137,0.5142312049865723,0.0108311139047145,-0.5324884653091431,-0.0852824822068214,0.1466217935085296,0.0,0.0,-0.3841179609298706,0.6735496520996094
-0.210466668009758,0.5018506050109863,0.0177682004868984,-0.5498772859573364,-0.0785767510533332,0.1341144442558288,0.0,0.0,0.9474799633026124,0.3390750885009765
-0.2103001624345779,0.4900097846984863,0.0101384567096829,-0.5259320139884949,-0.0721277445554733,0.1289799660444259,0.0,0.0,-0.5079219937324524,-0.07129967212677
-0.2101057469844818,0.4777834713459015,0.0124731371179223,-0.5430688261985779,-0.0652362331748008,0.1378303915262222,0.0,0.0,0.7269761562347412,0.0904126167297363
-0.2098166495561599,0.4660040140151977,0.0213653426617383,-0.5232236981391907,-0.0577774234116077,0.1491762846708297,0.0,0.0,0.3552062511444092,-0.0414007306098938
-0.2093690931797027,0.4542718827724457,0.0362620837986469,-0.5211235880851746,-0.0493821687996387,0.1679052412509918,0.0,0.0,0.4914896488189697,0.5381605625152588
-0.2087161093950271,0.4430718421936035,0.0572067908942699,-0.4975351095199585,-0.0413835532963275,0.1599723547697067,0.0,0.0,-0.6049803495407104,0.94925057888031
-0.2079441100358963,0.4314908981323242,0.0706477910280227,-0.5145408511161804,-0.03491136059165,0.1294439285993576,0.0,0.0,0.4507061243057251,0.7269697189331055
