x_pos,y_pos,x_vel,y_vel,angle,ang_vel,leg_1,leg_2,main_booster,lat_booster
-0.0016001701587811,1.4032464027404783,-0.1620261371135711,-0.3410541713237762,0.0018058425048366,0.0356247052550315,0.0,0.0,-0.3722411394119262,0.7496961355209351
-0.003213596297428,1.3952142000198364,-0.1614750325679779,-0.3569828867912292,0.0019405115162953,0.0026943974662572,0.0,0.0,-0.219032883644104,0.6727962493896484
-0.0048397062346339,1.3867987394332886,-0.161081463098526,-0.3740167915821075,0.0004363204352557,-0.0300867557525634,0.0,0.0,-0.1241319179534912,0.1144136190414428
-0.0065430640242993,1.3780052661895752,-0.1688027679920196,-0.3908243179321289,-0.0010799651499837,-0.030328381806612,0.0,0.0,0.5294740200042725,0.7708892822265625
-0.0081301685422658,1.3697413206100464,-0.1558803021907806,-0.3672897517681122,-0.0038868580013513,-0.0561432540416717,0.0,0.0,-0.2166817784309387,0.7448713779449463
-0.0097229955717921,1.3610979318618774,-0.154606208205223,-0.3841724395751953,-0.0085116438567638,-0.0925040692090988,0.0,0.0,0.1384196281433105,-0.2656375169754028
-0.0114056589081883,1.3526737689971924,-0.1635045409202575,-0.3744383156299591,-0.0132171306759119,-0.0941186249256134,0.0,0.0,-0.1680924892425537,0.3542311191558838
-0.0131659507751464,1.343871831893921,-0.1712733209133148,-0.391248345375061,-0.0179282315075397,-0.094230368733406,0.0,0.0,-0.334261417388916,0.5356159210205078
-0.0149627681821584,1.3346967697143557,-0.1738609969615936,-0.4078546166419983,-0.0236821640282869,-0.1150894165039062,0.0,0.0,-0.1097497940063476,0.8251665830612183
-0.0167724601924419,1.325147271156311,-0.1734970957040786,-0.4245606362819671,-0.0310695506632328,-0.1477610319852829,0.0,0.0,-0.0922843813896179,0.0383055210113525
-0.0186599735170602,1.3152203559875488,-0.181286334991455,-0.4413686692714691,-0.0384558402001857,-0.1477393805980682,0.0,0.0,-0.2272489070892334,0.8539519309997559
-0.0205503460019826,1.3049103021621704,-0.179660826921463,-0.4584969580173492,-0.0477319434285163,-0.1855391710996627,0.0,0.0,-0.2645995616912842,0.381034255027771
-0.0225184448063373,1.294223070144653,-0.1874580532312393,-0.4753074645996094,-0.0570025704801082,-0.1854292154312133,0.0,0.0,-0.5018943548202515,0.8705122470855713
-0.0244885440915823,1.2831445932388306,-0.185708150267601,-0.4928430318832397,-0.0681941881775856,-0.2238523960113525,0.0,0.0,-0.1171859502792358,0.7023906707763672
-0.0264678001403808,1.2716902494430542,-0.1849184185266494,-0.5097247958183289,-0.0810955166816711,-0.2580498456954956,0.0,0.0,-0.1952748894691467,0.8140354156494141
-0.028449822217226,1.2598415613174438,-0.1832769811153412,-0.5274810194969177,-0.0959001183509826,-0.2961193323135376,0.0,0.0,-0.1343387961387634,0.525761604309082
-0.0304582603275775,1.2476168870925903,-0.1846680790185928,-0.5444413423538208,-0.111973650753498,-0.321500152349472,0.0,0.0,0.2812283039093017,-0.2341716885566711
-0.0324019417166709,1.2354319095611572,-0.1787596046924591,-0.5428019165992737,-0.1275135278701782,-0.3108257949352264,0.0,0.0,0.0640687942504882,-0.1824951171875
-0.0342953689396381,1.2236289978027344,-0.1740715950727462,-0.5259489417076111,-0.1427438408136367,-0.3046340346336365,0.0,0.0,-0.3679576516151428,-0.3007077574729919
-0.0362663269042968,1.2114508152008057,-0.1818718165159225,-0.5427786707878113,-0.1579547673463821,-0.3042460083961487,0.0,0.0,0.0597729682922363,-0.536935031414032
-0.0381904616951942,1.1996042728424072,-0.1784843653440475,-0.5280544757843018,-0.1719140857458114,-0.2792113721370697,0.0,0.0,0.4174342155456543,-0.8975679874420166
-0.040186308324337,1.187952756881714,-0.187505155801773,-0.5192855000495911,-0.1840451508760452,-0.2426427602767944,0.0,0.0,-0.585041880607605,-0.4725727438926697
-0.0422595962882041,1.1759250164031982,-0.195305660367012,-0.536106288433075,-0.196151927113533,-0.2421572208404541,0.0,0.0,0.2844517230987549,-0.6379954814910889
-0.0443543419241905,1.1638679504394531,-0.1988745629787445,-0.5373093485832214,-0.2068521231412887,-0.2140229940414428,0.0,0.0,0.4442521333694458,-0.1184229850769043
-0.0465325340628623,1.1522984504699707,-0.2066947221755981,-0.5158010721206665,-0.2181002348661422,-0.2249824553728103,0.0,0.0,0.2064000368118286,-0.31110680103302
-0.0487838760018348,1.1411188840866089,-0.2135671079158783,-0.4986262619495392,-0.2298106998205185,-0.2342094480991363,0.0,0.0,-0.6145498156547546,-0.5799175500869751
-0.0511563308537006,1.1295818090438845,-0.2268929928541183,-0.514413058757782,-0.2403266578912735,-0.210318773984909,0.0,0.0,-0.3193863034248352,-0.4120173454284668
-0.0536063201725482,1.1176679134368896,-0.2346900403499603,-0.5312235355377197,-0.2508112490177154,-0.2096919268369674,0.0,0.0,-0.619780957698822,-0.7236820459365845
-0.0561999306082725,1.1054089069366455,-0.2508503794670105,-0.5463292598724365,-0.2594786286354065,-0.1733475476503372,0.0,0.0,0.3238365650177002,-0.5294607877731323
-0.0588287338614463,1.0933599472045898,-0.2554424107074737,-0.5368431210517883,-0.2670832574367523,-0.1520927846431732,0.0,0.0,0.3695025444030761,-0.5140298008918762
-0.0613711364567279,1.0819638967514038,-0.2479211837053299,-0.5076626539230347,-0.2735671103000641,-0.1296767741441726,0.0,0.0,0.4766236543655395,-0.7111982107162476
-0.0640134811401367,1.0708056688308716,-0.2592160403728485,-0.4968735873699188,-0.2787123322486877,-0.1029045358300209,0.0,0.0,0.7771079540252686,0.0812749862670898
-0.0665806755423545,1.0605496168136597,-0.2513531446456909,-0.456859141588211,-0.2842307686805725,-0.1103684455156326,0.0,0.0,-0.7788257598876953,0.1776964664459228
-0.0692245513200759,1.049915790557861,-0.2590573728084564,-0.4736627340316772,-0.2897103428840637,-0.1095917001366615,0.0,0.0,-0.1770634651184082,-0.8394068479537964
-0.0720060318708419,1.0389331579208374,-0.2744827568531036,-0.4888464212417602,-0.2934890687465668,-0.0755747407674789,0.0,0.0,0.6390035152435303,0.3064565658569336
-0.0746294036507606,1.0286420583724976,-0.2587863206863403,-0.4580975770950317,-0.2971432507038116,-0.0730842500925064,0.0,0.0,-0.1050739884376525,0.1624805927276611
-0.0773284882307052,1.0179729461669922,-0.2664185166358948,-0.4748996794223785,-0.3007552623748779,-0.0722401365637779,0.0,0.0,0.5297050476074219,0.3878903388977051
-0.0798607841134071,1.0079199075698853,-0.2499323338270187,-0.4474885761737823,-0.304161012172699,-0.068115122616291,0.0,0.0,-0.4422521591186523,-0.4209800958633423
-0.0824682265520095,0.9974886775016784,-0.2575039565563202,-0.4642904698848724,-0.307522565126419,-0.0672306269407272,0.0,0.0,-0.3941043615341186,-0.6625601649284363
-0.0851979255676269,0.9867027401924132,-0.2710034251213074,-0.4797905087471008,-0.3095519840717315,-0.0405882634222507,0.0,0.0,0.2578206062316894,-0.0249215364456176
-0.0878988280892372,0.9764226675033568,-0.2678216695785522,-0.4573776423931122,-0.3119114637374878,-0.0471891611814498,0.0,0.0,-0.4576064348220825,0.0742723941802978
-0.0906739234924316,0.9657644629478456,-0.2752783298492431,-0.4741789102554321,-0.3142241239547729,-0.0462529510259628,0.0,0.0,0.5848679542541504,0.4585686922073364
-0.0933409705758094,0.9551140666007996,-0.2649411559104919,-0.4737364649772644,-0.3160581588745117,-0.0366801880300045,0.0,0.0,-0.5828798413276672,0.015142798423767
-0.0960811600089073,0.9440855383872986,-0.2723013758659363,-0.4905375242233276,-0.3178439736366272,-0.0357166267931461,0.0,0.0,0.1773693561553955,0.6414387226104736
-0.0988128632307052,0.9329620003700256,-0.2701814472675323,-0.4950328171253204,-0.3209434151649475,-0.0619890578091144,0.0,0.0,0.0875674486160278,0.6558606624603271
-0.1014670357108116,0.921726644039154,-0.2612351179122925,-0.5002824664115906,-0.3253017365932464,-0.0871663019061088,0.0,0.0,-0.7243797779083252,0.8815737962722778
-0.1041211113333702,0.9100722670555116,-0.2593750357627868,-0.5193434357643127,-0.3315986394882202,-0.1259383559226989,0.0,0.0,0.4061242341995239,0.4203983545303345
-0.1067050918936729,0.8990932106971741,-0.2519988119602203,-0.4894377291202545,-0.3382883369922638,-0.1337937414646148,0.0,0.0,0.520582914352417,0.039358377456665
-0.1092331856489181,0.8888238668441772,-0.2459301650524139,-0.4580491185188293,-0.3454930186271667,-0.1440934240818023,0.0,0.0,0.4398777484893799,-0.1000620126724243
-0.1116972938179969,0.8788118362426758,-0.2395121306180954,-0.4466510713100433,-0.352733165025711,-0.1448032110929489,0.0,0.0,0.677635669708252,-0.075520634651184
-999.0,0.869162917137146,-0.2132964432239532,-0.430376261472702,-0.3592498898506164,-0.1303342431783676,0.0,0.0,0.9118053913116456,0.3728234767913818
-0.1159164458513259,0.860368549823761,-0.1960107982158661,-0.3924881517887115,-0.3660254180431366,-0.1355105191469192,0.0,0.0,0.4975664615631103,-0.7547013759613037
-0.1178160682320594,0.8517295718193054,-0.1852286756038665,-0.3851706087589264,-0.37102872133255,-0.1000658720731735,0.0,0.0,0.8791050910949707,-0.6705671548843384
-0.1194950118660926,0.8440130949020386,-0.1645418107509613,-0.3438296020030975,-0.374586671590805,-0.0711589083075523,0.0,0.0,0.954576015472412,-0.6568987965583801
-0.1208988204598426,0.836645781993866,-0.1388004273176193,-0.3278456628322601,-0.3762665092945099,-0.0335964672267437,0.0,0.0,0.9529263973236084,-0.6474665403366089
-0.1223202720284462,0.829769492149353,-0.1415727585554123,-0.3057679533958435,-0.3768800795078277,-0.0122713427990674,0.0,0.0,0.987423539161682,-0.6819615960121155
-0.12338437885046,0.8238202929496765,-0.1074925661087036,-0.2641217112541199,-0.3757310211658478,0.0229813642799854,0.0,0.0,0.9133411645889282,-0.7976992130279541
-0.1241156607866287,0.8185243606567383,-0.0761554241180419,-0.2345817536115646,-0.3725270330905914,0.0640798360109329,0.0,0.0,0.8884220123291016,-0.8687009215354919
-0.1245348900556564,0.8141594529151917,-0.0468508750200271,-0.1927177906036377,-0.367306649684906,0.1044076085090637,0.0,0.0,0.9043917655944824,-0.8390602469444275
-0.1248327270150184,0.8107790350914001,-0.0362281538546085,-0.1486086994409561,-0.3604968786239624,0.1361951529979705,0.0,0.0,-0.5561339855194092,-0.7054166197776794
-0.1252318322658538,0.8070420622825623,-0.0476613566279411,-0.1641597300767898,-0.3523271083831787,0.1633951812982559,0.0,0.0,0.5675513744354248,-0.2238869071006775
-0.1255404502153396,0.8039138317108154,-0.038259781897068,-0.1372377276420593,-0.3445574939250946,0.1553920358419418,0.0,0.0,-0.1833062171936035,-0.7612747550010681
-0.1259418427944183,0.8004307150840759,-0.048766441643238,-0.1527699530124664,-0.3355122804641723,0.1809041649103164,0.0,0.0,-0.9739463925361632,-0.1195340752601623
-0.1263879835605621,0.7965703010559082,-0.0533030554652214,-0.1695774644613266,-0.3264308571815491,0.1816282570362091,0.0,0.0,-0.8694748282432556,0.2067797183990478
-0.1268759667873382,0.7923328280448914,-0.057554006576538,-0.1863851249217987,-0.3173154294490814,0.1823086887598037,0.0,0.0,-0.5287641882896423,0.739720344543457
-0.1273588240146637,0.7876968383789062,-0.0559453777968883,-0.2043898105621338,-0.3093666434288025,0.1589756906032562,0.0,0.0,-0.9654457569122314,-0.2980897426605224
-0.1278775185346603,0.7826834917068481,-0.0595718808472156,-0.2211961299180984,-0.3013887703418731,0.1595567911863327,0.0,0.0,-0.9151725769042968,0.4295996427536011
-0.1284285485744476,0.7772927284240723,-0.0628611147403717,-0.238002598285675,-0.293384701013565,0.1600820273160934,0.0,0.0,-0.6011271476745605,-0.7632773518562317
-0.1290616989135742,0.7715582251548767,-0.0725607722997665,-0.2530368864536285,-0.2838667929172516,0.190358430147171,0.0,0.0,-0.5376560688018799,0.3963191509246826
-0.1297201216220855,0.7654468417167664,-0.0751291885972023,-0.2698457539081573,-0.2743287980556488,0.19076007604599,0.0,0.0,-0.8095241189002991,0.4015983343124389
-0.1303999871015548,0.7589584589004517,-0.0773154199123382,-0.2866547405719757,-0.2647740542888641,0.1910948008298874,0.0,0.0,-0.7172824144363403,-0.4559919834136963
-0.1310974061489105,0.7520930171012878,-0.0791073441505432,-0.3034638464450836,-0.2552061080932617,0.191359132528305,0.0,0.0,-0.979541003704071,0.4102026224136352
-0.1318082809448242,0.744850754737854,-0.080494686961174,-0.3202731013298034,-0.2456286251544952,0.1915500462055206,0.0,0.0,-0.9244645237922668,0.5541068315505981
-0.132481187582016,0.737213671207428,-0.0754786729812622,-0.3380836546421051,-0.2373010814189911,0.1665508449077606,0.0,0.0,-0.8889485597610474,-0.0042389035224914
-0.1331594437360763,0.729199230670929,-0.0760339722037315,-0.354891300201416,-0.2289717495441436,0.1665869951248169,0.0,0.0,-0.9949305057525636,0.5012762546539307
-0.1337968856096267,0.720787525177002,-0.0708500742912292,-0.3727670907974243,-0.2217734009027481,0.1439670771360397,0.0,0.0,-0.7174487113952637,0.0500959157943725
-0.1344313621520996,0.711998462677002,-0.0705599337816238,-0.3895735144615173,-0.2145814001560211,0.1438399255275726,0.0,0.0,-0.97107595205307,0.654565691947937
-0.1350081413984298,0.7028214335441589,-0.0635006502270698,-0.4070331156253814,-0.2086944878101349,0.1177379339933395,0.0,0.0,-0.9946837425231934,-0.4604007005691528
-0.1355735808610916,0.6932668089866638,-0.0623716711997985,-0.4238383173942566,-0.2028223872184753,0.1174421459436416,0.0,0.0,-0.9982391595840454,0.1296988725662231
-0.136123850941658,0.6833347678184509,-0.0608321242034435,-0.4406434893608093,-0.1969693452119827,0.1170609369874,0.0,0.0,-0.9955583214759828,-0.5934185981750488
-0.1367114037275314,0.6730358004570007,-0.0659918785095214,-0.4567815959453583,-0.1896958202123642,0.1454705595970153,0.0,0.0,-0.908132255077362,-0.2292110323905944
-0.1372758895158767,0.6623597145080566,-0.0636601001024246,-0.4735884666442871,-0.1824499368667602,0.1449179053306579,0.0,0.0,-0.9937402606010436,0.5558232069015503
-0.1377776116132736,0.6512963175773621,-0.0564351305365562,-0.4909527003765106,-0.176163300871849,0.1257325112819671,0.0,0.0,-0.989133596420288,-0.0189489722251892
-0.1382488310337066,0.6398552060127258,-0.0533605888485908,-0.5077585577964783,-0.1699127852916717,0.1250105053186416,0.0,0.0,-0.935215175151825,0.9078569412231444
-0.1386163681745529,0.6280234456062317,-0.0411750338971614,-0.5253576636314392,-0.1654826402664184,0.0886025875806808,0.0,0.0,-0.993264138698578,-0.0976982712745666
-0.1389467269182205,0.6158139109611511,-0.0374189391732215,-0.5421620011329651,-0.1610968858003616,0.0877152234315872,0.0,0.0,-0.9504355788230896,-0.8501852750778198
-0.1393014937639236,0.6032341718673706,-0.041442397981882,-0.5584666132926941,-0.1551292836666107,0.119352176785469,0.0,0.0,-0.9680610299110411,-0.1435461044311523
-0.1396129578351974,0.5902768969535828,-0.0370732769370079,-0.5752723217010498,-0.1492140740156173,0.118304394185543,0.0,0.0,-0.9646477699279784,0.4851030111312866
-0.1398784667253494,0.5769421458244324,-0.0324237123131752,-0.5920779705047607,-0.1433551460504531,0.1171786561608314,0.0,0.0,-0.983961820602417,0.1375529766082763
-0.1400954276323318,0.5632299184799194,-0.0275111887603998,-0.6088835597038269,-0.1375563144683838,0.1159767359495163,0.0,0.0,-0.9559479355812072,0.5176130533218384
-0.1402208358049392,0.5491355061531067,-0.0172746255993843,-0.6259886622428894,-0.1328441649675369,0.0942429602146148,0.0,0.0,-0.7675698399543762,0.458453893661499
-0.1402930319309234,0.5346635580062866,-0.0118872299790382,-0.6427932381629944,-0.1281994879245758,0.092893972992897,0.0,0.0,0.6227848529815674,0.2806482315063476
-0.1401047706604004,0.5207651853561401,0.0136557789519429,-0.6172690987586975,-0.1230599731206893,0.1027902215719223,0.0,0.0,-0.6880333423614502,-0.1822735667228698
-0.1398592889308929,0.5064893364906311,0.0194528922438621,-0.6340740323066711,-0.1179949194192886,0.1013010367751121,0.0,0.0,0.4490821361541748,0.0131523609161376
-0.1395480185747146,0.4925092458724975,0.0263294633477926,-0.6209647059440613,-0.1132208928465843,0.0954806059598922,0.0,0.0,0.6121724843978882,-0.3809774518013
-0.1389987915754318,0.4793923795223236,0.0498133040964603,-0.5825942754745483,-0.1081460118293762,0.1014976873993873,0.0,0.0,-0.0498257875442504,0.4751443862915039
-0.1383873969316482,0.4658978581428528,0.0561157763004303,-0.5993992686271667,-0.1031554341316223,0.0998114496469497,0.0,0.0,0.2463796138763427,0.036802053451538
-0.1377438604831695,0.4529356360435486,0.0598422177135944,-0.5757936835289001,-0.0986865609884262,0.0893773660063743,0.0,0.0,-0.4781984090805053,-0.2098544836044311
-0.1370355635881424,0.4395958185195923,0.0664180889725685,-0.5925980806350708,-0.0943081378936767,0.0875684320926666,0.0,0.0,0.7604712247848511,0.0444605350494384
-0.1362426728010177,0.4270801544189453,0.0752319768071174,-0.5560001134872437,-0.0902869924902916,0.0804230347275734,0.0,0.0,0.4311704635620117,0.3176296949386596
-0.1353956162929535,0.4151654243469238,0.0810856968164444,-0.5293267965316772,-0.0866935923695564,0.0718677341938018,0.0,0.0,-0.7086406946182251,-0.292593777179718
-0.1344803869724273,0.4028729498386383,0.0879924744367599,-0.5461307168006897,-0.0831992179155349,0.069887489080429,0.0,0.0,0.6418952941894531,-0.1675590276718139
-0.1335620880126953,0.3911106586456299,0.0889477282762527,-0.5226151347160339,-0.0803428515791893,0.0571273453533649,0.0,0.0,-0.1985006332397461,-0.1900004148483276
-0.1325738877058029,0.3789704740047455,0.0960310325026512,-0.5394185185432434,-0.0775908231735229,0.0550405904650688,0.0,0.0,0.2543312311172485,-0.3841543197631836
-0.1313927620649337,0.3672589361667633,0.1150643676519393,-0.5203551054000854,-0.074573665857315,0.0603431947529315,0.0,0.0,-0.020735740661621,-0.2661262154579162
-0.1301403939723968,0.3551696240901947,0.1222951263189315,-0.537158727645874,-0.071665845811367,0.0581563413143157,0.0,0.0,-0.0436804890632629,-0.1896699070930481
-0.1288162171840667,0.3427025079727173,0.1295901834964752,-0.5539621114730835,-0.0688697025179863,0.0559229627251625,0.0,0.0,0.7137477397918701,-0.3587806820869446
-0.1273879110813141,0.3310645818710327,0.1402294039726257,-0.5171247720718384,-0.0662973225116729,0.0514476411044597,0.0,0.0,0.1456955671310424,-0.5909631252288818
-0.1257840096950531,0.3199362754821777,0.1565374135971069,-0.4944250285625458,-0.0624840818345546,0.0762645751237869,0.0,0.0,-0.7544386386871338,-0.4753069877624511
-0.12410669028759,0.3084301650524139,0.1639936566352844,-0.5112289190292358,-0.0587891899049282,0.0738978832960128,0.0,0.0,-0.3614842295646667,-0.7272493243217468
-0.1224134415388107,0.2965588569641113,0.1642279326915741,-0.5274234414100647,-0.0537484176456928,0.1008157581090927,0.0,0.0,0.3224133253097534,-0.2434676885604858
-0.1205636039376258,0.2852502167224884,0.1797797977924347,-0.5024284720420837,-0.0486054643988609,0.1028588786721229,0.0,0.0,0.0579572916030883,-0.381631851196289
-0.1185733824968338,0.2740001082420349,0.1936979591846466,-0.4998429119586944,-0.0433482080698013,0.1051452532410621,0.0,0.0,0.3365023136138916,-0.6679341793060303
-0.1166490539908409,0.2631337344646454,0.1860888451337814,-0.482779860496521,-0.0370759032666683,0.1254462152719497,0.0,0.0,0.2115345001220703,-0.338522732257843
-0.1147295981645584,0.2524609565734863,0.1861665844917297,-0.4742156565189361,-0.0313669852912426,0.1141782626509666,0.0,0.0,0.2629709243774414,-0.6429216265678406
-0.1127903014421463,0.2420596480369568,0.1870128214359283,-0.4621511697769165,-0.0245394650846719,0.1365505754947662,0.0,0.0,0.3800265789031982,-0.5105049014091492
-0.1107813864946365,0.2319489270448684,0.1930207312107086,-0.4492568671703338,-0.0167715195566415,0.1553588211536407,0.0,0.0,-0.6012740135192871,-0.6171157956123352
-0.1087348908185958,0.2214564830064773,0.1959363967180252,-0.4662609100341797,-0.0081757130101323,0.1719159036874771,0.0,0.0,0.0914809703826904,0.1584112644195556
-0.1065443009138107,0.2112636715173721,0.2101854979991912,-0.4529880285263061,0.0005835155607201,0.1751846969127655,0.0,0.0,0.049250841140747,-0.6597750782966614
-0.1043119430541992,0.2014686614274978,0.2131557464599609,-0.4353644549846649,0.0105378469452261,0.1990866512060165,0.0,0.0,0.0572438240051269,-0.8434345126152039
