x_pos,y_pos,x_vel,y_vel,angle,ang_vel,leg_1,leg_2,main_booster,lat_booster
-0.0015904426109045,1.4030089378356934,-0.1608207374811172,-0.3516086935997009,0.0015895591350272,0.0313425809144973,0.0,0.0,-0.2009384036064148,0.5510449409484863
-0.0032004355452954,1.3945026397705078,-0.1611292660236358,-0.3780525326728821,0.0017257735598832,0.0027251655701547,0.0,0.0,0.0425646305084228,0.8018444776535034
-0.0047148703597486,1.385757327079773,-0.1497980505228042,-0.3886769711971283,9.816040255827828e-05,-0.0325552150607109,0.0,0.0,0.3396739959716797,0.7006404399871826
-0.0063460348173975,1.3770017623901367,-0.1596406400203704,-0.3891343772411346,-0.0033398873638361,-0.0687674134969711,0.0,0.0,0.3006770610809326,0.4443491697311401
-0.0079370494931936,1.3684005737304688,-0.1558881103992462,-0.3822928667068481,-0.0065284175798296,-0.0637763142585754,0.0,0.0,-0.0995731949806213,0.5719534158706665
-0.00953512173146,1.3591824769973757,-0.1549355238676071,-0.4097223877906799,-0.0113468039780855,-0.0963764935731887,0.0,0.0,0.2287813425064087,0.3738763332366943
-0.0112061500549316,1.3499937057495115,-0.161902979016304,-0.4084356129169464,-0.0164865609258413,-0.1028045415878295,0.0,0.0,0.1033353805541992,0.7246167659759521
-0.0127590177580714,1.340835690498352,-0.1485028117895126,-0.4071098268032074,-0.0231852382421493,-0.1339861452579498,0.0,0.0,0.295943021774292,0.2873504161834717
-0.0143646243959665,1.332047462463379,-0.153495118021965,-0.3907116055488586,-0.0301748476922512,-0.1398050785064697,0.0,0.0,0.0256644487380981,-0.3633522987365722
-0.0160145759582519,1.3233205080032349,-0.1576691567897796,-0.3880286812782287,-0.0374151989817619,-0.144820362329483,0.0,0.0,-0.5190232396125793,0.3661078214645386
-0.0177206043154001,1.313978910446167,-0.1630283296108245,-0.4153930246829986,-0.0449057929217815,-0.1498256623744964,0.0,0.0,-0.3816689848899841,-0.2573049664497375
-0.0194813720881938,1.3040226697921753,-0.1682543605566024,-0.4427547454833984,-0.0526485294103622,-0.1548691540956497,0.0,0.0,-0.173383891582489,0.9449445009231568
-0.0212049484252929,1.2934497594833374,-0.1619770675897598,-0.4703035652637481,-0.0629240274429321,-0.2055290937423706,0.0,0.0,-0.2497999668121338,0.8169751167297363
-0.0229090694338083,1.2822487354278564,-0.157960444688797,-0.4983873665332794,-0.0752630904316902,-0.2468036711215973,0.0,0.0,0.1029467582702636,0.6902190446853638
-0.0244607925415039,1.2712469100952148,-0.1412304043769836,-0.4897291958332062,-0.0891048684716224,-0.2768609523773193,0.0,0.0,-0.1060722470283508,0.3055753707885742
-0.0260615348815917,1.2596323490142822,-0.1458775103092193,-0.5171123743057251,-0.1032048389315605,-0.2820247709751129,0.0,0.0,-0.1942087411880493,-0.2425121068954467
-0.027709674090147,1.247405171394348,-0.1503751426935196,-0.5444885492324829,-0.117564745247364,-0.2872242629528045,0.0,0.0,0.0659868717193603,0.1088299751281738
-0.0292840953916311,1.2349095344543457,-0.1431905925273895,-0.5565473437309265,-0.1317551136016845,-0.2838332951068878,0.0,0.0,0.0862832069396972,-0.5430446267127991
-0.030805205926299,1.2225854396820068,-0.1388491988182068,-0.5489600300788879,-0.1449989527463913,-0.2649007141590118,0.0,0.0,-0.0548152923583984,-0.7865274548530579
-0.0324389450252056,1.2096632719039917,-0.1516436040401458,-0.5755088329315186,-0.1567272692918777,-0.2345874309539795,0.0,0.0,0.701683759689331,-0.7288364768028259
-0.033907413482666,1.1972600221633911,-0.1366461813449859,-0.5523619055747986,-0.1669578552246093,-0.2046299278736114,0.0,0.0,-0.1327936649322509,-0.8050865530967712
-0.0354779250919818,1.1842536926269531,-0.1481546014547348,-0.5790765881538391,-0.1758798658847808,-0.1784560978412628,0.0,0.0,0.1251089572906494,-0.981924831867218
-0.0369949340820312,1.1711724996566772,-0.1444892436265945,-0.5822572708129883,-0.1831181645393371,-0.144778773188591,0.0,0.0,0.7578462362289429,-0.8595747351646423
-0.0384753234684467,1.1579532623291016,-0.1424280852079391,-0.5882221460342407,-0.1887657344341278,-0.1129615753889083,0.0,0.0,-0.5105056166648865,-0.8149192333221436
-0.0400689132511615,1.1441439390182495,-0.1554862707853317,-0.6142417192459106,-0.1926639378070831,-0.0779710859060287,0.0,0.0,0.677981972694397,-0.9209893941879272
-0.0417954437434673,1.1308250427246094,-0.1701093763113021,-0.5922862887382507,-0.1952215135097503,-0.0511512272059917,0.0,0.0,0.5421479940414429,-0.3760668039321899
-0.0434191711246967,1.11788809299469,-0.1595757454633712,-0.5753448605537415,-0.1980389356613159,-0.0563482753932476,0.0,0.0,0.1184157133102417,-0.3479981422424316
-0.0450504310429096,1.1051843166351318,-0.1596439480781555,-0.5650834441184998,-0.2015432715415954,-0.0700866430997848,0.0,0.0,0.7362827062606812,-0.8016436100006104
-0.0467566475272178,1.0931329727172852,-0.1681906431913375,-0.5359489917755127,-0.2039963006973266,-0.0490606427192688,0.0,0.0,0.4510009288787842,-0.7617680430412292
-0.0484830848872661,1.0811176300048828,-0.1714173853397369,-0.5341850519180298,-0.2052323818206787,-0.0247211791574955,0.0,0.0,0.81076979637146,-0.1613648533821106
-0.0500263199210166,1.069843888282776,-0.1529081165790558,-0.5012490153312683,-0.2066550254821777,-0.028453255072236,0.0,0.0,-0.0084772109985351,-0.3638796210289001
-0.0515938773751258,1.0579555034637451,-0.1550700962543487,-0.5286105871200562,-0.2083602249622345,-0.0341039970517158,0.0,0.0,0.40994393825531,-0.7721732258796692
-0.0531785003840923,1.0465068817138672,-0.1579287201166153,-0.5089074373245239,-0.208903893828392,-0.0108734462410211,0.0,0.0,-0.081602394580841,-0.6186636686325073
-0.0548382773995399,1.034454584121704,-0.1665101945400238,-0.5355740785598755,-0.2083602845668792,0.01087252702564,0.0,0.0,-0.4632152318954468,-0.3583420515060425
-0.0565178878605365,1.0217878818511963,-0.1682184487581253,-0.5629355907440186,-0.2081020176410675,0.0051646227948367,0.0,0.0,-0.4769769310951233,-0.3546682596206665
-0.0582159981131553,1.008506178855896,-0.1697810888290405,-0.5902971029281616,-0.2081299573183059,-0.0005588805070146,0.0,0.0,-0.8421280980110168,0.0041929483413696
-0.059931181371212,0.9946098923683168,-0.1712014377117157,-0.6176586151123047,-0.2084447741508484,-0.0062964567914605,0.0,0.0,-0.4441351890563965,-0.0975009799003601
-0.0616619102656841,0.9800987839698792,-0.1724830418825149,-0.6450201869010925,-0.2090470939874649,-0.0120462719351053,0.0,0.0,-0.5084217190742493,-0.5418755412101746
-0.063450813293457,0.9649930000305176,-0.1791557073593139,-0.671326756477356,-0.2087720185518264,0.005501473788172,0.0,0.0,-0.6952325701713562,-0.5210034251213074
-0.0652908310294151,0.9492855668067932,-0.1849870979785919,-0.6979780793190002,-0.2077863067388534,0.0197144262492656,0.0,0.0,-0.6203417181968689,-0.4544500708580017
-0.0671427696943283,0.9329631328582764,-0.1858763545751571,-0.7253397703170776,-0.2070893347263336,0.0139392912387847,0.0,0.0,0.4425212144851684,-0.6853439807891846
-0.0688480362296104,0.916675627231598,-0.1725092828273773,-0.7236141562461853,-0.2050883919000625,0.0400189869105815,0.0,0.0,-0.0800158381462097,-0.1672530770301818
-0.0705626457929611,0.8997734189033508,-0.173159122467041,-0.750976026058197,-0.2033765017986297,0.0342376753687858,0.0,0.0,0.7607753276824951,-0.6144909858703613
-0.0721077919006347,0.8830631971359253,-0.1574461907148361,-0.7422796487808228,-0.2004336565732956,0.0588571429252624,0.0,0.0,0.346429705619812,0.1498904228210449
-0.0736449211835861,0.8661010265350342,-0.1561910212039947,-0.7535430192947388,-0.1979329288005828,0.0500146150588989,0.0,0.0,0.0540258884429931,-0.5029810667037964
-0.0751542076468467,0.848834753036499,-0.1541778147220611,-0.7669551372528076,-0.194655492901802,0.0655485093593597,0.0,0.0,0.4963321685791015,-0.2425819039344787
-0.0765359848737716,0.8315336108207703,-0.1414113640785217,-0.7685232162475586,-0.1914107203483581,0.0648955702781677,0.0,0.0,-0.114487886428833,-0.0841156244277954
-0.0779221504926681,0.8136175870895386,-0.1415502578020095,-0.7958852648735046,-0.1884535849094391,0.0591423623263835,0.0,0.0,0.3976417779922485,-0.3178361058235168
-0.0792968720197677,0.7961009740829468,-0.1396184712648391,-0.7782489657402039,-0.1863026171922683,0.0430195406079292,0.0,0.0,0.5978072881698608,-0.6379663944244385
-0.0806547179818153,0.7787131071090698,-0.1388622522354126,-0.7724137902259827,-0.1832085102796554,0.0618819892406463,0.0,0.0,-0.2890218496322632,-0.0418906211853027
-0.0820143669843673,0.7607104182243347,-0.1387596875429153,-0.7997755408287048,-0.1803994327783584,0.0561814121901989,0.0,0.0,0.7686737775802612,0.0588685274124145
-0.0832941979169845,0.7432733178138733,-0.1302149295806884,-0.7747103571891785,-0.1781593114137649,0.0448024645447731,0.0,0.0,0.0938494205474853,-0.6415771842002869
-0.084492303431034,0.7256444096565247,-0.123147502541542,-0.7831146717071533,-0.1748161613941192,0.0668630972504615,0.0,0.0,0.3695721626281738,0.0578370094299316
-0.0855726227164268,0.7083767056465149,-0.1111032962799072,-0.7670937180519104,-0.1717414855957031,0.0614935979247093,0.0,0.0,0.6507198810577393,-0.4946785569190979
-0.0864223465323448,0.6911762356758118,-0.0884512513875961,-0.764072835445404,-0.1682569831609726,0.0696900188922882,0.0,0.0,0.5054030418395996,-0.1277369260787964
-0.0872849449515342,0.6740175485610962,-0.0890518948435783,-0.7622888684272766,-0.1654519885778427,0.0560998804867267,0.0,0.0,0.7480528354644775,0.0402103662490844
-0.0879088416695594,0.6574673652648926,-0.0653796643018722,-0.7352415919303894,-0.1624612510204315,0.0598147138953208,0.0,0.0,-0.0185029506683349,-0.4353841543197632
-0.0885308235883712,0.6403021216392517,-0.0649168118834495,-0.7626025676727295,-0.1597423106431961,0.0543787963688373,0.0,0.0,0.4770060777664184,-0.4581974744796753
-0.0889676064252853,0.6235961318016052,-0.0464297756552696,-0.7421929240226746,-0.1569832563400268,0.0551810041069984,0.0,0.0,0.3757442235946655,-0.8368475437164307
-0.0894349068403244,0.6072843074798584,-0.0508265681564807,-0.7245416641235352,-0.1528925597667694,0.0818135440349578,0.0,0.0,-0.0086094141006469,-0.5677053928375244
-0.089940644800663,0.5903623104095459,-0.0554461069405078,-0.7515957355499268,-0.1480274498462677,0.0973021909594535,0.0,0.0,0.5210068225860596,-0.1460763216018676
-0.0904396027326583,0.5738040804862976,-0.0540842115879058,-0.7355128526687622,-0.1438476145267486,0.0835966318845748,0.0,0.0,0.3927986621856689,-0.5466499924659729
-0.0908041968941688,0.5572618842124939,-0.0417514480650424,-0.7347049117088318,-0.1385720819234848,0.1055109053850174,0.0,0.0,0.787582278251648,0.1354494094848632
-0.0910490006208419,0.5410850644111633,-0.0296402070671319,-0.7185012698173523,-0.1334278881549835,0.1028838977217674,0.0,0.0,0.5545827150344849,-0.5125483870506287
-0.0912733078002929,0.5248570442199707,-0.0284042991697788,-0.7207246422767639,-0.1274850219488144,0.1188574656844139,0.0,0.0,0.8115043640136719,0.4161406755447387
-0.0915470123291015,0.5090042352676392,-0.0324744135141372,-0.7041386365890503,-0.122408740222454,0.1015258580446243,0.0,0.0,0.8055462837219238,-0.5541858077049255
-0.0917219147086143,0.4939391016960144,-0.0235441476106643,-0.6690801382064819,-0.1163868978619575,0.1204369068145752,0.0,0.0,-0.0223535895347595,0.2915599346160888
-0.0918942466378212,0.4782591164112091,-0.023065784946084,-0.6964418888092041,-0.1105912178754806,0.1159133687615394,0.0,0.0,0.8966693878173828,0.0529217720031738
-0.0919252410531044,0.463420420885086,-0.0088578928261995,-0.6590845584869385,-0.1048711463809013,0.1144012808799743,0.0,0.0,0.6042499542236328,0.2319669723510742
-0.0919968634843826,0.4486667811870575,-0.0122933462262153,-0.655363917350769,-0.0997853502631187,0.1017159819602966,0.0,0.0,0.8051600456237793,-0.0160315036773681
-0.0920929908752441,0.4344175159931183,-0.0140629280358552,-0.6330122351646423,-0.0953670442104339,0.0883660018444061,0.0,0.0,0.3982243537902832,0.6838219165802002
-0.0920549407601356,0.4203289747238159,0.000865354842972,-0.6259716749191284,-0.0924552679061889,0.0582354739308357,0.0,0.0,0.673314094543457,0.299454927444458
-0.0920669585466384,0.4069208800792694,-0.0033407129812985,-0.5957847237586975,-0.0903323516249656,0.0424586720764637,0.0,0.0,0.4337040185928345,-0.0653671026229858
-0.0919697731733322,0.3936375081539154,0.0074554122984409,-0.5902365446090698,-0.0880897939205169,0.0448512621223926,0.0,0.0,0.536357045173645,0.5774726867675781
-0.0918291062116622,0.3802761733531952,0.0132055580615997,-0.5937852263450623,-0.0872446820139885,0.0169024616479873,0.0,0.0,0.7012444734573364,-0.2393137812614441
-0.0915902107954025,0.3667905926704407,0.0228667221963405,-0.5993004441261292,-0.0862290635704994,0.020312201231718,0.0,0.0,0.6908581256866455,-0.4571740627288818
-0.0913547500967979,0.3532129526138305,0.0228128656744956,-0.6034082770347595,-0.0855045989155769,0.0144892437383532,0.0,0.0,0.8809666633605957,-0.2994982004165649
-0.0910534858703613,0.3403708338737488,0.0295727495104074,-0.5707305073738098,-0.0849532037973404,0.0110279247164726,0.0,0.0,0.7254123687744141,-0.2673794031143188
-0.0905990600585937,0.3281759321689605,0.0446134433150291,-0.5419466495513916,-0.0841310396790504,0.0164433531463146,0.0,0.0,0.4132978916168213,-0.8632299304008484
-0.0902647972106933,0.3164417445659637,0.0310761518776416,-0.5213906764984131,-0.0818123146891594,0.0463746562600135,0.0,0.0,0.4291307926177978,-0.3202890157699585
-0.0900226607918739,0.3045342266559601,0.0224860254675149,-0.5291298627853394,-0.0800991505384445,0.0342630818486213,0.0,0.0,0.8968794345855713,0.4197180271148681
-0.0896662697196006,0.2933627367019653,0.0337601229548454,-0.496410071849823,-0.0782448351383209,0.0370863862335681,0.0,0.0,0.2127315998077392,-0.1715909242630005
-0.0893566161394119,0.2822163105010986,0.0295096337795257,-0.495321124792099,-0.076792411506176,0.0290486961603164,0.0,0.0,0.4690535068511963,-0.0642939805984497
-0.0890554413199424,0.271361380815506,0.0289186239242553,-0.4823786318302154,-0.0756076499819755,0.0236950926482677,0.0,0.0,0.4655255079269409,0.4459500312805176
-0.0887250900268554,0.2608200311660766,0.0319117978215217,-0.4684504270553589,-0.0744981989264488,0.0221889689564704,0.0,0.0,0.15260910987854,-0.2998772263526916
-0.0883118659257888,0.2502634823322296,0.0399262830615043,-0.4691104590892792,-0.0731173679232597,0.0276165511459112,0.0,0.0,-0.1210591793060302,-0.3127074837684631
-0.0879075974225997,0.239091470837593,0.0390290133655071,-0.4964671432971954,-0.071730189025402,0.0277435723692178,0.0,0.0,0.905487060546875,-0.2634124755859375
-0.087373062968254,0.2279872000217437,0.051523607224226,-0.4934313595294952,-0.0698252841830253,0.0380982235074043,0.0,0.0,0.6131625175476074,-0.5980645418167114
-0.0867029204964637,0.2170903533697128,0.0634787231683731,-0.4841421842575073,-0.0663168057799339,0.070169486105442,0.0,0.0,0.4260909557342529,-0.7107014656066895
-0.0859451293945312,0.2060746997594833,0.0705118477344513,-0.4893628656864166,-0.061110109090805,0.1041341051459312,0.0,0.0,0.4888303279876709,-0.0046384334564208
-0.0851637870073318,0.1954578757286071,0.0728145390748977,-0.4716521203517914,-0.0558552555739879,0.1050968617200851,0.0,0.0,0.4115902185440063,-0.1855103969573974
-0.0843337029218673,0.1851942390203476,0.077485516667366,-0.4559645652770996,-0.0503904446959495,0.1092962771654129,0.0,0.0,0.3877135515213012,-0.0114969611167907
-0.0833855643868446,0.1751469671726226,0.0886841565370559,-0.4463517367839813,-0.0443384870886802,0.1210388392210006,0.0,0.0,0.4790434837341308,-0.4872398376464844
-0.0823501572012901,0.1649165898561477,0.096875175833702,-0.4545019865036011,-0.0377504527568817,0.1317605227231979,0.0,0.0,0.678961992263794,-0.2015131115913391
-0.0813653916120529,0.1548498719930648,0.0919215679168701,-0.4472578465938568,-0.031276311725378,0.1294830590486526,0.0,0.0,0.6169562339782715,0.1498246192932129
-0.0802892670035362,0.1454303115606308,0.1005139723420143,-0.4185155928134918,-0.0242717023938894,0.1400923877954483,0.0,0.0,0.5144546031951904,-0.8483201265335083
-0.0793105140328407,0.1361814141273498,0.0889352262020111,-0.4109444618225097,-0.0154526084661483,0.1763817816972732,0.0,0.0,0.6881773471832275,0.9072065353393556
-0.0784094780683517,0.1275467723608017,0.0830475613474845,-0.3837035000324249,-0.0084787234663963,0.13947793841362,0.0,0.0,0.5883117914199829,0.894256591796875
-999.0,0.1193058118224144,0.0994568094611167,-0.3662417232990265,-0.0029666642658412,0.1102411374449729,0.0,0.0,-0.0041522979736328,0.6886868476867676
-0.0762811675667762,0.1104545220732688,0.1032665744423866,-0.393391489982605,0.0014957919484004,0.0892490595579147,0.0,0.0,0.7813973426818848,-0.2145387530326843
-0.0753170028328895,0.1021987497806549,0.0921060293912887,-0.3669329881668091,0.005754895042628,0.0851820260286331,0.0,0.0,0.6111630201339722,-0.2589001655578613
-0.0744041427969932,0.0940559208393096,0.0868588835000991,-0.361925721168518,0.0101215513423085,0.0873333662748336,0.0,0.0,0.7291171550750732,0.774116039276123
-0.073595717549324,0.0862415432929992,0.078010506927967,-0.3473267257213592,0.0129118040204048,0.0558050945401191,0.0,0.0,0.7731337547302246,0.5056812763214111
-0.0729525536298751,0.0786511749029159,0.0627746880054473,-0.337363988161087,0.0144396042451262,0.0305559672415256,0.0,0.0,0.8126931190490723,0.819675087928772
-0.0721557587385177,0.0716368779540062,0.0792807638645172,-0.3117488324642181,0.0148354675620794,0.0079170418903231,0.0,0.0,0.3861843347549438,-0.629134476184845
-0.0713851898908615,0.0644661486148834,0.0750135034322738,-0.3187206089496612,0.0168489404022693,0.040269561111927,0.0,0.0,0.7823605537414551,0.9686777591705322
-0.0704066306352615,0.0579282864928245,0.097250297665596,-0.2905790507793426,0.0174584221094846,0.0121894693002104,0.0,0.0,0.4250807762145996,0.0581535100936889
-0.0694898590445518,0.0517783723771572,0.090879313647747,-0.2733398377895355,0.0182466581463813,0.0157646313309669,0.0,0.0,0.4561351537704468,0.1003558635711669
-0.0684925094246864,0.0461458787322044,0.0980653315782547,-0.2503507733345032,0.0198931451886892,0.0329298935830593,0.0,0.0,0.0759522914886474,-0.1925458312034607
-0.0674854293465614,0.0404656752943992,0.0985230356454849,-0.2524854242801666,0.0220520384609699,0.0431777164340019,0.0,0.0,0.3696496486663818,0.7236819267272949
-0.0664760619401931,0.0351940244436264,0.0999259799718856,-0.23431096971035,0.0230487007647752,0.0199334286153316,0.0,0.0,0.2259570360183715,0.8263888359069824
-0.0653975456953048,0.0301946029067039,0.1081703901290893,-0.2221897095441818,0.0227370504289865,-0.0062332316301763,0.0,0.0,0.1541078090667724,-0.2006112337112426
-0.0643051117658615,0.0250620692968368,0.1089961677789688,-0.2281194031238556,0.0229837168008089,0.004933594726026,0.0,0.0,0.4684451818466186,0.3474452495574951
-0.0633698478341102,0.020134387537837,0.0934770852327346,-0.2190074622631073,0.0230298601090908,0.0009228870039805,0.0,0.0,0.5818934440612793,0.3882017135620117
-0.0626055747270584,0.0153261516243219,0.0766491368412971,-0.2136947363615036,0.0228138677775859,-0.0043198545463383,0.0,0.0,0.6146998405456543,0.9316401481628418
-0.0618412978947162,0.010729918256402,0.0782435685396194,-0.2042499929666519,0.0210240017622709,-0.0357974357903003,0.0,0.0,0.809838056564331,0.4385873079299927
-0.0610990524291992,0.0063955760560929,0.0755869895219802,-0.1926201283931732,0.0196792483329772,-0.0268949680030345,0.0,0.0,0.7314937114715576,0.7942135334014893
-0.0601897239685058,0.0020100569818168,0.0932799279689788,-0.1948827654123306,0.0173627454787492,-0.0463297963142395,0.0,0.0,0.8422350883483887,0.5649518966674805
-0.0591725334525108,-0.0018406296148896,0.1045467630028724,-0.1711104959249496,0.0145630035549402,-0.0559947006404399,0.0,1.0,0.8960393667221069,0.8442251682281494
-0.0581017509102821,-0.0046353484503924,0.1181793585419654,-0.124351866543293,0.002774060703814,-0.2368322312831878,1.0,1.0,0.9889817237854004,-0.9462075233459472
