x_pos,y_pos,x_vel,y_vel,angle,ang_vel,leg_1,leg_2,main_booster,lat_booster
-0.0015031814109534,1.403322458267212,-0.152552917599678,-0.3376785218715668,0.0020033721812069,0.03953617811203,0.0,0.0,-0.3787497282028198,0.8158037662506104
-0.0029165267478674,1.3954418897628784,-0.1417852640151977,-0.3502439260482788,0.0024471473880112,0.0088771525770425,0.0,0.0,-0.3411498069763183,0.3652430772781372
-0.0043097496964037,1.387258768081665,-0.1400186866521835,-0.3636952936649322,0.0031311614438891,0.0136817321181297,0.0,0.0,-0.3396209478378296,0.5534372329711914
-0.0056484220549464,1.3787719011306765,-0.1339020729064941,-0.3771980106830597,0.0031743361614644,0.0008637239225208,0.0,0.0,-0.1655682325363159,0.8048739433288574
-0.0068907737731933,1.369985818862915,-0.1225624680519104,-0.3904939293861389,0.0015216364990919,-0.033057227730751,0.0,0.0,-0.3513594269752502,0.7874660491943359
-0.0080379489809274,1.3608965873718262,-0.1113521605730056,-0.4039636254310608,-0.0018085503252223,-0.066610001027584,0.0,0.0,0.2079288959503173,0.6442084312438965
-0.0091333389282226,1.3521387577056885,-0.1050868406891822,-0.3892504572868347,-0.0062122116796672,-0.0880815088748931,0.0,0.0,0.0247149467468261,0.3827719688415527
-0.0101151466369628,1.343679904937744,-0.0944162011146545,-0.3759702444076538,-0.009943863376975,-0.0746397152543068,0.0,0.0,-0.707966148853302,0.0945020914077758
-0.0110793113708496,1.3349188566207886,-0.0928640738129615,-0.3894016444683075,-0.0134486239403486,-0.0701013207435607,0.0,0.0,-0.6408342123031616,-0.3123018741607666
-0.0120260240510106,1.32585608959198,-0.0913593024015426,-0.4028288125991821,-0.0167284905910491,-0.0656034275889396,0.0,0.0,-0.8233222961425781,-0.0473979711532592
-0.0129559515044093,1.3164911270141602,-0.0899053663015365,-0.416256844997406,-0.0197867006063461,-0.0611694864928722,0.0,0.0,-0.4370271563529968,0.0896015167236328
-0.0138695714995265,1.306823968887329,-0.0885053575038909,-0.4296855628490448,-0.0226264968514442,-0.0568007342517375,0.0,0.0,-0.5393047332763672,0.1890838146209716
-0.0147678377106785,1.2968549728393557,-0.0871623083949089,-0.4431141912937164,-0.0252513233572244,-0.0525013096630573,0.0,0.0,-0.9383502006530762,-0.0534648299217224
-0.0156510360538959,1.2865835428237915,-0.0858794748783111,-0.4565427899360657,-0.0276649110019207,-0.0482761338353157,0.0,0.0,-0.6552282571792603,-0.1027613878250122
-0.0165200233459472,1.276010274887085,-0.0846602097153663,-0.4699712693691253,-0.0298712290823459,-0.0441304668784141,0.0,0.0,-0.8364968299865723,-0.7197127938270569
-0.0174219124019145,1.2651283740997314,-0.0893514901399612,-0.4836592674255371,-0.0307069085538387,-0.0167153365910053,0.0,0.0,-0.5836136341094971,-0.0615801811218261
-0.0183111187070608,1.2539441585540771,-0.0882730036973953,-0.4970873594284057,-0.0313447900116443,-0.0127585213631391,0.0,0.0,-0.660226583480835,0.2458491325378418
-0.0191883090883493,1.2424577474594116,-0.0872680097818374,-0.5105155110359192,-0.0317888893187046,-0.0088829258456826,0.0,0.0,-0.1000849604606628,-0.7351611852645874
-0.0201027877628803,1.2306784391403198,-0.0924329683184623,-0.5235059261322021,-0.0308191608637571,0.0193964336067438,0.0,0.0,-0.6643403172492981,-0.3293402194976806
-0.0210070610046386,1.2185969352722168,-0.091589517891407,-0.5369341969490051,-0.0296671632677316,0.0230419095605611,0.0,0.0,-0.4375653266906738,-0.0392749905586242
-0.0219018943607807,1.206213116645813,-0.0908296108245849,-0.5503624081611633,-0.0283378921449184,0.0265877936035394,0.0,0.0,-0.5602812767028809,-0.1945180892944336
-0.0227883346378803,1.1935272216796875,-0.0901568233966827,-0.5637907385826111,-0.026837658137083,0.0300075076520442,0.0,0.0,-0.7751977443695068,0.5292744636535645
-0.0236164089292287,1.1805362701416016,-0.0831952765583992,-0.5773658156394958,-0.0264517143368721,0.0077194930054247,0.0,0.0,-0.732893168926239,-0.0233900547027587
-0.0244379043579101,1.1672431230545044,-0.0827013477683067,-0.5907939076423645,-0.0259073004126548,0.0108892079442739,0.0,0.0,-0.8098133206367493,-0.645631730556488
-0.0253169052302837,1.1536521911621094,-0.0902176573872566,-0.6040061712265015,-0.0236254408955574,0.0456414744257926,0.0,0.0,-0.6478453278541565,0.6757439374923706
-0.0261513702571392,1.139739751815796,-0.0848649814724922,-0.6183090806007385,-0.0222188085317611,0.0281323492527008,0.0,0.0,-0.7402984499931335,0.4739900827407837
-0.026982307434082,1.1255251169204712,-0.0846618488430976,-0.6317354440689087,-0.020676352083683,0.0308493822813034,0.0,0.0,-0.3408668041229248,0.4064041376113891
-0.027811050415039,1.111008644104004,-0.084559753537178,-0.6451618075370789,-0.019006049260497,0.0334058888256549,0.0,0.0,-0.0087385177612304,0.3860437870025635
-0.0286385528743267,1.0961897373199463,-0.0845600664615631,-0.6585882902145386,-0.0172162801027297,0.0357953049242496,0.0,0.0,-0.6758445501327515,0.2128819227218628
-0.0294659622013568,1.081068992614746,-0.0846637934446334,-0.6720148921012878,-0.0153157021850347,0.0380114316940307,0.0,0.0,-0.3429344296455383,0.4957617521286011
-0.0302943233400583,1.065646052360535,-0.0848714858293533,-0.6854415535926819,-0.013313285075128,0.0400487929582595,0.0,0.0,-0.879883348941803,0.3293541669845581
-0.0311249736696481,1.0499211549758911,-0.0851833447813987,-0.6988683342933655,-0.0112181706354022,0.0419020876288414,0.0,0.0,-0.3730795383453369,0.318293809890747
-0.0319588668644428,1.0338943004608154,-0.0855990648269653,-0.7122949957847595,-0.0090398276224732,0.0435667186975479,0.0,0.0,0.1081408262252807,0.221855878829956
-0.0328377708792686,1.0179286003112793,-0.0899736359715461,-0.7095702290534973,-0.0069856960326433,0.0410827696323394,0.0,0.0,-0.071446418762207,-0.8017024993896484
-0.0337840095162391,1.0016634464263916,-0.0983387529850006,-0.7228868007659912,-0.0033165924251079,0.0733818858861923,0.0,0.0,-0.0936284065246582,0.4515445232391357
-0.0347369201481342,0.9850963950157166,-0.0990601554512977,-0.7363144755363464,0.0004063710512127,0.074459470808506,0.0,0.0,-0.1703565120697021,0.7897725105285645
-0.0356377586722373,0.96822327375412,-0.0923795253038406,-0.7499197721481323,0.0026711381506174,0.0452952086925506,0.0,0.0,0.4391885995864868,-0.2681531906127929
-0.0365160927176475,0.9520428776741028,-0.090310201048851,-0.7191353440284729,0.0051230485551059,0.0490382723510265,0.0,0.0,-0.3610311150550842,0.2053350210189819
-0.0374042503535747,0.9355605244636536,-0.0913201421499252,-0.7325623035430908,0.0075986860319972,0.0495126545429229,0.0,0.0,-0.3883626461029053,0.5353033542633057
-0.0382589325308799,0.9187771677970886,-0.0868564993143081,-0.7459308505058289,0.0089734932407736,0.0274961777031421,0.0,0.0,-0.533812940120697,-0.3562151789665222
-0.039125345647335,0.901691734790802,-0.0880449265241622,-0.7593574523925781,0.010351987555623,0.0275698006153106,0.0,0.0,-0.5751182436943054,-0.2046409845352172
-0.0400047302246093,0.8843044638633728,-0.0893176943063736,-0.7727841138839722,0.0117242820560932,0.02744578756392,0.0,0.0,-0.5893623232841492,-0.3384827375411987
-0.040897749364376,0.8666149973869324,-0.0906713306903839,-0.7862107753753662,0.0130806425586342,0.0271269045770168,0.0,0.0,0.1088331937789917,0.5273423194885254
-0.0416946411132812,0.8491566181182861,-0.0801141262054443,-0.7759262323379517,0.0134981255978345,0.0083496822044253,0.0,0.0,0.3983172178268432,0.6392650604248047
-0.04249744489789,0.8317629098892212,-0.0793072655797004,-0.7730506658554077,0.012536471709609,-0.019233226776123,0.0,0.0,0.5207661390304565,-0.3182691931724548
-0.0432780273258686,0.8145291209220886,-0.0772357434034347,-0.7659397125244141,0.0117263738065958,-0.0162019152194261,0.0,0.0,-0.2448165416717529,-0.7745956778526306
-0.0441306121647357,0.7969880104064941,-0.0857843309640884,-0.7796086668968201,0.0122478231787681,0.0104288458824157,0.0,0.0,0.6881442070007324,0.5447173118591309
-0.0450910553336143,0.7804269790649414,-0.0950787886977195,-0.7360360622406006,0.0112950513139367,-0.0190554372966289,0.0,0.0,-0.6597104668617249,-0.7446578145027161
-0.0461418144404888,0.7635692954063416,-0.105867363512516,-0.7492383718490601,0.0120791224762797,0.0156816113740205,0.0,0.0,0.0061098337173461,0.8755471706390381
-0.0471612922847271,0.7468724846839905,-0.1008955985307693,-0.7420711517333984,0.0110457940027117,-0.0206666197627782,0.0,0.0,-0.4561100602149963,0.1385340690612793
-0.0482003204524517,0.7298735976219177,-0.1027640253305435,-0.7554976940155029,0.0099268555641174,-0.0223789140582084,0.0,0.0,-0.3235681653022766,-0.2252562046051025
-0.0492593757808208,0.7125726938247681,-0.1046808511018753,-0.7689240574836731,0.0087148956954479,-0.0242391936480999,0.0,0.0,-0.0039970874786376,0.5532526969909668
-0.0502874366939067,0.6949672102928162,-0.1001503691077232,-0.7824497818946838,0.0061030285432934,-0.0522375516593456,0.0,0.0,0.6119825839996338,0.3580775260925293
-0.0513380989432334,0.6782272458076477,-0.102329596877098,-0.7439896464347839,0.0033986729104071,-0.0540873631834983,0.0,0.0,0.4655463695526123,0.1183174848556518
-0.0522796623408794,0.661834716796875,-0.091920182108879,-0.7285544872283936,0.0011924307327717,-0.0441247895359993,0.0,0.0,-0.2378787994384765,-0.3624321222305298
-0.0532432571053504,0.6451401114463806,-0.09399975836277,-0.7419813275337219,-0.0011331661371514,-0.0465122014284133,0.0,0.0,0.2313700914382934,0.5201643705368042
-0.0541108138859272,0.6290391087532043,-0.0833929330110549,-0.7156042456626892,-0.0044556837528944,-0.066450297832489,0.0,0.0,-0.3264061212539673,0.6216926574707031
-0.0549407973885536,0.6126382946968079,-0.0779488906264305,-0.7289419770240784,-0.0094284042716026,-0.0994545891880989,0.0,0.0,0.1629471778869629,0.4042518138885498
-0.0557355880737304,0.5968044400215149,-0.0745612308382988,-0.7037671208381653,-0.0142936846241354,-0.0973056107759475,0.0,0.0,-0.8559526801109314,-0.3782385587692261
-0.0565539374947547,0.5806688666343689,-0.0767616033554077,-0.7171957492828369,-0.01929965429008,-0.1001194715499877,0.0,0.0,-0.0473495721817016,0.098081350326538
-0.0573959350585937,0.5642315149307251,-0.078986719250679,-0.7306245565414429,-0.0244509316980838,-0.1030253171920776,0.0,0.0,0.5460566282272339,0.307660698890686
-0.0583396926522254,0.548480212688446,-0.0885690972208976,-0.7001615166664124,-0.0301859248429536,-0.1147001236677169,0.0,0.0,0.328713059425354,0.7591211795806885
-0.0591235160827636,0.5330414175987244,-0.0710420235991478,-0.6863334774971008,-0.0374349616467952,-0.1449806839227676,0.0,0.0,-0.5880458354949951,-0.6164899468421936
-0.0599785819649696,0.5173047780990601,-0.0792059898376464,-0.6995773911476135,-0.0436630062758922,-0.1245609521865844,0.0,0.0,0.2324910163879394,0.122623324394226
-0.0608394630253315,0.5017143487930298,-0.0796506479382515,-0.6931072473526001,-0.0500251129269599,-0.1272422820329666,0.0,0.0,0.0921584367752075,-0.2811038494110107
-0.0617873184382915,0.4864141047000885,-0.0878089740872383,-0.6802636384963989,-0.0569301843643188,-0.1381011009216308,0.0,0.0,-0.7145853042602539,-0.277488648891449
-0.0627603530883789,0.4708123803138733,-0.0901472866535186,-0.6936949491500854,-0.0640026926994323,-0.1414503753185272,0.0,0.0,0.917027711868286,0.6060307025909424
-0.063587762415409,0.4553960561752319,-0.0744749754667282,-0.685550332069397,-0.0721775516867637,-0.163497045636177,0.0,0.0,0.8655579090118408,-0.7464264035224915
-0.064396284520626,0.4411319196224212,-0.0740030631422996,-0.634303629398346,-0.0789625197649002,-0.1356994211673736,0.0,0.0,-0.1167914867401123,-0.4202994108200073
-0.0652303695678711,0.4265666007995605,-0.076380118727684,-0.647735059261322,-0.0859230309724807,-0.1392103135585785,0.0,0.0,0.8162264823913574,-0.8767626881599426
-0.0662062615156173,0.412839263677597,-0.0919395014643669,-0.6104386448860168,-0.0915141180157661,-0.1118215918540954,0.0,0.0,0.322843074798584,-0.0612662434577941
-0.0671377182006836,0.3995514512062073,-0.0874438285827636,-0.590930700302124,-0.0971712842583656,-0.1131433621048927,0.0,0.0,0.6461122035980225,-0.0064601302146911
-0.0681411772966384,0.3872371912002563,-0.0938603430986404,-0.5477378964424133,-0.1036042049527168,-0.1286586374044418,0.0,0.0,-0.961583137512207,-0.417413592338562
-0.0691705718636512,0.374621570110321,-0.0962757617235183,-0.5611695051193237,-0.1102209016680717,-0.1323338001966476,0.0,0.0,-0.8991641402244568,-0.8829694390296936
-0.0702999085187912,0.3617099225521087,-0.107951819896698,-0.5742271542549133,-0.1151657178997993,-0.0988963469862937,0.0,0.0,0.1646866798400879,0.2215521335601806
-0.0713813751935958,0.3488299548625946,-0.1032087206840515,-0.5728315114974976,-0.1200757250189781,-0.098200038075447,0.0,0.0,0.3833792209625244,-0.728492259979248
-0.07254209369421,0.3360801637172699,-0.112359918653965,-0.5669620633125305,-0.1237691491842269,-0.0738685876131057,0.0,0.0,0.7570595741271973,-0.2010979652404785
-0.0736338645219802,0.324286013841629,-0.1052267178893089,-0.5245143175125122,-0.1276933252811432,-0.0784833878278732,0.0,0.0,-0.0951874256134033,0.4471645355224609
-0.0747518539428711,0.3121903240680694,-0.1076740622520446,-0.5379440784454346,-0.1318081468343734,-0.082296147942543,0.0,0.0,-0.362713098526001,0.3389680385589599
-0.0758964568376541,0.2997931540012359,-0.110126219689846,-0.5513741374015808,-0.1361145079135894,-0.0861271247267723,0.0,0.0,0.4621343612670898,-0.8880792260169983
-0.0772264450788497,0.2875616550445556,-0.1301145851612091,-0.5438900589942932,-0.1389916688203811,-0.0575433894991874,0.0,0.0,-0.4440275430679321,0.3715009689331054
-0.0785829573869705,0.2750284969806671,-0.1325748413801193,-0.5573195219039917,-0.1420619636774063,-0.0614058785140514,0.0,0.0,0.3750723600387573,0.6079739332199097
-0.0799422264099121,0.2629144191741943,-0.1312416791915893,-0.5388553142547607,-0.1467271000146865,-0.0933026224374771,0.0,0.0,0.5857753753662109,-0.8563332557678223
-0.0813575759530067,0.2514955997467041,-0.1382996141910553,-0.5078279972076416,-0.1499597430229187,-0.0646530240774154,0.0,0.0,-0.3234788179397583,-0.1412094235420227
-0.0827996283769607,0.2397751957178115,-0.1407693177461624,-0.5212576985359192,-0.1533870249986648,-0.0685456469655036,0.0,0.0,-0.0628131628036499,0.6224074363708496
-0.0842126831412315,0.2277405112981796,-0.1362469792366027,-0.5354034304618835,-0.1584348231554031,-0.1009564846754074,0.0,0.0,0.6950819492340088,0.9026249647140504
-0.0855006203055381,0.2158928662538528,-0.1217829436063766,-0.5273286700248718,-0.1654481738805771,-0.1402670741081237,0.0,0.0,0.816401481628418,-0.0089337825775146
-0.086641788482666,0.2043738216161728,-0.1073791533708572,-0.5127204656600952,-0.1721849590539932,-0.1347357928752899,0.0,0.0,0.9220187664031982,-0.7078934907913208
-0.0875686630606651,0.1935020089149475,-0.0876360088586807,-0.4837850332260132,-0.1772533804178238,-0.1013683304190635,0.0,0.0,0.9369785785675048,-0.7996436953544617
-0.0883284583687782,0.1829750835895538,-0.0727055445313453,-0.4682559967041015,-0.1805327087640762,-0.0655866041779518,0.0,0.0,0.7341701984405518,-0.8576406836509705
-0.0890456214547157,0.1733364462852478,-0.0699647888541221,-0.4285996258258819,-0.1822944283485412,-0.0352345183491706,0.0,0.0,-0.2091490030288696,-0.9458549618721008
-0.0898583382368087,0.1634224951267242,-0.0811215564608573,-0.4406386613845825,-0.1824464499950409,-0.0030403393320739,0.0,0.0,0.2342733144760131,-0.3004239797592163
-0.0905158966779708,0.1539166718721389,-0.065836951136589,-0.4224688708782196,-0.1823623031377792,0.001682823523879,0.0,0.0,-0.0322057008743286,-0.9449123740196228
-0.0912625342607498,0.144116461277008,-0.0761193335056305,-0.4353882670402527,-0.180900365114212,0.0292386263608932,0.0,0.0,0.7842420339584351,-0.18506920337677
-0.0919927582144737,0.1348413825035095,-0.0740231350064277,-0.4121037125587463,-0.1798940449953079,0.0201265439391136,0.0,0.0,0.818537712097168,-0.8324663639068604
-0.092542365193367,0.1266662180423736,-0.0576430261135101,-0.3630194664001465,-0.1772081404924392,0.0537179820239543,0.0,0.0,-0.2394181489944458,-0.8789286017417908
-0.0931897163391113,0.1182083189487457,-0.0690494924783706,-0.3753973543643951,-0.1728836745023727,0.0864893570542335,0.0,0.0,0.4579896926879883,0.6302423477172852
-0.0938115119934082,0.1105100214481353,-0.0648009926080703,-0.34184131026268,-0.1702564805746078,0.0525437407195568,0.0,0.0,0.3082685470581054,-0.5493084788322449
-0.094334602355957,0.1033218502998352,-0.0560049302875995,-0.3190574049949646,-0.1665569990873336,0.0739897340536117,0.0,0.0,0.0779767036437988,-0.1244377493858337
-0.0948375687003135,0.0965648964047432,-0.0536441877484321,-0.299935907125473,-0.1632076799869537,0.0669862627983093,0.0,0.0,0.0202590227127075,0.3704556226730346
-0.0953424423933029,0.0902032703161239,-0.0534051358699798,-0.2824208438396454,-0.160282090306282,0.0585119053721427,0.0,0.0,0.1876577138900756,0.7905666828155518
-0.0957754105329513,0.0840573608875274,-0.0444387830793857,-0.2730266749858856,-0.1591441482305526,0.022758949548006,0.0,0.0,0.1291277408599853,0.1326391696929931
-0.0962485298514366,0.0782375410199165,-0.0478926822543144,-0.2585978806018829,-0.1585597097873687,0.0116883432492613,0.0,0.0,0.608872652053833,0.660117506980896
-0.0967737212777137,0.0728953704237937,-0.0512509569525718,-0.2375636249780655,-0.1598283946514129,-0.0253736823797225,0.0,0.0,0.3828498125076294,0.8886162042617798
-0.0970599204301834,0.0681066587567329,-0.0254906471818685,-0.2131717801094055,-0.1629574447870254,-0.0625811368227005,0.0,0.0,0.4626152515411377,6.949901580810547e-05
-0.0972659140825271,0.0634866058826446,-0.017535937950015,-0.2056733518838882,-0.166015163064003,-0.0611547529697418,0.0,0.0,0.4934678077697754,-0.3673882484436035
-0.0972547531127929,0.0595527738332748,0.0037401453591883,-0.175135463476181,-0.168644517660141,-0.0525870434939861,0.0,0.0,-0.0438354015350341,-0.0492888689041137
-0.0972698181867599,0.0553172454237937,0.0012965879868716,-0.1885649710893631,-0.171450063586235,-0.0561109706759452,0.0,0.0,0.4363298416137695,-0.2058596611022949
-0.0970620140433311,0.0518463961780071,0.0231862682849168,-0.1545400768518448,-0.1738560050725937,-0.0481190122663974,0.0,0.0,0.0524928569793701,-0.5282298922538757
-0.0968042388558387,0.0486163012683391,0.0271946899592876,-0.143728494644165,-0.1752846539020538,-0.0285731144249439,0.0,0.0,0.0023918151855468,-0.7471858859062195
-0.0965482741594314,0.0458403192460536,0.0256931837648153,-0.123389795422554,-0.1753831356763839,-0.0019697535317391,0.0,0.0,-0.2649012804031372,-0.7017331123352051
-0.0963665023446083,0.0427816733717918,0.0171782970428466,-0.1358193457126617,-0.1743803769350052,0.0200551655143499,0.0,0.0,-0.3787161707878113,0.2171665430068969
-0.0962104797363281,0.03942147269845,0.0147716151550412,-0.1492482274770736,-0.173542633652687,0.0167544353753328,0.0,0.0,0.0858091115951538,0.2012447118759155
-0.096088983118534,0.0363807044923305,0.0118457861244678,-0.1351113468408584,-0.1732392758131027,0.0060671861283481,0.0,0.0,0.3222365379333496,0.0376611948013305
-0.096023179590702,0.0336734615266323,0.006916937418282,-0.1203611642122268,-0.1735709607601165,-0.0066337026655673,0.0,0.0,0.1083077192306518,0.0793174505233764
-0.0959315299987793,0.0312269311398267,0.0097184032201766,-0.1087992340326309,-0.1741265207529068,-0.0111112147569656,0.0,0.0,-0.135525107383728,-0.0382313728332519
-0.0958650559186935,0.0284786317497491,0.0073569826781749,-0.1222279444336891,-0.174836203455925,-0.0141938999295234,0.0,0.0,-0.0649642944335937,0.7353389263153076
-0.0957547202706337,0.0254036039113998,0.0136838974431157,-0.1369810551404953,-0.1774948537349701,-0.0531726703047752,0.0,0.0,0.3173092603683471,-0.0066577792167663
-0.0954964607954025,0.0228113755583763,0.0282711833715438,-0.1155067905783653,-0.1799420714378357,-0.0489446334540843,0.0,0.0,0.1252543926239013,-0.7858564853668213
-0.0952051132917404,0.0207469314336776,0.0301221366971731,-0.0918729752302169,-0.1809401512145996,-0.0199615061283111,0.0,0.0,-0.3246186971664428,0.1829996109008789
