x_pos,y_pos,x_vel,y_vel,angle,ang_vel,leg_1,leg_2,main_booster,lat_booster
-0.0015070915687829,1.4033899307250977,-0.1527919620275497,-0.3346769511699676,0.0018519464647397,0.0365385524928569,0.0,0.0,-0.4642391558351153,0.626814233039736
-0.0029444694519042,1.3956454992294312,-0.1442876160144806,-0.3442033231258392,0.0024030266795307,0.0110231917351484,0.0,0.0,0.4017684513472612,0.7140021442384474
-0.004183960147202,1.3881754875183103,-0.1234097927808761,-0.3320010602474212,0.0018668527482077,-0.0107245985418558,0.0,0.0,0.7343136964906523,-0.616858878885979
-0.0055907247588038,1.38125479221344,-0.1411038190126419,-0.3075827360153198,0.0022856658324599,0.0083774104714393,0.0,0.0,0.3604074436665205,-0.9900611564183424
-0.0069368360564112,1.374908208847046,-0.137208804488182,-0.282074898481369,0.0048478441312909,0.0512485317885875,0.0,0.0,-0.7351798175529618,-0.9011805928377508
-0.0083209034055471,1.3683254718780518,-0.142489805817604,-0.292585164308548,0.0088823223486542,0.0806973949074745,0.0,0.0,0.3592519414907913,0.6036167360387524
-0.0096652032807469,1.3622212409973145,-0.137350395321846,-0.2713132202625274,0.011773363687098,0.0578259155154228,0.0,0.0,0.6301747709626357,0.8651329360392226
-0.0107675548642873,1.3568466901779177,-0.1118100732564926,-0.2388853430747985,0.0133268143981695,0.0310718528926372,0.0,0.0,-0.3140591724921644,0.9615891078503894
-0.0117787364870309,1.3512494564056396,-0.1009026765823364,-0.2487699538469314,0.0131101766601204,-0.0043330402113497,0.0,0.0,-0.7155421108575408,-0.8871194938300058
-0.0128428461030125,1.3454216718673706,-0.1080687418580055,-0.2590235769748688,0.0147510087117552,0.0328195467591285,0.0,0.0,0.4345095650133022,-0.8663255835133269
-0.0138812065124511,1.3401347398757937,-0.1074300557374954,-0.2350179105997085,0.0183141678571701,0.0712694078683853,0.0,0.0,-0.7459944130123441,0.790746950831891
-0.0148326875641942,1.33461332321167,-0.0970840603113174,-0.2454177886247635,0.0202226042747497,0.0381721183657646,0.0,0.0,-0.5412788476805388,-0.6608675236718939
-0.0158080104738473,1.328859567642212,-0.100594975054264,-0.2557608485221863,0.0232562310993671,0.0606780424714088,0.0,0.0,-0.9809495977496576,-0.8632047654378885
-0.0168262477964162,1.322861671447754,-0.1065283641219139,-0.266663134098053,0.027902215719223,0.0929282456636428,0.0,0.0,0.5042218084757373,-0.6135865965241092
-0.0177572257816791,1.3177649974822998,-0.0994424074888229,-0.2266490310430526,0.0341805964708328,0.1255792379379272,0.0,0.0,0.1144435462710531,-0.6811923280776067
-0.0186478607356548,1.3127282857894895,-0.0969760343432426,-0.2240488231182098,0.0420084670186042,0.1565713882446289,0.0,0.0,-0.4382329948727306,-0.7019649106111163
-0.0195644386112689,1.3074636459350586,-0.1007526144385337,-0.2342661172151565,0.0510041490197181,0.1799297332763672,0.0,0.0,0.8218200361233514,-0.8688835198425734
-0.0203804019838571,1.302585244178772,-0.0928524732589721,-0.2172328531742096,0.0621488727629184,0.2229149341583252,0.0,0.0,-0.6138285533852519,0.9567260393301076
-0.021092414855957,1.2974908351898191,-0.0803074836730957,-0.2268191874027252,0.0711749121546745,0.1805371344089508,0.0,0.0,0.1663718087677834,0.9715500209731964
-0.0218063350766897,1.2927610874176023,-0.0786359161138534,-0.2105636596679687,0.0783546268939971,0.1436070054769516,0.0,0.0,-0.2007894860501617,0.6767895692335096
-0.0224390029907226,1.28780996799469,-0.0689492151141166,-0.2203572541475296,0.0839926078915596,0.112769529223442,0.0,0.0,0.6890382463812355,-0.7824355805229696
-0.023140812292695,1.2832903861999512,-0.0775550678372383,-0.2012932002544403,0.0913049578666687,0.1462601572275161,0.0,0.0,-0.7652256847908372,-0.8169939430910022
-0.0238761901855468,1.2785290479660034,-0.0822779014706611,-0.2121682465076446,0.0999815911054611,0.1735485792160034,0.0,0.0,-0.5253892548489025,-0.9539251013659744
-0.0246604923158884,1.2735140323638916,-0.0889379233121872,-0.2236271351575851,0.1104293763637542,0.2089743912220001,0.0,0.0,-0.19679333368977,0.8356309749154016
-0.0253780372440814,1.268276333808899,-0.0810640007257461,-0.2334981262683868,0.1196871399879455,0.1851718127727508,0.0,0.0,0.0142466844429975,-0.914635279481511
-0.026307201012969,1.263400673866272,-0.1041669249534607,-0.2176348567008972,0.1308815032243728,0.2238869965076446,0.0,0.0,0.3321151958633594,-0.6112872037525781
-0.0273409839719533,0.0,-0.1159166544675827,-0.1896867305040359,0.1433850079774856,0.2500701546669006,0.0,0.0,0.4164158832579623,-0.935720384845162
-0.0286600105464458,1.2557013034820557,-0.1462658047676086,-0.1551069617271423,0.1577236801385879,0.2867732048034668,0.0,0.0,0.1984843238859945,0.8333621782322977
-0.0300939567387104,1.2528409957885742,-0.1560595780611038,-0.1285181045532226,0.1703939735889434,0.2534059584140777,0.0,0.0,-0.02102784367657,0.8193824566862634
-0.0314493179321289,1.2497611045837402,-0.1466791182756424,-0.1382046043872833,0.1815599203109741,0.2233189791440963,0.0,0.0,0.688758034593514,-0.6227731649894522
-0.0329734794795513,1.2477242946624756,-0.1648871749639511,-0.0920902490615844,0.1940964609384536,0.2507304847240448,0.0,0.0,0.9577317980153665,-0.9026767037194232
-0.0347500815987587,1.2461650371551514,-0.1917928010225296,-0.071220651268959,0.2083314061164856,0.2846987843513489,0.0,0.0,0.1047864947837218,-0.7879457228085824
-0.0367456451058387,1.245129108428955,-0.2152419835329055,-0.0483301542699337,0.2241796404123306,0.316964715719223,0.0,0.0,0.8975139396347234,-0.6446593258201567
-0.0389426238834857,1.2444193363189695,-0.2364822328090667,-0.0341891199350357,0.2412001192569732,0.3404096662998199,0.0,0.0,0.2047215076898709,0.7788057621731245
-0.0411604866385459,1.2441731691360474,-0.2370346486568451,-0.0135148605331778,0.2567274868488312,0.310547262430191,0.0,0.0,0.3268000281762055,0.6619442942158297
-0.0434514991939067,0.0,-0.2430646121501922,0.016802042722702,0.2710044682025909,0.2855405211448669,0.0,0.0,-0.9809619198087371,-0.622565678901831
-0.0457754135131835,1.244787335395813,-0.2476589232683181,0.0050709219649434,0.2866644263267517,0.3131993114948272,0.0,0.0,-0.6606785296265341,0.8414199330957287
-0.0480175986886024,1.2447712421417236,-0.2376934587955474,-0.0034232886973768,0.3005624711513519,0.2779610455036163,0.0,0.0,-0.7273425706875425,0.9715884894951848
-0.0501781478524208,1.2445650100708008,-0.2277356833219528,-0.0116256503388285,0.3126604855060577,0.2419599294662475,0.0,0.0,-0.020420167452521,-0.7316502605372115
-0.0523756965994834,1.244102120399475,-0.2328065186738968,-0.0234448723495006,0.3262351751327514,0.2714932262897491,0.0,0.0,-0.91946684328356,0.6126136524766393
-0.0545215606689453,1.2434308528900146,-0.2266402244567871,-0.0325982011854648,0.338828444480896,0.2518652975559234,0.0,0.0,-0.9055089950561525,0.9805474281311036
-0.056563951075077,1.2425713539123535,-0.2139978408813476,-0.0405283495783805,0.3490572571754455,0.2045764923095703,0.0,0.0,-0.9541507363319396,0.9788713455200196
-0.0585044845938682,1.2415142059326172,-0.2016303092241287,-0.0488393418490886,0.3570168316364288,0.1591914296150207,0.0,0.0,-0.9682102799415588,0.986229419708252
-0.0603448860347271,1.2402687072753906,-0.1893940269947052,-0.0566945485770702,0.362666517496109,0.1129938960075378,0.0,0.0,-0.7804479598999023,0.9329800605773926
-0.0621035583317279,1.2388155460357666,-0.1795722991228103,-0.0655382722616195,0.3665852546691894,0.0783750340342521,0.0,0.0,-0.861811637878418,0.986309289932251
-0.0637667626142501,1.2371633052825928,-0.1680215895175933,-0.073862113058567,0.368374228477478,0.0357795022428035,0.0,0.0,-0.9753457903862,0.990297555923462
-0.0653340369462966,1.2353180646896362,-0.1563333570957183,-0.0819110870361328,0.3679646551609039,-0.0081914095208048,0.0,0.0,-0.9703596830368042,0.9624803066253662
-0.0668317824602127,1.2332812547683716,-0.1478893160820007,-0.0900420174002647,0.365967720746994,-0.0399386845529079,0.0,0.0,-0.9983012080192566,0.9873735904693604
-0.0682608634233474,1.2310508489608765,-0.1395377665758133,-0.0982806757092475,0.3624100089073181,-0.0711545795202255,0.0,0.0,-0.9998188614845276,0.9034724235534668
-0.0696110725402832,1.2286200523376465,-0.129980057477951,-0.1067681089043617,0.3570941090583801,-0.1063179969787597,0.0,0.0,-0.9994771480560304,0.9858243465423584
-0.0708574280142784,1.2260056734085083,-0.1172313839197158,-0.1143800392746925,0.349299818277359,-0.1558858454227447,0.0,0.0,-0.9984426498413086,0.9716399908065796
-0.072026826441288,1.2231991291046145,-0.1078151017427444,-0.122546873986721,0.3397207856178283,-0.1915807574987411,0.0,0.0,-0.9996575117111206,0.7443931102752686
-0.0731169730424881,1.2201900482177734,-0.0981457009911537,-0.1312117278575897,0.3283678293228149,-0.2270583659410476,0.0,0.0,-0.9520726799964904,0.8643476963043213
-0.0741312950849533,1.216989278793335,-0.0888271480798721,-0.1394550055265426,0.3152497112751007,-0.2623620927333832,0.0,0.0,-0.980293869972229,0.9169871807098388
-0.0750467330217361,1.2135951519012451,-0.0766575261950492,-0.1476905941963195,0.2998193800449371,-0.3086071312427521,0.0,0.0,-0.9786561131477356,0.6079877614974976
-0.0759111419320106,1.2099850177764893,-0.0704793334007263,-0.1572490483522415,0.283365249633789,-0.3290825486183166,0.0,0.0,-0.9977403283119202,0.060633897781372
-0.0767638236284256,1.206143856048584,-0.0692358538508415,-0.1676957905292511,0.2669228017330169,-0.3288489282131195,0.0,0.0,-0.9976930022239684,0.2462078332901001
-0.0776049643754959,1.2020716667175293,-0.0680212303996086,-0.1781425774097442,0.250489592552185,-0.3286644220352173,0.0,0.0,-0.9965067505836488,0.1542478799819946
-0.0784348472952842,1.197768211364746,-0.0668368190526962,-0.1885893642902374,0.2340632230043411,-0.3285276293754577,0.0,0.0,-0.916230320930481,0.1172090768814086
-0.0792537704110145,1.1932339668273926,-0.065684013068676,-0.1990361660718917,0.2176413685083389,-0.3284370303153991,0.0,0.0,-0.988834798336029,0.3317432403564453
-0.0800621956586837,1.1884684562683103,-0.0645641833543777,-0.2094829976558685,0.2012218087911605,-0.3283910751342773,0.0,0.0,-0.9713776707649232,0.2072374820709228
-0.0808601379394531,1.1834721565246582,-0.0634787231683731,-0.2199298739433288,0.1848023980855941,-0.328387975692749,0.0,0.0,-0.965835988521576,-0.3976519703865051
-0.0816482529044151,1.1782445907592771,-0.062428992241621,-0.2303767651319503,0.1683810949325561,-0.3284259438514709,0.0,0.0,-0.8956506252288818,0.5347943305969238
-0.0823834389448165,1.1727981567382812,-0.0559839010238647,-0.2401722073554992,0.1508421450853347,-0.3507791757583618,0.0,0.0,-0.8554096817970276,0.2490757703781128
-0.083109475672245,1.167121171951294,-0.0550089180469512,-0.2506223618984222,0.1332975476980209,-0.3508921265602112,0.0,0.0,-0.952966570854187,-0.7928656339645386
-0.0839015990495681,1.161198616027832,-0.0634855777025222,-0.2618938386440277,0.1176549196243286,-0.312852680683136,0.0,0.0,-0.8205394744873047,-0.1453012228012085
-0.0846850425004959,1.1550449132919312,-0.0625923946499824,-0.2723388671875,0.102003127336502,-0.313035786151886,0.0,0.0,-0.9149726629257202,-0.1328174471855163
-0.0854604691267013,1.1486594676971436,-0.0617412216961383,-0.282783955335617,0.0863406583666801,-0.3132495582103729,0.0,0.0,-0.9362756609916688,0.2826271057128906
-0.0862280875444412,1.1420429944992063,-0.0609331503510475,-0.2932291328907013,0.070666067302227,-0.3134917616844177,0.0,0.0,-0.9557350873947144,-0.5062870383262634
-0.0870344191789627,1.1351878643035889,-0.0659573003649711,-0.3040460050106048,0.0561442524194717,-0.2904362976551056,0.0,0.0,-0.9859877824783324,-0.610558807849884
-0.0878895744681358,1.128098487854004,-0.0722241550683975,-0.3146366477012634,0.0430076457560062,-0.2627319395542145,0.0,0.0,-0.9661605954170228,0.0104697942733764
-0.0887382477521896,1.120776891708374,-0.0715515688061714,-0.3250757753849029,0.0298553016036748,-0.2630472481250763,0.0,0.0,-0.9676379561424256,-0.1044179201126098
-0.0895809158682823,1.1132230758666992,-0.0709254145622253,-0.335515022277832,0.0166862420737743,-0.2633811831474304,0.0,0.0,-0.9907656311988832,-0.7852401733398438
-0.0904725044965744,1.105435490608215,-0.077190913259983,-0.3460305333137512,0.0048706862144172,-0.236310988664627,0.0,0.0,-0.9838662147521972,0.2219066619873047
-0.091358944773674,1.0974152088165283,-0.0766594260931015,-0.3564669787883758,-0.0069631049409508,-0.2366756200790405,0.0,0.0,-0.968739688396454,-0.4150590896606445
-0.0922408103942871,1.0891622304916382,-0.0761757940053939,-0.3669035136699676,-0.0188156682997941,-0.2370512783527374,0.0,0.0,-0.9911248683929444,-0.2311598062515258
-0.0931183844804763,1.080676555633545,-0.0757402926683425,-0.3773401379585266,-0.0306874308735132,-0.23743537068367,0.0,0.0,-0.8924430012702942,0.6817564964294434
-0.0939390212297439,1.0719621181488037,-0.0686677768826484,-0.3876395523548126,-0.0439152866601944,-0.2645569443702698,0.0,0.0,-0.9730947613716124,-0.6847389936447144
-0.094803050160408,1.0630251169204712,-0.0741987228393554,-0.3976029753684997,-0.0559804625809192,-0.2413032054901123,0.0,0.0,-0.9677899479866028,-0.4183450937271118
-0.09566430747509,1.0538556575775146,-0.0739079713821411,-0.4080400168895721,-0.0680652856826782,-0.2416965067386627,0.0,0.0,-0.9345083236694336,-0.136697232723236
-0.0965231880545616,1.044453501701355,-0.0736651346087455,-0.4184770882129669,-0.0801696702837944,-0.2420875281095504,0.0,0.0,-0.3643655180931091,-0.543951690196991
-0.0974200218915939,1.0348283052444458,-0.0784673392772674,-0.4284301102161407,-0.0912810564041137,-0.2222277820110321,0.0,0.0,-0.9871854186058044,0.0539003610610961
-0.0983154326677322,1.0249700546264648,-0.0783188864588737,-0.4388653635978699,-0.1024113968014717,-0.2226067036390304,0.0,0.0,-0.9859631061553956,-0.7274646759033203
-0.0992721542716026,1.014891505241394,-0.0860361903905868,-0.4486283361911773,-0.1119764298200607,-0.1913006752729416,0.0,0.0,-0.9893719553947448,-0.6300868391990662
-0.1002786606550216,1.0045911073684692,-0.0922968238592147,-0.4584435522556305,-0.1202759593725204,-0.1659903675317764,0.0,0.0,-0.9999045133590698,0.2462619543075561
-0.1012851744890213,0.9940571188926696,-0.0922845974564552,-0.4688741862773895,-0.1285924911499023,-0.1663310229778289,0.0,0.0,-0.5164787769317627,-0.9870704412460328
-0.1023672074079513,0.9832941293716432,-0.1017375439405441,-0.4789287149906158,-0.1350358724594116,-0.1288674771785736,0.0,0.0,-0.9933364987373352,-0.7915555238723755
-0.1035031303763389,0.9723017811775208,-0.1084526926279068,-0.4890157580375671,-0.1401591897010803,-0.1024660319089889,0.0,0.0,-0.9989325404167176,-0.7798397541046143
-0.1046865433454513,0.9610850214958192,-0.11436527967453,-0.4989071190357208,-0.1441185772418975,-0.0791876167058944,0.0,0.0,-0.9996822476387024,-0.2837070226669311
-0.1058714836835861,0.949633777141571,-0.1145216450095176,-0.5093333721160889,-0.1480904817581176,-0.0794379860162735,0.0,0.0,-0.9992903470993042,-0.7387663125991821
-0.1071163192391395,0.9379666447639464,-0.1219894737005233,-0.5187946557998657,-0.1505791842937469,-0.0497741885483264,0.0,0.0,-0.9980729818344116,-0.874026894569397
-0.1084277182817459,0.926086127758026,-0.1302982717752456,-0.5281051993370056,-0.1514152586460113,-0.0167216286063194,0.0,0.0,-0.979576289653778,-0.9082240462303162
-0.1097977608442306,0.913987398147583,-0.1376074254512787,-0.5376609563827515,-0.1508160680532455,0.0119837876409292,0.0,0.0,-0.8283579349517822,0.411460280418396
-0.1111709624528884,0.9016541242599488,-0.1379141211509704,-0.5480858683586121,-0.1502226740121841,0.0118679041042923,0.0,0.0,-0.7544656991958618,-0.1549766659736633
-0.1125475913286209,0.8890863656997681,-0.1382552236318588,-0.5585106611251831,-0.1496330499649047,0.0117923626676201,0.0,0.0,-0.9670659899711608,-0.7067015171051025
-0.1139745712280273,0.8763030171394348,-0.1445102095603943,-0.5679646134376526,-0.1478256732225418,0.0361471362411975,0.0,0.0,-0.9841760993003844,-0.7996086478233337
-0.115470603108406,0.8632996678352356,-0.1530771106481552,-0.5775920748710632,-0.1443567276000976,0.0693789198994636,0.0,0.0,-0.814251184463501,0.636218786239624
-0.1169307678937912,0.8500587344169617,-0.1484972089529037,-0.5882428288459778,-0.1418909877538681,0.0493148863315582,0.0,0.0,-0.7930120229721069,-0.6096441745758057
-0.1184361428022384,0.8365952968597412,-0.1540605574846267,-0.5980445742607117,-0.1383755356073379,0.0703093335032463,0.0,0.0,-0.5414077639579773,-0.5514295697212219
-0.1199929267168045,0.8229113221168518,-0.1604226976633072,-0.6077462434768677,-0.1336497962474823,0.0945149362087249,0.0,0.0,-0.8650572299957275,0.7475812435150146
-0.1215037330985069,0.8089881539344788,-0.1545470058917999,-0.6185052394866943,-0.1301988661289215,0.0690187364816665,0.0,0.0,-0.8703915476799011,-0.1966276168823242
-0.1230197921395301,0.7948305010795593,-0.1550906896591186,-0.6289308071136475,-0.1267339140176773,0.0692990273237228,0.0,0.0,-0.6975222826004028,-0.0715613961219787
-0.1245413795113563,0.7804384231567383,-0.1556577980518341,-0.6393563151359558,-0.1232519000768661,0.0696399956941604,0.0,0.0,-0.8518635630607605,0.0655678510665893
-0.1260685920715332,0.7658117413520813,-0.1562469899654388,-0.6497818231582642,-0.1197496950626373,0.0700438395142555,0.0,0.0,-0.6371092200279236,0.4855660200119018
-0.1276018172502517,0.7509507536888123,-0.1568569242954254,-0.6602073311805725,-0.1162240505218505,0.0705127641558647,0.0,0.0,-0.6965168714523315,0.5184180736541748
-0.1290963143110275,0.7358429431915283,-0.1518866121768951,-0.6712713837623596,-0.113813504576683,0.0482112243771553,0.0,0.0,-0.3106717467308044,0.3730133771896362
-0.1305970251560211,0.7205005884170532,-0.1525340527296066,-0.6816962957382202,-0.1113726794719696,0.048816442489624,0.0,0.0,-0.2579948306083679,0.5130319595336914
-0.132065013051033,0.704921305179596,-0.1482960134744644,-0.6922958493232727,-0.1098810285329818,0.0298329927027225,0.0,0.0,0.0431892871856689,0.7005094289779663
-0.1333219558000564,0.6898940801620483,-0.1259096711874008,-0.6678650975227356,-0.1096606701612472,0.0044072801247239,0.0,0.0,-0.429958701133728,0.0051517486572265
-0.134585291147232,0.6746320724487305,-0.1266040354967117,-0.678289532661438,-0.109399139881134,0.0052306712605059,0.0,0.0,0.2649502754211426,-0.2815604209899902
-0.135792538523674,0.6600684523582458,-0.1210073456168174,-0.6472494602203369,-0.1091182008385658,0.0056185615248978,0.0,0.0,-0.5360394716262817,-0.357460081577301
-0.1370065659284591,0.6452702879905701,-0.1217269748449325,-0.6576738357543945,-0.1087884679436683,0.0065948814153671,0.0,0.0,-0.8424694538116455,0.1600090265274047
-0.1382272690534591,0.6302372813224792,-0.1224574893712997,-0.6680981516838074,-0.108405977487564,0.007649827748537,0.0,0.0,-0.0844543576240539,0.810605525970459
-0.1394039094448089,0.6149629950523376,-0.1168104782700538,-0.6789237260818481,-0.1092547997832298,-0.0169762652367353,0.0,0.0,0.5455880165100098,0.8687220811843872
-0.1406006813049316,0.6001806855201721,-0.1169533878564834,-0.6571974158287048,-0.1119628325104713,-0.0541606470942497,0.0,0.0,0.093680739402771,-0.5719978213310242
-0.1418233811855316,0.5857297778129578,-0.1207383871078491,-0.6423748731613159,-0.1134901568293571,-0.0305467098951339,0.0,0.0,-0.0444982051849365,-0.2539544701576233
-0.1430530548095703,0.5710443258285522,-0.1215013116598129,-0.6527990698814392,-0.1149486154317855,-0.0291688852012157,0.0,0.0,0.1963646411895752,-0.0526012182235717
-0.1441659033298492,0.5564960241317749,-0.1103278994560241,-0.64666748046875,-0.1158966720104217,-0.018961327150464,0.0,0.0,0.4678941965103149,0.5483957529067993
-0.1450791358947754,0.5425968170166016,-0.0895708948373794,-0.6178781390190125,-0.1176376640796661,-0.0348198041319847,0.0,0.0,-0.1001071333885192,-0.3466924428939819
-0.1459993422031402,0.5284629464149475,-0.0903469622135162,-0.6283023357391357,-0.1192974001169204,-0.0331949479877948,0.0,0.0,0.5744835138320923,-0.8445219993591309
