x_pos,y_pos,x_vel,y_vel,angle,ang_vel,leg_1,leg_2,main_booster,lat_booster
-0.0014539718395099,1.4031535387039185,-0.1472918093204498,-0.3451879918575287,0.0016909567639231,0.0333501920104026,0.0,0.0,-0.2849587202072143,0.4439800977706909
-0.0028351782821118,1.394938826560974,-0.1397549211978912,-0.3650981485843658,0.0033070601057261,0.0323262251913547,0.0,0.0,-0.3568621873855591,0.8794877529144287
-0.0040560723282396,1.3862465620040894,-0.121548905968666,-0.3863201737403869,0.0027695964090526,-0.0107502248138189,0.0,0.0,-0.383087158203125,0.3791332244873047
-0.0051983832381665,1.3770831823349,-0.1136556416749954,-0.4072611927986145,0.0022066449746489,-0.0112601211294531,0.0,0.0,0.3030868768692016,0.6475727558135986
-0.0060968399047851,1.3682228326797483,-0.088179625570774,-0.3937941491603851,0.0005509530310519,-0.0331169068813324,0.0,0.0,-0.4556519985198974,-0.361946165561676
-0.0069116591475903,1.358891248703003,-0.0797726288437843,-0.4147383868694305,-0.0011268180096521,-0.0335588492453098,0.0,0.0,-0.7586225867271423,-0.4033493399620056
-0.0076400758698582,1.349088430404663,-0.0711266919970512,-0.435673713684082,-0.0028256964869797,-0.0339810512959957,0.0,0.0,-0.5331783294677734,-0.8922744393348694
-0.0083329202607274,1.3388175964355469,-0.0688826292753219,-0.4564834833145141,-0.0032150004990398,-0.0077869319356977,0.0,0.0,-0.5516296625137329,0.0268521308898925
-0.0089349746704101,1.3280755281448364,-0.0597948208451271,-0.4774213135242462,-0.0036241488996893,-0.0081836460158228,0.0,0.0,-0.7813873291015625,-0.8293414115905762
-0.0095097543671727,1.3168680667877195,-0.0587045438587665,-0.4981093406677246,-0.002406703075394,0.0243511144071817,0.0,0.0,-0.589737594127655,-0.6057097315788269
-0.0100306514650583,1.305190086364746,-0.054349809885025,-0.5190198421478271,-0.0001802401384338,0.0445331782102584,0.0,0.0,-0.8421213626861572,-0.9130765199661256
-0.0105187417939305,1.2930392026901243,-0.0526493787765502,-0.540040910243988,0.0036242289934307,0.0760962665081024,0.0,0.0,-0.707313597202301,-0.8881407380104065
-0.0109634399414062,1.2804219722747805,-0.0496950820088386,-0.5607946515083313,0.0087882000952959,0.1032887920737266,0.0,0.0,-0.620074987411499,0.2051612138748169
-0.0113083841279149,1.267333745956421,-0.0396895855665206,-0.5817346572875977,0.0139303728938102,0.1028527989983558,0.0,0.0,-0.7873567342758179,-0.1027866005897522
-0.0115518569946289,1.253774881362915,-0.0295259896665811,-0.6026744842529297,0.0190499108284711,0.1023999080061912,0.0,0.0,-0.8143129944801331,-0.0449613332748413
-0.0116925239562988,1.2397453784942627,-0.0192135777324438,-0.6236144304275513,0.0241447910666465,0.1019068956375122,0.0,0.0,-0.8298882246017456,-0.4160650968551636
-0.01172895450145,1.2252447605133057,-0.0087608788162469,-0.6445544362068176,0.0292128771543502,0.1013710722327232,0.0,0.0,-0.578155517578125,0.1934061050415039
-0.0116598131135106,1.2102736234664917,0.0018238695338368,-0.6654945611953735,0.0342516973614692,0.1007852330803871,0.0,0.0,-0.8352373242378235,0.7195756435394287
-0.0114181516692042,1.194841742515564,0.0207919590175151,-0.6859439015388489,0.0375980846583843,0.0669336467981338,0.0,0.0,-0.8505773544311523,0.4327709674835205
-0.0110684391111135,1.178938865661621,0.0316225960850715,-0.7068831920623779,0.0409100204706192,0.0662446767091751,0.0,0.0,-0.8373610377311707,-0.4008833765983581
-0.0106098176911473,1.162564754486084,0.0425620898604393,-0.7278223037719727,0.0441828295588493,0.065461978316307,0.0,0.0,-0.422200083732605,-0.2508082985877991
-0.0100411418825387,1.1457200050354004,0.053604107350111,-0.7487613558769226,0.0474128723144531,0.064606562256813,0.0,0.0,-0.7403156161308289,0.0766997337341308
-0.0093616489320993,1.128404140472412,0.0647422149777412,-0.7697004675865173,0.0505957975983619,0.063663862645626,0.0,0.0,-0.5213671922683716,-0.5059853196144104
-0.0086054801940917,1.11060893535614,0.0715560764074325,-0.7910391688346863,0.0546174943447113,0.0804411172866821,0.0,0.0,-0.4755231142044067,0.1681478023529052
-0.0077368738129734,1.0923428535461426,0.0828653648495674,-0.8119786381721497,0.0585815645754337,0.0792882367968559,0.0,0.0,-0.3748195767402649,-0.1252028942108154
-0.0067540169693529,1.0735844373703003,0.0943376943469047,-0.8338702321052551,0.0624833330512046,0.0780356675386428,0.0,0.0,0.3601728677749634,-0.5949320197105408
-0.0057381629012525,1.0552501678466797,0.0965021103620529,-0.8150803446769714,0.0675081759691238,0.1004967093467712,0.0,0.0,0.1978025436401367,0.3276187181472778
-0.0047426223754882,1.0373308658599854,0.0949975252151489,-0.796625554561615,0.0720219835639,0.0902759432792663,0.0,0.0,-0.0464025735855102,-0.1194785833358764
-0.0036317824851721,1.018940567970276,0.1066001057624816,-0.8175628185272217,0.0764572396874427,0.0887049883604049,0.0,0.0,0.1358842849731445,-0.418135404586792
-0.0024452209472656,1.0005792379379272,0.1143293604254722,-0.8162869811058044,0.0807409659028053,0.0856744274497032,0.0,0.0,0.3580069541931152,0.606574296951294
-0.0011343002552166,0.9828020334243774,0.1280490905046463,-0.7902650833129883,0.0837566927075386,0.0603145882487297,0.0,0.0,-0.5632691383361816,-0.4958091974258423
0.0002933502255473,0.964553713798523,0.1398144662380218,-0.8112010955810547,0.0866742730140686,0.0583516433835029,0.0,0.0,-0.4454352855682373,0.0789068937301635
0.0018379210960119,0.945834457874298,0.1516261845827102,-0.8321369886398315,0.0894864499568939,0.0562435500323772,0.0,0.0,0.0557005405426025,-0.301103413105011
0.003438854124397,0.926982879638672,0.1575547754764557,-0.838001012802124,0.0919971838593483,0.0502147898077964,0.0,0.0,-0.2270225286483764,-0.3359465599060058
0.005157470703125,0.9076602458953856,0.1694484055042266,-0.8589364290237427,0.0943869724869728,0.0477958209812641,0.0,0.0,-0.6729874610900879,-0.8141805529594421
0.0069314003922045,0.8878636956214905,0.1735343635082245,-0.8800944685935974,0.0982192158699035,0.0766449570655822,0.0,0.0,-0.3325413465499878,-0.7892331480979919
0.0087590217590332,0.8675826191902161,0.1773839294910431,-0.90174400806427,0.1035570129752159,0.1067559570074081,0.0,0.0,-0.4681051969528198,-0.7472906708717346
0.0106495860964059,0.8468277454376221,0.182422786951065,-0.9229058027267456,0.1101419255137443,0.13169826567173,0.0,0.0,0.1010775566101074,0.0343329906463623
0.0125708580017089,0.8264352679252625,0.1857868134975433,-0.9068166613578796,0.116449661552906,0.126154750585556,0.0,0.0,-0.0560305714607238,0.5576050281524658
0.0146567346528172,0.8055805563926697,0.203582689166069,-0.9272738695144652,0.1214267760515213,0.0995423644781112,0.0,0.0,-0.5603038668632507,-0.7636892199516296
0.0167903900146484,0.7842484712600708,0.206733226776123,-0.948647141456604,0.1280208379030227,0.1318813115358352,0.0,0.0,0.7855660915374756,-0.3507390022277832
0.0191030502319335,0.7633129358291626,0.2242051362991333,-0.9310925006866456,0.1350469440221786,0.1405223608016967,0.0,0.0,0.1341059207916259,-0.1119599342346191
0.0215717311948537,0.7422400712966919,0.2397060841321945,-0.9372383952140808,0.1421864479780197,0.1427899897098541,0.0,0.0,-0.1704678535461425,-0.4481751918792724
0.0241594314575195,0.7206963896751404,0.2518195211887359,-0.9581760168075562,0.1491204351186752,0.138680100440979,0.0,0.0,0.8135905265808105,-0.3972595334053039
0.0267740245908498,0.6991514563560486,0.2549369633197784,-0.9582220911979676,0.1556320041418075,0.130231037735939,0.0,0.0,0.8019483089447021,-0.2990468740463257
0.0295005794614553,0.6776872277259827,0.2661405503749847,,0.1621485352516174,0.1303307861089706,0.0,0.0,0.9042181968688964,-0.6017998456954956
0.0322905555367469,0.6565181016921997,0.2713151574134826,-0.9417111873626708,0.1698373854160308,0.1537770181894302,0.0,0.0,0.9899256229400636,-0.71056067943573
0.0348297134041786,0.636319100856781,0.2454324066638946,-0.8987246751785278,0.1783360242843628,0.169972687959671,0.0,0.0,0.9488797187805176,0.8830182552337646
0.0372213348746299,0.6170021891593933,0.2330467253923416,-0.859279453754425,0.1844653785228729,0.1225875839591026,0.0,0.0,0.7485888004302979,-0.3902257680892944
0.0396107658743858,0.5980015993118286,0.233220100402832,-0.8451954126358032,0.1902201920747757,0.1150964051485061,0.0,0.0,0.5518202781677246,0.7371580600738525
0.0422205924987793,0.579378068447113,0.2567362189292907,-0.8282631635665894,0.1944839656352996,0.0852755755186081,0.0,0.0,0.7740682363510132,-0.7090670466423035
0.0446743965148925,0.5614162087440491,0.2401727735996246,-0.7989989519119263,0.1997250318527221,0.1048212274909019,0.0,0.0,0.3511767387390136,-0.0633672475814819
0.0472618117928504,0.5435439348220825,0.2534393668174743,-0.7950475215911865,0.2050749063491821,0.1069972291588783,0.0,0.0,0.6223560571670532,-0.2585763931274414
0.0498108863830566,0.5263515114784241,0.2498990595340728,-0.7648130059242249,0.2101231664419174,0.1009653583168983,0.0,0.0,-0.1169328689575195,0.0173770189285278
0.0524776466190815,0.5086873769760132,0.2620008289813995,-0.7857452630996704,0.214844137430191,0.0944195389747619,0.0,0.0,0.6406804323196411,-0.5710340738296509
0.0550188049674034,0.4911878108978271,0.2488903999328613,-0.7785285115242004,0.2201210707426071,0.1055390983819961,0.0,0.0,0.5860905647277832,0.1651866436004638
0.0575980171561241,0.4743660688400268,0.2526474893093109,-0.7484298348426819,0.2254659980535507,0.1068986877799034,0.0,0.0,0.7698122262954712,0.116193413734436
0.0602767951786518,0.4581784605979919,0.262275218963623,-0.7203144431114197,0.231134220957756,0.1133648157119751,0.0,0.0,0.5847704410552979,-0.7436619400978088
0.0629096031188964,0.4426867961883545,0.2564386129379272,-0.6896079778671265,0.2380696684122085,0.1387091279029846,0.0,0.0,0.2403478622436523,-0.2248352169990539
0.0654636397957801,0.4275631606578827,0.2492201030254364,-0.673177182674408,0.2443586587905883,0.1257798671722412,0.0,0.0,0.5876641273498535,-0.2375627756118774
0.0680950134992599,0.4125035107135772,0.2571162283420563,-0.670332670211792,0.2504827678203583,0.1224822625517845,0.0,0.0,0.5590908527374268,-0.3567835092544555
0.0705857276916503,0.3978985548019409,0.2438907623291015,-0.650002121925354,0.2557664215564728,0.1056732758879661,0.0,0.0,0.2985759973526001,-0.3620241284370422
0.0731822997331619,0.3834483325481415,0.2544364333152771,-0.6431524157524109,0.2610863745212555,0.1063988804817199,0.0,0.0,0.7074666023254395,-0.9421564936637878
0.07568359375,0.3694271743297577,0.2434479296207428,-0.6243687868118286,0.2679269909858703,0.1368119865655899,0.0,0.0,0.8109045028686523,-0.2591500282287597
0.0781904235482215,0.3555730283260345,0.2443863153457641,-0.6169079542160034,0.2743750214576721,0.12896129488945,0.0,0.0,0.5964416265487671,-0.9671582579612732
0.0804515853524208,0.3419860303401947,0.2185050696134567,-0.6053159832954407,0.2821912765502929,0.1563253402709961,0.0,0.0,0.5407372713088989,0.951928973197937
0.0826944336295127,0.329128086566925,0.218983381986618,-0.5724968314170837,0.2876381576061249,0.1089375615119934,0.0,0.0,0.3952071666717529,-0.3327169418334961
0.0850450545549392,0.3161824643611908,0.2299102991819381,-0.5763864517211914,0.2929465174674988,0.106167159974575,0.0,0.0,0.5338448286056519,0.5704666376113892
0.0873451232910156,0.303939938545227,0.2263825833797454,-0.5448448657989502,0.2966851890087127,0.0747733265161514,0.0,0.0,0.706812858581543,0.1138141155242919
0.0895191207528114,0.2918834984302521,0.2146680653095245,-0.5363988876342773,0.2994983494281769,0.0562630072236061,0.0,0.0,0.8141446113586426,-0.4205411672592163
0.091486170887947,0.2803751826286316,0.1949053704738617,-0.5118519067764282,0.301361471414566,0.0372618325054645,0.0,0.0,0.7497681379318237,-0.7653170824050903
0.0933416336774826,0.2693285644054413,0.1826495230197906,-0.491565853357315,0.3043603599071502,0.0599780082702636,0.0,0.0,0.4646632671356201,-0.347101092338562
0.0949705094099044,0.2588290274143219,0.1609847247600555,-0.467044860124588,0.3063326776027679,0.0394455194473266,0.0,0.0,0.6116123199462891,0.0889307260513305
0.0966033935546875,0.2486945688724517,0.1615542471408844,-0.4507888257503509,0.3081313371658325,0.0359730273485183,0.0,0.0,0.9398341178894044,0.5610494613647461
0.0982042327523231,0.2387401461601257,0.1600541621446609,-0.4424251317977905,0.3081609606742859,0.0005922507261857,0.0,0.0,0.9589236974716188,0.2975900173187256
0.0998678207397461,0.2289001494646072,0.1664716601371765,-0.4373089075088501,0.3080457150936126,-0.0023050913587212,0.0,0.0,0.9564180374145508,-0.402262806892395
0.1014752388000488,0.2191445678472519,0.1615248173475265,-0.4334172904491424,0.3072337210178375,-0.0162396356463432,0.0,0.0,0.9541635513305664,-0.6219406723976135
0.102840706706047,0.2102354913949966,0.1366501301527023,-0.395936518907547,0.3071252405643463,-0.0021698016207665,0.0,0.0,0.9557366371154784,0.5051536560058594
0.1041443794965744,0.2023021578788757,0.1316931545734405,-0.3523119688034057,0.3057500422000885,-0.0275038182735443,0.0,0.0,0.9989745616912842,-0.2303050756454467
0.1051168441772461,0.1952489465475082,0.0997082442045211,-0.3129604458808899,0.3032079637050628,-0.0508414506912231,0.0,0.0,0.8899505138397217,0.3624032735824585
0.105928897857666,0.1881988197565078,0.0848506614565849,-0.3125832378864288,0.2994380891323089,-0.0753975659608841,0.0,0.0,0.9799621105194092,0.1951897144317627
0.1065993309020996,0.1820549070835113,0.0710119754076004,-0.2722533643245697,0.2953447699546814,-0.0818662494421005,0.0,0.0,0.9779205322265624,0.2656813859939575
0.107042409479618,0.1763738542795181,0.0493624620139598,-0.2514763176441192,0.2901396453380584,-0.1041022315621376,0.0,0.0,0.9982181787490844,0.3494758605957031
0.1072741523385047,0.1713699251413345,0.0290664918720722,-0.2212365716695785,0.2840739488601684,-0.1213139072060585,0.0,0.0,0.7996780872344971,0.6658865213394165
0.1074125319719314,0.1670096516609192,0.0216256659477949,-0.1922914236783981,0.2760631740093231,-0.160215750336647,0.0,0.0,0.5949301719665527,0.9716038703918456
0.1076437011361122,0.1630584299564361,0.0333086289465427,-0.1737198382616043,0.2656272649765014,-0.2087187469005584,0.0,0.0,0.7729290723800659,0.5053565502166748
0.1079214066267013,0.1591890454292297,0.0394540354609489,-0.1698983162641525,0.2536890506744385,-0.2387644350528717,0.0,0.0,0.6566178798675537,0.8007467985153198
0.1083333045244216,0.1554919630289077,0.054875910282135,-0.1620124727487564,0.2397554516792297,-0.27867192029953,0.0,0.0,0.004166841506958,-0.5955226421356201
0.1087854355573654,0.151849165558815,0.0582009330391883,-0.1598411202430725,0.2265801727771759,-0.2635054290294647,0.0,0.0,0.0397446155548095,-0.9039831757545472
0.1092813462018966,0.1481027901172638,0.0613911561667919,-0.164738044142723,0.2146516442298889,-0.2385705709457397,0.0,0.0,0.4221881628036499,-0.9189956188201904
0.1096246689558029,0.1448148339986801,0.0448919460177421,-0.1446349173784256,0.2039973735809326,-0.2130853235721588,0.0,0.0,0.1770915985107422,-0.9436526298522948
0.109868049621582,0.1418416649103164,0.0335874632000923,-0.13089320063591,0.1946744918823242,-0.1864572018384933,0.0,0.0,0.2938622236251831,-0.6304824948310852
0.1101203933358192,0.1391848474740982,0.0336252115666866,-0.1169957146048545,0.1862412244081497,-0.1686650067567825,0.0,0.0,0.3113350868225097,-0.8247164487838745
0.110399916768074,0.1364371180534362,0.0351693592965602,-0.1212329566478729,0.1789984852075576,-0.1448548734188079,0.0,0.0,-0.2347198724746704,-0.9382765293121338
0.110644057393074,0.1331934332847595,0.0301581732928752,-0.143484815955162,0.1732412576675415,-0.1151448339223861,0.0,0.0,0.8635358810424805,-0.9744943380355836
0.1107862442731857,0.1309346556663513,0.0184160359203815,-0.0999074652791023,0.1690369397401809,-0.0840862020850181,0.0,0.0,-0.3439812064170837,-0.7336987257003784
0.1109018325805664,0.128188207745552,0.0147953676059842,-0.1216971352696418,0.1658018380403518,-0.0647021830081939,0.0,0.0,-0.003564715385437,-0.9476819038391112
0.1109544783830642,0.1249557584524154,0.0067619471810758,-0.1434962153434753,0.1642967015504837,-0.0301027689129114,0.0,0.0,0.8308207988739014,-0.7093155980110168
0.1109491363167762,0.1224109530448913,-0.0001297062553931,-0.1130616143345832,0.1638985872268676,-0.0079623870551586,0.0,0.0,-0.1401038169860839,-0.9646639823913574
0.1108762770891189,0.1193804144859314,-0.0084380833432078,-0.1348184794187545,0.1650509536266327,0.0230474695563316,0.0,0.0,0.2531020641326904,-0.8200603723526001
0.1105836853384971,0.1166901215910911,-0.0314311385154724,-0.1198102310299873,0.1672323048114776,0.0436267219483852,0.0,0.0,-0.3538308143615722,-0.6454440951347351
0.1102416962385177,0.1135123819112777,-0.0371837243437767,-0.141573965549469,0.1702198833227157,0.0597515329718589,0.0,0.0,-0.2717771530151367,-0.6777987480163574
0.1098328605294227,0.1098469123244285,-0.0449435375630855,-0.1633807122707367,0.1742910593748092,0.0814235731959343,0.0,0.0,-0.4331007599830627,-0.1275478601455688
0.1094140037894249,0.1057093739509582,-0.0454178862273693,-0.1843102723360061,0.1778295934200287,0.0707709416747093,0.0,0.0,-0.2715609669685364,0.5993168354034424
0.1090331077575683,0.1011178568005561,-0.0396860316395759,-0.2042588591575622,0.1794249266386032,0.0319067426025867,0.0,0.0,0.4924575090408325,0.1233386993408203
0.1086244583129882,0.0965608954429626,-0.0421891771256923,-0.2026943564414978,0.1807535886764526,0.0265733059495687,0.0,0.0,0.789006233215332,-0.792413592338562
0.1081453338265419,0.0927862003445625,-0.0506438314914703,-0.1680970042943954,0.1834933161735534,0.0547946505248546,0.0,0.0,-0.2896194458007812,-0.3315725326538086
0.1076311096549034,0.0885393694043159,-0.0536462850868701,-0.1890256851911544,0.1857204586267471,0.0445430278778076,0.0,0.0,-0.0739821791648864,0.0148802995681762
0.1070755943655967,0.0838202536106109,-0.0572545230388641,-0.209954172372818,0.1874404996633529,0.0344009175896644,0.0,0.0,-0.1210414767265319,0.3129719495773315
0.1064731627702713,0.0786288604140281,-0.0614520609378814,-0.2308824956417083,0.1886590719223022,0.0243715941905975,0.0,0.0,0.4583921432495117,0.1093636751174926
0.105676844716072,0.0740253329277038,-0.0803301483392715,-0.2046902924776077,0.1893524974584579,0.0138685852289199,0.0,0.0,0.2244176864624023,-0.1037023663520813
0.1047567352652549,0.0698220580816268,-0.0924228280782699,-0.1868641525506973,0.1897641718387603,0.0082334224134683,0.0,0.0,-0.1757608652114868,0.7233481407165527
0.1038374900817871,0.0651613771915435,-0.090221993625164,-0.206925556063652,0.1880483925342559,-0.0343156196177005,0.0,0.0,0.2658818960189819,0.6575113534927368
0.1027097702026367,0.0607130639255046,-0.1090997010469436,-0.1972427666187286,0.1843694150447845,-0.0735797435045242,0.0,0.0,-0.209897756576538,0.8253417015075684
0.1015599220991134,0.0558048337697982,-0.1095556616783142,-0.2174790352582931,0.1789180338382721,-0.1090274229645729,0.0,0.0,0.7879986763000488,0.6513452529907227
0.1002499610185623,0.051332127302885,-0.1237288117408752,-0.1979271918535232,0.1716354191303253,-0.1456521451473236,0.0,0.0,0.096070647239685,0.8204962015151978
0.098881721496582,0.0469315871596336,-0.1274613887071609,-0.194525346159935,0.1622609198093414,-0.1874901801347732,0.0,0.0,0.238865852355957,0.9863324165344238
0.0975754708051681,0.0424975715577602,-0.118844486773014,-0.1958280205726623,0.1504911333322525,-0.235396072268486,0.0,0.0,0.4401167631149292,0.897354245185852
0.0962555855512619,0.0385192483663558,-0.1180471330881118,-0.1754636764526367,0.1365836709737777,-0.2781491875648498,0.0,0.0,-0.5658106803894043,0.8838598728179932
0.0949141532182693,0.0340953208506107,-0.1178873926401138,-0.1952069252729416,0.1203970685601234,-0.3237317204475403,0.0,0.0,-0.1490854024887085,0.8923794031143188
0.0935547798871994,0.0292080491781234,-0.1172269955277443,-0.2158138006925583,0.1018179282546043,-0.371582955121994,0.0,0.0,0.7004294395446777,0.5596215724945068
0.0921834930777549,0.0248261783272027,-0.1171320527791976,-0.1935028284788131,0.0819889828562736,-0.3965790569782257,0.0,0.0,0.0464451313018798,0.1741828918457031
