x_pos,y_pos,x_vel,y_vel,angle,ang_vel,leg_1,leg_2,main_booster,lat_booster
-0.0015270232688635,1.4032739400863647,-0.1547808945178985,-0.339834988117218,0.0018545429920777,0.0365894064307212,0.0,0.0,-0.5469729403806656,-0.9702545950678244
-0.0031272887717932,1.395295262336731,-0.163715049624443,-0.3546124398708343,0.0055025075562298,0.0729666948318481,0.0,0.0,0.0989449188140623,0.5038036969881203
-0.0045950887724757,1.3873662948608398,-0.1497559547424316,-0.3524158298969269,0.0084523418918251,0.0590018257498741,0.0,0.0,-0.0927815201064874,-0.85644179811924
-0.0061464309692382,1.3790829181671145,-0.1602682769298553,-0.3681887984275818,0.0135311363264918,0.1015853881835937,0.0,0.0,0.6016763490111898,0.5332533882514772
-0.0075331688858568,1.3714027404785156,-0.1432370841503143,-0.3413920104503631,0.0180329587310552,0.0900449305772781,0.0,0.0,-0.312023322674531,0.885967101202936
-0.0088371280580759,1.363372802734375,-0.1328877806663513,-0.3569134771823883,0.0204954873770475,0.0492553114891052,0.0,0.0,0.6977744765716452,0.8874264792999633
-0.0101116178557276,1.3558838367462158,-0.1282442659139633,-0.3328557908535003,0.0212752111256122,0.0155959501862525,0.0,0.0,-0.291646067668972,-0.7908718261427379
-0.0114352228119969,1.3480448722839355,-0.1344717442989349,-0.3484286367893219,0.0233576856553554,0.0416537374258041,0.0,0.0,0.4813435582459664,0.541735972602873
-0.0127475736662745,1.3409876823425293,-0.1323593258857727,-0.3136751353740692,0.0244646798819303,0.0221418067812919,0.0,0.0,-0.228663809870576,0.6460722072127982
-0.0140110971406102,1.333585262298584,-0.1263150870800018,-0.3289859592914581,0.0244278535246849,-0.0007366315694525,0.0,0.0,0.0088698360893224,0.644789130052519
-0.0151744838804006,1.3263815641403198,-0.1152161359786987,-0.3201519250869751,0.0233194157481193,-0.0221707113087177,0.0,0.0,0.3039595705708575,0.7204693880508917
-0.0162298195064067,1.3194549083709717,-0.1032048612833023,-0.3078128695487976,0.0210233740508556,-0.0459250696003437,0.0,0.0,0.2808387469012263,0.8069199317125321
-0.0171193126589059,1.3130007982254028,-0.0853013917803764,-0.2868022322654724,0.0174069069325923,-0.0723362118005752,0.0,0.0,-0.1949618721905048,0.7755586459570845
-0.017941664904356,1.306190848350525,-0.0769968777894973,-0.3026137351989746,0.0122286556288599,-0.1035741567611694,0.0,0.0,0.1775876116185124,0.5305714563906544
-0.0186198242008686,1.2999203205108645,-0.0618983395397663,-0.2786513864994049,0.0063811880536377,-0.1169601827859878,0.0,0.0,-0.0343960527953208,-0.6560750082808509
-0.0193408019840717,1.2932913303375244,-0.0674275457859039,-0.2946107983589172,0.001757520600222,-0.0924815610051155,0.0,0.0,0.2462863539512534,0.8861527500790616
-0.0198735240846872,1.2872909307479858,-0.04706372320652,-0.2666903436183929,-0.004377435427159,-0.1227103844285011,0.0,0.0,-0.0515631970715124,0.5874018537886646
-0.0203490257263183,1.2809349298477173,-0.0400577038526535,-0.2825284898281097,-0.0117884818464517,-0.1482341885566711,0.0,0.0,0.226963983418774,-0.9442048300453292
-0.0208079330623149,1.2751317024230957,-0.040488876402378,-0.2579688429832458,-0.0171211659908294,-0.1066633835434913,0.0,0.0,0.5104369889788631,0.5390409106797533
-0.0212945938110351,1.2697550058364868,-0.0421577021479606,-0.2390562742948532,-0.023557424545288,-0.128736987709999,0.0,0.0,-0.5453260188947839,0.9671910204353128
-0.0216881744563579,1.264032006263733,-0.0306673999875783,-0.2545154392719269,-0.032148327678442,-0.1718335151672363,0.0,0.0,0.3019221568058186,0.796403697824636
-0.0219965931028127,1.2584739923477173,-0.0207435358315706,-0.2472617179155349,-0.0421353876590728,-0.1997595280408859,0.0,0.0,-0.1612190034542664,0.6883227272327481
-0.0222379676997661,1.2525616884231567,-0.0125496489927172,-0.2631342113018036,-0.0536095276474952,-0.2295031994581222,0.0,0.0,0.882629859487216,0.7182745548316276
-0.0223167426884174,1.2468138933181765,0.0047728563658893,-0.2559575140476227,-0.0661315098404884,-0.2504623532295227,0.0,0.0,0.235719188396567,-0.5491061800635955
-0.0225217826664447,1.2414549589157104,-0.0089215636253356,-0.2387280464172363,-0.0776147693395614,-0.2296853959560394,0.0,0.0,0.3791780462650047,-0.7078002097337026
-0.0228714942932128,1.2366302013397217,-0.0247644018381834,-0.2149929702281952,-0.0877288356423378,-0.20228111743927,0.0,0.0,-0.9668419715053764,-0.8956251664128181
-0.0232897754758596,1.231470823287964,-0.033596109598875,-0.2298192828893661,-0.0958869382739067,-0.1631617844104766,0.0,0.0,0.0156457528531532,0.678169991754272
-0.0236956588923931,1.2267314195632937,-0.0311107374727726,-0.2112747877836227,-0.1052905917167663,-0.188072919845581,0.0,0.0,-0.116941634009072,-0.9144481595380168
-0.02418689802289,1.221663475036621,-0.0420750901103019,-0.2257554084062576,-0.1122892424464225,-0.13997283577919,0.0,0.0,-0.6065159542483554,-0.803442374247805
-0.0247419364750385,1.2162530422210691,-0.0503164120018482,-0.2408574521541595,-0.1174459755420684,-0.1031346544623375,0.0,0.0,0.0493483119145274,0.7328364358425365
-0.0251603126525878,1.2112890481948853,-0.0353717431426048,-0.2211483567953109,-0.1238671168684959,-0.1284230351448059,0.0,0.0,-0.873428225517273,-0.7380490303039551
-0.0256423000246286,1.2059824466705322,-0.0436042174696922,-0.236240953207016,-0.128440260887146,-0.0914622396230697,0.0,0.0,-0.9824806451797484,-0.1920688152313232
-0.0261219982057809,1.2003250122070312,-0.0435745008289814,-0.2518234550952911,-0.1328265368938446,-0.0877258330583572,0.0,0.0,-0.8832383155822754,-0.8582884669303894
-0.0266745574772357,1.1943241357803345,-0.0529417470097541,-0.2669170796871185,-0.1351329237222671,-0.0461273416876792,0.0,0.0,-0.9140808582305908,-0.793544590473175
-0.0272850040346384,1.1879862546920776,-0.0604672245681285,-0.281736671924591,-0.1357076466083526,-0.0114944158121943,0.0,0.0,-0.602054238319397,-0.1891884207725525
-0.027892779558897,1.1812975406646729,-0.0603969804942607,-0.2973173260688782,-0.1360936164855957,-0.0077194981276988,0.0,0.0,-0.6348184943199158,0.3770976066589355
-0.0284978859126567,1.1742576360702517,-0.0603141970932483,-0.3128978610038757,-0.1362903267145156,-0.0039340327493846,0.0,0.0,-0.6052772402763367,-0.3231984972953796
-0.0291001312434673,1.166866898536682,-0.0602193549275398,-0.3284784257411957,-0.136297270655632,-0.000138951203553,0.0,0.0,-0.5138823390007019,0.224749207496643
-0.029699420556426,1.1591250896453855,-0.0601129010319709,-0.3440589606761932,-0.1361140459775924,0.0036648330278694,0.0,0.0,-0.6255912780761719,-0.4126747250556946
-0.0302955619990825,1.151032567024231,-0.0599953234195709,-0.3596395254135132,-0.1357402205467224,0.00747641781345,0.0,0.0,-0.9588437676429749,-0.5757558345794678
-0.0309411995112895,1.1426045894622805,-0.066492885351181,-0.3743991553783417,-0.1338187307119369,0.0384299978613853,0.0,0.0,-0.6794236898422241,-0.4154706001281738
-0.0315834991633892,1.1338257789611816,-0.0663545504212379,-0.3899800479412079,-0.1317059844732284,0.0422549173235893,0.0,0.0,-0.4819481372833252,-0.1221547126770019
-0.0322224609553813,1.124696135520935,-0.0662065222859382,-0.4055610597133636,-0.1294017285108566,0.0460854396224021,0.0,0.0,-0.7967433333396912,0.108808159828186
-0.0328578948974609,1.115215539932251,-0.0660492926836013,-0.4211421608924866,-0.1269056648015976,0.0499209947884082,0.0,0.0,-0.8100258708000183,-0.0691979527473449
-0.03348970413208,1.105384111404419,-0.0658833384513855,-0.4367233514785766,-0.1242176443338394,0.0537609159946441,0.0,0.0,-0.7677868604660034,0.3486862182617187
-0.0341177955269813,1.0952019691467283,-0.0657091215252876,-0.4523046910762787,-0.1213374212384224,0.0576046407222747,0.0,0.0,-0.8706995844841003,-0.2581458687782287
-0.0347421653568744,1.08466899394989,-0.0655271038413047,-0.4678861200809479,-0.1182648390531539,0.0614516623318195,0.0,0.0,-0.927101731300354,0.4425040483474731
-0.0353626236319541,1.0737850666046145,-0.0653377622365951,-0.483467698097229,-0.1149997785687446,0.0653014630079269,0.0,0.0,-0.8966482281684875,0.2452239990234375
-0.0359792709350585,1.0625505447387695,-0.0651415437459945,-0.4990494847297668,-0.1115420833230018,0.0691535919904708,0.0,0.0,-0.8025334477424622,0.744945764541626
-0.0365355499088764,1.0509536266326904,-0.0578612759709358,-0.5152559876441956,-0.1093265935778617,0.0443100109696388,0.0,0.0,-0.8340329527854919,0.2353243827819824
-0.0370878204703331,1.0390057563781738,-0.0576524846255779,-0.53083735704422,-0.1069183200597763,0.0481654480099678,0.0,0.0,-0.95564603805542,0.1136373281478881
-0.0376359932124614,1.0267072916030884,-0.0574381239712238,-0.5464189052581787,-0.1043171659111976,0.0520228631794452,0.0,0.0,-0.9700645208358764,-0.0300524830818176
-0.0381800644099712,1.014057993888855,-0.057218600064516,-0.5620005130767822,-0.1015231683850288,0.0558798722922802,0.0,0.0,-0.9246456027030944,0.5344339609146118
-0.0386772155761718,1.00105619430542,-0.0516532659530639,-0.5777246356010437,-0.0996058359742164,0.0383464470505714,0.0,0.0,-0.9909979104995728,0.0346249341964721
-0.0391701683402061,0.9877036809921264,-0.0514245815575122,-0.5933060050010681,-0.0974956750869751,0.0422033742070198,0.0,0.0,-0.9178100228309632,0.4640300273895263
-0.0396589264273643,0.9740003943443298,-0.0511919446289539,-0.6088875532150269,-0.0951926782727241,0.0460596457123756,0.0,0.0,-0.9780967831611632,-0.069572627544403
-0.0401432998478412,0.9599461555480956,-0.0509557351469993,-0.6244691610336304,-0.0926969349384307,0.0499148368835449,0.0,0.0,-0.949408769607544,0.3926124572753906
-0.040623378008604,0.9455413222312928,-0.050716333091259,-0.6400509476661682,-0.0900085121393203,0.0537684857845306,0.0,0.0,-0.9723302721977234,0.6722133159637451
-0.0410390868782997,0.9307844638824464,-0.0429596230387687,-0.6557759046554565,-0.088631086051464,0.0275481585413217,0.0,0.0,-0.958433985710144,0.2356073856353759
-0.0414504036307334,0.9156768321990968,-0.0427148714661598,-0.671357274055481,-0.0870612189173698,0.0313974916934967,0.0,0.0,-0.9438171982765198,-0.2594109177589416
-0.0418572425842285,0.9002184271812439,-0.0424680076539516,-0.6869388818740845,-0.085299015045166,0.0352440103888511,0.0,0.0,-0.9147281646728516,-0.3839215040206909
-0.0422596931457519,0.8844091296195984,-0.0422193855047225,-0.702520489692688,-0.0833446681499481,0.0390871316194534,0.0,0.0,-0.8115405440330505,-0.8011311292648315
-0.0427081100642681,0.8682535290718079,-0.0482819229364395,-0.7178409695625305,-0.0799303501844406,0.0682864487171173,0.0,0.0,-0.8467704653739929,0.2899444103240967
-0.0431519523262977,0.8517471551895142,-0.0480308607220649,-0.7334234118461609,-0.0763242840766906,0.0721213445067405,0.0,0.0,-0.4899502992630005,0.7380661964416504
-0.0435327515006065,0.8348779678344727,-0.0404039695858955,-0.7496255040168762,-0.0740172564983367,0.0461402013897895,0.0,0.0,-0.4711588621139526,0.3455862998962402
-0.0439089760184288,0.8176578879356384,-0.0401516258716583,-0.7652074098587036,-0.071519024670124,0.049964640289545,0.0,0.0,-0.7634343504905701,-0.0293884873390197
-0.0442808158695697,0.8000872135162354,-0.0398991592228412,-0.7807894945144653,-0.0688298866152763,0.0537828393280506,0.0,0.0,-0.2378380298614502,0.0186126232147216
-0.0446481704711914,0.782166063785553,-0.0396468825638294,-0.7963716983795166,-0.0659501776099205,0.0575941726565361,0.0,0.0,-0.0043010115623474,0.666724681854248
-0.0449557304382324,0.7638962864875793,-0.0324585363268852,-0.8119156956672668,-0.0642654076218605,0.0336951836943626,0.0,0.0,0.1201416254043579,0.5095033645629883
-0.0452680587768554,0.7457568049430847,-0.0319638475775718,-0.8061672449111938,-0.0635423585772514,0.014461038634181,0.0,0.0,0.2865866422653198,-0.3608869314193725
-0.0456138625741004,0.7280626893043518,-0.035165898501873,-0.7863779664039612,-0.0629608109593391,0.0116309048607945,0.0,0.0,0.2742699384689331,-0.4310222864151001
-0.0459012985229492,0.7107341885566711,-0.0296384133398532,-0.7701171636581421,-0.0620807521045208,0.0176010504364967,0.0,0.0,-0.0353389382362365,-0.2039824724197387
-0.0461844429373741,0.6930549144744873,-0.029391411691904,-0.7856989502906799,-0.0610124878585338,0.0213652849197387,0.0,0.0,-0.041224181652069,-0.0709709525108337
-0.0464632026851177,0.6750249266624451,-0.029146334156394,-0.8012808561325073,-0.0597566403448581,0.025117078796029,0.0,0.0,0.2065992355346679,0.283683180809021
-0.0467451103031635,0.6570741534233093,-0.0295396000146865,-0.7977617979049683,-0.0584278106689453,0.0265767127275466,0.0,0.0,0.0670280456542968,0.1276600360870361
-0.0469666495919227,0.6390830278396606,-0.0238935742527246,-0.7995345592498779,-0.0567096732556819,0.0343627333641052,0.0,0.0,0.3125622272491455,-0.2973446846008301
-0.0471937172114849,0.6211473941802979,-0.0245155785232782,-0.7970775961875916,-0.0549223572015762,0.0357463210821151,0.0,0.0,0.3676222562789917,0.0669038295745849
-0.0473875030875206,0.603844940662384,-0.0213335566222667,-0.7689284682273865,-0.052982673048973,0.0387935265898704,0.0,0.0,0.5290660858154297,0.3518942594528198
-0.0474630370736122,0.5873167514801025,-0.0100504700094461,-0.7344970703125,-0.050516951829195,0.049314297735691,0.0,0.0,-0.0335536003112793,0.3605170249938965
-0.0475344657897949,0.5704379677772522,-0.0098225008696317,-0.7500795125961304,-0.0478689037263393,0.0529609322547912,0.0,0.0,0.0425488948822021,0.3008444309234619
-0.0476734153926372,0.5535276532173157,-0.0163706671446561,-0.7514955401420593,-0.0454174056649208,0.0490298345685005,0.0,0.0,0.2035666704177856,-0.1226892471313476
-0.0477527603507041,0.5371275544166565,-0.0107356458902359,-0.7288111448287964,-0.0426501706242561,0.05534478276968,0.0,0.0,-0.0937684774398803,-0.0976744294166565
-0.047828197479248,0.5203768014907837,-0.0105195194482803,-0.7443938851356506,-0.039704542607069,0.0589123480021953,0.0,0.0,0.146498441696167,0.3250113725662231
-0.0479189865291118,0.5039827823638916,-0.0120621714740991,-0.7285473942756653,-0.0367581099271774,0.0589284300804138,0.0,0.0,0.3181124925613403,0.0370893478393554
-0.0479949004948139,0.4880750179290771,-0.0107119036838412,-0.7069403529167175,-0.0336808077991008,0.0615463480353355,0.0,0.0,0.4858971834182739,0.123575210571289
-0.0479711517691612,0.4725970923900604,-0.0012749932939186,-0.6878268718719482,-0.0300675649195909,0.0722646862268447,0.0,0.0,-0.360076904296875,0.1676845550537109
-0.0479435920715332,0.4567687511444092,-0.0010776564013212,-0.703410267829895,-0.0262832418084144,0.0756865888833999,0.0,0.0,0.4777679443359375,0.6854290962219238
-0.0477574355900287,0.4411191046237945,0.015811413526535,-0.6954914927482605,-0.0235200468450784,0.0552639439702034,0.0,0.0,0.0420341491699218,0.2781872749328613
-0.0474665649235248,0.4256558418273926,0.0256888773292303,-0.6872084140777588,-0.0201612673699855,0.0671756491065025,0.0,0.0,0.6588410139083862,0.4134624004364013
-0.0470242500305175,0.4104317128658294,0.040008146315813,-0.6765769720077515,-0.0159914344549179,0.0833966061472892,0.0,0.0,0.6406447887420654,-0.1279171705245971
-0.0465721115469932,0.395976185798645,0.0408428385853767,-0.6424257159233093,-0.0116870459169149,0.0860876366496086,0.0,0.0,-0.4537780284881592,0.4624414443969726
-0.046116828918457,0.3811703026294708,0.0410127714276313,-0.6580098867416382,-0.0072252517566084,0.0892360284924507,0.0,0.0,0.737045407295227,0.3881560564041137
-0.0455222129821777,0.3670647442340851,0.0541661195456981,-0.6268987059593201,-0.0020038995426148,0.1044270247220993,0.0,0.0,0.355940580368042,0.4990943670272827
-0.0448412895202636,0.3530105352401733,0.06226821616292,-0.6246334314346313,0.0037503712810575,0.1150855645537376,0.0,0.0,0.836837887763977,0.6437551975250244
-0.0441713333129882,0.3394534587860107,0.0624764747917652,-0.6025558710098267,0.0082118296995759,0.0892291069030761,0.0,0.0,0.4563461542129516,0.7511650323867798
-0.0433623306453228,0.3266973495483398,0.0776133835315704,-0.5669547915458679,0.0114556849002838,0.0648772269487381,0.0,0.0,-0.1736742258071899,0.1380425691604614
-0.0425505638122558,0.313590943813324,0.0777529776096344,-0.5825386047363281,0.014836037531495,0.0676070675253868,0.0,0.0,0.5723202228546143,0.2245675325393676
-0.0418657287955284,0.3012668788433075,0.0654791295528411,-0.5477678179740906,0.0177997667342424,0.0592746622860431,0.0,0.0,0.4836280345916748,0.7593530416488647
-0.0410426147282123,0.2895399630069732,0.0805659890174865,-0.5212189555168152,0.0195218920707702,0.0344424024224281,0.0,0.0,-0.1472816467285156,-0.5651553273200989
-0.0402659401297569,0.2774652242660522,0.074572205543518,-0.5366998910903931,0.02258693985641,0.0613008737564086,0.0,0.0,0.601352334022522,0.0644502639770507
-0.039583396166563,0.2661256492137909,0.0654088258743286,-0.5040256977081299,0.0253939237445592,0.0561397969722747,0.0,0.0,0.2749710083007812,0.522803544998169
-0.0388879776000976,0.2550108432769775,0.0676917061209678,-0.4940222501754761,0.0272213462740182,0.0365486852824687,0.0,0.0,0.5173162221908569,-0.0830182433128357
-0.0383126251399517,0.2443694174289703,0.0560835376381874,-0.4729826152324676,0.0286516938358545,0.0286071691662073,0.0,0.0,0.5989739894866943,0.3914277553558349
-0.0378954894840717,0.2341311126947403,0.0408531241118907,-0.4550513625144958,0.0294991135597229,0.0169484876096248,0.0,0.0,-0.0461218357086181,0.5717335939407349
-0.0374235138297081,0.2235479652881622,0.0476089790463447,-0.4703527987003326,0.0290914606302976,-0.0081530986353755,0.0,0.0,0.8234958648681641,-0.0545781850814819
-0.0368941314518451,0.2132278233766555,0.0529602356255054,-0.4586723148822784,0.0290708988904953,-0.0004113140457775,0.0,0.0,0.4652276039123535,0.740196943283081
-0.0361818298697471,0.2035861760377884,0.072435162961483,-0.4284968376159668,0.0278827510774135,-0.0237630978226661,0.0,0.0,0.5231237411499023,-0.9773474335670472
-0.0355896949768066,0.1946705132722854,0.0584209971129894,-0.3962666690349579,0.0286693647503852,0.0157319605350494,0.0,0.0,0.4392800331115722,-0.7815373539924622
-0.0349408164620399,0.1865328401327133,0.0622625723481178,-0.3617261946201324,0.0312618799507617,0.0518505573272705,0.0,0.0,0.4863737821578979,-0.8029252290725708
-0.0342941284179687,0.1788272410631179,0.0602745115756988,-0.3425682783126831,0.03560246899724,0.0868117436766624,0.0,0.0,-0.3097013831138611,0.3273465633392334
-0.0336465835571289,0.1707713156938552,0.060329258441925,-0.3581526577472687,0.0399688221514225,0.0873271971940994,0.0,0.0,-0.1147929430007934,-0.3035372495651245
-0.0329984650015831,0.1623650640249252,0.0603786408901214,-0.3737369775772095,0.0443506687879562,0.087636761367321,0.0,0.0,0.145005464553833,-0.4940775632858276
-0.0323081016540527,0.1540883332490921,0.0643324106931686,-0.3680015206336975,0.04899587854743,0.0929044634103775,0.0,0.0,0.3344906568527221,-0.510505735874176
-0.0317892059683799,0.1461996436119079,0.0464274398982524,-0.3507984280586242,0.0544006787240505,0.1080960184335708,0.0,0.0,-0.0855053067207336,0.8010203838348389
-0.0312201492488384,0.1379625350236892,0.0527187399566173,-0.366250067949295,0.0585358291864395,0.0827029347419738,0.0,0.0,0.5588340759277344,0.8120287656784058
-0.030640697106719,0.1301746219396591,0.0554684475064277,-0.3462284505367279,0.0609925985336303,0.0491353273391723,0.0,0.0,0.2912560701370239,-0.571872889995575
-0.0301095955073833,0.1226573586463928,0.0494649298489093,-0.3342570662498474,0.0645965039730072,0.0720782056450843,0.0,0.0,-0.0805410742759704,0.3970315456390381
-0.0295787807554006,0.1147895455360412,0.0494854375720024,-0.3498406410217285,0.0681543350219726,0.0711567178368568,0.0,0.0,0.3565056324005127,0.5901175737380981
-0.0289526935666799,0.1074277013540268,0.0600709840655326,-0.327310711145401,0.0706607922911644,0.050129372626543,0.0,0.0,-0.0040973424911499,-0.1770007610321045
-0.02832717821002,0.0997152402997016,0.0600832104682922,-0.3428935706615448,0.0731021538376808,0.0488272085785865,0.0,0.0,0.5825343132019043,0.3568110466003418
-0.0276634208858013,0.0921059250831604,0.0637073889374733,-0.338324636220932,0.0757514908909797,0.0529866330325603,0.0,0.0,0.7469255924224854,0.4652413129806518
