x_pos,y_pos,x_vel,y_vel,angle,ang_vel,leg_1,leg_2,main_booster,lat_booster
-0.0016205788124352,1.403111457824707,-0.1641506403684616,-0.34705650806427,0.0018593167187646,0.036684438586235,0.0,0.0,0.064348689076545,-0.1529647672356067
-0.0033062933944165,1.3952586650848389,-0.1705892086029052,-0.3490196764469147,0.0038577290251851,0.0399725660681724,0.0,0.0,-0.5018099957522586,0.927874138627964
-0.0050005912780761,1.3868857622146606,-0.1692101806402206,-0.3721241354942322,0.0036421220283955,-0.0043127043172717,0.0,0.0,-0.4874734209505091,-0.4581552569811994
-0.0067924498580396,1.377999782562256,-0.1789979636669159,-0.3949316740036011,0.0034579874482005,-0.0036830324679613,0.0,0.0,0.3184818908481679,0.0452404600805936
-0.0085805896669626,1.3693819046020508,-0.1791683137416839,-0.3830210268497467,0.0037993856240063,0.0068286792375147,0.0,0.0,-0.3918594589857482,0.4580259156662631
-0.0104662897065281,1.36025071144104,-0.1889528036117553,-0.4058333337306976,0.0041765123605728,0.0075432262383401,0.0,0.0,-0.9162889101954232,0.4658713570796423
-0.0124494554474949,1.3506064414978027,-0.1987316906452179,-0.4286369383335113,0.0045929285697638,0.0083290096372365,0.0,0.0,-0.6636553478443226,0.8789187145209743
-0.0144435884431004,1.3404520750045776,-0.1976750791072845,-0.4512961804866791,0.0028803469613194,-0.0342548601329326,0.0,0.0,-0.8070435549364894,-0.3118483133810776
-0.0165348052978515,1.3297847509384155,-0.2074302434921264,-0.4741027057170868,0.0012143284548074,-0.0333236269652843,0.0,0.0,0.264517830617115,0.1848206217397197
-0.0187241546809673,1.3194382190704346,-0.2172990590333938,-0.4598444998264313,-0.0004063130763825,-0.0324159748852252,0.0,0.0,0.5001214271437264,-0.1170856584361974
-0.0209318157285451,1.3093880414962769,-0.2195533215999603,-0.4466747641563415,-0.0016038495814427,-0.0239530950784683,0.0,0.0,-0.3159346032386652,0.7385482382489001
-0.023171043023467,1.298822999000549,-0.2211106270551681,-0.4695609509944916,-0.0043820547871291,-0.055569153279066,0.0,0.0,0.6730146615671064,-0.5534589681897132
-0.0254057887941598,1.2888095378875732,-0.2222175151109695,-0.4450414478778839,-0.0056170960888266,-0.0247030816972255,0.0,0.0,-0.6567571903559541,0.547191894555383
-0.0276885032653808,1.2782773971557615,-0.2258631289005279,-0.4681057035923004,-0.0080013563856482,-0.0476892478764057,0.0,0.0,-0.9951697319032352,-0.9576758786557926
-0.0301249511539936,1.2672429084777832,-0.2427677661180496,-0.4904292821884155,-0.0088645257055759,-0.0172650180757045,0.0,0.0,0.0743003603673493,0.5589970950529646
-0.0325318351387977,1.2559770345687866,-0.2388987243175506,-0.500720202922821,-0.0106365969404578,-0.035444751381874,0.0,0.0,-0.9282038113974947,-0.073125596012213
-0.0350340828299522,1.244197964668274,-0.2484950572252273,-0.5235291123390198,-0.0123373540118336,-0.0340183116495609,0.0,0.0,0.9742664294537786,0.914466315840162
-0.0373661033809185,1.2325646877288818,-0.2300993651151657,-0.5170581936836243,-0.0154111282899975,-0.0614811703562736,0.0,0.0,-0.5396785223372491,0.3482204641280482
-0.0397925376892089,1.2204185724258425,-0.2396236360073089,-0.5398701429367065,-0.0184079576283693,-0.059941578656435,0.0,0.0,0.5717376960571956,-0.4572061136706016
-0.0423798561096191,1.2085689306259155,-0.2554262280464172,-0.5266951322555542,-0.0216840840876102,-0.0655283406376838,0.0,0.0,0.8311939610309842,-0.4112236105690684
-0.0449013710021972,1.1974512338638306,-0.2495867013931274,-0.4941581487655639,-0.0242180675268173,-0.0506840050220489,0.0,0.0,-0.1755865474924542,-0.881266130705421
-0.047584343701601,1.1858177185058594,-0.2675580680370331,-0.5170551538467407,-0.0249515958130359,-0.0146718053147196,0.0,0.0,0.5436232599045994,0.4648583136747827
-0.0502260215580463,1.174429416656494,-0.2640808522701263,-0.5061452388763428,-0.0250349808484315,-0.0016678780084475,0.0,0.0,-0.3736738960120926,0.5130010842038197
-0.0529146194458007,1.162520408630371,-0.2677038013935089,-0.5293055176734924,-0.026168517768383,-0.0226729810237884,0.0,0.0,0.623418202759175,-0.2650842983094239
-0.0558174140751361,1.1510522365570068,-0.2885722517967224,-0.5097312331199646,-0.0278574358671903,-0.0337816253304481,0.0,0.0,0.5862925616599826,0.1333869263211892
-0.0589323043823242,1.140068769454956,-0.3092174232006073,-0.4881964027881622,-0.0301008652895689,-0.0448688007891178,0.0,0.0,0.1919377815982419,-0.1685280860141838
-0.0621186271309852,1.129357933998108,-0.3164626061916351,-0.4760820269584656,-0.0322378203272819,-0.0427392125129699,0.0,0.0,0.5611740591258889,-0.9166737253833386
-0.0655802711844444,1.1193228960037231,-0.3457660675048828,-0.4460096955299377,-0.0326313413679599,-0.0078703332692384,0.0,0.0,0.9952958038494908,-0.0519404799077223
-0.0692570656538009,1.110184907913208,-0.3666404485702514,-0.4061547815799713,-0.0336585119366645,-0.0205431561917066,0.0,0.0,0.4098231313078164,-0.5136469300067191
-0.0730669945478439,1.101158618927002,-0.3810443878173828,-0.4011660814285278,-0.033615443855524,0.0008614167454652,0.0,0.0,0.0486811413443675,0.0110111161554822
-0.0769332870841026,1.0924242734909058,-0.3868182897567749,-0.3881895244121551,-0.0334208980202674,0.0038910184521228,0.0,0.0,-0.5520883798599243,0.9904899597167968
-0.0808163657784462,1.083167552947998,-0.386869341135025,-0.4114411473274231,-0.0348458550870418,-0.028499286621809,0.0,0.0,-0.5715326070785522,0.6862854957580566
-0.0847362503409385,1.073401927947998,-0.3894509673118591,-0.4340956509113312,-0.0373509712517261,-0.0501023940742015,0.0,0.0,-0.5673386454582214,0.9719500541687012
-0.0886699706315994,1.0631103515625,-0.3891870677471161,-0.4575072228908539,-0.0414890348911285,-0.0827611163258552,0.0,0.0,-0.6211512088775635,0.9848499298095704
-0.0926045402884483,1.0523033142089844,-0.3873372375965118,-0.4804992377758026,-0.0475421175360679,-0.1210613697767257,0.0,0.0,-0.7996941804885864,0.9880633354187012
-0.0965377837419509,1.0409852266311646,-0.385248988866806,-0.5032976865768433,-0.0555226504802703,-0.1596108376979828,0.0,0.0,-0.5121632218360901,0.9909684658050536
-0.1004738807678222,1.0291438102722168,-0.383729487657547,-0.5266802310943604,-0.0652942582964897,-0.1954322755336761,0.0,0.0,-0.9439490437507628,0.9888441562652588
-0.1044023483991622,1.0167903900146484,-0.3809509575366974,-0.549608588218689,-0.0770615115761756,-0.2353453636169433,0.0,0.0,-0.9191616773605348,0.926730751991272
-0.1083354949951171,1.0039280652999878,-0.3797933161258697,-0.5724090933799744,-0.0904562398791313,-0.2678945362567901,0.0,0.0,-0.9787241816520692,0.9599430561065674
-0.112260915338993,0.9905458092689514,-0.3771003484725952,-0.5957746505737305,-0.1057594418525695,-0.3060640394687652,0.0,0.0,-0.9650407433509828,0.9481290578842164
-0.1161931976675987,0.9766518473625184,-0.3763613104820251,-0.6187896728515625,-0.1225224435329437,-0.335260272026062,0.0,0.0,-0.9162839651107788,0.9895144701004028
-0.12009859085083,0.9622294306755066,-0.3713961243629455,-0.6426799893379211,-0.1415751576423645,-0.3810545802116394,0.0,0.0,-0.7986273765563965,0.7312493324279785
-0.1240017861127853,0.947276532649994,-0.3696220815181732,-0.6666625142097473,-0.1622393131256103,-0.4132832884788513,0.0,0.0,-0.280305802822113,0.4297388792037964
-0.1279654502868652,0.931816041469574,-0.3758339285850525,-0.6895010471343994,-0.182814747095108,-0.4115086495876312,0.0,0.0,0.0058428049087524,0.8357720375061035
-0.1319189071655273,0.9160929918289183,-0.3733041882514953,-0.7016710638999939,-0.204987570643425,-0.4434567391872406,0.0,0.0,0.3274378776550293,0.3657699823379516
-0.1358354538679123,0.9002459049224854,-0.36996990442276,-0.7074680328369141,-0.2269047051668167,-0.4383426606655121,0.0,0.0,0.6318873167037964,0.6582560539245605
-0.1395892202854156,0.8844940066337585,-0.3527067899703979,-0.7037345767021179,-0.2499241530895233,-0.4603889584541321,0.0,0.0,0.8243002891540527,-0.5617426633834839
-0.1433320045471191,0.8696449995040894,-0.3525707721710205,-0.6638081073760986,-0.2720850706100464,-0.4432181715965271,0.0,0.0,-0.1607090830802917,-0.1741416454315185
-0.1471172273159027,0.8542887568473816,-0.3570393919944763,-0.6866505146026611,-0.294168084859848,-0.4416603147983551,0.0,0.0,0.6250858306884766,-0.6032000780105591
-0.1508633643388748,0.8391719460487366,-0.3544599413871765,-0.6760631203651428,-0.3150046765804291,-0.4167324900627136,0.0,0.0,0.7141194343566895,-0.5095892548561096
-0.1543477028608322,0.8243367075920105,-0.3299133777618408,-0.6634851098060608,-0.3342891633510589,-0.3856903314590454,0.0,0.0,0.7885910272598267,-0.9312955737113952
-0.1577336341142654,0.8101984858512878,-0.3219775259494781,-0.6323133707046509,-0.3516989946365356,-0.3481966257095337,0.0,0.0,0.7906209230422974,-0.3383951187133789
-0.1608678847551345,0.7961679100990295,-0.2974875867366791,-0.6275776624679565,-0.3684944808483124,-0.3359096050262451,0.0,0.0,0.4456402063369751,-0.4709618091583252
-0.1637686789035797,0.7826023697853088,-0.2743269205093384,-0.6070579290390015,-0.3852137625217438,-0.3343860805034637,0.0,0.0,0.9682230949401855,-0.6711446046829224
-0.1663400679826736,0.7692539691925049,-0.2432747781276703,-0.5970820784568787,-0.4000131487846374,-0.2959875762462616,0.0,0.0,0.958901047706604,-0.9337855577468872
-0.1688883751630783,0.7562782168388367,-0.2427085638046264,-0.5801714658737183,-0.4130472242832184,-0.2606813609600067,0.0,0.0,0.933010458946228,-0.6171194911003113
-0.1710036247968673,0.7440356612205505,-0.2009827196598053,-0.5472395420074463,-0.4244314730167389,-0.2276852428913116,0.0,0.0,0.9920790195465088,-0.6858676075935364
-0.1726703643798828,0.7323178648948669,-0.1579519957304,-0.5234473347663879,-0.4338932335376739,-0.189235121011734,0.0,0.0,0.8665962219238281,-0.9710261225700378
-0.1739229261875152,0.7213514447212219,-0.118612565100193,-0.4894719123840332,-0.4411329627037048,-0.144794300198555,0.0,0.0,0.7426363229751587,-0.9925107359886168
-0.1749617606401443,0.7111115455627441,-0.0991066321730613,-0.4566218554973602,-0.4463574886322021,-0.1044905558228492,0.0,0.0,0.7727957963943481,-0.9791275262832642
-0.1758312284946441,0.7008984088897705,-0.0841431245207786,-0.4548169374465942,-0.449429452419281,-0.061439037322998,0.0,0.0,0.9077579975128174,-0.9004741907119751
-0.1765066087245941,0.6913993954658508,-0.0662873089313507,-0.4225780069828033,-0.4507992267608642,-0.0273956507444381,0.0,0.0,0.1141049861907959,-0.983253300189972
-0.1769866943359375,0.6818414330482483,-0.0486317723989486,-0.424602597951889,-0.4501200020313263,0.0135847013443708,0.0,0.0,0.2310589551925659,-0.9136930108070374
-0.1772847175598144,0.6724215149879456,-0.0321995317935943,-0.4178901314735412,-0.4474923610687256,0.052553080022335,0.0,0.0,-0.1901485323905944,-0.979272484779358
-0.1776191741228103,0.6625312566757202,-0.0377193167805671,-0.4382128417491913,-0.4428285658359527,0.0932761579751968,0.0,0.0,0.3388258218765259,-0.9457096457481384
-0.1778811514377594,0.6528996229171753,-0.0322467647492885,-0.4261780083179474,-0.4362244606018066,0.1320823431015014,0.0,0.0,0.0864564180374145,-0.9801410436630248
-0.1779132783412933,0.6435686945915222,-0.0111837768927216,-0.4122514128684997,-0.4275474846363067,0.1735396683216095,0.0,0.0,-0.680677592754364,-0.8928358554840088
-0.1779559105634689,0.6337534785270691,-0.0137675199657678,-0.4333736300468445,-0.4172611236572265,0.2057263851165771,0.0,0.0,-0.6702627539634705,-0.8312869071960449
-0.178001120686531,0.6234732866287231,-0.0156325288116931,-0.4536619484424591,-0.4052964448928833,0.2392935454845428,0.0,0.0,-0.3678221702575683,-0.756546676158905
-0.1780547201633453,0.6127195358276367,-0.0182321760803461,-0.4743262529373169,-0.3915096223354339,0.2757366001605987,0.0,0.0,-0.313444972038269,-0.6000256538391113
-0.1780985891819,0.6014885306358337,-0.0186801794916391,-0.4952935576438904,-0.376278668642044,0.3046192824840545,0.0,0.0,0.0573393106460571,-0.2101728320121765
-0.1779149025678634,0.5902921557426453,0.003887329949066,-0.4938803315162658,-0.3609462678432464,0.3066478967666626,0.0,0.0,-0.3872804641723633,-0.1544471383094787
-0.1776652336120605,0.5785855650901794,0.0103969490155577,-0.5167028903961182,-0.3456057906150818,0.3068097233772278,0.0,0.0,-0.3843989372253418,0.4146211147308349
-0.1773465126752853,0.5663687586784363,0.0172102805227041,-0.5395256876945496,-0.3302594125270843,0.3069277703762054,0.0,0.0,-0.3360976576805115,0.3731250762939453
-0.1769559830427169,0.5536417961120605,0.0243069641292095,-0.562348484992981,-0.3149091899394989,0.3070043325424194,0.0,0.0,-0.0378555655479431,0.3279968500137329
-0.1764911711215973,0.540404736995697,0.0316672585904598,-0.5851715803146362,-0.299557089805603,0.3070418238639831,0.0,0.0,-0.1709254384040832,0.5598771572113037
-0.1759106665849685,0.5266335606575012,0.0441991314291954,-0.6092690825462341,-0.2852899432182312,0.2853431403636932,0.0,0.0,-0.1439500451087951,0.5186867713928223
-0.1752119064331054,0.512339174747467,0.0569954626262187,-0.6328431367874146,-0.2720583081245422,0.2646326422691345,0.0,0.0,0.1004953384399414,0.424068808555603
-0.1742348670959472,0.4982975721359253,0.0845363810658454,-0.6216787099838257,-0.2585833072662353,0.2694998383522033,0.0,0.0,-0.33902508020401,0.1135374307632446
-0.1731749475002288,0.4837452173233032,0.0927717238664627,-0.6444979906082153,-0.2451130151748657,0.2694056928157806,0.0,0.0,0.1583242416381836,0.5716679096221924
-0.1720289289951324,0.4690342545509338,0.1026634201407432,-0.6518753170967102,-0.2329799532890319,0.2426614016294479,0.0,0.0,0.6745691299438477,0.293663740158081
-0.1705719977617263,0.4549674689769745,0.1335338503122329,-0.6233198642730713,-0.2206651717424392,0.2462957203388214,0.0,0.0,-0.22608083486557,-0.0004873275756835
-0.1690276116132736,0.4403895437717438,0.1422606706619262,-0.6461368203163147,-0.208358958363533,0.2461242228746414,0.0,0.0,0.624224066734314,-0.3737119436264038
-0.1673091948032379,0.4262950718402862,0.1598855406045913,-0.624782145023346,-0.196311742067337,0.2409439831972122,0.0,0.0,0.4136103391647339,-0.6401129961013794
-0.1654440909624099,0.4125910699367523,0.1732742637395858,-0.607365071773529,-0.1830091923475265,0.2660508751869201,0.0,0.0,0.3307647705078125,-0.2337551116943359
-0.1633333265781402,0.3990484178066253,0.1974919587373733,-0.6002762913703918,-0.1693936139345169,0.2723117470741272,0.0,0.0,0.1164089441299438,-0.4467418193817138
-0.1610755920410156,0.3853330910205841,0.2121071368455886,-0.6080681085586548,-0.1557167023420334,0.2735381126403808,0.0,0.0,-0.0246485471725463,-0.7211349606513977
-0.1587727516889572,0.3711133897304535,0.2153744399547577,-0.6304938197135925,-0.140835553407669,0.2976229786872864,0.0,0.0,0.0896798372268676,0.2067687511444091
-0.1562270224094391,0.3569225668907165,0.2392144948244094,-0.6293216943740845,-0.1255200952291488,0.306308776140213,0.0,0.0,0.5782699584960938,-0.5567634105682373
-0.1534408628940582,0.3427599370479584,0.2617492973804474,-0.6281192302703857,-0.1087516024708747,0.3353692889213562,0.0,0.0,0.4438387155532837,0.4706287384033203
-0.1504926681518554,0.3290676474571228,0.2779560387134552,-0.6074019074440002,-0.0920222848653793,0.3345866799354553,0.0,0.0,0.167973518371582,0.0851533412933349
-0.1473771035671234,0.3156640529632568,0.2945771813392639,-0.5947585701942444,-0.0752087011933326,0.3362720310688019,0.0,0.0,0.3429993391036987,-0.7086507081985474
-0.1440671980381012,0.3025587797164917,0.3124001622200012,-0.5816248059272766,-0.0568243376910686,0.3676875233650207,0.0,0.0,0.4085332155227661,-0.5998198986053467
-0.1405981034040451,0.2893517911434173,0.3269227743148803,-0.5863364338874817,-0.0370679758489131,0.39512699842453,0.0,0.0,0.6343690156936646,-0.4748764038085937
-0.1370643675327301,0.2763948440551758,0.3336247205734253,-0.5754901766777039,-0.0175710152834653,0.3899392783641815,0.0,0.0,0.5612742900848389,-0.4202375411987304
-0.1333381682634353,0.2641507387161255,0.3525142073631286,-0.5440685749053955,0.0022763491142541,0.3969474732875824,0.0,0.0,0.7803995609283447,-0.5196916460990906
-0.1295825988054275,0.2523186206817627,0.3544968068599701,-0.5260379314422607,0.0230608768761158,0.4156908988952636,0.0,0.0,0.5317025184631348,-0.6885881423950195
-0.1259264051914215,0.2410853952169418,0.3434626460075378,-0.4997400343418121,0.0449431501328945,0.4376455843448639,0.0,0.0,0.8629287481307983,0.4636580944061279
-0.1221084594726562,0.2305313646793365,0.3592263460159302,-0.4698981642723083,0.0672582015395164,0.4463011622428894,0.0,0.0,0.7125000953674316,0.5517011880874634
-0.1182592362165451,0.2206366658210754,0.3636722862720489,-0.4408518373966217,0.0882931947708129,0.4207000136375427,0.0,0.0,0.1879581212997436,-0.3625732064247131
-0.1144172698259353,0.2110312134027481,0.3632930219173431,-0.4282716810703277,0.1090311631560325,0.4147594571113586,0.0,0.0,0.4461805820465088,0.3984047174453735
-0.1105445846915245,0.2015646547079086,0.366530179977417,-0.4223750531673431,0.1296461969614029,0.4123004972934723,0.0,0.0,0.5533512830734253,0.0729693174362182
-0.1067538261413574,0.1924103796482086,0.358921617269516,-0.4087356328964233,0.1497313380241394,0.4017030298709869,0.0,0.0,0.0024627447128295,0.2997413873672485
-0.1030006408691406,0.1831989586353302,0.3556659817695617,-0.4114893078804016,0.1693712919950485,0.3927993178367615,0.0,0.0,0.3909338712692261,0.3557887077331543
-0.0991612449288368,0.174396738409996,0.3639577329158783,-0.3936134874820709,0.1894004195928573,0.4005827307701111,0.0,0.0,0.2478052377700805,-0.2326897382736206
-0.0952285751700401,0.1655101925134658,0.3731778264045715,-0.3976501226425171,0.2096201926469802,0.4043958783149719,0.0,0.0,0.2028641700744629,0.1491395235061645
-0.0912079811096191,0.1569638103246688,0.3816123604774475,-0.3828711807727813,0.2303043901920318,0.4136838316917419,0.0,0.0,0.1307321786880493,0.3511484861373901
-0.0872233361005783,0.1486800014972686,0.3781983852386474,-0.3714641332626343,0.2508917152881622,0.4117467403411865,0.0,0.0,0.3370921611785888,0.4297255277633667
-0.0831981673836708,0.1409365683794021,0.3818685114383697,-0.3478199541568756,0.2719883024692535,0.4219317436218261,0.0,0.0,0.2283871173858642,-0.0338284373283386
-0.0791337937116622,0.1333312541246414,0.3856883943080902,-0.3420174717903137,0.2933220267295837,0.4266740381717682,0.0,0.0,0.3890348672866821,0.5788816213607788
-0.0751310363411903,0.1262263357639312,0.380818098783493,-0.3198177218437195,0.3134335875511169,0.4022317826747894,0.0,0.0,0.4300544261932373,0.3852078914642334
-0.0711880698800087,0.1196105107665062,0.3747696280479431,-0.2983917593955993,0.3337620198726654,0.4065685272216797,0.0,0.0,-0.0246530175209045,0.2144510746002197
-0.0671443939208984,0.1124865636229515,0.3849852681159973,-0.3212283253669739,0.3540639281272888,0.4060386717319488,0.0,0.0,0.5605772733688354,0.4453405141830444
-0.0633111968636512,0.1056161001324653,0.3646310865879059,-0.3100884258747101,0.37380450963974,0.3948116898536682,0.0,0.0,0.4204734563827514,0.44394052028656
-0.0596416480839252,0.0987946391105651,0.3489057421684265,-0.3080149590969085,0.3930071294307709,0.3840524852275848,0.0,0.0,0.3929623365402221,0.2829694747924804
-0.0560702309012413,0.0921125710010528,0.339337557554245,-0.3020181357860565,0.4120975732803345,0.381809264421463,0.0,0.0,0.4329864978790283,0.2822194099426269
-0.0525630004703998,0.0855711996555328,0.3330084979534149,-0.2960125505924225,0.4312632977962494,0.3833146393299103,0.0,0.0,0.6169129610061646,0.3700587749481201
-0.0489861480891704,0.0790809020400047,0.339602380990982,-0.29413503408432,0.4509904086589813,0.3945425450801849,0.0,0.0,0.6842387914657593,0.6387439966201782
-0.0454717651009559,0.0731281861662864,0.3345450162887573,-0.2701328098773956,0.469592422246933,0.3720400929450989,0.0,0.0,0.568026065826416,0.7448558807373047
-0.0421300902962684,0.067753680050373,0.3188284039497375,-0.2441526353359222,0.486636072397232,0.3408727645874023,0.0,0.0,0.7745684385299683,0.4161885976791382
-0.0387839302420616,0.062361653894186,0.3191544413566589,-0.2451990246772766,0.5039636492729187,0.3465513885021209,0.0,0.0,0.4760770797729492,0.4012627601623535
