x_pos,y_pos,x_vel,y_vel,angle,ang_vel,leg_1,leg_2,main_booster,lat_booster
-0.0015019417041912,1.403517484664917,-0.1529240608215332,-0.3290117979049682,0.0024520612787455,0.0484203658998012,0.0,0.0,-0.5662648677825928,0.239701509475708
-0.002988243009895,1.3960309028625488,-0.1517533212900161,-0.3327459096908569,0.0055357315577566,0.0616800859570503,0.0,0.0,-0.4445300102233886,0.7095130681991577
-0.0043971063569188,1.388432264328003,-0.1429708003997802,-0.3377291858196258,0.0075967130251228,0.0412232764065265,0.0,0.0,-0.4311316013336181,0.7440648078918457
-0.0057559967972338,1.380724549293518,-0.1374786049127578,-0.342572808265686,0.0091686742380261,0.0314422249794006,0.0,0.0,0.1071923971176147,0.965700387954712
-0.0069437981583178,1.3735707998275757,-0.1191378235816955,-0.3179463148117065,0.0095273898914456,0.0071748690679669,0.0,0.0,-0.4554445743560791,0.7590131759643555
-0.0080681797116994,1.3663098812103271,-0.1116339191794395,-0.3227035701274872,0.0087347812950611,-0.0158535502851009,0.0,0.0,-0.5461503863334656,0.2916221618652344
-0.0092089651152491,1.3589420318603516,-0.1139688640832901,-0.3274630308151245,0.008634265512228,-0.0020107508171349,0.0,0.0,-0.2648367881774902,0.5193772315979004
-0.010321426205337,1.3514691591262815,-0.1105522140860557,-0.3321208655834198,0.0079411454498767,-0.0138633921742439,0.0,0.0,-0.3907982110977173,0.5285283327102661
-0.011422443203628,1.343895435333252,-0.1090549975633621,-0.336600512266159,0.0069125243462622,-0.0205744206905365,0.0,0.0,-0.5178866386413574,0.6349785327911377
-0.0125088691711425,1.336219310760498,-0.1070353165268898,-0.3411575257778168,0.005316300317645,-0.0319273360073566,0.0,0.0,-0.6471417546272278,0.5661904811859131
-0.0135860443115234,1.3284368515014648,-0.1055000647902488,-0.3458790183067322,0.0031250624451786,-0.0438288524746894,0.0,0.0,-0.4832097291946411,0.2502880096435547
-0.0147109031677246,1.3205474615097046,-0.1109631285071373,-0.3506411910057068,0.0016187618020921,-0.0301288403570652,0.0,0.0,-0.157662034034729,0.9198918342590332
-0.0158011429011821,1.312555909156799,-0.1059532314538955,-0.3551821112632751,-0.0014238461153581,-0.0608577542006969,0.0,0.0,-0.626481831073761,0.5670433044433594
-0.0169009212404489,1.3044519424438477,-0.1063204184174537,-0.3601852357387543,-0.0050403922796249,-0.0723377019166946,0.0,0.0,-0.7554219365119934,0.4451370239257812
-0.0180655475705862,1.2962409257888794,-0.113490305840969,-0.3649476766586303,-0.0079827243462204,-0.058851920068264,0.0,0.0,-0.8791173696517944,0.7226699590682983
-0.0192331317812204,1.2879135608673096,-0.1127432137727737,-0.3701317012310028,-0.0119509827345609,-0.0793723687529563,0.0,0.0,-0.6158267259597778,0.6969695091247559
-0.0204083435237407,1.279486060142517,-0.1124669313430786,-0.3746002614498138,-0.0169542338699102,-0.100073792040348,0.0,0.0,-0.3127328753471374,0.4339164495468139
-0.0216639526188373,1.2709516286849976,-0.1211605668067932,-0.3793633282184601,-0.0213004946708679,-0.0869331359863281,0.0,0.0,-0.2574782371520996,0.2828340530395508
-0.0230044368654489,1.262310028076172,-0.1303208321332931,-0.3841257095336914,-0.0249984506517648,-0.0739655494689941,0.0,0.0,0.0223686695098876,0.5551505088806152
-0.0244377143681049,1.25408673286438,-0.1390368938446045,-0.3655577600002289,-0.0292451586574316,-0.084941916167736,0.0,0.0,-0.7185754179954529,0.1725184917449951
-0.0259648319333791,0.0,-0.1490550339221954,-0.3703241348266601,-0.0328616313636302,-0.0723360031843185,0.0,0.0,-0.5925443172454834,0.6508903503417969
-0.0275375358760356,1.2373121976852417,-0.1528999954462051,-0.3753914833068847,-0.037179447710514,-0.0863641053438186,0.0,0.0,-0.5331131815910339,0.914026975631714
-0.0291240699589252,1.2287548780441284,-0.1526718437671661,-0.3804827630519867,-0.0431000478565692,-0.1184226050972938,0.0,0.0,-0.6917111873626709,0.8274902105331421
-0.03074312210083,1.2200766801834106,-0.1546688824892044,-0.3859179317951202,-0.0502662993967533,-0.1433378309011459,0.0,0.0,-0.5106635689735413,-0.2530504465103149
-0.0324708931148052,1.2112915515899658,-0.1661188751459121,-0.3906823694705963,-0.0568559095263481,-0.1318040937185287,0.0,0.0,-0.7284470796585083,0.5297579765319824
-0.0342797264456748,1.2023783922195437,-0.173965111374855,-0.3964245021343231,-0.0636858493089675,-0.1365988403558731,0.0,0.0,-0.7239133715629578,0.4420335292816162
-0.0362034812569618,1.1933581829071045,-0.1860244274139404,-0.401185393333435,-0.06997711956501,-0.1258254945278167,0.0,0.0,-0.9646189212799072,0.711411714553833
-0.0382009521126747,1.1842334270477295,-0.1927956640720367,-0.4058757126331329,-0.0768582820892334,-0.1376233249902725,0.0,0.0,-0.7226939797401428,0.8887019157409668
-0.0402637496590614,1.1750030517578125,-0.1984349191188812,-0.4106648564338684,-0.0846294313669204,-0.1554230451583862,0.0,0.0,-0.5653594136238098,0.9024527072906494
-0.0423813834786415,1.1656538248062134,-0.2026326358318328,-0.4160642921924591,-0.0936670899391174,-0.1807532757520675,0.0,0.0,-0.799018383026123,0.685889720916748
-0.044568158686161,1.1561981439590454,-0.2086005508899688,-0.4209229350090027,-0.1036683171987533,-0.2000245600938797,0.0,0.0,-0.5392686128616333,0.9049423933029176
-0.0468210205435752,1.1466213464736938,-0.2140562981367111,-0.4264607727527618,-0.1148276552557945,-0.2231867611408233,0.0,0.0,-0.8556937575340271,0.8955879211425781
-0.0491424575448036,1.1369363069534302,-0.2197521477937698,-0.4314419627189636,-0.1271399706602096,-0.2462466955184936,0.0,0.0,-0.3161760568618774,0.5459611415863037
-0.0515576377511024,1.1271334886550903,-0.2285353243350982,-0.4368390738964081,-0.1400750279426574,-0.2587009966373443,0.0,0.0,-0.7684382200241089,0.7655826807022095
-0.0540447235107421,1.1172139644622805,-0.2344923317432403,-0.4422655403614044,-0.1542591899633407,-0.2836828827857971,0.0,0.0,-0.7625399827957153,0.42775559425354
-0.0566670410335063,1.107189416885376,-0.2483377456665039,-0.447038322687149,-0.168155625462532,-0.2779287695884704,0.0,0.0,-0.0017585754394531,0.8583074808120728
-0.0593628883361816,1.0970393419265747,-0.2543235421180725,-0.4529128074645996,-0.1834467500448227,-0.3058225512504577,0.0,0.0,-0.7326588034629822,0.3898923397064209
-0.0621971115469932,1.0867847204208374,-0.2684186995029449,-0.4576885998249054,-0.1985215544700622,-0.3014964163303375,0.0,0.0,-0.8823422789573669,-0.6774265766143799
-0.0652259811758995,1.076449275016785,-0.2895517647266388,-0.4611937701702118,-0.2119619995355606,-0.2688090801239013,0.0,0.0,-0.711747944355011,-0.555300772190094
-0.0684368163347244,1.0660223960876465,-0.3089845776557922,-0.4651980102062225,-0.2241955697536468,-0.2446712702512741,0.0,0.0,-0.6412228941917419,-0.5687132477760315
-0.0718410462141037,1.055512309074402,-0.3297928869724273,-0.4687747359275818,-0.2349728196859359,-0.2155449837446212,0.0,0.0,-0.8801461458206177,0.2270300388336181
-0.0753891021013259,1.044896364212036,-0.3442712426185608,-0.473542720079422,-0.245684266090393,-0.2142290771007537,0.0,0.0,-0.9241939187049866,-0.1243873834609985
-0.0790822058916091,1.0341746807098389,-0.3588266670703888,-0.4783112406730652,-0.2563677132129669,-0.2136689126491546,0.0,0.0,-0.6926104426383972,0.4109269380569458
-0.0829213112592697,1.0233471393585205,-0.3734526038169861,-0.4830805361270904,-0.2670605778694153,-0.2138572186231613,0.0,0.0,-0.8989940881729126,-0.3696238994598388
-0.0869075804948806,1.0124143362045288,-0.3881431221961975,-0.4878506362438202,-0.2777996957302093,-0.2147821485996246,0.0,0.0,-0.7211171388626099,-0.5921918153762817
-0.0910843834280967,1.0013880729675293,-0.4082282483577728,-0.4918864071369171,-0.2875174880027771,-0.1943558752536773,0.0,0.0,-0.7414316534996033,-0.0832120776176452
-0.0954101532697677,0.9902564287185668,-0.4230309128761291,-0.4966565668582916,-0.2973526418209076,-0.1967032849788665,0.0,0.0,-0.4607821702957153,0.6491653919219971
-0.0998443588614463,0.9790080189704896,-0.4327316284179687,-0.5021560788154602,-0.3084058761596679,-0.2210649251937866,0.0,0.0,-0.8631994724273682,-0.014828622341156
-0.1044288650155067,0.9676546454429626,-0.4476293921470642,-0.5069302916526794,-0.3196430802345276,-0.2247440814971923,0.0,0.0,-0.9370834827423096,0.6814848184585571
-0.109115794301033,0.9561707377433776,-0.4564066529273987,-0.5131574869155884,-0.3324394524097442,-0.25592702627182,0.0,0.0,-0.7584539651870728,0.3101950883865356
-0.1139541640877723,0.9445828795433044,-0.4713843762874603,-0.5179370045661926,-0.3454809784889221,-0.2608304917812347,0.0,0.0,-0.7646320462226868,0.5167391300201416
-0.1189093589782714,0.9328761696815492,-0.4819491803646087,-0.5236221551895142,-0.3597496747970581,-0.2853738963603973,0.0,0.0,-0.6002225279808044,0.1576894521713256
-0.1240171417593956,0.9210662841796876,-0.4969933927059173,-0.5284067988395691,-0.3743188381195068,-0.2913838624954223,0.0,0.0,-0.8621954321861267,0.0750198364257812
-0.1292779892683029,0.909153699874878,-0.5120660066604614,-0.5331932306289673,-0.389213889837265,-0.2979018986225128,0.0,0.0,-0.6602717638015747,0.1882423162460327
-0.1346921026706695,0.8971385359764099,-0.5271642804145813,-0.537981390953064,-0.4044587314128876,-0.3048974871635437,0.0,0.0,-0.3264017105102539,0.4635677337646484
-0.1402600258588791,0.8850209712982178,-0.5422860383987427,-0.5427714586257935,-0.4200757443904876,-0.3123407363891601,0.0,0.0,-0.7739714980125427,-0.1608008742332458
-0.1459819823503494,0.8728017210960388,-0.5574287176132202,-0.5475634932518005,-0.4360858798027038,-0.3202027380466461,0.0,0.0,-0.2188050746917724,-0.0286651849746704
-0.1518581360578537,0.8604808449745178,-0.5725903511047363,-0.5523574948310852,-0.4525086581707001,-0.32845538854599,0.0,0.0,0.0021286010742187,-0.3709449768066406
-0.1576297730207443,0.848702609539032,-0.5620470643043518,-0.5284702777862549,-0.4691526889801025,-0.3328805565834045,0.0,0.0,0.3241957426071167,-0.3512628674507141
-0.163325697183609,0.8377071022987366,-0.5539520978927612,-0.4940637350082397,-0.4865269362926483,-0.3474849760532379,0.0,0.0,-0.4061971306800842,-0.5893194675445557
-0.1692152917385101,0.8266360759735107,-0.5740572214126587,-0.4973941743373871,-0.5032380819320679,-0.3342225849628448,0.0,0.0,0.311661958694458,-0.3443886041641235
-0.1750611364841461,0.8162538409233093,-0.5690625309944153,-0.4672322571277618,-0.5207955837249756,-0.3511510789394378,0.0,0.0,-0.7307245135307312,-0.7940624952316284
-0.1811054199934005,0.8058061003684998,-0.5898002982139587,-0.4700301885604858,-0.5375105738639832,-0.3342993259429931,0.0,0.0,-0.0778337121009826,-0.8248173594474792
-0.1873576194047927,0.7953063249588013,-0.6117613315582275,-0.4720942378044128,-0.5530425310134888,-0.3106390535831451,0.0,0.0,0.4048757553100586,-0.0696963667869567
-0.1935806274414062,0.7851353883743286,-0.6085500717163086,-0.4577798545360565,-0.5690595507621765,-0.3203405439853668,0.0,0.0,0.4168561697006225,-0.5681135654449463
-0.1998201310634613,0.7756337523460388,-0.6107279062271118,-0.4280222952365875,-0.584627091884613,-0.3113511502742767,0.0,0.0,0.6671042442321777,-0.5309497117996216
-0.2057514637708664,0.7671318054199219,-0.5806049108505249,-0.3834711909294128,-0.5995204448699951,-0.2978666722774505,0.0,0.0,0.610543966293335,-0.652099609375
-0.2116507589817047,0.7588451504707336,-0.5783768892288208,-0.3736287951469421,-0.6133880615234375,-0.2773522734642029,0.0,0.0,0.8140432834625244,-0.6180026531219482
-0.2171766310930252,0.7516269087791443,-0.5418663620948792,-0.3259030282497406,-0.6263836622238159,-0.2599119544029236,0.0,0.0,0.9346657991409302,-0.6796033978462219
-0.2226733267307281,0.745129406452179,-0.5395583510398865,-0.293710321187973,-0.638751208782196,-0.2473505735397339,0.0,0.0,0.8885155916213989,-0.6214362978935242
-0.2279922515153885,0.7396084666252136,-0.5222832560539246,-0.2501809000968933,-0.6506105661392212,-0.237187311053276,0.0,0.0,0.9827159643173218,-0.7637431621551514
-0.2330294102430343,0.7348963618278503,-0.4951384961605072,-0.2138173729181289,-0.6612911224365234,-0.2136115133762359,0.0,0.0,0.9534496068954468,-0.6361976265907288
-0.2377736568450927,0.7314659953117371,-0.4662447571754455,-0.1567368954420089,-0.671556293964386,-0.2053037881851196,0.0,0.0,0.9822310209274292,-0.5300213694572449
-0.2422018051147461,0.728699266910553,-0.4353691041469574,-0.126939058303833,-0.6809806227684021,-0.1884863674640655,0.0,0.0,0.947054386138916,-0.758502721786499
-0.2465772181749344,0.7264600992202759,-0.4309093952178955,-0.103131927549839,-0.6894315481185913,-0.1690179258584976,0.0,0.0,0.9078162908554076,-0.9161781668663024
-0.250861793756485,0.7245314717292786,-0.4230632185935974,-0.0886952728033065,-0.6963440179824829,-0.1382499039173126,0.0,0.0,0.8989901542663574,-0.5555314421653748
-0.2551167607307434,0.7230245471000671,-0.4205297529697418,-0.069756381213665,-0.7027460932731628,-0.1280414462089538,0.0,0.0,0.9638946056365968,-0.8416582942008972
-0.2589723169803619,0.7225745320320129,-0.381581038236618,-0.0222596284002065,-0.7079010605812073,-0.1030987873673439,0.0,0.0,0.878023624420166,-0.9739360213279724
-0.2623563706874847,0.723061740398407,-0.3357485830783844,0.0201263613998889,-0.7113590836524963,-0.0691603571176529,0.0,0.0,0.8580375909805298,-0.8282124996185303
-0.265444815158844,0.7246955633163452,-0.3069562315940857,0.0715236738324165,-0.7138233780860901,-0.0492853783071041,0.0,0.0,0.5070288181304932,-0.9784237742424012
-0.2686534821987152,0.7267686724662781,-0.3200913369655609,0.0916904956102371,-0.7148341536521912,-0.0202157758176326,0.0,0.0,0.186541199684143,-0.9547659158706664
-0.2716708183288574,0.7294285297393799,-0.3021136224269867,0.1184353753924369,-0.7143397927284241,0.0098877949640154,0.0,0.0,0.1440860033035278,-0.8871286511421204
-0.2746948599815368,0.7325856685638428,-0.3038156926631927,0.1411402523517608,-0.7124941945075989,0.0369118526577949,0.0,0.0,-0.0036878585815429,-0.7535151839256287
-0.2779193818569183,0.7357059121131897,-0.3247908055782318,0.1400206983089447,-0.7094442844390869,0.060999047011137,0.0,0.0,-0.157213807106018,-0.7613245844841003
-0.281341016292572,0.7387859225273132,-0.3453620970249176,0.1387151777744293,-0.7052927017211914,0.0830313712358474,0.0,0.0,0.2416833639144897,-0.2562334537506103
-0.2845822870731354,0.7422001361846924,-0.3270835280418396,0.1534161865711212,-0.7014622092247009,0.0766095668077468,0.0,0.0,0.173405647277832,-0.5191371440887451
-0.2878378331661224,0.7458086013793945,-0.3289503753185272,0.1622741669416427,-0.6970876455307007,0.087491437792778,0.0,0.0,-0.0274330973625183,-0.5049849152565002
-0.291272222995758,0.749344527721405,-0.3470796942710876,0.159173384308815,-0.6924043297767639,0.0936656221747398,0.0,0.0,0.076416015625,-0.3229581117630005
-0.2945464551448822,0.7531165480613708,-0.3309395313262939,0.1695812493562698,-0.6879056692123413,0.0899731665849685,0.0,0.0,-0.0040859580039978,-0.0562055110931396
-0.297971248626709,0.7567870616912842,-0.345512330532074,0.1647867113351822,-0.6840360164642334,0.0773933157324791,0.0,0.0,-0.0795946717262268,-0.0823330879211425
-0.3015458583831787,0.7603558897972107,-0.3600057661533355,0.1599925905466079,-0.6807963848114014,0.0647931993007659,0.0,0.0,-0.1866043806076049,-0.6334787011146545
-0.3053034245967865,0.7638705372810364,-0.3788603842258453,0.1578755229711532,-0.6768590211868286,0.0787474364042282,0.0,0.0,-0.2293151617050171,-0.3534080386161804
-0.3092089593410492,0.7672836184501648,-0.3931725025177002,0.1530815660953521,-0.6735535264015198,0.0661100223660469,0.0,0.0,-0.1342799663543701,-0.7080881595611572
-0.3133004307746887,0.7706318497657776,-0.4122758507728576,0.1504688858985901,-0.6696010231971741,0.0790501236915588,0.0,0.0,-0.373618483543396,-0.1619858741760254
-0.3175376951694488,0.773878276348114,-0.426370233297348,0.1456751376390457,-0.666282057762146,0.0663796365261077,0.0,0.0,-0.6473555564880371,-0.6901274919509888
-0.3219522535800934,0.7770718932151794,-0.4446426033973694,0.1436035484075546,-0.662284255027771,0.0799562558531761,0.0,0.0,-0.5153852701187134,0.1689933538436889
-0.3265101015567779,0.7801637649536133,-0.4584757685661316,0.1388099491596222,-0.658921480178833,0.0672554373741149,0.0,0.0,-0.5800859928131104,-0.5058934092521667
-0.3312451839447021,0.7832009196281433,-0.476775586605072,0.1366597712039947,-0.6548521518707275,0.0813863724470138,0.0,0.0,-0.8188144564628601,-0.4769653677940368
-0.3361205160617828,0.7861363291740417,-0.4902958869934082,0.1318663954734802,-0.6514193415641785,0.068656675517559,0.0,0.0,-0.7941810488700867,-0.1318941712379455
-0.3411343097686767,0.7889696955680847,-0.5036370158195496,0.1270734369754791,-0.6486237049102783,0.0559124238789081,0.0,0.0,-0.7902126312255859,-0.4337031841278076
-0.3462846875190735,0.7917012572288513,-0.5167825222015381,0.1222808361053466,-0.646466076374054,0.0431527458131313,0.0,0.0,-0.6688200235366821,-0.4199519753456116
-0.3515695631504059,0.7943308353424072,-0.5297144055366516,0.1174884960055351,-0.6449472308158875,0.0303766932338476,0.0,0.0,-0.6032317280769348,-0.3532283306121826
-0.3569865226745605,0.796858549118042,-0.5424132943153381,0.1126963272690773,-0.6440680623054504,0.0175832491368055,0.0,0.0,-0.4412236213684082,-0.7494491338729858
-0.3625918924808502,0.7993482351303101,-0.5623812675476074,0.1115762516856193,-0.6417920589447021,0.0455201976001262,0.0,0.0,-0.582098126411438,-0.254036545753479
-0.3683241307735443,0.801736056804657,-0.5745501518249512,0.1067839413881301,-0.6401575207710266,0.032690443098545,0.0,0.0,-0.5568608045578003,-0.3767693042755127
-0.374180257320404,0.8040218353271484,-0.5864182710647583,0.1019918099045753,-0.639165461063385,0.0198414828628301,0.0,0.0,-0.5429143905639648,-0.4728133678436279
-0.3801569938659668,0.806205689907074,-0.5979601144790649,0.09719979763031,-0.6388168931007385,0.0069719003513455,0.0,0.0,-0.2636407613754272,-0.5055117011070251
-0.386281818151474,0.8083272576332092,-0.613174319267273,0.0946340560913086,-0.6379640698432922,0.0170566495507955,0.0,0.0,-0.5883790850639343,-0.5918909907341003
-0.392545223236084,0.8103834986686707,-0.6273193359375,0.0918725654482841,-0.6367626786231995,0.0240276139229536,0.0,0.0,-0.4904758334159851,-0.1723063588142395
-0.3989178240299225,0.8123378157615662,-0.6377123594284058,0.0870804488658905,-0.636208176612854,0.0110898520797491,0.0,0.0,-0.312278151512146,-0.038937509059906
-0.4053951799869537,0.8141902089118958,-0.6476609706878662,0.0822883695363998,-0.6363018155097961,-0.0018727254355326,0.0,0.0,-0.4828054904937744,-0.3260012865066528
-0.4119725823402405,0.8159405589103699,-0.657132625579834,0.077496238052845,-0.6370449066162109,-0.0148620530962944,0.0,0.0,-0.4383627772331238,0.1702975034713745
-0.4186448454856872,0.8175889849662781,-0.6660939455032349,0.0727039650082588,-0.638438880443573,-0.0278792977333068,0.0,0.0,-0.4622366428375244,0.3831773996353149
-0.4254066050052643,0.8191356062889099,-0.6745111346244812,0.0679114684462547,-0.6404851675033569,-0.0409255102276802,0.0,0.0,-0.3917447328567505,0.4178862571716308
-0.4322519898414612,0.8205803036689758,-0.6823500990867615,0.0631186515092849,-0.6431852579116821,-0.054001610726118,0.0,0.0,-0.5983279347419739,0.4724478721618652
-0.4391749501228332,0.8219232559204102,-0.6895772218704224,0.0583254322409629,-0.646540641784668,-0.0671081393957138,0.0,0.0,-0.5134084820747375,0.5988638401031494
-0.4461307525634765,0.8231201767921448,-0.6912404298782349,0.0509951524436473,-0.6519163846969604,-0.1075146049261093,0.0,0.0,-0.4347636699676513,0.7188374996185303
-0.4530995488166809,0.8241488337516785,-0.6904898881912231,0.0424457192420959,-0.6598708629608154,-0.1590894162654876,0.0,0.0,-0.4751035571098327,0.7816483974456787
-0.4600681364536285,0.8250148892402649,-0.6884081959724426,0.0340757556259632,-0.6704646348953247,-0.2118757963180542,0.0,0.0,-0.5925822854042053,0.6276700496673584
-0.4670436382293701,0.8257380127906799,-0.6875323057174683,0.0267883948981761,-0.6831420063972473,-0.2535478770732879,0.0,0.0,-0.5853210687637329,0.7000894546508789
