x_pos,y_pos,x_vel,y_vel,angle,ang_vel,leg_1,leg_2,main_booster,lat_booster
-0.0014555931556969,1.4029262065887451,-0.1468345671892166,-0.355279266834259,0.0011467786971479,0.0225751511752605,0.0,0.0,0.3555748874192126,-0.3405737143139948
-0.0028017996810376,1.3948252201080322,-0.135377749800682,-0.3600450456142425,0.0018894847016781,0.0148563832044601,0.0,0.0,-0.8769278054643042,-0.8190261338908484
-0.0041323662735521,1.386019229888916,-0.1344996392726898,-0.3913745284080505,0.003314564237371,0.0285043381154537,0.0,0.0,-0.1478410916532389,-0.1236727906158597
-0.0053985593840479,1.3765153884887695,-0.1274811923503875,-0.4224043786525726,0.0041601983830332,0.0169143993407487,0.0,0.0,-0.3761404828491552,0.5494148454414132
-0.0065496442839503,1.3663151264190674,-0.114040806889534,-0.4533380568027496,0.0031078129541128,-0.0210496857762336,0.0,0.0,-0.9085931802381296,-0.7869949394634144
-0.0076873777434229,1.3554154634475708,-0.1133443564176559,-0.4844295084476471,0.0026808022521436,-0.0085412207990884,0.0,0.0,0.3034918119989251,-0.256620740531584
-0.0087848659604787,1.34450101852417,-0.1086462885141372,-0.485086590051651,0.0015892842784523,-0.021832151338458,0.0,0.0,-0.0562538037141566,0.0974179773488214
-0.0098250387236475,1.3328882455825806,-0.102320984005928,-0.5161208510398865,-8.0077865277417e-05,-0.0333902314305305,0.0,0.0,-0.6282334123518152,-0.9437523291864472
-0.0108855245634913,1.3205876350402832,-0.1057081222534179,-0.5466911196708679,-0.0004206073353998,-0.0068111270666122,0.0,0.0,-0.0991675190154606,0.6602142006472926
-0.0118409153074026,1.3075931072235107,-0.0932905748486518,-0.5775385499000549,-0.0026453007012605,-0.0444980524480342,0.0,0.0,-0.1417155004522861,-0.1255968819764543
-0.0127452854067087,1.293900489807129,-0.0876117274165153,-0.6085681915283203,-0.0054450347088277,-0.0559998340904712,0.0,0.0,-0.9531109899810182,0.913916748497574
-0.0135207176208496,1.2795075178146362,-0.0720775797963142,-0.6397186517715454,-0.0108437417075037,-0.1079843416810035,0.0,0.0,-0.5071085975466414,0.1606166987855747
-0.0142498966306447,1.2644169330596924,-0.0668848007917404,-0.6707500219345093,-0.0168149266391992,-0.1194343566894531,0.0,0.0,-0.2377198636734236,0.8911553885568666
-0.0148573871701955,1.2486188411712646,-0.0521409884095191,-0.7022616863250732,-0.0253285448998212,-0.1702875196933746,0.0,0.0,-0.2497945360575943,0.2563543060032681
-0.0154241565614938,1.232123613357544,-0.0474836155772209,-0.7332974076271057,-0.0344111882150173,-0.1816698014736175,0.0,0.0,-0.4955831886672861,0.0521832462991113
-0.0159527771174907,1.2149317264556885,-0.0431151166558265,-0.7643342614173889,-0.0440622940659523,-0.1930399239063263,0.0,0.0,-0.3610479492466549,-0.363348528538109
-0.0164464004337787,1.1970432996749878,-0.0390458479523658,-0.795372724533081,-0.0542795173823833,-0.2043627202510833,0.0,0.0,-0.7837400976519084,-0.4378172800712794
-0.016908073797822,1.1784586906433103,-0.03528643399477,-0.8264127969741821,-0.0650605857372284,-0.2156411111354828,0.0,0.0,-0.9205222342433564,-0.6457766254510312
-0.0173833854496479,1.1591880321502686,-0.0371764972805976,-0.856951892375946,-0.0753250047564506,-0.2053066492080688,0.0,0.0,0.9681853316983692,0.0592155093316256
-0.0178782455623149,1.1402407884597778,-0.0381215587258338,-0.8427120447158813,-0.0865979641675949,-0.225479394197464,0.0,0.0,0.0101428407713366,0.9097379882265394
-0.0181461330503225,1.1212700605392456,-0.0130384443327784,-0.8439967036247253,-0.100254587829113,-0.2731568217277527,0.0,0.0,0.7061341298264576,-0.9336975414490308
-0.0184097290039062,1.102289795875549,-0.0139506831765174,-0.8444445133209229,-0.1125855222344398,-0.2466408759355545,0.0,0.0,0.5088793492462866,-0.577366535754197
-0.0185196883976459,1.0833405256271362,0.0004746819031424,-0.8430987596511841,-0.1240136325359344,-0.2285824716091156,0.0,0.0,-0.5245597086611302,0.0651229589963753
-0.0186177249997854,1.0636954307556152,0.0022011802066117,-0.8741499781608582,-0.1359893977642059,-0.2395364493131637,0.0,0.0,0.7522209466786283,0.8678265720464119
-0.0187118537724018,1.0443923473358154,0.0051487544551491,-0.8593037128448486,-0.1505305618047714,-0.2908490598201751,0.0,0.0,-0.6823475961604533,0.9179549626913494
-0.0187482833862304,1.0243666172027588,0.012835694476962,-0.8917849063873291,-0.1670013964176178,-0.3294168412685394,0.0,0.0,-0.4810233741957288,-0.3109295071610275
-0.0187833793461322,1.0036476850509644,0.0134573448449373,-0.9228419661521912,-0.1840103417634964,-0.3401790261268616,0.0,0.0,0.4826619114376433,0.7697555433470898
-0.0187525749206542,0.9833553433418274,0.0222687870264053,-0.9043768048286438,-0.2032999992370605,-0.3857938945293426,0.0,0.0,0.0222334039100717,-0.113301630441942
-0.018709372729063,0.963100016117096,0.0243183020502328,-0.9031144976615906,-0.2234934419393539,-0.4038693010807037,0.0,0.0,0.0514129470101674,0.0073290029134811
-0.0186190605163574,0.942611813545227,0.0295122470706701,-0.91382497549057,-0.2442748546600341,-0.4156285226345062,0.0,0.0,-0.6366786733666636,0.0733326407740927
-0.0185405723750591,0.9214329123497008,0.0287249386310577,-0.9448979496955872,-0.2655783295631408,-0.4260687232017517,0.0,0.0,-0.2786334753036499,-0.9995704293251038
-0.0185644142329692,0.8995924592018127,0.0166779663413763,-0.9742617011070251,-0.2851195335388183,-0.3908240795135498,0.0,0.0,0.0508180856704711,-0.9920703172683716
-0.01859712600708,0.8778629899024963,0.0141816241666674,-0.9692758917808532,-0.3031179308891296,-0.3599680066108703,0.0,0.0,-0.3202312588691711,-0.9840922355651855
-0.0187353137880563,0.8554708957672119,0.0019110643770545,-0.998569667339325,-0.3194195926189422,-0.3260340988636017,0.0,0.0,-0.5101487636566162,-0.9955828189849854
-0.0189703945070505,0.8324238061904907,-0.0092684272676706,-1.0275288820266724,-0.3342471122741699,-0.2965507805347442,0.0,0.0,-0.0574206113815307,-0.9983425736427308
-0.0193035118281841,0.808727502822876,-0.0205791573971509,-1.0561689138412476,-0.3475859463214874,-0.2667774260044098,0.0,0.0,-0.4068031311035156,-0.9987804889678956
-0.019745921716094,0.7843746542930603,-0.033108327537775,-1.0850863456726074,-0.359289288520813,-0.2340668141841888,0.0,0.0,0.3899641036987304,-0.9986558556556702
-0.0200337413698434,0.7602556347846985,-0.0192103944718837,-1.0743876695632937,-0.3694037795066833,-0.2022894322872162,0.0,0.0,0.5093355178833008,-0.996534824371338
-0.0201887134462595,0.7365935444831848,-0.0074071451090276,-1.053758144378662,-0.3779711723327636,-0.1713477373123169,0.0,0.0,0.3920415639877319,-0.995445728302002
-0.0202404018491506,0.7129796743392944,0.0013924838276579,-1.051257610321045,-0.3849505484104156,-0.1395872980356216,0.0,0.0,0.6462764739990234,-0.9960629343986512
-0.0202239993959665,0.6898686289787292,0.0068119554780423,-1.0285629034042358,-0.3904646635055542,-0.1102821826934814,0.0,0.0,0.1323006153106689,-0.9970453381538392
-0.020094871520996,0.6665449738502502,0.0166220217943191,-1.037628412246704,-0.3944191634654999,-0.0790899246931076,0.0,0.0,0.3527330160140991,-0.9988372325897216
-0.0199031829833984,0.6428631544113159,0.0213390849530696,-1.0531305074691772,-0.3967475891113281,-0.0465682633221149,0.0,0.0,0.8627822399139404,-0.998202383518219
-0.0194869991391897,0.6192812919616699,0.0421241484582424,-1.0482230186462402,-0.3972886800765991,-0.0108220782130956,0.0,0.0,0.9776111841201782,-0.99815171957016
-0.0191096309572458,0.5955572128295898,0.0368227884173393,-1.0541523694992063,-0.396310418844223,0.0195650216192007,0.0,0.0,0.9726287126541138,-0.9967678785324096
-0.0186488144099712,0.5716899633407593,0.0435591228306293,-1.0600649118423462,-0.3936229646205902,0.0537489540874958,0.0,0.0,0.99684739112854,-0.9942200183868408
-0.0180326458066701,0.5478681921958923,0.0574600398540496,-1.0576015710830688,-0.389180839061737,0.0888427197933197,0.0,0.0,0.9980432987213136,-0.995065450668335
-0.0172977447509765,0.5248900055885315,0.0680092424154281,-1.0197625160217283,-0.3833318054676056,0.1169804707169532,0.0,0.0,0.9982813596725464,-0.999766170978546
-0.0164981838315725,0.5026941895484924,0.0731561258435249,-0.9846657514572144,-0.3761029243469238,0.1445774137973785,0.0,0.0,0.9989150762557985,-0.9960400462150574
-0.0156304351985454,0.4807177484035492,0.0784418210387229,-0.9745630025863647,-0.3672659695148468,0.1767388880252838,0.0,0.0,0.9890798330307008,-0.9856911301612854
-0.01446876488626,0.4589471518993377,0.1059306040406227,-0.964995801448822,-0.3564674854278564,0.2159690409898758,0.0,0.0,0.9899793863296508,-0.9859664440155028
-0.0132006648927927,0.4378161430358886,0.1150706261396408,-0.9362967014312744,-0.344132661819458,0.2466964423656463,0.0,0.0,0.981153964996338,-0.8624085187911987
-0.0117440223693847,0.4167007207870483,0.1322595775127411,-0.9353235363960266,-0.3301048576831817,0.2805561125278473,0.0,0.0,0.998784065246582,-0.8757447004318237
-0.0100961681455373,0.3962998986244201,0.1499098539352417,-0.903381884098053,-0.3146084249019623,0.3099284768104553,0.0,0.0,0.955416202545166,-0.6609055399894714
-0.0082027437165379,0.3759626746177673,0.1729244738817215,-0.900407075881958,-0.2976071238517761,0.3400256931781769,0.0,0.0,0.9964687824249268,-0.4323035478591919
-0.0063166618347167,0.3557994067668915,0.1729203164577484,-0.8930221796035767,-0.2814448773860931,0.3232449293136596,0.0,0.0,0.9964553117752076,-0.1124637126922607
-0.0041187284514307,0.3362829387187958,0.2038017213344574,-0.8644027709960938,-0.2650434374809265,0.3280286192893982,0.0,0.0,0.99346125125885,-0.9325496554374696
-0.0016661643749102,0.3172116279602051,0.2272519618272781,-0.8444624543190002,-0.2466796934604644,0.367275208234787,0.0,0.0,0.9978022575378418,-0.9522220492362976
0.0009889602661132,0.2988965809345245,0.2455977648496627,-0.8107890486717224,-0.2264507859945297,0.4045781195163727,0.0,0.0,0.9661481380462646,-0.6175298690795898
0.0036467551253736,0.2813106775283813,0.2450042515993118,-0.7785423398017883,-0.2054590731859207,0.4198343157768249,0.0,0.0,0.9866998195648192,-0.9473374485969543
0.0063203810714185,0.263681411743164,0.2447046935558319,-0.7805318832397461,-0.1826467961072921,0.4562459588050842,0.0,0.0,0.9566471576690674,-0.6694585084915161
0.0089007373899221,0.2466395050287246,0.2344239205121994,-0.7546835541725159,-0.1589918285608291,0.4730994701385498,0.0,0.0,0.9920904636383056,-0.7114397287368774
0.0116148944944143,0.2298048138618469,0.2460356652736663,-0.7456951141357422,-0.1336684823036193,0.5064667463302612,0.0,0.0,0.9952840805053712,-0.7058355212211609
0.0143347736448049,0.2133876234292984,0.2451575696468353,-0.7274633646011353,-0.1069833859801292,0.5337024331092834,0.0,0.0,0.998751163482666,-0.6010803580284119
0.0170005802065134,0.1970071941614151,0.2385275810956955,-0.7262470722198486,-0.0791712626814842,0.5562425255775452,0.0,0.0,0.9995133876800536,0.0207531452178955
0.0195049289613962,0.1810260862112045,0.2230907678604126,-0.7090499401092529,-0.0521226823329925,0.5409719347953796,0.0,0.0,0.9968371391296388,0.8158271312713623
0.0220871921628713,0.1659076511859893,0.2324659079313278,-0.6712297797203064,-0.0266757272183895,0.5089395046234131,0.0,0.0,0.9944453239440918,0.296274185180664
0.0247086528688669,0.1506252139806747,0.2359178811311721,-0.6789517998695374,-0.0007833045092411,0.517848789691925,0.0,0.0,0.9982768297195436,0.7054541110992432
0.0273525230586528,0.1362102329730987,0.2394757717847824,-0.6408418416976929,0.0238108523190021,0.4918832778930664,0.0,0.0,0.9980334043502808,0.6205363273620605
0.0298411361873149,0.1219576895236969,0.225482627749443,-0.6339766383171082,0.0468833185732364,0.4614498615264892,0.0,0.0,0.9993101358413696,0.5074132680892944
0.0321444496512413,0.1082383021712303,0.2083120793104171,-0.6105847954750061,0.0686610862612724,0.4355558753013611,0.0,0.0,0.999968647956848,0.5778586864471436
0.0344116203486919,0.0949641540646553,0.2056674063205719,-0.5910587906837463,0.0895059183239936,0.4168968200683594,0.0,0.0,0.9999539852142334,0.7415366172790527
0.0364082343876361,0.0825182795524597,0.1803971827030182,-0.554413914680481,0.1085983589291572,0.3818488717079162,0.0,0.0,0.9978811740875244,0.6484842300415039
0.0384051315486431,0.070444256067276,0.1813720166683197,-0.5380582213401794,0.1268117278814315,0.3642676174640655,0.0,0.0,0.9967793226242064,0.2454415559768676
0.0402326583862304,0.0583724603056907,0.1644720882177353,-0.5381838083267212,0.1450255215167999,0.3642757534980774,0.0,0.0,0.999942421913147,0.8153181076049805
0.0420875549316406,0.0462159030139446,0.168473795056343,-0.5420382618904114,0.1620254814624786,0.3399994969367981,0.0,0.0,0.999997615814209,0.6203899383544922
0.0438161864876747,0.0339694358408451,0.1569974720478058,-0.5460939407348633,0.1779161691665649,0.3178140521049499,0.0,0.0,0.9997332096099854,-0.0736246109008789
0.0452963821589946,0.0224435180425643,0.1319809854030609,-0.5142647624015808,0.1940258145332336,0.3221928477287292,0.0,0.0,0.9999982118606568,0.5566976070404053
0.0466654784977436,0.0126701928675174,0.1401415765285492,-0.4338417053222656,0.1912308931350708,-0.0552818551659584,0.0,1.0,0.9983612298965454,0.8632627725601196
0.0476508140563964,0.0037799931596964,0.1095256060361862,-0.3937422931194305,0.1801824569702148,-0.2209758758544922,0.0,1.0,0.999037504196167,0.8450555801391602
0.0484141334891319,-0.0044950153678655,0.1056034117937088,-0.3650278449058532,0.1486378610134124,-0.6338711977005005,0.0,1.0,0.991102933883667,-0.711673378944397
0.0488694198429584,-0.0114146852865815,0.0950435772538185,-0.3033605217933655,0.099359780550003,-0.9855716824531556,0.0,1.0,0.9951670169830322,-0.9670299887657166
0.0489485748112201,-0.0175232551991939,0.0702871456742286,-0.2685478627681732,0.0375258438289165,-1.2368104457855225,1.0,1.0,0.9657561779022216,-0.9898251891136168
0.0488389022648334,-0.0221790689975023,0.0425481125712394,-0.2068851292133331,-0.0117256604135036,-0.980516254901886,1.0,1.0,0.9722747802734376,-0.9902671575546264
0.0487800613045692,-0.0254568010568618,0.0283632334321737,-0.1463180631399154,-0.0455258972942829,-0.6759710907936096,1.0,1.0,0.958005428314209,-0.9574605822563172
0.0488834381103515,-0.0275891199707984,0.0299271158874034,-0.0954854562878608,-0.0648660212755203,-0.38678640127182,1.0,1.0,0.9488744735717772,-0.8707091212272644
0.0490396507084369,-0.0289378780871629,0.0245885588228702,-0.0603603795170784,-0.0737429484724998,-0.1775349229574203,1.0,1.0,0.9379587173461914,-0.8608530759811401
0.0492333397269248,-0.0293416399508714,0.0225177463144063,-0.0180991981178522,-0.0768398120999336,-0.0619277358055114,1.0,1.0,0.5605826377868652,-0.9168487191200256
0.0494858734309673,-0.0286649372428655,0.0241282247006893,0.0301382560282945,-0.0757237747311592,0.0223300270736217,1.0,1.0,-0.1398464441299438,-0.7746347784996033
0.0496785156428813,-0.0277587436139583,0.0164400432258844,0.0404243245720863,-0.0729503333568573,0.0554363317787647,1.0,1.0,0.1466630697250366,-0.3710980415344238
0.0498902313411235,-0.0259712841361761,0.0197109170258045,0.0795149132609367,-0.0714971274137497,0.0290702916681766,1.0,1.0,-0.6036627292633057,-0.7966447472572327
0.050018023699522,-0.0242326408624649,0.0119842551648616,0.0773103162646293,-0.0707171484827995,0.0156049774959683,1.0,1.0,-0.6424526572227478,-0.6181263327598572
0.0500847809016704,-0.0226645488291978,0.0068697198294103,0.06968455016613,-0.0708947852253913,-0.0035471736919134,1.0,1.0,-0.4020076990127563,-0.7548882365226746
0.050085924565792,-0.0213521271944046,0.0004515197942964,0.0583144165575504,-0.071217156946659,-0.0064428197219967,1.0,1.0,-0.5718680024147034,-0.5117586255073547
0.0500317588448524,-0.0203201193362474,-0.0051661795005202,0.0458565279841423,-0.0714668780565261,-0.0049901488237082,1.0,1.0,-0.2005938291549682,0.1966091394424438
0.0499737747013568,-0.0195589438080787,-0.0052027381025254,0.0338009074330329,-0.0720526650547981,-0.0117115397006273,1.0,1.0,0.1710306406021118,-0.1943176984786987
0.0499316230416297,-0.0184856317937374,-0.0037958554457873,0.047682736068964,-0.0724661126732826,-0.0082654012367129,1.0,1.0,-0.315125823020935,-0.334128201007843
0.0498939529061317,-0.0177117958664894,-0.0037014707922935,0.0343900546431541,-0.0725255534052848,-0.0011864578118547,1.0,1.0,-0.2795934677124023,-0.207323670387268
0.0498586669564247,-0.0171857252717018,-0.0036384009290486,0.0233879145234823,-0.0724141076207161,0.0022307238541543,1.0,1.0,-0.374366283416748,-0.3159680962562561
0.0498236641287803,-0.0168277043849229,-0.0036046276800334,0.0159174371510744,-0.0723118707537651,0.0020461701788008,1.0,1.0,-0.2545985579490661,-0.3467762470245361
0.0497881881892681,-0.0165455359965562,-0.0035783927887678,0.012540178373456,-0.0722892507910728,0.0004538180655799,1.0,1.0,0.1102796792984008,-0.6460763216018677
0.0496993064880371,-0.0158037096261978,-0.0094378739595413,0.0329967066645622,-0.0717356130480766,0.0110731180757284,1.0,1.0,-0.3413039445877075,-0.0629745125770568
0.0496026985347271,-0.0151008991524577,-0.0095275975763797,0.031229780986905,-0.0718722119927406,-0.0027306447736918,1.0,1.0,-0.1500354409217834,-0.2429625391960144
0.0495039001107215,-0.0144140748307108,-0.0095227258279919,0.0305091217160224,-0.0722163394093513,-0.006881165318191,1.0,1.0,-0.1049554944038391,0.0635432004928588
0.0494071021676063,-0.0137213496491312,-0.0094540240243077,0.0307772178202867,-0.0724478736519813,-0.0046295700594782,1.0,1.0,-0.1582667827606201,-0.1397805213928222
0.0493127815425396,-0.0130048422142863,-0.0093708056956529,0.0318412631750106,-0.0725005790591239,-0.0010535551700741,1.0,1.0,-0.3796917200088501,-0.1425786614418029
0.0492202751338481,-0.0122530004009604,-0.0093014072626829,0.0334175005555152,-0.072451002895832,0.0009920549346134,1.0,1.0,-0.3419923186302185,-0.0700228810310363
0.0491284355521202,-0.0114614274352788,-0.0092491889372468,0.0351844429969787,-0.0723892822861671,0.0012346135918051,1.0,1.0,-0.6271971464157104,0.243396520614624
0.0490366928279399,-0.0106326602399349,-0.0092055350542068,0.0368358120322227,-0.0723585337400436,0.0006149429827928,1.0,1.0,-0.3476581573486328,-0.2588940262794494
0.0490028373897075,-0.0099724438041448,-0.0082285171374678,0.0295690782368183,-0.0675709843635559,0.0957494527101516,1.0,1.0,-0.3459838628768921,0.6338984966278076
0.0490236282348632,-0.0094276694580912,-0.0019458507886156,0.0243906285613775,-0.0635814741253852,0.0797895044088363,1.0,1.0,-0.1583438515663147,0.5316339731216431
0.0490944869816303,-0.009003379382193,0.0039002210833132,0.0189875680953264,-0.0604330375790596,0.0629685968160629,1.0,1.0,-0.2794841527938843,0.2434542179107666
0.0491591468453407,-0.0086559792980551,0.0038287427742034,0.0155453570187091,-0.0578220263123512,0.052220344543457,1.0,1.0,0.1126155853271484,0.3595550060272217
0.0492021553218364,-0.0079389000311493,-0.0009987513767555,0.0320660956203937,-0.0525885820388793,0.1046669110655784,1.0,1.0,-0.2064911723136901,0.5328235626220703
0.0492689125239849,-0.0074456240981817,0.0029794573783874,0.0220490973442792,-0.0489284768700599,0.0732017382979393,1.0,1.0,-0.3013218641281128,0.4518158435821533
0.0493209846317768,-0.0071278717368841,0.0027553548570722,0.0142003428190946,-0.0465109422802925,0.0483513511717319,1.0,1.0,-0.3662678599357605,0.3042516708374023
0.0493633262813091,-0.0069250608794391,0.0026172481011599,0.0090625556185841,-0.0449106283485889,0.0320072472095489,1.0,1.0,-0.5608534812927246,-0.0439218878746032
0.0494023337960243,-0.0067638778127729,0.0025854227133095,0.0072011281736195,-0.0436065830290317,0.026082033291459,1.0,1.0,-0.5040936470031738,0.1654338836669922
0.0494438186287879,-0.0065785553306341,0.0026496383361518,0.0082788113504648,-0.042128887027502,0.0295554008334875,1.0,1.0,-0.1193084716796875,0.259546160697937
0.0494915023446083,-0.0063245678320527,0.0027788195293396,0.0113445408642292,-0.0401581339538097,0.0394158437848091,1.0,1.0,-0.2525053024291992,0.5226309299468994
0.0496036522090435,-0.0060101770795881,0.0087741576135158,0.0140344211831688,-0.0377527065575122,0.0481089614331722,1.0,1.0,-0.3867807388305664,0.3476972579956054
