x_pos,y_pos,x_vel,y_vel,angle,ang_vel,leg_1,leg_2,main_booster,lat_booster
-0.001513099647127,1.403083324432373,-0.1533661633729934,-0.3483034968376159,0.0018360420363023,0.0362233743071556,0.0,0.0,0.3496048606769701,-0.668600947630007
-0.003023624420166,1.3952903747558594,-0.1543648540973663,-0.3463553190231323,0.0051071876659989,0.0654299929738044,0.0,0.0,0.5029386764559922,0.6738980808490869
-0.004342365078628,1.387503743171692,-0.1341927051544189,-0.3460870683193207,0.0074001336470246,0.0458629727363586,0.0,0.0,-0.3259390214281286,0.8545733122547556
-0.0056009292602539,1.3791733980178833,-0.1268735229969024,-0.3702368438243866,0.0084019545465707,0.0200383551418781,0.0,0.0,-0.0915336023580035,-0.7762681955553304
-0.0069026947021484,1.3703041076660156,-0.1324731558561325,-0.3942136168479919,0.010675361379981,0.0454724244773387,0.0,0.0,0.0157410379382176,-0.8718912562398383
-0.0081730838865041,1.3613935708999634,-0.131148099899292,-0.396054059267044,0.0147455381229519,0.0814111605286598,0.0,0.0,0.3635082710363417,-0.9760265539687972
-0.0095463749021291,1.352655053138733,-0.1434388011693954,-0.3884588778018951,0.0207886397838592,0.1208730563521385,0.0,0.0,-0.8016871569859045,-0.8616747982933848
-0.010969447903335,1.343376636505127,-0.1497745215892791,-0.4124957025051117,0.0281702242791652,0.1476453095674514,0.0,0.0,0.6302261766147681,0.6203210917930674
-0.0123798372223973,1.3348039388656616,-0.1472727954387664,-0.3811322152614593,0.0343418307602405,0.1234433874487876,0.0,0.0,0.4273142842202315,-0.9583318493174064
-0.0138887409120798,1.3266334533691406,-0.1590972393751144,-0.3633405268192291,0.0424606651067733,0.1623915433883667,0.0,0.0,0.6964036486367944,-0.6050377943338547
-0.0153776165097951,1.3188409805297852,-0.1585913300514221,-0.3466332554817199,0.0520712360739707,0.1922289878129959,0.0,0.0,0.7606671341386566,0.6445455040698723
-0.01676607131958,1.3113605976104736,-0.147515058517456,-0.3327809274196625,0.060651309788227,0.1716171205043792,0.0,0.0,0.8482776585552683,0.7820007537729009
-0.0179848670959472,1.304535746574402,-0.1293651163578033,-0.3036527633666992,0.0680704861879348,0.1483971029520034,0.0,0.0,-0.217490439923909,-0.6590884768529733
-0.0192527770996093,1.2971594333648682,-0.1354866474866867,-0.3282513916492462,0.0766834691166877,0.1722752749919891,0.0,0.0,0.4409609928440539,-0.7308358052058828
-0.0205017086118459,1.2903354167938232,-0.135310411453247,-0.3038624227046966,0.0870143994688987,0.2066375911235809,0.0,0.0,-0.1083933808998831,0.8235564660875234
-0.0216781608760356,1.2829712629318235,-0.1261342316865921,-0.3278039097785949,0.0954369008541107,0.168465256690979,0.0,0.0,-0.4791559989011444,-0.9553757322091908
-0.0229182243347167,1.275070071220398,-0.1339726746082306,-0.3518316149711609,0.1053424701094627,0.198129653930664,0.0,0.0,0.00841164316504,0.7251407115985379
-0.0240302085876464,1.2669885158538818,-0.119792602956295,-0.3598019182682037,0.1138867661356926,0.1709016412496566,0.0,0.0,-0.722139206213011,-0.9273638827165496
-0.0252093318849802,1.2583651542663574,-0.1280509978532791,-0.3840633332729339,0.1239876225590705,0.2020352184772491,0.0,0.0,-0.723145302404901,-0.7461495024217857
-0.0264601707458496,1.249189376831055,-0.1369119733572006,-0.4088333547115326,0.13577900826931,0.2358489036560058,0.0,0.0,-0.0036781588349317,-0.7963523730828089
-0.0277663227170705,1.239470362663269,-0.1436720043420791,-0.4332061111927032,0.1488189846277237,0.2608227133750915,0.0,0.0,-0.6824534040598826,0.6576484835309561
-0.0290252678096294,1.229219913482666,-0.1375882476568222,-0.4567826688289642,0.1605143845081329,0.233928769826889,0.0,0.0,0.9749663636046972,0.840721441122226
-0.030160617083311,1.2194490432739258,-0.1238729804754257,-0.4354118108749389,0.1708766669034958,0.207264095544815,0.0,0.0,-0.601281782358376,-0.7310572835056495
-0.0313503257930278,1.2091171741485596,-0.1305705606937408,-0.4605679214000702,0.1825217753648758,0.2329226285219192,0.0,0.0,-0.9298649268453354,-0.9212028357837536
-0.0326336845755577,1.1982241868972778,-0.1421521008014679,-0.485888808965683,0.1964260190725326,0.2781095206737518,0.0,0.0,0.2747267186432778,0.8904314198016182
-0.0340832695364952,1.1875576972961426,-0.1568654477596283,-0.475694328546524,0.208424761891365,0.2399747818708419,0.0,0.0,-0.9334258763138346,-0.6612966404383112
-0.0355878844857215,1.176339864730835,-0.163608506321907,-0.5004778504371643,0.2217116057872772,0.2657368779182434,0.0,0.0,-0.2294775695315496,0.9496256411925534
-0.0370398536324501,1.1646116971969604,-0.156785562634468,-0.523032546043396,0.2334579527378082,0.2349271029233932,0.0,0.0,-0.9668808842104496,-0.6408745612932663
-0.0385549552738666,1.152328372001648,-0.1645715683698654,-0.5480600595474243,0.2467325031757354,0.265490859746933,0.0,0.0,0.4348095954013762,0.9351652234395852
-0.0401232726871967,1.1401371955871582,-0.1679388880729675,-0.5437251925468445,0.2580579221248626,0.2265083491802215,0.0,0.0,-0.8438563013324656,-0.9813485071583212
-0.0417670235037803,1.1273889541625977,-0.177267387509346,-0.5689171552658081,0.2712477445602417,0.2637965381145477,0.0,0.0,0.6366327676074879,0.713679103260315
-0.043553352355957,1.1147133111953735,-0.1898684799671173,-0.5654853582382202,0.2827723026275635,0.23049096763134,0.0,0.0,0.0673016308985861,0.7349379720997855
-0.0454878807067871,1.102249026298523,-0.2030947208404541,-0.5558719038963318,0.2926988899707794,0.1985315233469009,0.0,0.0,-0.1992494257184847,-0.8229734664134989
-0.0474876388907432,1.0892064571380615,-0.2113243043422699,-0.5819873809814453,0.3044212460517883,0.2344473898410797,0.0,0.0,-0.3028895095412158,-0.6430047134952612
-0.0495317466557025,1.0756036043167114,-0.2168835699558258,-0.607233464717865,0.3173507750034332,0.2585906684398651,0.0,0.0,-0.8044603309931089,-0.8227418086297281
-0.0516328811645507,1.0614382028579712,-0.2240265309810638,-0.6326852440834045,0.3318324685096741,0.2896332740783691,0.0,0.0,-0.609305578887003,0.6219037863735467
-0.0536840446293354,1.0467536449432373,-0.2177281379699707,-0.6556015014648438,0.3450294435024261,0.263940155506134,0.0,0.0,0.0838184917975417,0.841355579304465
-0.0558094978332519,1.032288670539856,-0.2233859598636627,-0.6455234289169312,0.3564263582229614,0.227938026189804,0.0,0.0,0.536149618304713,-0.6877065932845058
-0.0582905784249305,1.0183433294296265,-0.2600849568843841,-0.6228213906288147,0.3690702617168426,0.2528782486915588,0.0,0.0,-0.6312865626907302,-0.7211986406913002
-0.0608132369816303,1.0038301944732666,-0.2654332816600799,-0.6484876275062561,0.383045494556427,0.2795046269893646,0.0,0.0,-0.8088317727881151,-0.8959505141605755
-0.0634043663740158,0.9887389540672302,-0.2741525769233703,-0.6748521327972412,0.3991019427776336,0.3211292326450348,0.0,0.0,-0.4603228569030761,0.9930860996246338
-0.0658966079354286,0.9731612205505372,-0.2617914378643036,-0.6959314346313477,0.4125996530056,0.2699540853500366,0.0,0.0,-0.3129914999008178,0.9808582067489624
-0.0682906135916709,0.9570875763893129,-0.2496359795331955,-0.7174088358879089,0.4236607849597931,0.2212228327989578,0.0,0.0,-0.2694501876831054,0.9722373485565186
-0.0705876350402832,0.94052654504776,-0.2376693785190582,-0.7384615540504456,0.4322800040245056,0.1723841726779937,0.0,0.0,-0.2114041447639465,0.9434866905212402
-0.0728020668029785,0.9234578013420104,-0.2276086062192917,-0.7605244517326355,0.4389897286891937,0.1341951489448547,0.0,0.0,-0.5635247230529785,0.9646619558334352
-0.0749214142560958,0.9058908820152284,-0.2160170376300811,-0.7820473313331604,0.4434535801410675,0.0892772525548935,0.0,0.0,-0.4839743375778198,0.9214951992034912
-0.0769469290971756,0.8878287672996521,-0.2046227008104324,-0.8034132719039917,0.4457097053527832,0.0451224707067012,0.0,0.0,-0.5450277328491211,0.9933202266693116
-0.0788965225219726,0.8692755103111267,-0.1953730881214141,-0.8247243762016296,0.4461645781993866,0.0090977260842919,0.0,0.0,-0.285104751586914,0.969633936882019
-0.0807713493704795,0.8502263426780701,-0.1863588243722915,-0.8462660312652588,0.4449273645877838,-0.0247440990060567,0.0,0.0,0.0619035959243774,0.9851038455963136
-0.0827056914567947,0.8311150074005127,-0.1903353929519653,-0.8484152555465698,0.4415439963340759,-0.0676674395799636,0.0,0.0,0.0448286533355712,0.996501922607422
-0.0845975875854492,0.8120716214179993,-0.1840235292911529,-0.8447492718696594,0.4359019994735718,-0.1128397211432457,0.0,0.0,0.1299526691436767,0.99998140335083
-0.0866468399763107,0.7931981682777405,-0.1977294683456421,-0.8366062641143799,0.4280770719051361,-0.156498521566391,0.0,0.0,-0.1429528594017028,0.9996170997619628
-0.088579848408699,0.7738364934921265,-0.183710366487503,-0.8576344847679138,0.417693942785263,-0.2076622545719146,0.0,0.0,0.2639988660812378,0.9982850551605223
-0.090656854212284,0.7548292875289917,-0.1960173398256302,-0.8413659334182739,0.4051152765750885,-0.2515732944011688,0.0,0.0,0.0694620609283447,0.9986965656280518
-0.0926449745893478,0.7358289361000061,-0.1849839389324188,-0.8405722379684448,0.3902949392795563,-0.2964065074920654,0.0,0.0,0.4149576425552368,0.9997464418411256
-0.0947650894522667,0.7168368697166443,-0.1959836632013321,-0.83979731798172,0.3732498288154602,-0.3409021198749542,0.0,0.0,0.20310640335083,0.9953343868255616
-0.0969143882393837,0.6982130408287048,-0.1967396289110183,-0.8230936527252197,0.3540244102478027,-0.384508341550827,0.0,0.0,-0.1677112579345703,0.9973065853118896
-0.0989362746477127,0.6791068911552429,-0.181327536702156,-0.8441859483718872,0.3321605920791626,-0.4372768402099609,0.0,0.0,-0.0770279169082641,0.9916805028915404
-0.1008379012346267,0.6595181822776794,-0.1668218225240707,-0.8654341101646423,0.3078863620758056,-0.4854849874973297,0.0,0.0,0.0527575016021728,0.9727349281311036
-0.1028343215584755,0.6401281356811523,-0.1740980297327041,-0.856586754322052,0.2815266251564026,-0.5271950960159302,0.0,0.0,-0.3579578399658203,0.9693701267242432
-0.1047067642211914,0.6202324628829956,-0.1593056917190551,-0.8791150450706482,0.2529181241989136,-0.5721705555915833,0.0,0.0,0.6943850517272949,0.8970589637756348
-0.1067583113908767,0.6008395552635193,-0.1749127954244613,-0.8569930195808411,0.2221943736076355,-0.6144755482673645,0.0,0.0,0.411278486251831,0.8337793350219727
-0.108680821955204,0.5816234946250916,-0.1601406633853912,-0.8495386242866516,0.1898113042116165,-0.6476618051528931,0.0,0.0,0.3771486282348633,0.8454056978225708
-0.1105648055672645,0.562659502029419,-0.1542968451976776,-0.8388358950614929,0.1556284427642822,-0.6836577653884888,0.0,0.0,0.9031777381896972,-0.6261494159698486
-0.1125097274780273,0.5438393950462341,-0.1613751649856567,-0.8333188891410828,0.1225991398096084,-0.660586416721344,0.0,0.0,-0.177183985710144,0.9153074026107788
-0.1143466010689735,0.5245041251182556,-0.1488208174705505,-0.8568478226661682,0.0879888162016868,-0.6922070980072021,0.0,0.0,0.9115242958068848,-0.9378054141998292
-0.1162646263837814,0.5061268210411072,-0.1586327403783798,-0.8151453733444214,0.0551618002355098,-0.6565407514572144,0.0,0.0,-0.8223069906234741,-0.6220636367797852
-0.1181700676679611,0.4872112572193146,-0.1582575291395187,-0.8398120999336243,0.0232739057391881,-0.6377586126327515,0.0,0.0,0.8611125946044922,-0.9008188247680664
-0.1200791373848915,0.4692184925079345,-0.1603373885154724,-0.7994792461395264,-0.0068960529752075,-0.6033995151519775,0.0,0.0,-0.5768043398857117,-0.9471331238746644
-0.1220167130231857,0.450692743062973,-0.1652720272541046,-0.8237407803535461,-0.0350227318704128,-0.5625337958335876,0.0,0.0,0.6236848831176758,-0.8238019943237305
-0.1240365952253341,0.4326454699039459,-0.1748809963464737,-0.802948534488678,-0.0618135966360569,-0.5358176231384277,0.0,0.0,0.5235143899917603,-0.5256426930427551
-0.1259712278842926,0.4149276614189148,-0.1673828065395355,-0.7887374758720398,-0.0876170769333839,-0.5160695910453796,0.0,0.0,0.9157330989837646,-0.4769831895828247
-0.1279065161943435,0.398160845041275,-0.1666832268238067,-0.7469804883003235,-0.1142492517828941,-0.5326438546180725,0.0,0.0,0.0130449533462524,-0.4802391529083252
-0.1296931207180023,0.3813823759555816,-0.1519569754600525,-0.7479668259620667,-0.1408114582300186,-0.5312448740005493,0.0,0.0,0.9226467609405518,-0.953066885471344
-0.1314691603183746,0.3647652864456177,-0.1527068614959716,-0.7410799860954285,-0.16568623483181,-0.4974954128265381,0.0,0.0,0.8239755630493164,-0.9681669473648072
-0.1331143379211425,0.3481338620185852,-0.1416216194629669,-0.7418853044509888,-0.1886395812034607,-0.4590670168399811,0.0,0.0,0.9735199213027954,-0.9415755867958068
-0.1347318589687347,0.3315889239311218,-0.1406053602695465,-0.7381615042686462,-0.2099253833293914,-0.4257162511348724,0.0,0.0,0.9979075193405152,-0.9641558527946472
-0.1361658126115799,0.3159515857696533,-0.1241103187203407,-0.6978485584259033,-0.2294266521930694,-0.3900254368782043,0.0,0.0,0.99666166305542,-0.9858216047286988
-0.1372769325971603,0.3012175858020782,-0.0939179509878158,-0.6576151251792908,-0.2468914836645126,-0.3492968678474426,0.0,0.0,0.994826316833496,-0.9863626956939696
-0.1382969915866851,0.2874750196933746,-0.0864391550421714,-0.6134735941886902,-0.2627530395984649,-0.3172311186790466,0.0,0.0,0.9935665130615234,-0.9962486028671264
-0.1393878906965255,0.2738617062568664,-0.0951482057571411,-0.6076009273529053,-0.2770388126373291,-0.2857152819633484,0.0,0.0,0.9957263469696044,-0.9894357919692992
-0.1401686668395996,0.2611061334609985,-0.0660863891243934,-0.5692374110221863,-0.2893617451190948,-0.2464584410190582,0.0,0.0,0.983349084854126,-0.9995653033256532
-0.1408860236406326,0.2488961964845657,-0.0614052712917327,-0.5447518825531006,-0.300018310546875,-0.213131383061409,0.0,0.0,0.9978859424591064,-0.99936842918396
-0.1414342820644378,0.2373928129673004,-0.0462269224226474,-0.5130552053451538,-0.308902233839035,-0.1776781529188156,0.0,0.0,0.995868682861328,-0.999197781085968
-0.1417427957057953,0.2266048938035965,-0.0240933932363986,-0.4809185564517975,-0.3159152269363403,-0.1402596086263656,0.0,0.0,0.9782977104187012,-0.9998570084571838
-0.1417273581027984,0.2162529975175857,0.0062881698831915,-0.4611264169216156,-0.3208450376987457,-0.0985964089632034,0.0,0.0,0.9789631366729736,-0.9568212628364564
-0.1415538787841797,0.2059562504291534,0.0203078351914882,-0.4582909643650055,-0.3239215314388275,-0.0615301355719566,0.0,0.0,0.975121021270752,-0.8374055624008179
-0.1411034613847732,0.1957713663578033,0.0462618544697761,-0.452933520078659,-0.3251891434192657,-0.025351945310831,0.0,0.0,0.7601718902587891,-0.9973526000976562
-0.1402933150529861,0.1858637183904647,0.0801914259791374,-0.4401542544364929,-0.3243366777896881,0.0170491002500057,0.0,0.0,0.7829773426055908,-0.9962782263755798
-0.139190673828125,0.175970509648323,0.1074257493019104,-0.4390666782855987,-0.3213770687580108,0.0591920427978038,0.0,0.0,0.5419917106628418,-0.9492923617362976
-0.1378682106733322,0.1665795594453811,0.1276666820049286,-0.4163682758808136,-0.3166223168373108,0.0950949192047119,0.0,0.0,-0.0148545503616333,-0.9975544810295104
-0.1365416496992111,0.1566904336214065,0.1263457238674163,-0.4381537735462188,-0.3100728988647461,0.1309885084629058,0.0,0.0,0.2491247653961181,-0.9839372634887696
-0.1349560767412185,0.1469704061746597,0.1504239737987518,-0.4302846789360046,-0.3016373217105865,0.1687112152576446,0.0,0.0,-0.3881741762161255,-0.887596070766449
-0.1333546638488769,0.1367278695106506,0.1506654769182205,-0.4532877802848816,-0.2918507158756256,0.1957315504550933,0.0,0.0,0.4776825904846191,-0.622922956943512
-0.1316454857587814,0.1266419738531112,0.1604168564081192,-0.4461961388587951,-0.2810499966144562,0.2160151898860931,0.0,0.0,0.2163560390472412,-0.5402491688728333
-0.1296613663434982,0.1169280856847763,0.1868140548467636,-0.4295442700386047,-0.2691554725170135,0.2378902733325958,0.0,0.0,0.0958480834960937,-0.753463089466095
-0.1275788247585296,0.1072518229484558,0.1952789723873138,-0.4277214705944061,-0.2558896541595459,0.2653164267539978,0.0,0.0,0.4451476335525512,-0.8943402767181396
-0.1254343092441558,0.0981288030743599,0.1999225467443466,-0.4030007421970367,-0.241079643368721,0.2962000370025635,0.0,0.0,0.4450925588607788,-0.536017894744873
-0.1230330467224121,0.0893456041812896,0.2244098633527755,-0.3878703117370605,-0.2251312583684921,0.3189674317836761,0.0,0.0,0.7101744413375854,-0.9498427510261536
-0.1205198317766189,0.0812133625149726,0.2338718920946121,-0.3588639199733734,-0.207490935921669,0.3528066277503967,0.0,0.0,0.739396333694458,-0.9126983880996704
-0.1179382354021072,0.0737606137990951,0.2391034066677093,-0.3286735117435455,-0.1883015781641006,0.3837872445583343,0.0,0.0,0.6917188167572021,-0.712971568107605
-0.1152743324637413,0.0665448307991027,0.2460252940654754,-0.3182455599308014,-0.1678812354803085,0.4084068238735199,0.0,0.0,0.8663485050201416,-0.7567224502563477
-0.1126283630728721,0.0598503202199935,0.2431026697158813,-0.2952465713024139,-0.1463991999626159,0.4296408295631408,0.0,0.0,0.9189858436584472,-0.9195481538772584
-0.1100889220833778,0.0535802468657493,0.2310337722301483,-0.2765763700008392,-0.1235660687088966,0.4566630721092224,0.0,0.0,0.9650611877441406,-0.7981305122375488
-0.1073034256696701,0.0480400882661342,0.2537862360477447,-0.2443673759698867,-0.0989719852805137,0.4918813705444336,0.0,0.0,0.961261749267578,-0.943049967288971
-0.1044039726257324,0.0426122993230819,0.2632249891757965,-0.2396802306175232,-0.0724913030862808,0.5296139717102051,0.0,0.0,0.9760658740997314,-0.6318739652633667
-0.10123872756958,0.0380087010562419,0.2881031036376953,-0.2034681290388107,-0.0443866215646266,0.5620940327644348,0.0,0.0,0.931447982788086,-0.8500581979751587
-0.0980667099356651,0.0342480987310409,0.2872182428836822,-0.1665160655975341,-0.0147823309525847,0.5920858979225159,0.0,0.0,0.721510648727417,-0.8388286828994751
-0.0947224646806716,0.0313017480075359,0.3025827705860138,-0.1309330910444259,0.0166510064154863,0.628666877746582,0.0,0.0,0.2165465354919433,-0.6384826898574829
-0.0913141220808029,0.0284684039652347,0.3077582418918609,-0.1266176998615265,0.0493227988481521,0.6534359455108643,0.0,0.0,0.2374557256698608,0.0254901647567749
-0.0878840461373329,0.026023730635643,0.3101337850093841,-0.1100550815463066,0.081841230392456,0.650368869304657,0.0,0.0,0.1543176174163818,0.2718421220779419
-0.0844016075134277,0.0238796807825565,0.3153909146785736,-0.0974126681685447,0.114429660141468,0.6517684459686279,0.0,0.0,0.1251375675201416,0.3419214487075805
-0.0808473601937294,0.0216829869896173,0.3225633203983307,-0.1004739180207252,0.147148311138153,0.6543731689453125,0.0,0.0,-0.0989941954612732,0.5068187713623047
-0.0772108063101768,0.0189665183424949,0.331865131855011,-0.1241828054189682,0.1789379566907882,0.6357930302619934,0.0,0.0,-0.0571374297142028,0.2982504367828369
-0.0737288445234298,0.0163161382079124,0.3352575898170471,-0.1194825023412704,0.1917320042848587,0.2555991411209106,0.0,1.0,-0.107742428779602,0.5917693376541138
-0.0704347640275955,0.013702736236155,0.3362751603126526,-0.115469641983509,0.1843028664588928,-0.1493048816919326,0.0,1.0,0.0512176752090454,-0.6906924247741699
-0.0674760788679122,0.011574063450098,0.3207103908061981,-0.0917241722345352,0.1593759059906005,-0.4985943436622619,0.0,1.0,-0.1181257367134094,-0.8471947312355042
-0.0647289305925369,0.0092762680724263,0.3115952610969543,-0.0986055061221122,0.1225457638502121,-0.7366836667060852,0.0,1.0,0.7750287055969238,-0.9790943264961244
-0.0620842948555946,0.0076796747744083,0.3035281300544739,-0.0682353004813194,0.0837131068110466,-0.7767407894134521,0.0,1.0,0.6458370685577393,-0.9360898733139038
-0.0595313087105751,0.0067341066896915,0.2913160622119903,-0.040405161678791,0.0480500496923923,-0.713293194770813,0.0,1.0,0.4337713718414306,-0.9912811517715454
-0.0570050254464149,0.0056560728698968,0.2866090536117553,-0.0471708700060844,0.0144564313814044,-0.6718996167182922,0.0,0.0,-0.3605295419692993,-0.9727686047554016
