x_pos,y_pos,x_vel,y_vel,angle,ang_vel,leg_1,leg_2,main_booster,lat_booster
-0.0015131949912756,1.4034316539764404,-0.1533016264438629,-0.3328283429145813,0.0017788194818422,0.0350897759199142,0.0,0.0,-0.4766899766575911,0.9722994085347524
-0.0029328346718102,1.395768642425537,-0.1416248530149459,-0.3405764698982239,0.001436531310901,-0.0068454877473413,0.0,0.0,-0.1664671636079639,0.9112202353990296
-0.0042542456649243,1.3879057168960571,-0.1295862197875976,-0.3494614362716675,-0.0010960366344079,-0.0506563708186149,0.0,0.0,-0.2447653292654785,-0.6206817287308747
-0.0056233406066894,1.379847764968872,-0.1358376443386078,-0.3581275641918182,-0.002149811014533,-0.021077150478959,0.0,0.0,-0.8973553957227038,-0.9163386009368448
-0.007038211915642,1.3716000318527222,-0.1418682485818863,-0.3665677011013031,-0.001772487652488,0.0075471438467502,0.0,0.0,0.185201358821434,0.7836274596029073
-0.0082674026489257,1.363742113113403,-0.1218545883893966,-0.3492438197135925,-0.0028237181250005,-0.0210263393819332,0.0,0.0,0.9965573156113534,0.7336670905787106
-0.0094553949311375,1.356737732887268,-0.116190567612648,-0.3113100826740265,-0.0053993808105587,-0.0515180006623268,0.0,0.0,0.980182595428909,-0.8777992891225067
-0.0105009078979492,1.3507051467895508,-0.1041457876563072,-0.268123984336853,-0.0058115236461162,-0.0082435403019189,0.0,0.0,-0.638984826715131,0.783031613595485
-0.0114751812070608,1.344487190246582,-0.095466211438179,-0.2763581871986389,-0.0077449125237762,-0.0386710613965988,0.0,0.0,0.2191475188376379,-0.9863145872147904
-0.0125125888735055,1.3388876914978027,-0.1037575975060463,-0.2488739341497421,-0.0077243284322321,0.0004113707691431,0.0,0.0,0.4935848835555407,0.81374982415615
-0.0133835794404149,1.333899736404419,-0.0856278166174888,-0.2216911762952804,-0.009181004948914,-0.0291363447904586,0.0,0.0,0.2868322762261963,-0.969152083145875
-0.0142520908266305,1.3293342590332031,-0.0873574391007423,-0.2029128968715667,-0.0086841620504856,0.0099377036094665,0.0,0.0,-0.8393035440476388,0.8688128325395942
-0.0150264743715524,1.3245790004730225,-0.0758033245801925,-0.2113555818796157,-0.0102881239727139,-0.0320822671055793,0.0,0.0,0.072660936654828,-0.6739546374952246
-0.0157896038144826,1.3199703693389893,-0.0760939568281173,-0.2048279792070388,-0.0105020049959421,-0.0042780060321092,0.0,0.0,-0.5392508137866774,0.7030073813086954
-0.0164731983095407,1.31517493724823,-0.0663980394601821,-0.2131454795598983,-0.0124446349218487,-0.0388561263680458,0.0,0.0,0.492340421271656,0.9545918993405595
-0.0169544219970703,1.310574650764465,-0.0443612337112426,-0.2044922411441803,-0.0161671917885541,-0.0744581073522567,0.0,0.0,-0.9427432244764556,0.6569151942133978
-0.0173608772456645,1.3057875633239746,-0.0352449640631675,-0.2128206342458725,-0.021499365568161,-0.1066533327102661,0.0,0.0,-0.328401577282426,0.9702501585004536
-0.0176615715026855,1.3007969856262207,-0.0222563706338405,-0.2219362705945968,-0.0292221307754516,-0.1544694006443023,0.0,0.0,-0.6976604660007237,0.6018412109396176
-0.0178957935422658,1.2956175804138184,-0.0141971753910183,-0.2304017096757888,-0.0383408516645431,-0.1823911219835281,0.0,0.0,0.839617669060069,-0.8420078553536642
-0.0182597152888774,1.2911996841430664,-0.0286591257899999,-0.1965617537498474,-0.0459925159811973,-0.1530471891164779,0.0,0.0,0.8763508891008043,-0.9692418576864472
-0.0184885971248149,1.2878700494766235,-0.0173628330230712,-0.148160845041275,-0.0514599569141864,-0.1093588694930076,0.0,0.0,-0.8240884778280151,0.870114155935361
-0.0186365135014057,1.2843376398086548,-0.0074814772233366,-0.1572686731815338,-0.0587044730782508,-0.1449030339717865,0.0,0.0,-0.8149346073298931,0.8874504823727553
-0.0186882968991994,1.280604362487793,0.0043130349367856,-0.1663200259208679,-0.0681051835417747,-0.1880314797163009,0.0,0.0,-0.6141200793292745,-0.6103530647646367
-0.0187719352543354,1.2766765356063845,5.8344223361928016e-05,-0.1749646514654159,-0.0764448121190071,-0.1668072491884231,0.0,0.0,0.2928114134937514,-0.955359341293476
-0.0190098769962787,1.2733360528945925,-0.017219316214323,-0.1488201320171356,-0.0829607248306274,-0.1303299069404602,0.0,0.0,0.6926130109938589,-0.6559279438597423
-0.0193911548703908,1.2708898782730105,-0.032483734190464,-0.1090455204248428,-0.0885565131902694,-0.1119155436754226,0.0,0.0,0.9914306974057848,0.747679573144253
-0.019620131701231,1.2695555686950684,-0.015751589089632,-0.0597367547452449,-0.0956423282623291,-0.141716256737709,0.0,0.0,0.5133218361076997,-0.867047898593783
-0.019968032836914,1.269195795059204,-0.0291873924434185,-0.0163591597229242,-0.101188801229,-0.1109295636415481,0.0,0.0,-0.7388247433003019,0.7383705480002376
-0.0202592853456735,1.2686426639556885,-0.0223650597035884,-0.025054931640625,-0.1078994944691658,-0.1342141330242157,0.0,0.0,0.3181048999032194,0.9552728970707663
-0.0204425808042287,1.2684650421142578,-0.0096250791102647,-0.0085540069267153,-0.1165410876274108,-0.1728320121765136,0.0,0.0,0.9386311782482284,0.6426439580584796
-0.0204253196716308,1.269569754600525,0.0116531606763601,0.0482917353510856,-0.1264131367206573,-0.1974411457777023,0.0,0.0,-0.04492541500614,-0.7168771256862123
-0.0204614643007516,1.2704907655715942,0.004689916037023,0.0401986315846443,-0.1346829086542129,-0.1653951406478881,0.0,0.0,0.6790627557615256,-0.7811522933991957
-0.0205299369990825,1.2724686861038208,6.913435208844021e-05,0.0872659236192703,-0.1415744572877884,-0.137831375002861,0.0,0.0,-0.151305989680804,-0.610541577217927
-0.020641516894102,1.2742598056793213,-0.0055898674763739,0.0790724232792854,-0.1471304893493652,-0.1111206784844398,0.0,0.0,-0.2800554058117994,0.8490022636233072
-0.0206746105104684,1.2758454084396362,0.0040151933208107,0.0697252377867698,-0.1544401049613952,-0.1461923867464065,0.0,0.0,-0.5023748831685939,-0.7713600000196437
-0.0207552909851074,1.2772579193115234,-0.0022540872450917,0.062160387635231,-0.160259798169136,-0.1163938418030738,0.0,0.0,0.8852442784064951,-0.6960802729384935
-0.0208298675715923,1.2792644500732422,-0.0029360326007008,0.0886884629726409,-0.1647752225399017,-0.0903083756566047,0.0,0.0,0.460054780748957,0.7339541497099333
-0.0206894874572753,1.2820559740066528,0.0199623070657253,0.1233993619680404,-0.1707031726837158,-0.1185589432716369,0.0,0.0,-0.5187713083465768,0.8505853724366705
-0.0204762462526559,1.2846484184265137,0.028830636292696,0.1143401116132736,-0.1782261282205581,-0.1504591405391693,0.0,0.0,-0.9381260516152532,-0.6910157698829955
-0.0203042980283498,1.2870632410049438,0.0233726594597101,0.1065708175301551,-0.1844348460435867,-0.1241740435361862,0.0,0.0,0.8534380442117357,-0.9319983911800268
-0.0201646797358989,1.290638089179993,0.0185107104480266,0.1583078354597091,-0.1889970600605011,-0.0912446826696395,0.0,0.0,-0.6721720695495605,-0.7311061024665833
-0.0200608260929584,1.2940315008163452,0.0137643087655305,0.1503808349370956,-0.1923985481262207,-0.0680297687649726,0.0,0.0,-0.6116806864738464,-0.583369791507721
-0.0199865344911813,1.297236680984497,0.0098440628498792,0.1421417593955993,-0.1948257982730865,-0.0485451146960258,0.0,0.0,-0.4770007729530334,-0.0534515380859375
-0.0199031829833984,1.3002492189407349,0.0107609396800398,0.133565217256546,-0.1972555667161941,-0.0485957004129886,0.0,0.0,-0.6018499732017517,-0.757574200630188
-0.0198744777590036,1.3030786514282229,0.0036702174693346,0.1256464123725891,-0.1980684697628021,-0.0162579156458377,0.0,0.0,-0.1417410373687744,-0.1168548464775085
-0.0198369976133108,1.3057152032852173,0.00455705774948,0.1170703470706939,-0.1988814175128936,-0.01625906676054,0.0,0.0,-0.6845131516456604,-0.4941571950912475
-0.0197907444089651,1.3081588745117188,0.0054278797470033,0.1084943041205406,-0.1996931284666061,-0.0162341184914112,0.0,0.0,-0.682497501373291,-0.7403852343559265
-0.0198028571903705,1.3104379177093506,-0.0021657785400748,0.1014186441898346,-0.1987314522266388,0.0192335415631532,0.0,0.0,-0.3368932008743286,-0.4470781683921814
-0.0198065750300884,1.3125238418579102,-0.0013288621557876,0.0928426161408424,-0.1977657824754715,0.0193133559077978,0.0,0.0,-0.3127214908599853,-0.2704045176506042
-0.0198019035160541,1.314417004585266,-0.0005098154069855,0.0842666253447532,-0.1967947036027908,0.019421873614192,0.0,0.0,-0.6925026774406433,-0.4272288084030151
-0.0197894088923931,1.3161171674728394,0.0002907604502979,0.0756906419992446,-0.195816695690155,0.0195598267018795,0.0,0.0,-0.3162044286727905,-0.4469609260559082
-0.0197689048945903,1.3176242113113403,0.001072276616469,0.0671146884560585,-0.1948302984237671,0.0197279099375009,0.0,0.0,-0.4191085696220398,-0.4365912079811096
-0.0197406765073537,1.3189384937286377,0.0018341600662097,0.0585387535393238,-0.1938339620828628,0.0199267398566007,0.0,0.0,-0.501775860786438,-0.5460218191146851
-0.0197463035583496,1.3200769424438477,-0.0026528944727033,0.0508752837777137,-0.1917320936918258,0.0420373044908046,0.0,0.0,-0.4471639990806579,-0.7528552412986755
-0.0197889320552349,1.3210327625274658,-0.0074916644953191,0.0428901351988315,-0.1884816139936447,0.0650095343589782,0.0,0.0,-0.5373820066452026,-0.3787516355514526
-0.0198243148624897,1.3217955827713013,-0.0067921518348157,0.0343134924769401,-0.1852164268493652,0.0653037279844284,0.0,0.0,-0.5091195702552795,-0.748299777507782
-0.01990089379251,1.3223861455917358,-0.0121944453567266,0.0268075093626976,-0.1806634813547134,0.0910588353872299,0.0,0.0,-0.541296124458313,-0.6472244262695312
-0.0200092308223247,1.3227972984313965,-0.0163817685097455,0.018938535824418,-0.1750903576612472,0.1114622354507446,0.0,0.0,-0.4528189897537231,0.2054305076599121
-0.020110797137022,1.323015809059143,-0.0157491602003574,0.0103602474555373,-0.1694976240396499,0.1118548065423965,0.0,0.0,-0.3022183179855346,0.3095334768295288
-0.02020606957376,1.3230416774749756,-0.0151395052671432,0.0017819552449509,-0.1638835966587066,0.1122806817293167,0.0,0.0,-0.2482013702392578,0.6488454341888428
-0.0202409736812114,1.3228559494018557,-0.0077158971689641,-0.0078038331121206,-0.1596597135066986,0.0844777673482894,0.0,0.0,-0.6697262525558472,-0.5833005309104919
-0.0203227996826171,1.322493076324463,-0.0137922335416078,-0.0155318910256028,-0.1540474146604538,0.1122460812330246,0.0,0.0,-0.2834771871566772,0.0499249696731567
-0.0203988067805767,1.3219376802444458,-0.0132533088326454,-0.0241101700812578,-0.1484088152647018,0.1127720102667808,0.0,0.0,-0.5221080780029297,0.0925934314727783
-0.0204694755375385,1.3211897611618042,-0.0127384513616561,-0.0326884724199771,-0.1427422612905502,0.113331139087677,0.0,0.0,-0.0679892301559448,0.3019049167633056
-0.0205348022282123,1.3202491998672483,-0.012247821316123,-0.0412667877972126,-0.1370461136102676,0.1139232739806175,0.0,0.0,0.0853334665298461,0.6430201530456543
-0.0205825809389352,1.3197016716003418,-0.0091255893930792,-0.0239440333098173,-0.1327155977487564,0.0866101682186126,0.0,0.0,-0.5351191759109497,0.491757869720459
-0.0206255912780761,1.3189613819122314,-0.0086834710091352,-0.0325212404131889,-0.1283522099256515,0.0872676149010658,0.0,0.0,0.0193370580673217,-0.0748423933982849
-0.0205906871706247,1.3182868957519531,-0.0011681482428684,-0.0295804999768733,-0.1237200945615768,0.0926424711942672,0.0,0.0,-0.2029273509979248,0.1037657260894775
-0.0205514915287494,1.3174196481704712,-0.0007748804055154,-0.0381579212844371,-0.119051918387413,0.0933635383844375,0.0,0.0,-0.5688526034355164,0.3655683994293213
-0.0205081943422555,1.3163596391677856,-0.0004059081547893,-0.0467353649437427,-0.1143461316823959,0.0941156968474388,0.0,0.0,-0.4078209996223449,0.2343114614486694
-0.0204609874635934,1.3151071071624756,-6.108898378442973e-05,-0.0553128495812416,-0.1096012219786644,0.0948983430862426,0.0,0.0,-0.2502394318580627,0.1292817592620849
-0.0204102508723735,1.313661813735962,0.0002597754937596,-0.0638903602957725,-0.1048156768083572,0.0957108810544014,0.0,0.0,-0.4181292057037353,0.005696415901184
-0.0203560832887887,1.3120237588882446,0.0005569280474446,-0.072467915713787,-0.0999880507588386,0.096552588045597,0.0,0.0,-0.5407708883285522,0.1881122589111328
-0.020298670977354,1.3101931810379028,0.0008306655217893,-0.0810455083847045,-0.0951169282197952,0.097422756254673,0.0,0.0,-0.7041264772415161,-0.7074105143547058
-0.0202975273132324,1.3081727027893066,-0.0063376994803547,-0.0893980041146278,-0.0887137949466705,0.1280623972415924,0.0,0.0,-0.594322144985199,0.7503678798675537
-0.0202280990779399,1.3059431314468384,0.0021036420948803,-0.098818264901638,-0.0839310884475708,0.0956541374325752,0.0,0.0,-0.4719352126121521,0.8623961210250854
-0.0200923923403024,1.3035039901733398,0.0103474762290716,-0.1082303300499916,-0.0807314291596412,0.0639933422207832,0.0,0.0,-0.8012424111366272,-0.283239483833313
-0.0199542995542287,1.3008718490600586,0.0105316108092665,-0.1168068721890449,-0.0774829611182212,0.0649692043662071,0.0,0.0,-0.851594090461731,-0.1227296590805053
-0.0198140144348144,1.2980469465255735,0.0106944944709539,-0.1253834515810012,-0.0741844922304153,0.065969169139862,0.0,0.0,-0.640232264995575,0.4396147727966308
-0.0196718219667673,1.2950291633605957,0.0108366785570979,-0.1339600533246994,-0.0708348676562309,0.0669923201203346,0.0,0.0,-0.8913852572441101,-0.3089464902877807
-0.0195279121398925,1.2918184995651243,0.0109587600454688,-0.1425366997718811,-0.0674329698085784,0.06803759932518,0.0,0.0,-0.8343029618263245,0.6955890655517578
-0.019323443993926,1.2884151935577393,0.0184424016624689,-0.151169091463089,-0.0654539465904235,0.0395802147686481,0.0,0.0,-0.9157662987709044,0.666313886642456
-0.0190739631652832,1.2848145961761477,0.0240175314247608,-0.1599875390529632,-0.0645239576697349,0.0185997150838375,0.0,0.0,-0.659620463848114,-0.2714623212814331
-0.0188231468200683,1.2810208797454834,0.0240832772105932,-0.1685633212327957,-0.0635387077927589,0.0197050534188747,0.0,0.0,-0.9180994629859924,-0.4305099248886108
-0.0185713768005371,1.2770341634750366,0.0241315998136997,-0.1771391183137893,-0.062497291713953,0.0208281893283128,0.0,0.0,-0.9214604496955872,0.5966519117355347
-0.0182645805180072,1.272849678993225,0.0309331379830837,-0.1859925389289856,-0.0627585723996162,-0.0052255615592002,0.0,0.0,-0.9430113434791564,-0.7582571506500244
-0.0180150028318166,1.268470048904419,0.023699227720499,-0.1945973336696624,-0.0615138337016105,0.0248948447406291,0.0,0.0,-0.6418282985687256,0.5880923271179199
-0.0177114494144916,1.2638881206512451,0.0304088052362203,-0.2036404907703399,-0.0615625381469726,-0.0009740922832861,0.0,0.0,-0.7365007996559143,0.2792189121246338
-0.0174073223024606,1.2591131925582886,0.0303949918597936,-0.2122161835432052,-0.0615521222352981,0.000208494690014,0.0,0.0,-0.96017724275589,0.2563430070877075
-0.0171030052006244,1.2541451454162598,0.0303676184266805,-0.2207919061183929,-0.0614819750189781,0.001402947702445,0.0,0.0,-0.8925922513008118,-0.0782759189605712
-0.0167984012514352,1.248984456062317,0.0303274989128112,-0.2293676286935806,-0.0613515712320804,0.0026079793460667,0.0,0.0,-0.8424485325813293,0.5227893590927124
-0.0164501182734966,1.243630290031433,0.0357394255697727,-0.237990453839302,-0.0622537098824977,-0.0180426575243473,0.0,0.0,-0.906601071357727,-0.7349605560302734
-0.0161478035151958,1.2380903959274292,0.0299104414880275,-0.2462037652730941,-0.0619337297976017,0.0063996957615017,0.0,0.0,-0.8670142292976379,0.1533263921737671
-0.015845488756895,1.232357621192932,0.0298370830714702,-0.2547794878482818,-0.0615522898733615,0.0076288618147373,0.0,0.0,-0.6790115833282471,-0.1138709783554077
-0.0155434608459472,1.2264317274093628,0.0297543257474899,-0.2633551955223083,-0.0611091218888759,0.0088634863495826,0.0,0.0,-0.9488707184791564,0.4035556316375732
-0.0152418138459324,1.2203128337860107,0.0296630226075649,-0.2719308733940124,-0.0606040060520172,0.0101022077724337,0.0,0.0,-0.6169841289520264,0.3930808305740356
-0.0149404527619481,1.2140008211135864,0.0295640267431736,-0.2805065810680389,-0.0600368343293666,0.0113436663523316,0.0,0.0,-0.715219259262085,-0.0887075662612915
-0.0146394725888967,1.207495927810669,0.0294581912457942,-0.2890823185443878,-0.0594075135886669,0.0125864688307046,0.0,0.0,-0.685943603515625,-0.1654723286628723
-0.0143390651792287,1.2007979154586792,0.029346365481615,-0.2976580560207367,-0.0587160475552082,0.0138292638584971,0.0,0.0,-0.7472742199897766,-0.555084228515625
-0.0140867233276367,1.1939153671264648,0.0232537519186735,-0.3058207333087921,-0.0567586794495582,0.0391472429037094,0.0,0.0,-0.8628230094909668,-0.2561855316162109
-0.0138349533081054,1.1868396997451782,0.0231324769556522,-0.3143967688083648,-0.0547393970191478,0.0403856262564659,0.0,0.0,-0.963088035583496,-0.3344882726669311
-0.013583755120635,1.1795711517333984,0.0230077523738145,-0.32297283411026,-0.0526584163308143,0.0416196770966053,0.0,0.0,-0.9228245615959167,0.673312783241272
-0.0132904052734375,1.1721068620681765,0.0282660964876413,-0.3317081034183502,-0.0515962541103363,0.0212432090193033,0.0,0.0,-0.9157320261001588,-0.0920358300209045
-0.0129976272583007,1.164449691772461,0.028137007728219,-0.340283989906311,-0.0504730343818664,0.0224640071392059,0.0,0.0,-0.9374181032180786,0.2003803253173828
-0.0127056119963526,1.1565994024276731,0.0280069801956415,-0.3488598465919494,-0.0492892414331436,0.0236759278923273,0.0,0.0,-0.9272375106811525,-0.2091849446296692
-0.0124142644926905,1.148556113243103,0.027876827865839,-0.3574357330799103,-0.0480453707277774,0.0248773284256458,0.0,0.0,-0.8134035468101501,0.6014676094055176
-0.0120644569396972,1.1403203010559082,0.0351648777723312,-0.366041362285614,-0.0482263155281543,-0.0036188934464007,0.0,0.0,-0.7653313875198364,-0.0395586490631103
-0.0117153171449899,1.1318916082382202,0.035036914050579,-0.3746171295642853,-0.0483484752476215,-0.0024434090591967,0.0,0.0,-0.8918788433074951,-0.220315933227539
-0.011366844177246,1.12326979637146,0.0349112376570701,-0.3831929564476013,-0.0484126508235931,-0.0012833516811951,0.0,0.0,-0.9077316522598268,-0.5112026333808899
-0.0110542299225926,1.1144577264785769,0.0303611550480127,-0.391623705625534,-0.0475314147770404,0.0176251865923404,0.0,0.0,-0.8586435317993164,-0.6986379027366638
-0.0107979774475097,1.1054635047912598,0.0232523512095212,-0.3996666669845581,-0.0451860725879669,0.0469067171216011,0.0,0.0,-0.944528579711914,0.1109648942947387
-0.0105423927307128,1.0962765216827393,0.0231381636112928,-0.4082429111003876,-0.042785570025444,0.0480100288987159,0.0,0.0,-0.938844621181488,0.1643446683883667
-0.0102871898561716,1.0868964195251465,0.0230293292552232,-0.4168192148208618,-0.0403310321271419,0.0490908361971378,0.0,0.0,-0.964360535144806,0.5051758289337158
-0.0100007057189941,1.077322483062744,0.0269231610000133,-0.4254646003246307,-0.0386244393885135,0.0341317653656005,0.0,0.0,-0.8127497434616089,-0.3544263243675232
-0.0097146034240722,1.067555546760559,0.0268272366374731,-0.4340406656265259,-0.0368663370609283,0.0351619012653827,0.0,0.0,-0.9317052364349364,0.0669158697128295
-0.0094288829714059,1.0575956106185913,0.0267388187348842,-0.4426168203353882,-0.0350581370294094,0.0361638255417346,0.0,0.0,-0.9152408242225648,-0.0004439353942871
-0.0091435434296727,1.0474426746368408,0.0266585946083068,-0.4511929452419281,-0.0332013554871082,0.0371355600655078,0.0,0.0,-0.7553809881210327,0.2677009105682373
-0.0088583948090672,1.0370970964431765,0.0265872366726398,-0.4597691595554352,-0.0312975905835628,0.0380751267075538,0.0,0.0,-0.9135859608650208,0.0917232036590576
-0.0085734371095895,1.0265583992004397,0.0265253875404596,-0.4683453440666199,-0.029348561540246,0.0389804653823375,0.0,0.0,-0.9084314107894896,0.4449670314788818
-0.0082885744050145,1.0158268213272097,0.0264736823737621,-0.4769215881824493,-0.027356082573533,0.0398495346307754,0.0,0.0,-0.9109687209129332,0.4537909030914306
