x_pos,y_pos,x_vel,y_vel,angle,ang_vel,leg_1,leg_2,main_booster,lat_booster
-0.0014317512977868,1.4035128355026243,-0.1455943882465362,-0.32920902967453,0.0021650160197168,0.0427367277443409,0.0,0.0,0.0343927158620616,-0.8638062668991582
-0.0028022765181958,1.3964462280273438,-0.1414059102535247,-0.3140802979469299,0.0064693228341639,0.0860951393842697,0.0,0.0,0.410815446214601,-0.9353738263747208
-0.0040277480147778,1.3897792100906372,-0.1294149905443191,-0.296354591846466,0.0132574588060379,0.1357754617929458,0.0,0.0,0.1148467189836799,-0.6989870162480032
-0.0053145410493016,1.3835020065307615,-0.1373608261346817,-0.2790896296501159,0.021831514313817,0.1714970916509628,0.0,0.0,-0.0856095302143311,0.5336858813373851
-0.0064625740051269,1.3771175146102903,-0.1227216571569442,-0.2838885486125946,0.0296592023223638,0.1565684080123901,0.0,0.0,0.4117300383016644,-0.9945087242905432
-0.0074810027144849,1.3713197708129885,-0.1124227866530418,-0.2579183876514435,0.0401226133108139,0.2092879712581634,0.0,0.0,-0.2155085879072802,-0.8602135830266234
-0.0084847453981637,1.3654083013534546,-0.1133087426424026,-0.2631275653839111,0.0529209114611148,0.2559896111488342,0.0,0.0,-0.1302952885777843,0.5875497361908881
-0.009347915649414,1.3593941926956177,-0.0983588993549346,-0.2677663266658783,0.0648499652743339,0.2386030256748199,0.0,0.0,-0.3261337143154454,0.7480483421347353
-0.0100726131349802,1.353284478187561,-0.083635613322258,-0.2720642685890198,0.0759226009249687,0.2214727848768234,0.0,0.0,-0.4247765414559381,0.5318626960843575
-0.0106763839721679,1.347073316574097,-0.0710996240377426,-0.2766236662864685,0.0865520313382148,0.2126081734895706,0.0,0.0,-0.5490198169622791,-0.9668476774498248
-0.0112682338804006,1.3407455682754517,-0.0721764042973518,-0.2820372879505157,0.0994502678513526,0.2579883635044098,0.0,0.0,0.9614258021571676,0.5918286248123894
-0.0117122652009129,1.3352643251419067,-0.0570981726050376,-0.2445032000541687,0.1120659410953521,0.2523366808891296,0.0,0.0,-0.6670459092436665,-0.924513223928836
-0.0121415136381983,1.329669952392578,-0.0576874129474163,-0.2498142421245575,0.1267671585083007,0.2940510213375091,0.0,0.0,-0.749099755222496,0.8491608753512268
-0.0124269481748342,1.3239742517471311,-0.0420538261532783,-0.254353791475296,0.1402413100004196,0.2695078253746032,0.0,0.0,0.2290778753077829,-0.8599089158246335
-0.0126802446320652,1.3191016912460327,-0.0412878990173339,-0.2181353718042373,0.1561841070652008,0.3188851475715637,0.0,0.0,-0.2782175291410211,0.808315316955456
-0.01279535330832,1.3141300678253174,-0.0261979755014181,-0.2225684970617294,0.1708961129188537,0.2942670881748199,0.0,0.0,-0.191341620727496,-0.9632697544310374
-0.0129100801423192,1.3090479373931885,-0.0282707698643207,-0.227896049618721,0.1877697706222534,0.3375038504600525,0.0,0.0,0.9031756267931028,0.8549640959209186
-0.0128056528046727,1.3045575618743896,-0.0056546120904386,-0.2016916871070861,0.2039878070354461,0.3243901431560516,0.0,0.0,-0.3274728720357889,0.7914919035752607
-0.012579346075654,1.2999897003173828,0.0077205775305628,-0.2051368504762649,0.2190529704093933,0.3013306260108948,0.0,0.0,0.0435445984415392,-0.9065807699465742
-0.0125116351991891,1.2957959175109863,-0.0105760022997856,-0.1890639364719391,0.2366519719362259,0.3520117104053497,0.0,0.0,0.508456957217942,-0.9276043469514796
-0.0125053403899073,1.2925256490707395,-0.0193115882575511,-0.1486861556768417,0.2569718062877655,0.4064337313175201,0.0,0.0,-0.8071713225674728,0.7906861473829865
-0.0123981479555368,1.2891706228256226,-0.0082251513376832,-0.1525443941354751,0.2763827443122864,0.3882533311843872,0.0,0.0,0.4444251062548914,-0.6229314534012644
-0.0123144146054983,1.2864290475845337,-0.0126439603045582,-0.1259755045175552,0.2980372905731201,0.4331304132938385,0.0,0.0,-0.0434037440474111,-0.9495915405589934
-0.0122628211975097,1.283545732498169,-0.0180669128894805,-0.1330864578485489,0.3221376538276672,0.4820500314235687,0.0,0.0,0.7017869037526698,0.8728231144993367
-0.0124868396669626,1.2814615964889526,-0.0442029386758804,-0.0976421907544136,0.344930499792099,0.4558983445167541,0.0,0.0,-0.7099098865624929,-0.7082186076011653
-0.0127530097961425,1.2792246341705322,-0.0506802387535572,-0.1053914725780487,0.3702656328678131,0.5067029595375061,0.0,0.0,-0.5139358605905984,-0.6831557178209711
-0.0130565641447901,1.2768632173538208,-0.0561698302626609,-0.1118722409009933,0.3977427184581756,0.5495421290397644,0.0,0.0,0.4751601132742167,-0.8625178363359065
-0.0138235092163085,1.2753159999847412,-0.1044218391180038,-0.0768195316195488,0.4275946319103241,0.5970380306243896,0.0,0.0,-0.6902722725998625,-0.9684152448533728
-0.0146751403808593,1.27362322807312,-0.1154234036803245,-0.0847856700420379,0.4606462717056274,0.661033034324646,0.0,0.0,0.597348509243935,0.6560621155981659
-0.0157135017216205,1.2724871635437012,-0.1330326944589615,-0.0605082511901855,0.4930481612682342,0.6480380892753601,0.0,0.0,0.6246118227524273,-0.9908879157685409
-0.0172095298767089,1.2723274230957031,-0.1808059811592102,-0.0187029242515563,0.5283111333847046,0.7052603363990784,0.0,0.0,-0.9084713459014891,0.9997310638427734
-0.0186609271913766,1.2721214294433594,-0.1747892946004867,-0.0210979115217924,0.5625102519989014,0.6839829683303833,0.0,0.0,-0.9136481881141664,0.999521255493164
-0.0200800895690917,1.2718839645385742,-0.1700309664011001,-0.0227691251784563,0.5956288576126099,0.6623720526695251,0.0,0.0,-0.8841239213943481,0.999964475631714
-0.021464442834258,1.2716033458709717,-0.1649978756904602,-0.024847213178873,0.6276198029518127,0.639819324016571,0.0,0.0,-0.9006478190422058,0.9953464269638062
-0.0228164680302143,1.2712993621826172,-0.1600039899349212,-0.0258554350584745,0.6581758856773376,0.6111211180686951,0.0,0.0,-0.9190674424171448,0.9995729923248292
-0.024144172668457,1.2709786891937256,-0.155836746096611,-0.0264713186770677,0.6872587203979492,0.581656813621521,0.0,0.0,-0.896540641784668,0.999325156211853
-0.0254526138305664,1.2706279754638672,-0.1523656249046325,-0.0276773460209369,0.7150412201881409,0.55564945936203,0.0,0.0,-0.9209092259407043,0.9988943338394164
-0.026746654883027,1.2702661752700806,-0.1492585986852646,-0.027845811098814,0.7412540316581726,0.5242568254470825,0.0,0.0,-0.9770111441612244,0.9998483657836914
-0.0280410759150981,1.2698872089385986,-0.1478607356548309,-0.0283357445150613,0.7661631107330322,0.4981813430786133,0.0,0.0,-0.9717757105827332,0.999868631362915
-0.0293300636112689,1.2694945335388184,-0.1457797288894653,-0.0285159368067979,0.7895244359970093,0.4672260880470276,0.0,0.0,-0.9563027620315552,0.9987587928771972
-0.0306343082338571,1.269075632095337,-0.1461713314056396,-0.0294137224555015,0.8118214011192322,0.4459393620491028,0.0,0.0,-0.9956260919570924,0.996006727218628
-0.0319331176578998,1.268655776977539,-0.1439540237188339,-0.0287331603467464,0.8322078585624695,0.4077289700508117,0.0,0.0,-0.9992096424102784,0.9983565807342528
-0.0332285873591899,1.2682271003723145,-0.1420975625514984,-0.028399309143424,0.8507808446884155,0.3714598417282104,0.0,0.0,-0.978955090045929,0.9947984218597412
-0.0345293991267681,1.267796516418457,-0.1411671042442321,-0.0276972390711307,0.8675153851509094,0.3346903026103973,0.0,0.0,-0.9974144101142884,0.975797176361084
-0.0358469001948833,1.2673368453979492,-0.1418031156063079,-0.0284427907317876,0.8829903602600098,0.3095000386238098,0.0,0.0,-0.9983087778091432,0.981400728225708
-0.0371780395507812,1.266863226890564,-0.1419718563556671,-0.0283242501318454,0.896859347820282,0.2773799300193786,0.0,0.0,-0.9929238557815552,0.9465999603271484
-0.0385293960571289,1.2663781642913818,-0.1428444683551788,-0.0280741453170776,0.9091385006904602,0.2455826997756958,0.0,0.0,-0.9961908459663392,0.9233744144439696
-0.0399255752563476,1.2658644914627075,-0.146632969379425,-0.0288813654333353,0.9204699993133544,0.2266294062137603,0.0,0.0,-0.8919339776039124,0.8063652515411377
-0.0413735397160053,1.2653104066848757,-0.1513051241636276,-0.0303798541426658,0.9311385750770568,0.2133731096982956,0.0,0.0,-0.9971088767051696,0.9678667783737184
-0.0428564064204692,1.2647380828857422,-0.1538924425840377,-0.030490094795823,0.9404481053352356,0.1861909925937652,0.0,0.0,-0.9755781292915344,0.8767896890640259
-0.0443712249398231,1.2641637325286863,-0.1559827625751495,-0.0296812523156404,0.9480355978012084,0.1517504006624221,0.0,0.0,-0.995678961277008,0.960418939590454
-0.045933149755001,1.26357102394104,-0.159935712814331,-0.0298379361629486,0.9543922543525696,0.1271329522132873,0.0,0.0,-0.9607560634613036,0.94088876247406
-0.0475270263850688,1.2629764080047607,-0.1620609164237976,-0.0289556812494993,0.9589663147926332,0.0914806872606277,0.0,0.0,-0.9937863349914552,0.9272431135177612
-0.0491700172424316,1.2623708248138428,-0.1661532372236251,-0.0286754183471202,0.9621514678001404,0.0637028068304061,0.0,0.0,-0.9978144764900208,0.9720218181610109
-0.0508447661995887,1.2617740631103516,-0.1681394577026367,-0.0271667372435331,0.963309645652771,0.0231640487909317,0.0,0.0,-0.99590802192688,0.9346715211868286
-0.0525706298649311,1.2611459493637085,-0.1726590543985366,-0.027991721406579,0.9634390473365784,0.0025878839660435,0.0,0.0,-0.999646008014679,0.8482177257537842
-0.0543469414114952,1.260511040687561,-0.1768390238285064,-0.0274503752589225,0.962063193321228,-0.0275174081325531,0.0,0.0,-0.995654284954071,0.9072052240371704
-0.056166648864746,1.2598799467086792,-0.1801182776689529,-0.0262853577733039,0.9588738083839417,-0.0637873709201812,0.0,0.0,-0.9979494214057922,0.7925727367401123
-0.0580428130924701,1.2592339515686035,-0.1849894821643829,-0.0262391902506351,0.9543889760971068,-0.0896969884634018,0.0,0.0,-0.9929710030555724,0.86115562915802
-0.059981632977724,1.2585594654083252,-0.1906760483980178,-0.0269764680415391,0.9489349126815796,-0.109080746769905,0.0,0.0,-0.9983733296394348,0.9610249996185304
-0.0619622245430946,1.2578744888305664,-0.1938603669404983,-0.0265711341053247,0.941861093044281,-0.1414759904146194,0.0,0.0,-0.996282994747162,0.7847640514373779
-0.0640089958906173,1.2571496963500977,-0.200005441904068,-0.0279608443379402,0.9340550899505616,-0.156120553612709,0.0,0.0,-0.9985427260398864,0.8545711040496826
-0.0661020278930664,1.256415605545044,-0.2036114931106567,-0.0275267083197832,0.9246536493301392,-0.1880289167165756,0.0,0.0,-0.987815797328949,0.747485876083374
-0.0682548508048057,1.2556508779525757,-0.2088920772075653,-0.0283886305987834,0.9142425656318665,-0.2082213908433914,0.0,0.0,-0.9991365671157836,0.6792352199554443
-0.0704682320356369,1.2548433542251587,-0.2143778800964355,-0.0299177877604961,0.9030405282974244,-0.2240404188632965,0.0,0.0,-0.9993180632591248,0.3499573469161987
-0.0727774649858474,1.2539334297180176,-0.2243650406599044,-0.0349334888160228,0.8926321864128113,-0.2081673443317413,0.0,0.0,-0.9927611351013184,0.6524746417999268
-0.0751546844840049,1.252986192703247,-0.2305669337511062,-0.0362369529902935,0.8814421892166138,-0.2238005399703979,0.0,0.0,-0.9987182021141052,0.2079354524612426
-0.077628418803215,1.251936435699463,-0.2406418621540069,-0.0412515923380851,0.8710408210754395,-0.2080276757478714,0.0,0.0,-0.997113823890686,0.6007428169250488
-0.0801718682050705,1.250843524932861,-0.2470800429582595,-0.042873490601778,0.8599710464477539,-0.2213954031467437,0.0,0.0,-0.998649001121521,0.4155750274658203
-0.0828124061226844,1.249648094177246,-0.2572282254695892,-0.0478868409991264,0.8496836423873901,-0.2057482302188873,0.0,0.0,-0.9999799728393556,-0.0564039349555969
-0.085550308227539,1.2483495473861694,-0.2674096226692199,-0.052898671478033,0.8401748538017273,-0.1901754438877105,0.0,0.0,-0.9725496768951416,0.2858483791351318
-0.0883858650922775,1.2469481229782104,-0.2776211500167846,-0.0579090490937233,0.8314405679702759,-0.1746857166290283,0.0,0.0,-0.9979227781295776,0.5943789482116699
-0.091298297047615,1.2454872131347656,-0.2850488126277923,-0.0604241304099559,0.8224007487297058,-0.1807967275381088,0.0,0.0,-0.9938479661941528,0.2021019458770752
-0.0943087562918663,1.243923306465149,-0.2953106760978699,-0.0654327347874641,0.8141257762908936,-0.1654997766017913,0.0,0.0,-0.996182382106781,0.5578558444976807
-0.0973872169852256,1.2422966957092283,-0.3017817735671997,-0.0680294185876846,0.805424153804779,-0.1740319579839706,0.0,0.0,-0.9995363354682922,0.5661168098449707
-0.1005276665091514,1.2406147718429563,-0.307448148727417,-0.0702031403779983,0.7960612773895264,-0.1872569471597671,0.0,0.0,-0.999500036239624,0.4811201095581054
-0.1037665382027626,1.2388293743133545,-0.3177670836448669,-0.0752099752426147,0.787445068359375,-0.1723239123821258,0.0,0.0,-0.9966914653778076,0.6976516246795654
-0.1070697754621505,1.237000584602356,-0.3235625028610229,-0.0767788961529731,0.7780069708824158,-0.1887615621089935,0.0,0.0,-0.9992977380752563,0.6757172346115112
-0.1104332953691482,1.2351346015930176,-0.3287922441959381,-0.0780011638998985,0.7675674557685852,-0.2087902277708053,0.0,0.0,-0.9981244802474976,0.809990644454956
-0.1138633713126182,1.2332234382629397,-0.3348013758659363,-0.0797060802578926,0.7563585042953491,-0.2241791039705276,0.0,0.0,-0.9523746967315674,0.7725768089294434
-0.1173551529645919,1.2312510013580322,-0.3404106795787811,-0.0822057649493217,0.7445213794708252,-0.2367419004440307,0.0,0.0,-0.9982182383537292,0.7577686309814453
-0.1209038719534874,1.2292430400848389,-0.3451681435108185,-0.0833513587713241,0.7315729856491089,-0.2589681148529053,0.0,0.0,-0.9984561204910278,0.7488231658935547
-0.1245166808366775,1.2271795272827148,-0.350930780172348,-0.0855969116091728,0.7179334163665771,-0.2727922201156616,0.0,0.0,-0.6139982342720032,0.2978065013885498
-0.1282292306423187,1.2250123023986816,-0.361317366361618,-0.0906031876802444,0.7049758434295654,-0.2591511011123657,0.0,0.0,-0.9865838885307312,0.6398940086364746
-0.1320064514875412,1.2227905988693235,-0.3670946061611175,-0.0927981436252594,0.6912962198257446,-0.2735934853553772,0.0,0.0,-0.993837296962738,0.6298105716705322
-0.1358408033847808,1.2205183506011963,-0.3719645738601684,-0.0947469472885131,0.6766844987869263,-0.2922340035438537,0.0,0.0,-0.9675093293190002,0.4920616149902344
-0.1397753655910492,1.218142032623291,-0.3823616504669189,-0.0997514948248863,0.6627147197723389,-0.2793959677219391,0.0,0.0,-0.9773158431053162,0.4825170040130615
-0.1438100785017013,1.2156612873077393,-0.3927620053291321,-0.1047536209225654,0.6493713855743408,-0.2668670117855072,0.0,0.0,-0.9847397208213806,0.980689287185669
-0.1478696763515472,1.213161587715149,-0.3934786915779114,-0.1048658117651939,0.6339768767356873,-0.3078903257846832,0.0,0.0,-0.990781545639038,0.898533821105957
-0.1519581824541092,1.2106285095214844,-0.3947312235832214,-0.1057661548256874,0.6167818903923035,-0.3438996970653534,0.0,0.0,-0.8679646849632263,0.8109638690948486
-0.1560991257429123,1.2080509662628174,-0.3988270461559295,-0.1074733957648277,0.5984116792678833,-0.36740443110466,0.0,0.0,-0.993868052959442,0.9314658641815186
-0.1602812707424163,1.2054399251937866,-0.4014245569705963,-0.108559601008892,0.5784726142883301,-0.3987813591957092,0.0,0.0,-0.997827172279358,0.7509874105453491
-0.164507195353508,1.202786207199097,-0.4043537676334381,-0.1101766303181648,0.5571174025535583,-0.4271040558815002,0.0,0.0,-0.9948076605796814,0.7224162817001343
-0.1687763184309005,1.200075626373291,-0.4073339998722076,,0.5344848036766052,-0.4526516497135162,0.0,0.0,-0.908325731754303,0.4826298952102661
-0.1731472909450531,1.1972625255584717,-0.4176932275295257,-0.1175325214862823,0.512340784072876,-0.442880630493164,0.0,0.0,-0.9836491346359252,0.5902185440063477
-0.1775769293308258,1.194391846656799,-0.4224402904510498,-0.1200821474194526,0.4892261624336242,-0.4622923731803894,0.0,0.0,-0.9683653712272644,0.2634950876235962
-0.1821085959672927,1.191418170928955,-0.4327825903892517,-0.1250956952571869,0.4665504395961761,-0.4535142779350281,0.0,0.0,-0.9863797426223756,0.2509955167770386
-0.1867421120405197,1.1883416175842283,-0.4431162476539612,-0.1301064938306808,0.4442870616912842,-0.4452668130397796,0.0,0.0,-0.989641547203064,0.6706070899963379
-0.1914243698120117,1.1852037906646729,-0.4466453194618225,-0.1327920109033584,0.4208027720451355,-0.4696857333183288,0.0,0.0,-0.8960636854171753,0.0315301418304443
-0.1962087601423263,1.1819628477096558,-0.4569524824619293,-0.137803167104721,0.3976750075817108,-0.4625552594661712,0.0,0.0,-0.9812244772911072,0.3244259357452392
-0.2010951042175293,1.1786186695098877,-0.4672459661960602,-0.1428119093179702,0.3748744428157806,-0.4560115933418274,0.0,0.0,-0.9742474555969238,-0.5972607135772705
-0.2061281204223632,1.1751418113708496,-0.4832273423671722,-0.1494096368551254,0.3536540269851684,-0.424408346414566,0.0,0.0,-0.9727954864501952,0.2149721384048462
-0.21126289665699,1.1715601682662964,-0.493489921092987,-0.1544096022844314,0.3326997756958008,-0.4190853238105774,0.0,0.0,-0.9024762511253356,0.3506374359130859
-0.2164992392063141,1.1678733825683594,-0.503732442855835,-0.1594076752662658,0.3119803071022033,-0.4143890738487243,0.0,0.0,-0.710770845413208,0.500759482383728
-0.2217936962842941,1.1641058921813965,-0.5084442496299744,-0.1630813330411911,0.2902605533599853,-0.4343950748443603,0.0,0.0,-0.7797718644142151,0.7228388786315918
-0.2271285057067871,1.160254955291748,-0.5109357833862305,-0.1668393015861511,0.2670999765396118,-0.463211715221405,0.0,0.0,-0.8543494343757629,0.7616589069366455
-0.2324943989515304,1.1563352346420288,-0.5121469497680664,-0.1699364781379699,0.242158904671669,-0.498821884393692,0.0,0.0,-0.7448781728744507,-0.1403305530548095
-0.2379620522260666,1.1523122787475586,-0.5222796201705933,-0.1749460697174072,0.2173250764608383,-0.4966768622398376,0.0,0.0,-0.7772491574287415,0.6218817234039307
-0.2434732466936111,1.1482136249542236,-0.5250222086906433,-0.1785429418087005,0.1910123080015182,-0.5262553095817566,0.0,0.0,-0.8455027341842651,0.9215147495269777
-0.2490055561065673,1.1440366506576538,-0.5249625444412231,-0.1822485327720642,0.1626586019992828,-0.5670744776725769,0.0,0.0,-0.6717607975006104,0.9230623245239258
-0.2545692920684814,1.1397860050201416,-0.5261475443840027,-0.1858885586261749,0.1324856579303741,-0.6034594178199768,0.0,0.0,-0.8335362076759338,0.8547537326812744
-0.2601613104343414,1.1354589462280271,-0.5269333720207214,-0.1897663623094558,0.1004111468791961,-0.6414905786514282,0.0,0.0,-0.9045079350471495,0.9780257940292358
-0.2657666206359863,1.1310430765151978,-0.5258814096450806,-0.1942883431911468,0.0660790130496025,-0.6866432428359985,0.0,0.0,-0.8340970277786255,0.5657609701156616
-0.271436870098114,1.126536250114441,-0.5313072800636292,-0.1991034150123596,0.0307714082300663,-0.7061529755592346,0.0,0.0,-0.5297249555587769,0.533174991607666
-0.2771738469600677,1.1219348907470703,-0.5369788408279419,-0.2041414231061935,-0.0054770745337009,-0.7249702215194702,0.0,0.0,-0.6866214871406555,-0.4181674718856811
-0.2830099463462829,1.1172397136688232,-0.5467626452445984,-0.2092088013887405,-0.041860181838274,-0.7276625037193298,0.0,0.0,-0.2903658151626587,0.676810622215271
-0.288888543844223,1.1124467849731443,-0.5494855642318726,-0.2145285308361053,-0.0798102840781211,-0.7590029835700989,0.0,0.0,-0.4366060495376587,-0.4574601650238037
-0.2948645651340484,1.1075618267059326,-0.5591458678245544,-0.2196075171232223,-0.1179488152265548,-0.7627712488174438,0.0,0.0,0.0660693645477294,-0.8286320567131042
-0.3008767962455749,1.1032434701919556,-0.5644099116325378,-0.1952445358037948,-0.1546231061220169,-0.733486533164978,0.0,0.0,-0.2010787725448608,-0.6310058832168579
-0.3070311546325683,1.0988483428955078,-0.5797932147979736,-0.1994338929653167,-0.190323457121849,-0.7140074372291565,0.0,0.0,-0.1964460015296936,0.5344644784927368
-0.313234806060791,1.0943405628204346,-0.5835272073745728,-0.205500528216362,-0.2274779677391052,-0.7430910468101501,0.0,0.0,-0.2138041257858276,-0.4305591583251953
