x_pos,y_pos,x_vel,y_vel,angle,ang_vel,leg_1,leg_2,main_booster,lat_booster
-0.0015305519336834,1.4034490585327148,-0.1552641838788986,-0.3320498764514923,0.0019907266832888,0.0392854660749435,0.0,0.0,0.9927324942735478,0.6491482517906618
-0.0029514313209801,1.3966574668884275,-0.1431689113378524,-0.3018536269664764,0.0030485263559967,0.0211591105908155,0.0,0.0,0.6720487292130071,-0.5568464034343397
-0.0042804717086255,1.3902995586395264,-0.1357037872076034,-0.2825881540775299,0.0058179395273327,0.055393137037754,0.0,0.0,-0.5170838495411041,0.7003164011223337
-0.0055736540816724,1.3837639093399048,-0.1312000602483749,-0.2904734909534454,0.0076744770631194,0.0371344275772571,0.0,0.0,0.1064791457854159,-0.6151945616877523
-0.0068306922912597,1.3777107000350952,-0.1291654258966446,-0.2690528333187103,0.0110982526093721,0.0684815570712089,0.0,0.0,-0.1795538433017411,-0.72386035573422
-0.0081409458070993,1.3714804649353027,-0.1357980072498321,-0.2769459187984466,0.0158182568848133,0.0944090262055397,0.0,0.0,-0.7865818501480812,0.8207768071502054
-0.0093985553830862,1.3650763034820557,-0.129140019416809,-0.2846623957157135,0.0191585328429937,0.0668118447065353,0.0,0.0,-0.7189082206737434,0.888769024860391
-0.0105786323547363,1.3585021495819092,-0.1193509697914123,-0.2922082543373108,0.020482812076807,0.0264879018068313,0.0,0.0,0.5450405957822895,0.6355237416976178
-0.0117469783872365,1.3529340028762815,-0.1170474514365196,-0.2474709898233413,0.0206927135586738,0.0041985330171883,0.0,0.0,0.7741279163407635,0.808224759266515
-0.0128787998110055,1.3483672142028809,-0.111938439309597,-0.2029568552970886,0.0194655656814575,-0.024545406922698,0.0,0.0,0.5389586003315257,0.6231793013837323
-0.013895034790039,1.3444597721099854,-0.0994927138090133,-0.1736416816711425,0.0173678193241357,-0.0419589281082153,0.0,0.0,-0.8412752553810217,0.5008033741035224
-0.014877033419907,1.3403769731521606,-0.0951112210750579,-0.1814256161451339,0.0143134500831365,-0.0610931888222694,0.0,0.0,-0.9048963932335932,-0.9181715776127728
-0.0159256942570209,1.3361221551895142,-0.1033696979284286,-0.1890821009874344,0.0128309931606054,-0.0296518001705408,0.0,0.0,-0.4013224661291752,-0.6540552767519937
-0.017029857262969,1.331685185432434,-0.1102140173316001,-0.1972021013498306,0.0126327825710177,-0.0039644567295908,0.0,0.0,-0.576002048769668,-0.7137586522424387
-0.0181868560612201,1.327079176902771,-0.1167268976569175,-0.2047191113233566,0.0136461211368441,0.0202683396637439,0.0,0.0,-0.4520008606731371,0.730335883635733
-0.0192852020263671,1.322290539741516,-0.1092402338981628,-0.2128228545188903,0.0130655784159898,-0.0116118099540472,0.0,0.0,-0.5545561756709585,-0.7856346892467612
-0.0204404834657907,1.3173346519470217,-0.1162684187293052,-0.2202684879302978,0.0137976007536053,0.0146416295319795,0.0,0.0,-0.0092084332535922,-0.6450777287166269
-0.0216433517634868,1.312197208404541,-0.1221192106604576,-0.2283572852611541,0.0156064657494425,0.0361807271838188,0.0,0.0,-0.6040949117811008,-0.7342016740456381
-0.0229034423828125,1.3068897724151611,-0.1291520148515701,-0.2359132617712021,0.0187270920723676,0.062417883425951,0.0,0.0,-0.7108817806007501,0.8190374768080934
-0.0241151805967092,1.3014084100723269,-0.1229873076081276,-0.2436441481113433,0.0205175783485174,0.0358128510415554,0.0,0.0,0.8915050054677536,0.7087379260394822
-0.0251379013061523,1.2970541715621948,-0.1031231433153152,-0.1935314238071441,0.0213526710867881,0.0167038831859827,0.0,0.0,-0.8530066276774781,0.5177688448098878
-0.026125431060791,1.2925227880477903,-0.0986004844307899,-0.2013973891735077,0.0211974754929542,-0.0031043458729982,0.0,0.0,-0.6325757038763811,0.7335299377877591
-0.027048397809267,1.287817120552063,-0.090386115014553,-0.2091126441955566,0.0193184744566679,-0.0375836044549942,0.0,0.0,0.1973756604977847,-0.8187832969467005
-0.0279870983213186,1.2832659482955933,-0.0937031656503677,-0.2022682726383209,0.0191518198698759,-0.0033333296887576,0.0,0.0,-0.9088940438246864,-0.750737047174603
-0.0290034301578998,1.2785394191741943,-0.1033588796854019,-0.2100965082645416,0.0208547562360763,0.0340617969632148,0.0,0.0,0.9456130030221136,-0.7606844906405181
-0.030286407098174,1.2748554944992063,-0.1311441212892532,-0.1637627482414245,0.0236571729183197,0.0560484416782856,0.0,0.0,0.4553224104710602,-0.7263340543828529
-0.0316407196223735,1.271958827972412,-0.1397395133972168,-0.1288189589977264,0.0279140528291463,0.0851376578211784,0.0,0.0,0.6243813665302673,0.8013619719472374
-0.0330978408455848,1.2701084613800049,-0.1481472104787826,-0.0822864547371864,0.0303206387907266,0.048131987452507,0.0,0.0,0.0367788364723413,-0.9330000726572084
-0.0347415916621685,1.2688114643096924,-0.1686969697475433,-0.0577370524406433,0.0345874801278114,0.0853367894887924,0.0,0.0,-0.4681641407258492,0.6773888134819402
-0.0363325104117393,1.2673393487930298,-0.1620683372020721,-0.0655000805854797,0.0375255569815635,0.0587615370750427,0.0,0.0,0.1052545341444124,0.8405922279075628
-0.0378615371882915,1.266554832458496,-0.1541523337364196,-0.0348998829722404,0.0387568026781082,0.0246248804032802,0.0,0.0,-0.5531761646270752,0.823561429977417
-0.0393301025032997,1.265593409538269,-0.1466126590967178,-0.0427271947264671,0.0385123789310455,-0.0048882733099162,0.0,0.0,-0.7499076724052429,0.4191396236419678
-0.0407937057316303,1.2644563913345337,-0.1460541784763336,-0.0505249314010143,0.0382081493735313,-0.0060846838168799,0.0,0.0,-0.9142933487892152,-0.2153973579406738
-0.042250920087099,1.2631440162658691,-0.1453428715467453,-0.0583226308226585,0.0378341265022754,-0.0074804238975048,0.0,0.0,-0.9144800305366516,0.641433835029602
-0.0436481460928916,1.26166033744812,-0.1379399001598358,-0.065895952284336,0.0360699258744716,-0.0352839641273021,0.0,0.0,-0.7638858556747437,0.499488353729248
-0.0450360290706157,1.2600011825561523,-0.1369067728519439,-0.0736938714981079,0.0342168137431144,-0.0370625630021095,0.0,0.0,-0.9362667798995972,0.2788600921630859
-0.0464128479361534,1.2581665515899658,-0.1357051730155944,-0.0814917981624603,0.0322655923664569,-0.03902418166399,0.0,0.0,-0.968035876750946,0.2083075046539306
-0.0477770790457725,1.25615656375885,-0.1343304216861724,-0.0892897471785545,0.0302074551582336,-0.0411628745496273,0.0,0.0,-0.934837818145752,0.7945622205734253
-0.0490682609379291,1.253982663154602,-0.1254246830940246,-0.0965470522642135,0.0265556741505861,-0.0730357468128204,0.0,0.0,-0.9613351225852966,0.3176968097686767
-0.0503434166312217,1.2516334056854248,-0.1236907467246055,-0.1043458208441734,0.0227801706641912,-0.0755103081464767,0.0,0.0,-0.9112576246261596,0.1342453956604004
-0.0516007430851459,1.2491090297698977,-0.1217714771628379,-0.112144686281681,0.018872994929552,-0.0781435817480087,0.0,0.0,-0.9800222516059875,0.1333001852035522
-0.052838422358036,1.2464090585708618,-0.1196635365486145,-0.119943656027317,0.0148265408352017,-0.0809294059872627,0.0,0.0,-0.98118257522583,0.1422032117843628
-0.0540544502437114,1.2435342073440552,-0.1173639297485351,-0.1277427822351455,0.0106334555894136,-0.0838616266846656,0.0,0.0,-0.9243171215057372,-0.0548560619354248
-0.0552472099661827,1.2404838800430298,-0.1148700565099716,-0.135542020201683,0.0062867440283298,-0.0869341343641281,0.0,0.0,-0.9848634600639344,0.0458098649978637
-0.0564147010445594,1.2372584342956543,-0.1121797189116478,-0.143341451883316,0.0017796967877075,-0.0901409909129142,0.0,0.0,-0.9951993823051452,0.0180985927581787
-0.0575549118220806,1.2338577508926392,-0.1092911586165428,-0.1511410325765609,-0.002894100965932,-0.0934762954711914,0.0,0.0,-0.9970537424087524,0.162196397781372
-0.0586660392582416,1.2302820682525637,-0.106202982366085,-0.1589408367872238,-0.0077408300712704,-0.096934325993061,0.0,0.0,-0.9947291016578674,0.1183160543441772
-0.0597460754215717,1.226531147956848,-0.1029142886400222,-0.1667408496141433,-0.0127662988379597,-0.1005094796419143,0.0,0.0,-0.9871532320976256,0.8472123146057129
-0.0607407577335834,1.2226117849349976,-0.0928593650460243,-0.1742645353078842,-0.0192894488573074,-0.1304628998041153,0.0,0.0,-0.9957209825515748,0.1023368835449218
-0.0617004409432411,1.2185176610946655,-0.0891685411334037,-0.182066336274147,-0.0260022524744272,-0.134255975484848,0.0,0.0,-0.9992461800575256,-0.1648190021514892
-0.0626231208443641,1.2142486572265625,-0.0852769762277603,-0.1898684352636337,-0.0329097621142864,-0.1381503045558929,0.0,0.0,-0.9948635697364808,0.341994047164917
-0.0635069832205772,1.2098050117492676,-0.081185445189476,-0.197670891880989,-0.0400167927145957,-0.1421408653259277,0.0,0.0,-0.9946619868278505,0.0805881023406982
-0.0643499344587326,1.2051867246627808,-0.0768951252102851,-0.2054736912250518,-0.0473279319703578,-0.1462228298187255,0.0,0.0,-0.9992267489433287,0.751396894454956
-0.0650901794433593,1.2003966569900513,-0.0648932754993438,-0.2132056504487991,-0.0563493631780147,-0.1804291307926178,0.0,0.0,-0.998624622821808,0.3954665660858154
-0.0657856911420822,1.1954325437545776,-0.0602107159793376,-0.2210114002227783,-0.0655833408236503,-0.1846796125173568,0.0,0.0,-0.997484028339386,-0.1794798374176025
-0.0664344802498817,1.1902942657470703,-0.0553353503346443,-0.2288176566362381,-0.0750337317585945,-0.1890078336000442,0.0,0.0,-0.9994951486587524,-0.4466714859008789
-0.0670348182320594,1.1849819421768188,-0.0502698831260204,-0.2366244196891784,-0.0847042128443718,-0.1934095174074173,0.0,0.0,-0.996945858001709,-0.4193264245986938
-0.0675847977399826,1.1794955730438232,-0.0450173616409301,-0.2444317191839218,-0.0945982336997985,-0.1978804767131805,0.0,0.0,-0.997908055782318,-0.796821653842926
-0.0681371688842773,1.1738512516021729,-0.0464291796088218,-0.2514399886131286,-0.1033251732587814,-0.1745387017726898,0.0,0.0,-0.983774483203888,-0.3806122541427612
-0.0686354637145996,1.1680328845977783,-0.0408125594258308,-0.2592462599277496,-0.1122819930315017,-0.1791368275880813,0.0,0.0,-0.9852444529533386,-0.532608151435852
-0.0691168755292892,1.162042260169983,-0.0398628115653991,-0.2668958306312561,-0.1205012202262878,-0.164384514093399,0.0,0.0,-0.8250728249549866,-0.6629278063774109
-0.0696012526750564,1.1558917760849,-0.0414936579763889,-0.27393439412117,-0.1274108737707138,-0.1381931900978088,0.0,0.0,-0.999122142791748,-0.7256436944007874
-0.0700720772147178,1.149573564529419,-0.041057251393795,-0.2813344895839691,-0.1334075480699539,-0.1199336200952529,0.0,0.0,-0.9419955015182496,-0.4117231369018554
-0.0704822540283203,1.1430809497833252,-0.0347604267299175,-0.2891380488872528,-0.1396446675062179,-0.1247423067688942,0.0,0.0,-0.9174933433532716,-0.7414507269859314
-0.0708881393074989,1.1364202499389648,-0.0355522073805332,-0.2965092957019806,-0.1446644812822342,-0.1003963723778724,0.0,0.0,-0.9648512005805968,-0.8988232016563416
-0.0713150054216384,1.1296038627624512,-0.03958610445261,-0.3032556474208832,-0.147762194275856,-0.0619541592895984,0.0,0.0,-0.9802664518356324,-0.0918214321136474
-0.0716768279671669,1.1226125955581665,-0.032827328890562,-0.3110574185848236,-0.1511064916849136,-0.0668861791491508,0.0,0.0,-0.9626919627189636,-0.1031950116157531
-0.0719719901680946,1.1154465675354004,-0.0259246341884136,-0.3188593983650207,-0.1546991616487503,-0.0718531906604766,0.0,0.0,-0.6499642133712769,0.3484985828399658
-0.072199247777462,1.1081058979034424,-0.0188831035047769,-0.3266615867614746,-0.1585417687892913,-0.0768521577119827,0.0,0.0,-0.9728227853775024,-0.5294409394264221
-0.0724053382873535,1.1005996465682983,-0.0177352596074342,-0.3339256048202514,-0.1614117324352264,-0.0573995783925056,0.0,0.0,-0.9729388952255248,-0.423114538192749
-0.0725408568978309,1.0929183959960938,-0.0104312654584646,-0.3417275846004486,-0.1645344346761703,-0.0624539963901042,0.0,0.0,-0.8775124549865723,-0.8079557418823242
-0.0726642608642578,1.0850788354873655,-0.0104983737692236,-0.3486318290233612,-0.1663748025894165,-0.0368074253201484,0.0,0.0,-0.9488283395767212,-0.3336812853813171
-0.0727148056030273,1.0770643949508667,-0.0029524490237236,-0.3564335107803345,-0.1684701144695282,-0.041906401515007,0.0,0.0,-0.9360522627830504,-0.9466974139213562
-0.0727560073137283,1.0688916444778442,-0.0034309301991015,-0.3633127212524414,-0.1691562235355377,-0.0137223098427057,0.0,0.0,-0.8775396347045898,-0.9383110404014589
-0.0728000625967979,1.060556411743164,-0.0054450058378279,-0.3703311085700989,-0.1681183278560638,0.020757520571351,0.0,0.0,-0.8337976932525635,0.0215680599212646
-0.0727680176496505,1.0520466566085815,0.0024256464093923,-0.378132700920105,-0.1673377901315689,0.0156106669455766,0.0,0.0,-0.9567907452583312,-0.7198198437690735
-0.0727187171578407,1.0433697700500488,0.0028967154212296,-0.3854136168956756,-0.1653019040822982,0.0407177507877349,0.0,0.0,-0.9342791438102722,-0.1934834718704223
-0.0725914016366005,1.0345180034637451,0.0109589993953704,-0.3932153880596161,-0.1635243594646453,0.0355510339140892,0.0,0.0,-0.9282170534133912,-0.2962546944618225
-0.0723850280046463,1.0254913568496704,0.0191099382936954,-0.4010170698165893,-0.1620054543018341,0.0303780734539031,0.0,0.0,-0.8862526416778564,-0.7223563194274902
-0.0721650123596191,1.0163133144378662,0.0190234445035457,-0.4075850546360016,-0.1590254455804824,0.0596003830432891,0.0,0.0,-0.9344986081123352,-0.2039051651954651
-0.0718643218278884,1.00696063041687,0.0273375399410724,-0.4153871238231659,-0.1563043296337127,0.0544221699237823,0.0,0.0,-0.8239450454711914,-0.5542531609535217
-0.0715222358703613,0.997447431087494,0.0307047255337238,-0.4224389195442199,-0.1528044641017913,0.0699972435832023,0.0,0.0,-0.884507417678833,-0.5418655872344971
-0.0711476355791091,0.987771213054657,0.0329502113163471,-0.4296051561832428,-0.1482968181371688,0.0901527553796768,0.0,0.0,-0.9691662192344666,-0.1096489429473877
-0.0706902518868446,0.9779201149940492,0.041475411504507,-0.4374079704284668,-0.1440476030111313,0.0849842429161071,0.0,0.0,-0.9618586897850036,-0.4773206710815429
-0.07014961540699,0.9678942561149596,0.0500625185668468,-0.4452104568481445,-0.1400564163923263,0.0798237919807434,0.0,0.0,-0.9738115072250366,-0.5238026976585388
-0.0695601478219032,0.9577011466026306,0.0543034300208091,-0.4525946080684662,-0.135427325963974,0.092581495642662,0.0,0.0,-0.978313684463501,0.0704513788223266
-0.0688862800598144,0.9473335146903992,0.0630018934607505,-0.4603971838951111,-0.1310551017522812,0.0874444395303726,0.0,0.0,-0.9196212887763976,-0.6417094469070435
-0.068170353770256,0.9367947578430176,0.0663648769259452,-0.4679370522499084,-0.1258568316698074,0.1039654165506362,0.0,0.0,-0.9921041131019592,-0.2254090309143066
-0.0673690810799598,0.926081359386444,0.0751588121056556,-0.4757398962974548,-0.1209137737751007,0.0988615080714225,0.0,0.0,-0.9441807866096495,-0.0509141087532043
-0.0664820671081543,0.9151932001113892,0.083994835615158,-0.4835423827171325,-0.116224892437458,0.093777909874916,0.0,0.0,-0.9671124815940856,0.5121446847915649
-0.0654685050249099,0.9041270613670348,0.0979019999504089,-0.4915693998336792,-0.1127999275922775,0.0684991851449012,0.0,0.0,-0.9523419737815856,-0.7395468950271606
-0.0644230842590332,0.892900824546814,0.0999309495091438,-0.4986000955104828,-0.1082247868180275,0.0915030017495155,0.0,0.0,-0.9894155859947203,-0.1497721076011657
-0.0632907897233963,0.8814999461174011,0.1088709980249404,-0.5064020156860352,-0.1038999781012535,0.086495965719223,0.0,0.0,-0.972244381904602,-0.5018395185470581
-0.0621046051383018,0.8699239492416382,0.1136759892106056,-0.5141502022743225,-0.0989928320050239,0.098142959177494,0.0,0.0,-0.930777370929718,-0.4881942272186279
-0.0608308799564838,0.858173131942749,0.1226674318313598,-0.521952211856842,-0.0943328514695167,0.0931996256113052,0.0,0.0,-0.9763387441635132,-0.5674408078193665
-0.0595074668526649,0.8462598323822021,0.12690070271492,-0.5291496515274048,-0.0889439433813095,0.1077784076333046,0.0,0.0,-0.980478584766388,-0.6818317174911499
-0.0581520088016986,0.8341790437698364,0.1289234459400177,-0.5365459322929382,-0.0823873206973075,0.1311324536800384,0.0,0.0,-0.9444257020950316,-0.5274872183799744
-0.0567585006356239,0.821934700012207,0.131693422794342,-0.5437889695167542,-0.0748028606176376,0.1516895592212677,0.0,0.0,-0.980215072631836,-0.0057279467582702
-0.0552767738699913,0.8095158934593201,0.1407457590103149,-0.5515931844711304,-0.0674576237797737,0.1469045132398605,0.0,0.0,-0.9625095129013062,-0.8227214217185974
-0.0537774078547954,0.7969359755516052,0.1409562826156616,-0.5587331652641296,-0.0585643537342548,0.1778651922941208,0.0,0.0,-0.9571724534034728,-0.2284270524978637
-0.0521896369755268,0.7841816544532776,0.1500184088945388,-0.5665388107299805,-0.0499055609107017,0.1731760203838348,0.0,0.0,-0.9160760045051576,-0.4178344011306762
-0.0505135543644428,0.7712531089782715,0.1590803563594818,-0.5743439793586731,-0.0414786711335182,0.1685379147529602,0.0,0.0,-0.9281547665596008,-0.6029237508773804
-0.0488060936331748,0.7581545114517212,0.1609999239444732,-0.581924319267273,-0.0318490490317344,0.1925923228263855,0.0,0.0,-0.9435954689979552,-0.6981359124183655
-0.0470793731510639,0.7448834776878357,0.1613875478506088,-0.5896164774894714,-0.0207103621214628,0.222773939371109,0.0,0.0,-0.9577909708023072,-0.2776660919189453
-0.045264434069395,0.7314389944076538,0.1704271882772445,-0.5974252223968506,-0.0097950361669063,0.2183067351579666,0.0,0.0,-0.9718493223190308,-0.1796897649765014
-0.0433615669608116,0.7178205251693726,0.1794521659612655,-0.6052332520484924,0.0009000820573419,0.2139026373624801,0.0,0.0,-0.974891185760498,-0.4792912006378174
-0.0413708686828613,0.7040280699729919,0.1884585916996002,-0.6130406856536865,0.0113783096894621,0.2095644474029541,0.0,0.0,-0.9280974268913268,-0.7397255301475525
-0.0393533706665039,0.6900668740272522,0.1898145228624344,-0.620631992816925,0.0231696404516696,0.2358266562223434,0.0,0.0,-0.939485490322113,0.6359615325927734
-0.0371862426400184,0.6759412884712219,0.2065698355436325,-0.6279925107955933,0.0331858582794666,0.2003242969512939,0.0,0.0,-0.9659770727157592,-0.4001944065093994
-0.0349320396780967,0.6616415977478027,0.2154962718486786,-0.6357982158660889,0.0429958924651145,0.1962004601955413,0.0,0.0,-0.9294179081916808,-0.1810677647590637
-0.0325909629464149,0.6471675634384155,0.22438745200634,-0.6436034440994263,0.0526035577058792,0.1921534389257431,0.0,0.0,-0.9030891060829164,-0.2738152742385864
-0.0301633831113576,0.6325189471244812,0.2332387715578079,-0.6514081954956055,0.0620128586888313,0.188185840845108,0.0,0.0,-0.9275344610214232,-0.1863396167755127
-0.0276497844606637,0.6176959872245789,0.2420454770326614,-0.6592124700546265,0.0712278857827186,0.1843002140522003,0.0,0.0,-0.9638035893440248,-0.8497729897499084
-0.0251314155757427,0.602691650390625,0.2406696826219558,-0.6674336194992065,0.0822881460189819,0.2212052792310714,0.0,0.0,-0.7941578030586243,0.2186722755432129
-0.0225278846919536,0.5875132083892822,0.2493722140789032,-0.6752405166625977,0.0931626334786415,0.2174900472164154,0.0,0.0,-0.8406172394752502,-0.170471966266632
-0.01983985863626,0.572160542011261,0.2580144107341766,-0.6830469369888306,0.1038558334112167,0.2138641774654388,0.0,0.0,-0.768997073173523,-0.4634068012237549
-0.0170680992305278,0.5566336512565613,0.2665904462337494,-0.6908528208732605,0.1143723279237747,0.210329920053482,0.0,0.0,-0.8021930456161499,-0.2133389711380005
-0.0142130851745605,0.5409325361251831,0.275094211101532,-0.698658287525177,0.1247167885303497,0.2068893015384674,0.0,0.0,-0.8389979004859924,-0.3646893501281738
-0.0112756732851266,0.5250570178031921,0.2835192680358886,-0.7064633965492249,0.1348940134048462,0.2035443782806396,0.0,0.0,-0.6618687510490417,-0.6262735724449158
-0.00830421410501,0.509003758430481,0.2858991324901581,-0.7145376205444336,0.1461051553487777,0.2242228984832763,0.0,0.0,0.3027628660202026,-0.3607407808303833
