x_pos,y_pos,x_vel,y_vel,angle,ang_vel,leg_1,leg_2,main_booster,lat_booster
-0.0015210151905193,1.4034684896469116,-0.1542389690876007,-0.3311763703823089,0.0019087495747953,0.0376628600060939,0.0,0.0,-0.7939300736441222,-0.6448388951833636
-0.0030891417991369,1.395881175994873,-0.1600077152252197,-0.3372220993041992,0.0050715883262455,0.0632635205984115,0.0,0.0,-0.7118674917888108,0.7023119705392158
-0.0045934678055346,1.3881330490112305,-0.1520543545484542,-0.3443704843521118,0.0066726184450089,0.0320235006511211,0.0,0.0,-0.3360693384299715,-0.9947720664698432
-0.006198120303452,1.3802248239517212,-0.164608746767044,-0.3514966666698456,0.0107650188729166,0.0818559527397155,0.0,0.0,-0.2922481198901896,0.9798684272323996
-0.0077192308381199,1.3721654415130615,-0.1539980322122573,-0.3582035005092621,0.0126356584951281,0.0374161824584007,0.0,0.0,0.5067765633028019,-0.7828665550740292
-0.0091816904023289,1.3646937608718872,-0.1500905752182006,-0.3321112394332886,0.0164349470287561,0.0759926885366439,0.0,0.0,-0.0580516822676331,0.9529971921124788
-0.0105877872556447,1.3570680618286133,-0.1427412331104278,-0.3389456868171692,0.0185461342334747,0.0422275550663471,0.0,0.0,0.7341695003238069,-0.9998912521185008
-0.0119273187592625,1.3503108024597168,-0.1384864747524261,-0.3003822267055511,0.0230233930051326,0.0895535722374916,0.0,0.0,-0.6953468208285636,0.913833747370718
-0.0132179260253906,1.3434102535247805,-0.1319165527820587,-0.306741327047348,0.0258495230227708,0.0565279014408588,0.0,0.0,0.3469481760325306,-0.7414041325858228
-0.0146069526672363,1.3372443914413452,-0.1433628052473068,-0.2741189301013946,0.0302674900740385,0.0883672907948494,0.0,0.0,0.8839916087694466,0.8598449445221211
-0.0158673282712698,1.331947922706604,-0.1291147470474243,-0.2354698032140731,0.033322911709547,0.0611140243709087,0.0,0.0,-0.5711909584108754,0.7522334278172478
-0.0170901305973529,1.3264973163604736,-0.1238020434975624,-0.2422861456871032,0.0348304659128189,0.0301535092294216,0.0,0.0,0.0247553964421174,-0.854618854160452
-0.0183311458677053,1.321547269821167,-0.1274676471948623,-0.2200834155082702,0.0381629019975662,0.0666547045111656,0.0,0.0,0.4690512704069289,-0.708065995680293
-0.019605254754424,1.3169090747833252,-0.132439449429512,-0.2062808722257614,0.0431390069425106,0.0995310992002487,0.0,0.0,-0.3177882887529726,0.6768781688170025
-0.0208490379154682,1.3121265172958374,-0.1278300434350967,-0.212662398815155,0.0465625636279583,0.0684771686792373,0.0,0.0,-0.5623291972392339,-0.6556284788563171
-0.0221717841923236,1.3071777820587158,-0.1369188576936721,-0.220095157623291,0.0511558130383491,0.0918728858232498,0.0,0.0,0.7243646717292889,0.6326486565837142
-0.0233744625002145,1.3034340143203735,-0.1241193190217018,-0.1665220558643341,0.0549765415489673,0.0764214843511581,0.0,0.0,0.1601686759177671,-0.9117739369756012
-0.0245866775512695,1.2999248504638672,-0.1270460784435272,-0.1561941504478454,0.0607445575296878,0.1153704300522804,0.0,0.0,0.5926004603290143,-0.6559469024250617
-0.0258380882441997,1.297429442405701,-0.1325959712266922,-0.1112145036458969,0.0681298524141311,0.1477192342281341,0.0,0.0,0.7438939212187081,-0.9175197292694488
-0.0273406021296978,1.2956557273864746,-0.1594702303409576,-0.0792746245861053,0.0772680342197418,0.1827801167964935,0.0,0.0,0.2078646487203428,-0.643907117071885
-0.0288777351379394,1.294560432434082,-0.1644524335861206,-0.0492677167057991,0.0879265889525413,0.2131901085376739,0.0,0.0,-0.8678946144550492,-0.6257047642040325
-0.0305090900510549,1.293300986289978,-0.1751728951930999,-0.056721493601799,0.0998782590031623,0.2390547096729278,0.0,0.0,0.0516694609739407,0.8001884103473955
-0.0320634841918945,1.292427659034729,-0.1659726053476333,-0.0395523570477962,0.1103415042161941,0.2092837840318679,0.0,0.0,0.6479806251488589,-0.7447891409241258
-0.0336824432015419,1.2918590307235718,-0.1741137504577636,-0.0262199360877275,0.1225046962499618,0.2432854175567627,0.0,0.0,0.2989410477230605,0.7911017264930985
-0.0354762077331543,1.2918800115585327,-0.1898961067199707,3.586108505260199e-05,0.13299460709095,0.209816887974739,0.0,0.0,-0.4153854748907375,-0.7878281457127784
-0.0373950973153114,1.291714429855347,-0.2044246196746826,-0.0085241952911019,0.1454866230487823,0.2498402893543243,0.0,0.0,0.504642780662073,0.9797378716193412
-0.0393806472420692,1.292400598526001,-0.209152489900589,0.0294261742383241,0.1560623049736023,0.2115135490894317,0.0,0.0,-0.2539954873519279,0.9328880238532709
-0.0413617119193077,1.2929553985595703,-0.2072503864765167,0.0236691460013389,0.165206640958786,0.1828865259885788,0.0,0.0,-0.1576898757772697,-0.7462491845077768
-0.0434664711356163,1.2933441400527954,-0.2214387655258178,0.0160190220922231,0.1761951595544815,0.2197704315185547,0.0,0.0,-0.1314656977182413,-0.725347157268786
-0.0456820502877235,1.2935607433319092,-0.2340293824672699,0.0080934986472129,0.1887131035327911,0.2503592371940613,0.0,0.0,0.9167745120177092,-0.8843668552544127
-0.0481818206608295,1.2950677871704102,-0.264237105846405,0.0651068538427352,0.2030609846115112,0.2869576215744018,0.0,0.0,-0.5073508181711093,0.6693414666531973
-0.0506900772452354,1.2964317798614502,-0.2638939321041107,0.0587736591696739,0.2162502259016037,0.2637847661972046,0.0,0.0,0.6054229979033603,0.977233346409091
-0.0534346587955951,1.2987877130508425,-0.2854471802711487,0.1030590683221817,0.2273679375648498,0.2223542034626007,0.0,0.0,-0.625036220168903,0.6610568532201833
-0.0561877265572547,1.3009992837905884,-0.2851005792617798,0.0967467650771141,0.2372972220182418,0.1985856145620346,0.0,0.0,0.6786626725837783,0.6921800137466244
-0.0590754523873329,1.3040121793746948,-0.2972071170806885,0.1325263828039169,0.2458595484495163,0.1712467074394226,0.0,0.0,0.2848752798651754,0.6066995493572458
-0.0621013641357421,1.307753562927246,-0.3097982406616211,0.1650537848472595,0.2532074749469757,0.1469588130712509,0.0,0.0,-0.0619101480565738,-0.7304110673278927
-0.0652405768632888,1.3113136291503906,-0.3226291537284851,0.1566998213529586,0.2620806694030761,0.1774632483720779,0.0,0.0,-0.8544256238740173,-0.7983546873049583
-0.0684944167733192,1.3147021532058716,-0.3354990482330322,0.1487502306699752,0.272437572479248,0.2071378976106643,0.0,0.0,0.4245924306797126,-0.7980110116442949
-0.0720993056893348,1.3189536333084106,-0.3720659911632538,0.186753049492836,0.2843226492404938,0.2377013862133026,0.0,0.0,-0.2808583282247188,0.6424198605435684
-0.075710579752922,1.3230738639831543,-0.3713009059429168,0.1811025738716125,0.2948073148727417,0.2096932381391525,0.0,0.0,0.8639418366196117,-0.8420790224435247
-0.079825684428215,1.3282207250595093,-0.4230238497257232,0.2263772636651992,0.3067039847373962,0.2379332482814788,0.0,0.0,-0.956530213356018,0.958605170249939
-0.0839110389351844,1.3332523107528689,-0.4177112579345703,0.2216607183218002,0.3162071108818054,0.1900626868009567,0.0,0.0,-0.957499384880066,0.8186556100845337
-0.087981030344963,1.3381552696228027,-0.414236843585968,0.2163061499595642,0.3237333297729492,0.1505252569913864,0.0,0.0,-0.9848493933677672,0.8882162570953369
-0.0920310989022255,1.3429397344589231,-0.4101583957672119,0.2114822566509246,0.3290974199771881,0.1072818860411644,0.0,0.0,-0.9617655277252196,0.6504335403442383
-0.0960922241210937,1.3475841283798218,-0.4100112020969391,0.2055309861898422,0.3331753015518188,0.0815576165914535,0.0,0.0,-0.9919906258583068,0.9185068607330322
-0.1001355201005935,1.3521021604537964,-0.4062594473361969,0.2003550380468368,0.3351834118366241,0.0401613488793373,0.0,0.0,-0.9917841553688048,0.6483170986175537
-0.1041831001639366,1.3564884662628174,-0.4052279591560364,0.1948388963937759,0.3356728553771972,0.0097891390323638,0.0,0.0,-0.9960208535194396,0.2606536149978637
-0.108288861811161,1.360718846321106,-0.4109839498996734,0.1879162490367889,0.3360971212387085,0.0084853637963533,0.0,0.0,-0.993471622467041,0.3956711292266845
-0.1124529838562011,1.364793062210083,-0.4167488217353821,0.1809937059879303,0.3364532887935638,0.0071235322393476,0.0,0.0,-0.9510823488235474,0.8005480766296387
-0.1166175827383995,1.368739128112793,-0.4152259230613708,0.1756636500358581,0.3351609408855438,-0.025847028940916,0.0,0.0,-0.993934154510498,-0.3898926377296448
-0.1208407431840896,1.3725290298461914,-0.4210055470466614,0.1687411218881607,0.3337952792644501,-0.0273140110075473,0.0,0.0,-0.996659815311432,0.3113088607788086
-0.125122457742691,1.3761627674102783,-0.426791250705719,0.1618186086416244,0.3323538601398468,-0.0288279093801975,0.0,0.0,-0.9863308668136596,-0.1146165132522583
-0.1294629126787185,1.3796403408050537,-0.4325821995735168,0.1548961549997329,0.3308345675468445,-0.0303860791027545,0.0,0.0,-0.995922863483429,0.4649991989135742
-0.1338619291782379,1.3829618692398071,-0.4383775293827057,0.1479737162590026,0.329235315322876,-0.0319853201508522,0.0,0.0,-0.9969706535339355,0.5151958465576172
-0.1382715255022049,1.3861500024795532,-0.4380919933319092,0.1423461288213729,0.326242983341217,-0.0598467662930488,0.0,0.0,-0.990854263305664,0.073193073272705
-0.1427400559186935,1.3891820907592771,-0.4438935816287994,0.1354232281446457,0.3231669962406158,-0.0615194663405418,0.0,0.0,-0.974862277507782,0.0338978767395019
-0.1472674310207367,1.3920581340789795,-0.4496974945068359,0.1285003274679184,0.3200057744979858,-0.0632247999310493,0.0,0.0,-0.978160321712494,-0.4095197319984436
-0.1518536508083343,1.3947781324386597,-0.4555028975009918,0.1215773895382881,0.3167577385902405,-0.0649603754281997,0.0,0.0,-0.9949816465377808,0.2720847129821777
-0.156498908996582,1.3973422050476074,-0.4613091051578522,0.114654429256916,0.3134215474128723,-0.0667238980531692,0.0,0.0,-0.9820053577423096,0.6581571102142334
-0.161161333322525,1.3997766971588137,-0.4617985785007477,0.1091487035155296,0.3088177144527435,-0.0920766144990921,0.0,0.0,-0.999851942062378,-0.4962882995605469
-0.1658826768398285,1.402055263519287,-0.4676041007041931,0.1022249087691307,0.3041232526302337,-0.093889370560646,0.0,0.0,-0.9982450604438782,0.0332646369934082
-0.1706630736589431,1.4041779041290283,-0.4734085202217102,0.0953010246157646,0.2993370592594147,-0.0957236886024475,0.0,0.0,-0.9959132075309752,-0.0788108110427856
-0.1755023896694183,1.4061448574066162,-0.4792110323905945,0.0883770659565925,0.2944581806659698,-0.0975777357816696,0.0,0.0,-0.991105854511261,0.2562384605407715
-0.1804007589817047,1.407955765724182,-0.4850111007690429,0.0814530029892921,0.2894856929779053,-0.0994498282670974,0.0,0.0,-0.986229658126831,-0.4567645788192749
-0.1853580474853515,1.4096107482910156,-0.4908079206943512,0.0745288580656051,0.2844187617301941,-0.1013383269309997,0.0,0.0,-0.9996209740638732,0.7950656414031982
-0.1903266906738281,1.411131501197815,-0.4905858933925628,0.0687977895140647,0.277974009513855,-0.1288951337337494,0.0,0.0,-0.9631220698356628,-0.4207870960235595
-0.1953542679548263,1.41249680519104,-0.4963735938072204,0.0618722327053546,0.2714334428310394,-0.130811408162117,0.0,0.0,-0.9995294809341432,0.1234879493713378
-0.2004406005144119,1.4137063026428225,-0.5021558403968811,0.0549465231597423,0.2647964656352997,-0.1327394545078277,0.0,0.0,-0.9983587861061096,0.141886830329895
-0.2055858075618744,1.4147602319717407,-0.5079318284988403,0.048020664602518,0.2580625712871551,-0.1346779316663742,0.0,0.0,-0.9799207448959352,0.366235613822937
-0.2107898294925689,1.415658950805664,-0.5137008428573608,0.0410946533083915,0.2512312829494476,-0.1366256177425384,0.0,0.0,-0.9944527745246888,0.5765492916107178
-0.2160155773162841,1.4164186716079712,-0.5147997140884399,0.0350766666233539,0.2433125078678131,-0.1583753526210785,0.0,0.0,-0.9835017919540404,0.6819952726364136
-0.2212453335523605,1.4170448780059814,-0.5136606097221375,0.0293481927365064,0.2338471412658691,-0.1893071085214615,0.0,0.0,-0.9809887409210204,0.0210980176925659
-0.2265336960554123,1.4175162315368652,-0.5194016098976135,0.0224183872342109,0.2242834270000457,-0.1912741959095001,0.0,0.0,-0.9976670742034912,0.1653600931167602
-0.2318805754184723,0.0,-0.5251316428184509,0.0154883414506912,0.2146211415529251,-0.1932456344366073,0.0,0.0,-0.9908123016357422,0.7237908840179443
-0.2372322082519531,1.418006420135498,-0.5241388082504272,0.0092761283740401,0.2034893333911895,-0.2226360291242599,0.0,0.0,-0.9898120760917664,0.4385148286819458
-0.2426422089338302,1.4180254936218262,-0.529842734336853,0.0023432269226759,0.1922587007284164,-0.2246125042438507,0.0,0.0,-0.7770524024963379,0.8509883880615234
-0.2480466812849044,1.417900323867798,-0.5275635719299316,-0.0039401841349899,0.1793160140514373,-0.2588539719581604,0.0,0.0,-0.6474217176437378,0.7225899696350098
-0.2534546852111816,1.4176433086395264,-0.5263496041297913,-0.009749686345458,0.1648413687944412,-0.2894928753376007,0.0,0.0,-0.9852268099784852,-0.3420740365982055
-0.2589205205440521,1.417232871055603,-0.5320038795471191,-0.0166900437325239,0.1502679586410522,-0.2914684414863586,0.0,0.0,-0.8838011026382446,-0.1307293772697448
-0.2644440233707428,1.416669249534607,-0.5376392602920532,-0.0236307997256517,0.135595828294754,-0.2934426665306091,0.0,0.0,-0.945792555809021,0.1512912511825561
-0.2700249552726745,1.415952444076538,-0.543254017829895,-0.0305719580501317,0.1208250820636749,-0.295414924621582,0.0,0.0,-0.984301209449768,-0.4055789113044739
-0.2756630778312683,1.4150826930999756,-0.5488462448120117,-0.0375135093927383,0.1059558540582656,-0.2973845899105072,0.0,0.0,-0.9312030076980592,0.7267040014266968
-0.2813105583190918,1.4140677452087402,-0.5484446287155151,-0.0440348945558071,0.0897827893495559,-0.3234613239765167,0.0,0.0,0.1361333131790161,0.3583271503448486
-0.2870939671993255,1.4135915040969849,-0.5617411732673645,-0.0202456526458263,0.0733372569084167,-0.3289106488227844,0.0,0.0,-0.8972147107124329,0.4565448760986328
-0.292933702468872,1.4129631519317627,-0.5672520995140076,-0.027192061766982,0.0567938946187496,-0.3308672308921814,0.0,0.0,-0.9447927474975586,0.2745699882507324
-0.2988294064998626,1.412182331085205,-0.5727313756942749,-0.0341389067471027,0.0401529520750045,-0.332818865776062,0.0,0.0,-0.9433631896972656,0.8431078195571899
-0.3047110438346863,1.4112459421157837,-0.5694594979286194,-0.0412222556769847,0.0216725971549749,-0.3696072697639465,0.0,0.0,-0.9741569757461548,0.8866113424301147
-0.3105668425559997,1.4101548194885254,-0.5646991729736328,-0.0483168959617614,0.0010608923621475,-0.4122341275215149,0.0,0.0,-0.9790231585502625,0.7503454685211182
-0.316403329372406,1.4089142084121704,-0.560793936252594,-0.0552793070673942,-0.0215038992464542,-0.4512961506843567,0.0,0.0,-0.9683425426483154,0.5046337842941284
-0.3222448229789734,1.4075194597244265,-0.5599521398544312,-0.062507040798664,-0.0454008430242538,-0.4779390692710876,0.0,0.0,-0.9414554834365844,-0.4784255027770996
-0.3281398415565491,1.40597665309906,-0.5652270913124084,-0.0694796741008758,-0.0693931728601455,-0.4798469543457031,0.0,0.0,-0.9751248955726624,0.8433767557144165
-0.3340172171592712,1.4042856693267822,-0.5616370439529419,-0.0765760838985443,-0.0952445045113563,-0.5170272588729858,0.0,0.0,-0.9012184739112854,-0.828661322593689
-0.3399981558322906,1.4024577140808103,-0.5732831954956055,-0.083005703985691,-0.1198791041970253,-0.492692083120346,0.0,0.0,-0.9032428860664368,0.0184640884399414
-0.3460304141044616,1.400482177734375,-0.5783906579017639,-0.0899816676974296,-0.1446079164743423,-0.4945763647556305,0.0,0.0,-0.944442093372345,0.1488196849822998
-0.3521131873130798,1.398359298706055,-0.5834323763847351,-0.0969580560922622,-0.1694305390119552,-0.4964528977870941,0.0,0.0,-0.944082736968994,-0.1483497619628906
-0.3582455515861511,1.3960888385772705,-0.5884029865264893,-0.1039348393678665,-0.1943466067314148,-0.498321384191513,0.0,0.0,-0.8190131783485413,-0.4635778665542602
-0.3644265532493591,1.393670678138733,-0.5932966470718384,-0.1109119802713394,-0.2193556725978851,-0.5001815557479858,0.0,0.0,-0.8398674130439758,-0.7578392624855042
-0.3707246780395508,1.3911350965499878,-0.6068722009658813,-0.1162714660167694,-0.2426108717918396,-0.4651040434837341,0.0,0.0,-0.7508413195610046,-0.4445438385009765
-0.3770696222782135,1.388451099395752,-0.6115900278091431,-0.1232419162988662,-0.2659583985805511,-0.4669513702392578,0.0,0.0,-0.1478011012077331,-0.4874367713928222
-0.3834601938724518,1.3856185674667358,-0.6162105798721313,-0.1302126348018646,-0.2893978655338287,-0.4687895178794861,0.0,0.0,-0.6989457011222839,-0.2379747629165649
-0.3898952007293701,1.3826377391815186,-0.620726466178894,-0.137183591723442,-0.3129287660121918,-0.470618188381195,0.0,0.0,0.1962579488754272,-0.7730066776275635
-0.3963404595851898,1.3800575733184814,-0.6233240365982056,-0.1193999722599983,-0.3349959254264831,-0.4413431286811828,0.0,0.0,-0.0630408525466919,-0.8342375159263611
-0.4029017090797424,1.37736713886261,-0.6369313597679138,-0.1241617202758789,-0.3551158308982849,-0.4023981690406799,0.0,0.0,0.4796502590179443,-0.4465757012367248
-0.4094669818878174,1.3752564191818235,-0.6368114948272705,-0.0988232716917991,-0.3759492933750152,-0.4166698455810547,0.0,0.0,0.6722085475921631,-0.7703328728675842
-0.415750116109848,1.3739826679229736,-0.6103671789169312,-0.0614503808319568,-0.3950636386871338,-0.3822867274284363,0.0,0.0,0.1638569831848144,-0.8450136184692383
-0.4219883978366852,1.372920274734497,-0.607571542263031,-0.051837284117937,-0.412508487701416,-0.3488969206809997,0.0,0.0,0.3118289709091186,-0.8154793977737427
-0.4279577136039734,1.3725039958953855,-0.5823962688446045,-0.0228224787861108,-0.4282175898551941,-0.3141823410987854,0.0,0.0,0.2191653251647949,-0.5210807919502258
-0.4337770342826843,1.3727574348449707,-0.5683830976486206,0.0070697828195989,-0.4429623484611511,-0.294895201921463,0.0,0.0,0.53529953956604,-0.4716891050338745
-0.4391695857048034,1.3738489151000977,-0.5262823104858398,0.0443425439298152,-0.4571813344955444,-0.2843795716762543,0.0,0.0,0.1873784065246582,-0.7149100303649902
-0.4444045126438141,1.3753442764282229,-0.5119425654411316,0.0626092851161956,-0.4699277877807617,-0.2549291253089905,0.0,0.0,0.225361943244934,-0.398075520992279
-0.4493997097015381,1.3774995803833008,-0.4879494607448578,0.0918175429105758,-0.4827848970890045,-0.2571422159671783,0.0,0.0,0.0237541198730468,-0.7768835425376892
-0.4542091488838196,1.3801676034927368,-0.4708346724510193,0.1150039136409759,-0.4940746128559112,-0.225794106721878,0.0,0.0,-0.1902987957000732,-0.6531262993812561
-0.4590842723846435,1.3827102184295654,-0.4784522652626037,0.1097176447510719,-0.5042614936828613,-0.2037370651960373,0.0,0.0,-0.2771980166435241,-0.8241376280784607
-0.4640504419803619,1.3851557970046997,-0.4893834590911865,0.1060133129358291,-0.5124359130859375,-0.1634888350963592,0.0,0.0,0.0463470220565795,-0.6287861466407776
-0.4690016806125641,1.3879753351211548,-0.4889330267906189,0.122971311211586,-0.5194578170776367,-0.1404379904270172,0.0,0.0,-0.3222904205322265,-0.6218423843383789
-0.4740159511566162,1.3906773328781128,-0.4963890016078949,0.1181459873914718,-0.5251972079277039,-0.1147878542542457,0.0,0.0,-0.302469789981842,-0.8141664266586304
-0.4791003763675689,1.393268585205078,-0.5047885179519653,0.1137479171156883,-0.5293668508529663,-0.0833929106593132,0.0,0.0,-0.457560122013092,-0.676963746547699
-0.4842372536659241,1.3957306146621704,-0.5109492540359497,0.1083565801382064,-0.5324998497962952,-0.0626601800322532,0.0,0.0,-0.3521465063095093,-0.2945110201835632
-0.4893862605094909,1.3980375528335571,-0.5121053457260132,0.1014281287789344,-0.5357106328010559,-0.0642154067754745,0.0,0.0,0.0011531114578247,-0.4634791612625122
-0.4942824244499206,1.4008082151412964,-0.4868159890174866,0.122028149664402,-0.5389277338981628,-0.0643422231078147,0.0,0.0,-0.4042873382568359,-0.6156032085418701
-0.4992250502109527,1.4034507274627686,-0.4924065172672272,0.1167115792632103,-0.5410599708557129,-0.042644627392292,0.0,0.0,-0.3951906561851501,-0.3651782274246216
