x_pos,y_pos,x_vel,y_vel,angle,ang_vel,leg_1,leg_2,main_booster,lat_booster
-0.0014663696056231,1.4033080339431765,-0.1481403708457946,-0.3383151888847351,0.0013443202478811,0.0264871064573526,0.0,0.0,-0.3672919273376465,0.543442964553833
-0.0028292655479162,1.395400047302246,-0.1360365450382232,-0.3514649271965027,0.0010932222940027,-0.0050215935334563,0.0,0.0,-0.181641399860382,0.7695114612579346
-0.0040614129975438,1.387169599533081,-0.1206740885972976,-0.3657948076725006,-0.0014138221740722,-0.0501456186175346,0.0,0.0,0.0931642055511474,-0.0376888513565063
-0.0053152083419263,1.379118800163269,-0.1220606788992881,-0.3578168451786041,-0.0046998104080557,-0.0657262131571769,0.0,0.0,-0.1341832876205444,-0.1000320315361023
-0.0065127373673021,1.3707516193389893,-0.1160281673073768,-0.3718867003917694,-0.0083908345550298,-0.0738271549344062,0.0,0.0,-0.2225236892700195,-0.4334319829940796
-0.0076545714400708,1.3620684146881104,-0.1100355014204979,-0.3859513700008392,-0.0124899642542004,-0.0819898322224617,0.0,0.0,-0.2330412864685058,0.2332333326339721
-0.008740996941924,1.3530690670013428,-0.1040858253836631,-0.4000168740749359,-0.0169995501637458,-0.0901999473571777,0.0,0.0,-0.6005306243896484,-0.3962916731834411
-0.0097725866362452,1.3437535762786863,-0.0981824994087219,-0.4140835404396057,-0.0219216495752334,-0.0984509363770484,0.0,0.0,0.0872682332992553,-0.3279918432235718
-0.01074562035501,1.3349483013153076,-0.0918766111135482,-0.3914345800876617,-0.0272956658154726,-0.107490062713623,0.0,0.0,-0.5374161601066589,-0.0886579155921936
-0.0116649623960256,1.3258271217346191,-0.0860755816102027,-0.4055090248584747,-0.0330847986042499,-0.1157933622598648,0.0,0.0,-0.6321929097175598,-0.4450622797012329
-0.0125309946015477,1.3163901567459106,-0.0803303271532058,-0.4195749461650848,-0.0392898172140121,-0.1241115927696228,0.0,0.0,-0.6827391982078552,-0.6140058636665344
-0.0133870122954249,1.306638479232788,-0.0800033956766128,-0.433560162782669,-0.0448363050818443,-0.1109400168061256,0.0,0.0,-0.5419859886169434,-0.5837076306343079
-0.0142271043732762,1.2965764999389648,-0.0788969025015831,-0.447361558675766,-0.0498910546302795,-0.101104125380516,0.0,0.0,-0.4839104413986206,-0.7773986458778381
-0.0150702474638819,1.2861955165863037,-0.0801725536584854,-0.4615257084369659,-0.0539967268705368,-0.0821209996938705,0.0,0.0,-0.9420273303985596,-0.8883981704711914
-0.0159160606563091,1.2755118608474731,-0.0813883319497108,-0.4749431312084198,-0.057164616882801,-0.0633635818958282,0.0,0.0,-0.9083360433578492,-0.365228533744812
-0.0167120937258005,1.264512300491333,-0.0759883224964141,-0.4890111982822418,-0.0607459545135498,-0.0716331377625465,0.0,0.0,-0.4754883646965027,-0.7447269558906555
-0.0175040252506732,1.2532094717025757,-0.0763083472847938,-0.5024644732475281,-0.0635951608419418,-0.0569892600178718,0.0,0.0,-0.858711838722229,-0.5684683322906494
-0.0182820316404104,1.241589069366455,-0.0753805860877037,-0.5165649056434631,-0.0659923106431961,-0.0479471758008003,0.0,0.0,-0.7607627511024475,-0.8307916522026062
-0.0190671924501657,1.229665994644165,-0.07708241045475,-0.5299816727638245,-0.0674088299274444,-0.0283331386744976,0.0,0.0,-0.3238535523414612,-0.5763567090034485
-0.0198574066162109,1.217431664466858,-0.0784830600023269,-0.5437713265419006,-0.0679298415780067,-0.0104214707389473,0.0,0.0,-0.6185553073883057,-0.5514199137687683
-0.0206357948482036,1.2048885822296145,-0.0777952894568443,-0.5574651956558228,-0.0679856389760971,-0.001115812221542,0.0,0.0,-0.6568962931632996,-0.2105501890182495
-0.0213695522397756,1.192029595375061,-0.0729221254587173,-0.5715326070785522,-0.0684375762939453,-0.0090392865240573,0.0,0.0,-0.815475583076477,-0.7242355942726135
-0.0221044532954692,1.1788580417633057,-0.0737736895680427,-0.5853878855705261,-0.0681507289409637,0.0057374509051442,0.0,0.0,-0.7518327832221985,0.1541767120361328
-0.0227965358644723,1.1653704643249512,-0.0691011771559715,-0.5994554758071899,-0.0682514011859893,-0.002013717778027,0.0,0.0,-0.4789504408836365,-0.6242042183876038
-0.0235075000673532,1.1515746116638184,-0.0721634924411773,-0.6130982637405396,-0.0671976879239082,0.0210760440677404,0.0,0.0,-0.6386108994483948,-0.4247639775276184
-0.0241785999387502,1.1374413967132568,-0.0678009241819381,-0.6281173825263977,-0.0665208548307418,0.0135369570925831,0.0,0.0,-0.6842333674430847,-0.210527241230011
-0.0248100273311138,1.1229918003082275,-0.0634503662586212,-0.6421827077865601,-0.0662144124507904,0.0061290152370929,0.0,0.0,-0.5689362287521362,0.0814411640167236
-0.0254027359187603,1.1082264184951782,-0.0592137388885021,-0.6562479734420776,-0.066271923482418,-0.001150018419139,0.0,0.0,-0.6562315225601196,-0.828716516494751
-0.0260371211916208,1.093159556388855,-0.0650535374879837,-0.6695676445960999,-0.0646776780486106,0.0318848751485347,0.0,0.0,-0.770058810710907,0.0763359069824218
-0.0266350749880075,1.077776551246643,-0.0610526576638221,-0.6836329102516174,-0.0634335055947303,0.0248834770172834,0.0,0.0,-0.7198760509490967,-0.3634309768676758
-0.0271976478397846,1.062077522277832,-0.0571732446551322,-0.6976979970932007,-0.0625319704413414,0.0180306788533926,0.0,0.0,-0.1010413169860839,-0.6859734058380127
-0.0277874954044818,1.0460642576217651,-0.0611103065311908,-0.7116201519966125,-0.0604244098067283,0.0421512089669704,0.0,0.0,-0.585456907749176,-0.5079202651977539
-0.0283896438777446,1.0297435522079468,-0.0631854087114334,-0.7252428531646729,-0.0574931688606739,0.0586250126361846,0.0,0.0,-0.2492998838424682,-0.1073994040489196
-0.0289600379765033,1.0131069421768188,-0.0596826374530792,-0.7393082976341248,-0.0548805296421051,0.0522527284920215,0.0,0.0,-0.3820146918296814,-0.43600594997406
-0.0294998176395893,0.996154248714447,-0.0563087277114391,-0.7533734440803528,-0.052577968686819,0.0460515543818473,0.0,0.0,-0.5011929273605347,-0.1492500901222229
-0.0300101283937692,0.978885293006897,-0.0530649647116661,-0.7674384713172913,-0.0505766496062278,0.0400266014039516,0.0,0.0,-0.1416066288948059,-0.1101093888282775
-0.0304924007505178,0.9613001346588136,-0.0499524064362049,-0.7815032601356506,-0.0488675124943256,0.0341827161610126,0.0,0.0,-0.1747941970825195,-0.43914794921875
-0.0309476852416992,0.9433987140655518,-0.0469718389213085,-0.7955677509307861,-0.04744129255414,0.0285243187099695,0.0,0.0,-0.0064209103584289,-0.0234223008155822
-0.0313772186636924,0.9251811504364014,-0.0441237911581993,-0.8096321821212769,-0.0462885089218616,0.0230555702000856,0.0,0.0,0.5891882181167603,0.1130732297897338
-0.0317281708121299,0.9075217843055724,-0.0361128486692905,-0.784837543964386,-0.0452737025916576,0.0202960073947906,0.0,0.0,0.350615382194519,-0.3583266735076904
-0.0321141257882118,0.8905057311058044,-0.0389587841928005,-0.7562596201896667,-0.0449166148900985,0.007141794078052,0.0,0.0,-0.4519569277763366,-0.5746872425079346
-0.0325141921639442,0.8731744885444641,-0.0410447306931018,-0.7702457308769226,-0.0438946522772312,0.0204393416643142,0.0,0.0,0.2887628078460693,0.1270439624786377
-0.0328069701790809,0.8558886051177979,-0.0304355323314666,-0.768227756023407,-0.0427558794617652,0.0227753091603517,0.0,0.0,0.3211160898208618,0.1091324090957641
-0.0329828262329101,0.8389148712158203,-0.0188797749578952,-0.7543526887893677,-0.0414733737707138,0.0256500877439975,0.0,0.0,-0.3177009224891662,0.175065279006958
-0.0331402793526649,0.8216246962547302,-0.0168225318193435,-0.768416702747345,-0.0404040925204753,0.0213857926428318,0.0,0.0,0.1810730695724487,0.2312670946121215
-0.0332379341125488,0.8043744564056396,-0.0108003113418817,-0.7666528820991516,-0.0393856950104236,0.0203680861741304,0.0,0.0,-0.5684854984283447,0.1014062166213989
-0.0333195701241493,0.7868079543113708,-0.0089983837679028,-0.7807168364524841,-0.0385596379637718,0.0165210384875535,0.0,0.0,-0.0206888914108276,0.0742660760879516
-0.0333863273262977,0.7689249515533447,-0.0073213391005992,-0.7947806715965271,-0.0379154346883297,0.0128837395459413,0.0,0.0,-0.2782471776008606,0.2055854797363281
-0.0334392562508583,0.7507256865501404,-0.0057669873349368,-0.8088443875312805,-0.037442609667778,0.0094562685117125,0.0,0.0,-0.0672814846038818,0.4660321474075317
-0.0334793105721473,0.7322101593017578,-0.0043328930623829,-0.8229081034660339,-0.0371306911110878,0.0062382733449339,0.0,0.0,0.088649034500122,0.2004287242889404
-0.0333994850516319,0.7139371037483215,0.007384649477899,-0.8121264576911926,-0.0365319773554801,0.0119742015376687,0.0,0.0,-0.1729461550712585,0.6713365316390991
-0.0332608222961425,0.6953494548797607,0.0146222738549113,-0.8261379599571228,-0.037280585616827,-0.0149720702320337,0.0,0.0,-0.1698135137557983,0.2522773742675781
-0.0331126227974891,0.6764454245567322,0.0157125350087881,-0.8402015566825867,-0.0381589941680431,-0.0175681933760643,0.0,0.0,-0.6137521266937256,0.0145157575607299
-0.0329557433724403,0.6572250723838806,0.0166945476084947,-0.8542652130126953,-0.0391570404171943,-0.0199607722461223,0.0,0.0,0.2531847953796386,0.0152806043624877
-0.0326638221740722,0.6382359862327576,0.0297853108495473,-0.8439732789993286,-0.039741825312376,-0.0116958133876323,0.0,0.0,-0.0195012092590332,-0.0162605047225952
-0.0323650352656841,0.6189305186271667,0.0305615458637475,-0.8580368161201477,-0.0404262952506542,-0.013689418323338,0.0,0.0,-0.001796007156372,-0.4155418872833252
-0.03206043317914,0.5993086695671082,0.0312405936419963,-0.872100293636322,-0.0412007421255111,-0.0154885901138186,0.0,0.0,0.5904808044433594,-0.3306123614311218
-0.0315913185477256,0.5803353190422058,0.0471552610397338,-0.8432635068893433,-0.0414410009980201,-0.0048051713965833,0.0,0.0,0.5981136560440063,-0.5485450029373169
-0.0310505870729684,0.5622427463531494,0.0530861541628837,-0.8040860295295715,-0.0404613204300403,0.0195934418588876,0.0,0.0,0.0366382598876953,-0.5184337496757507
-0.0305801387876272,0.5445830821990967,0.0451613329350948,-0.7848266363143921,-0.0386023297905921,0.037180058658123,0.0,0.0,-0.4714233875274658,-0.4073845148086548
-0.0301069263368845,0.5266069769859314,0.0454930886626243,-0.7988903522491455,-0.0367965400218963,0.0361156985163688,0.0,0.0,0.4270143508911133,0.0900028944015502
-0.0296958927065134,0.509227454662323,0.039730068296194,-0.7723888158798218,-0.035436064004898,0.0272096544504165,0.0,0.0,0.4318839311599731,-0.4818308353424072
-0.0291604045778512,0.4921978116035461,0.0517008230090141,-0.7568302154541016,-0.0336168110370636,0.0363848730921745,0.0,0.0,0.0913385152816772,-0.5001490116119385
-0.028632927685976,0.4754607677459717,0.0498966537415981,-0.7438098192214966,-0.0307980477809906,0.0563753917813301,0.0,0.0,0.081886887550354,-0.1578556895256042
-0.0280919075012207,0.458800733089447,0.0512500703334808,-0.7403924465179443,-0.0279764346778392,0.0564322173595428,0.0,0.0,0.1371091604232788,-0.3697150945663452
-0.0276247020810842,0.4424378275871277,0.0442707315087318,-0.7271968722343445,-0.0255625173449516,0.0482780821621418,0.0,0.0,0.6963368654251099,-0.68827885389328
-0.0271659847348928,0.4270855188369751,0.0419924147427082,-0.6822664737701416,-0.021732497960329,0.0766003429889679,0.0,0.0,0.3094592094421386,-0.4694453477859497
-0.0266382209956645,0.4117623567581177,0.0485964268445968,-0.6809719204902649,-0.0176016427576541,0.0826172232627868,0.0,0.0,0.3958263397216797,0.1028871536254882
-0.0260762218385934,0.39720419049263,0.0519022271037101,-0.6469866037368774,-0.0133590754121541,0.0848511755466461,0.0,0.0,-0.1608142852783203,0.2129004001617431
-0.0255159381777048,0.3823298215866089,0.0517225041985511,-0.6610513925552368,-0.0091046979650855,0.085087351500988,0.0,0.0,0.4765290021896362,-0.0274510383605957
-0.0250341407954692,0.3680480122566223,0.0442415699362754,-0.6347270607948303,-0.0052127828821539,0.0778383761644363,0.0,0.0,0.3478553295135498,-0.1287815570831298
-0.0245266910642385,0.3542114496231079,0.0466606095433235,-0.6149515509605408,-0.0011826589470729,0.0806026235222816,0.0,0.0,-0.1137988567352294,0.2512861490249634
-0.0240216255187988,0.3400586247444153,0.0463988445699214,-0.629016101360321,0.0028740754351019,0.0811346322298049,0.0,0.0,0.8087224960327148,0.3882042169570923
-0.0234403610229492,0.3265382945537567,0.053607415407896,-0.6009191274642944,0.0073335920460522,0.089190199971199,0.0,0.0,0.7883954048156738,0.2033902406692505
-0.0229013450443744,0.3133363723754883,0.0495281890034675,-0.5867787599563599,0.0116585614159703,0.0864992290735244,0.0,0.0,0.7784316539764404,0.5796031951904297
-0.0222445484250783,0.3003391921520233,0.0622085034847259,-0.5776860117912292,0.0150770405307412,0.0683696419000625,0.0,0.0,0.7718914747238159,0.1108932495117187
-0.0216299053281545,0.2875708639621734,0.058129571378231,-0.5675165057182312,0.018378896638751,0.0660369843244552,0.0,0.0,0.7613811492919922,0.6900893449783325
-0.0209883693605661,0.275761991739273,0.0621776953339576,-0.5248643755912781,0.0203280169516801,0.0389824882149696,0.0,0.0,0.3314906358718872,-0.3290648460388183
-0.0202980991452932,0.2646247446537018,0.0666988641023635,-0.4950237870216369,0.0226196013391017,0.0458317138254642,0.0,0.0,-0.2649851441383362,-0.5111120939254761
-0.0196582786738872,0.2531746625900268,0.0603925585746765,-0.5089501142501831,0.0261619426310062,0.0708470419049263,0.0,0.0,-0.0619567036628723,-0.2925717830657959
-0.019020652398467,0.2414083331823349,0.0601299032568931,-0.523014485836029,0.0297503694891929,0.0717685371637344,0.0,0.0,0.6421449184417725,0.1606996059417724
-0.0183682441711425,0.2305056899785995,0.0613744966685771,-0.4846450388431549,0.0335706584155559,0.0764058753848075,0.0,0.0,-0.2073992490768432,-0.1499830484390258
-0.0177174564450979,0.2192868292331695,0.0611598417162895,-0.4987096190452575,0.0374370664358139,0.0773279890418052,0.0,0.0,0.6443276405334473,0.6460696458816528
-0.017101477831602,0.2087652087211609,0.0590773299336433,-0.4676949381828308,0.0399278439581394,0.0498159788548946,0.0,0.0,0.4719613790512085,0.0994513034820556
-0.0165220256894826,0.1988602727651596,0.0554292574524879,-0.4402848780155182,0.0424134992063045,0.0497129783034324,0.0,0.0,0.7177300453186035,-0.614692747592926
-0.0159197803586721,0.1895489990711212,0.0561762861907482,-0.4139565229415893,0.04640669003129,0.0798639580607414,0.0,0.0,0.523656964302063,-0.5840058326721191
-0.0153548242524266,0.1803872883319854,0.0511831454932689,-0.4073615968227386,0.0516583397984504,0.1050328463315963,0.0,0.0,0.221994400024414,-0.5145952105522156
-0.0147706987336277,0.1713546067476272,0.0518582873046398,-0.4016904532909393,0.0581316910684108,0.1294670701026916,0.0,0.0,0.2692697048187256,0.5520932674407959
-0.0140443798154592,0.1626774817705154,0.0669143497943878,-0.3858842849731445,0.0637947171926498,0.1132605522871017,0.0,0.0,0.6174688339233398,-0.4025795459747314
-0.0132050514221191,0.1542754471302032,0.0775299966335296,-0.3737086653709411,0.0701193809509277,0.126493215560913,0.0,0.0,0.5042812824249268,-0.0292930006980896
-0.0124171255156397,0.1465805172920227,0.0724039748311042,-0.3423081636428833,0.0764462128281593,0.1265366375446319,0.0,0.0,0.2775120735168457,-0.307860791683197
-0.0116477012634277,0.1394497752189636,0.0704195946455001,-0.3172696232795715,0.0829049423336982,0.1291748136281967,0.0,0.0,-0.190100610256195,0.2522507905960083
-0.0108753200620412,0.1320031732320785,0.0707073286175727,-0.3313364088535309,0.0893795639276504,0.129492700099945,0.0,0.0,0.016713261604309,0.3788787126541137
-0.0100553510710597,0.1245492100715637,0.0751664564013481,-0.3317121267318725,0.0961513891816139,0.1354366242885589,0.0,0.0,-0.1344928741455078,-0.7892008423805237
-0.0092983245849609,0.1167675107717514,0.0671344846487045,-0.3464243710041046,0.1046381890773773,0.1697360575199127,0.0,0.0,0.2905206680297851,-0.4099531173706054
-0.0085410121828317,0.1096861958503723,0.0668780580163002,-0.315371036529541,0.113427810370922,0.1757925152778625,0.0,0.0,0.1704369783401489,-0.0328044891357421
-0.0078397747129201,0.1028874740004539,0.0613466016948223,-0.3028521835803985,0.1221307143568992,0.1740583479404449,0.0,0.0,0.0534238815307617,0.009228229522705
-0.0072728157974779,0.0965139716863632,0.0483421273529529,-0.2839723527431488,0.1304485946893692,0.1663578301668167,0.0,0.0,-0.2170691490173339,-0.0085886716842651
-0.0066985129378736,0.0898249000310897,0.0491086989641189,-0.2980410456657409,0.1387402564287185,0.1658329218626022,0.0,0.0,0.3092025518417358,0.3362594842910766
-0.0062403678894042,0.0836947262287139,0.037739984691143,-0.27322718501091,0.1468007862567901,0.1612103581428527,0.0,0.0,0.0867372751235961,0.4024636745452881
-0.0058990479446947,0.0779677480459213,0.0263541638851165,-0.2553180456161499,0.1545655578374862,0.1552951633930206,0.0,0.0,-0.2420189380645752,0.943366289138794
-0.005476951599121,0.0719382837414741,0.0363032855093479,-0.2686017751693725,0.1604686975479126,0.1180631667375564,0.0,0.0,0.3377362489700317,0.8949110507965088
-0.0051589966751635,0.0663055777549743,0.0278385616838932,-0.2507764995098114,0.1644262969493866,0.0791518613696098,0.0,0.0,0.4920514822006225,0.6234464645385742
-0.0050043105147778,0.0610306374728679,0.0131517145782709,-0.2346997708082199,0.1667456030845642,0.0463861934840679,0.0,0.0,0.5417592525482178,0.9791936874389648
-0.0047618867829442,0.0564841143786907,0.0238621886819601,-0.2021133005619049,0.1671276688575744,0.0076412195339798,0.0,0.0,0.2800958156585693,0.72015380859375
-0.0044441223144531,0.052065048366785,0.0328497551381588,-0.1962808966636657,0.1660480201244354,-0.0215929560363292,0.0,0.0,-0.1645267009735107,0.6590313911437988
-0.0040489197708666,0.0473504401743412,0.0423400439321994,-0.2092232257127761,0.1632200330495834,-0.0565595254302024,0.0,0.0,0.6042726039886475,0.6350035667419434
-0.0037360191345214,0.0434462167322635,0.0355767756700515,-0.1730571389198303,0.1589438170194625,-0.0855246409773826,0.0,0.0,0.1677139997482299,0.7634835243225098
-0.0033301352523267,0.040170632302761,0.0464211627840995,-0.1449708044528961,0.1531072854995727,-0.1167303547263145,0.0,0.0,-0.237514853477478,0.514439582824707
-0.002862072084099,0.0365894176065921,0.0539555549621582,-0.1584477126598358,0.1459672600030899,-0.1428005248308181,0.0,0.0,-0.3011649847030639,-0.4564670324325561
-0.00237617501989,0.0326921306550502,0.0559053495526313,-0.1725132316350937,0.1386707425117492,-0.1459303498268127,0.0,0.0,-0.0012462139129638,-0.1885768771171569
-0.0018715858459472,0.0284787751734256,0.0579587407410144,-0.1865789145231247,0.1312047839164734,-0.1493195593357086,0.0,0.0,0.3794406652450561,-0.597409725189209
-0.0013709068298339,0.0245208367705345,0.0563969910144805,-0.1753637492656707,0.124902419745922,-0.1260473430156707,0.0,0.0,0.1796407699584961,-0.7273926734924316
-0.0010601043468341,0.0208756774663925,0.0362656079232692,-0.1615837216377258,0.1197467967867851,-0.1031122803688049,0.0,0.0,0.2476183176040649,-0.1890350580215454
-0.0008704185602255,0.0174757093191146,0.0248110890388488,-0.1506533473730087,0.1139332056045532,-0.1162716895341873,0.0,0.0,0.522118091583252,-0.057290494441986
-0.000737190246582,0.0145300719887018,0.0194918792694807,-0.1304607838392257,0.1078046262264251,-0.1225717216730117,0.0,0.0,0.2248529195785522,0.1244899034500122
-0.0006041526794433,0.0118610234931111,0.0196248013526201,-0.1181806474924087,0.1015280857682228,-0.1255308091640472,0.0,0.0,0.155203104019165,-0.3956756591796875
-0.0004403114435262,0.0097349258139729,0.0344346947968006,-0.0933683887124061,0.0836354941129684,-0.3578518629074096,0.0,1.0,0.5668237209320068,-0.1035472154617309
-0.0002387046843068,0.0082774134352803,0.0378029868006706,-0.0638874545693397,0.0661708563566207,-0.3492927551269531,0.0,1.0,0.0211939811706542,0.0436208248138427
-5.474090721691027e-05,0.007255277596414,0.0359839014708995,-0.0447446331381797,0.048778261989355,-0.3478522002696991,0.0,0.0,-0.5867186784744263,0.201646089553833
0.0001539230288472,0.0059205745346844,0.0387444719672203,-0.0588320642709732,0.0311211477965116,-0.3531422615051269,0.0,0.0,-0.2152661681175232,-0.4749617576599121
