x_pos,y_pos,x_vel,y_vel,angle,ang_vel,leg_1,leg_2,main_booster,lat_booster
-0.0015253067249432,1.4033708572387695,-0.1545185148715973,-0.3355279266834259,0.0017823170637711,0.035159271210432,0.0,0.0,-0.4531976580619812,0.8551336526870728
-0.0029806136153638,1.3955868482589722,-0.1454485654830932,-0.3459519147872925,0.0016923551447689,-0.0017986655002459,0.0,0.0,-0.0703436136245727,0.4003757238388061
-0.0044403076171875,1.3875486850738523,-0.1458788812160492,-0.357252687215805,0.001611373736523,-0.0016197774093598,0.0,0.0,0.2498815059661865,0.836045503616333
-0.0059434892609715,1.3798208236694336,-0.148467943072319,-0.3434579074382782,-0.000221173686441,-0.0366545133292675,0.0,0.0,-0.2812598347663879,0.4578498601913452
-0.0074538229964673,1.371839165687561,-0.1491799056529998,-0.3547399938106537,-0.0020440346561372,-0.0364609062671661,0.0,0.0,0.1653451919555664,0.299222469329834
-0.0088750841096043,1.36417818069458,-0.140751376748085,-0.3404887020587921,-0.0033961636945605,-0.0270450972020626,0.0,0.0,-0.1964210867881775,0.4541206359863281
-0.0103064533323049,1.356263518333435,-0.1417724341154098,-0.3517711460590362,-0.0047405720688402,-0.0268906615674495,0.0,0.0,0.4199584722518921,0.5879209041595459
-0.0115607259795069,1.348929524421692,-0.1232200413942337,-0.3259624242782593,-0.0069174841046333,-0.0435426533222198,0.0,0.0,-0.3160570859909057,0.5557057857513428
-0.0127853397279977,1.3413474559783936,-0.1191803961992263,-0.3370036482810974,-0.0101653737947344,-0.0649637728929519,0.0,0.0,-0.1888108849525451,0.6961336135864258
-0.0139700891450047,1.3335154056549072,-0.1138154491782188,-0.3481322824954986,-0.0147830517962574,-0.0923619121313095,0.0,0.0,-0.5917439460754395,0.3201367855072021
-0.0151716228574514,1.3254297971725464,-0.1154904812574386,-0.3594113886356354,-0.0193937513977289,-0.0922223776578903,0.0,0.0,-0.1348167657852172,0.3842122554779053
-0.0163915641605854,1.317090630531311,-0.1173402070999145,-0.3706905543804168,-0.0239987894892692,-0.0921092629432678,0.0,0.0,-0.421675443649292,-0.0009597539901733
-0.0176317207515239,1.3084981441497805,-0.1193665713071823,-0.3819699287414551,-0.0285986214876174,-0.0920047163963317,0.0,0.0,-0.2096417546272277,0.3914591073989868
-0.018893813714385,1.299652099609375,-0.1215717568993568,-0.3932493925094604,-0.033194001764059,-0.0919158607721328,0.0,0.0,-0.6555774211883545,0.1543934345245361
-0.0201798435300588,1.290552854537964,-0.12395741045475,-0.404528945684433,-0.0377857871353626,-0.0918441489338874,0.0,0.0,-0.4531047344207763,0.8159933090209961
-0.0214156154543161,1.2811861038208008,-0.1170083135366439,-0.4164747297763824,-0.0442901849746704,-0.1300994604825973,0.0,0.0,-0.327816367149353,0.491814374923706
-0.0226788520812988,1.271566390991211,-0.1197523027658462,-0.4277561902999878,-0.0507917627692222,-0.1300437301397323,0.0,0.0,-0.4437941312789917,-0.6485488414764404
-0.0240106582641601,1.261690616607666,-0.1275984942913055,-0.439116507768631,-0.0563100576400756,-0.1103760376572609,0.0,0.0,0.2030209302902221,0.6604913473129272
-0.0252092368900775,1.252432346343994,-0.1130826696753501,-0.4117520749568939,-0.0630208328366279,-0.1342277824878692,0.0,0.0,-0.9387947916984558,-0.3960363268852234
-0.0264408104121685,1.2429206371307373,-0.1163763180375099,-0.4230411946773529,-0.0697323381900787,-0.1342423856258392,0.0,0.0,-0.7162513732910156,-0.1930049657821655
-0.0277070049196481,1.2331558465957642,-0.1198517680168151,-0.4343207776546478,-0.0764465704560279,-0.1342966705560684,0.0,0.0,-0.5640102028846741,0.5077048540115356
-0.0289691928774118,1.2231303453445437,-0.1184049025177955,-0.4459919333457947,-0.0841953754425048,-0.1549898833036422,0.0,0.0,-0.7368112206459045,0.2466901540756225
-0.0302698127925395,1.212851881980896,-0.12223831564188,-0.4572759568691253,-0.0919487401843071,-0.1550812423229217,0.0,0.0,-0.7671812772750854,0.3443633317947387
-0.0316103920340538,1.2023204565048218,-0.1262504160404205,-0.4685602784156799,-0.0997087359428405,-0.1552136391401291,0.0,0.0,-0.5713502764701843,0.4715158939361572
-0.0329929366707801,1.1915360689163208,-0.1304381787776947,-0.4798447489738464,-0.1074765622615814,-0.1553703248500824,0.0,0.0,-0.5059006214141846,0.6435809135437012
-0.0343822464346885,1.1804746389389038,-0.1301111876964569,-0.4922731816768646,-0.1162260770797729,-0.1749899983406067,0.0,0.0,0.0212622880935668,0.3343734741210937
-0.0357625968754291,1.1698293685913086,-0.1292316764593124,-0.473838061094284,-0.1249770075082779,-0.1750188469886779,0.0,0.0,-0.7994940876960754,-0.1830295920372009
-0.0371902473270893,1.1589312553405762,-0.1339514702558517,-0.4851204454898834,-0.1337422281503677,-0.1753046065568924,0.0,0.0,-0.3186213970184326,-0.7181843519210815
-0.0387346260249614,1.1478002071380615,-0.1473821550607681,-0.4953702390193939,-0.1407752335071563,-0.1406599730253219,0.0,0.0,-0.343336820602417,0.1293331384658813
-0.0403295531868934,1.136415958404541,-0.1524246782064438,-0.5066503286361694,-0.1478266716003418,-0.1410285979509353,0.0,0.0,0.8137238025665283,-0.0399565696716308
-0.0418193824589252,1.1261531114578247,-0.1419938504695892,-0.4568362832069397,-0.1548036634922027,-0.1395399719476699,0.0,0.0,-0.203096866607666,0.909473180770874
-0.0433016791939735,1.1156178712844849,-0.1396259665489196,-0.4691579639911651,-0.1633911430835724,-0.1717495769262313,0.0,0.0,-0.2981441020965576,0.4146250486373901
-0.0448389053344726,1.1048296689987185,-0.1451223939657211,-0.4804401993751526,-0.1720035523176193,-0.1722483783960342,0.0,0.0,-0.2193247675895691,-0.0375478267669677
-0.0464326851069927,1.093788981437683,-0.1507606655359268,-0.4917225539684295,-0.1806432008743286,-0.172792911529541,0.0,0.0,-0.2451432943344116,-0.2700763940811157
-0.0480844490230083,1.0824956893920898,-0.1565356850624084,-0.5030049681663513,-0.1893123835325241,-0.1733836978673935,0.0,0.0,0.4105751514434814,0.0886983871459961
-0.049658678472042,1.0718965530395508,-0.1488347202539444,-0.4721920788288116,-0.1979416459798813,-0.1725856810808181,0.0,0.0,-0.0690943002700805,-0.2714173793792724
-0.0512934699654579,1.0610448122024536,-0.1548672616481781,-0.4834746122360229,-0.2066051661968231,-0.1732706874608993,0.0,0.0,-0.4910848140716553,-0.4259695410728454
-0.0529898628592491,1.0499403476715088,-0.1610201895236969,-0.494757205247879,-0.2153053432703018,-0.174003466963768,0.0,0.0,0.581791877746582,0.0231989622116088
-0.0546136870980262,1.039777755737305,-0.1535579264163971,-0.4529889225959778,-0.2242188453674316,-0.178270548582077,0.0,0.0,0.1218422651290893,0.4457106590270996
-0.0561910644173622,1.0299595594406128,-0.1489720642566681,-0.4377148449420929,-0.2330850660800933,-0.1773247271776199,0.0,0.0,-0.9270277619361876,0.28057861328125
-0.0578333847224712,1.019888997077942,-0.1554507315158844,-0.4489979445934295,-0.241995170712471,-0.1782024800777435,0.0,0.0,-0.5736829042434692,-0.4760401248931885
-0.0595417022705078,1.009565830230713,-0.1620256155729293,-0.4602811932563782,-0.2509515881538391,-0.1791287213563919,0.0,0.0,-0.0001560449600219,-0.0529969334602355
-0.061316967010498,0.99899023771286,-0.1686903536319732,-0.4715645611286163,-0.2599567472934723,-0.1801034212112426,0.0,0.0,-0.0933907628059387,0.248944878578186
-0.0631599426269531,0.9881621599197388,-0.1754384189844131,-0.482848048210144,-0.2690130770206451,-0.1811265647411346,0.0,0.0,0.1384099721908569,-0.5633951425552368
-0.0650915130972862,0.9773985743522644,-0.1853199601173401,-0.4798451066017151,-0.277040421962738,-0.1605477035045623,0.0,0.0,0.327411413192749,-0.3683012127876282
-0.0669833198189735,0.9667543768882751,-0.181486040353775,-0.4745532274246216,-0.2849530875682831,-0.1582525074481964,0.0,0.0,-0.1980379819869995,-0.1411863565444946
-0.0689452141523361,0.955857753753662,-0.1884430646896362,-0.485835462808609,-0.292924016714096,-0.159419372677803,0.0,0.0,-0.6370636224746704,-0.4428284764289856
-0.0709775909781456,0.9447082281112672,-0.1954561322927475,-0.4971178472042084,-0.3009556829929352,-0.1606332212686538,0.0,0.0,-0.5729112029075623,-0.5532007217407227
-0.0731307044625282,0.9333343505859376,-0.2088277041912078,-0.5068676471710205,-0.3076717853546142,-0.1343220174312591,0.0,0.0,0.6120975017547607,-0.3717740178108215
-0.0752247795462608,0.9224264025688172,-0.2027748376131057,-0.4862181842327118,-0.3145487308502197,-0.1375390291213989,0.0,0.0,0.5895558595657349,0.0252264738082885
-0.0770895034074783,0.9119852781295776,-0.180403396487236,-0.465382307767868,-0.320854902267456,-0.1261234879493713,0.0,0.0,0.2264738082885742,-0.1710885167121887
-0.078894518315792,0.9020898342132568,-0.1741844862699508,-0.4412080943584442,-0.3274286091327667,-0.1314747780561447,0.0,0.0,-0.4605408906936645,-0.2360775470733642
-0.0807719230651855,0.8919417858123779,-0.1813684701919555,-0.452489286661148,-0.3340743780136108,-0.1329152882099151,0.0,0.0,-0.681139349937439,-0.7337936758995056
-0.0827744454145431,0.8815751671791077,-0.1952687203884124,-0.4619008302688598,-0.3392941355705261,-0.10439433157444,0.0,0.0,-0.7468859553337097,-0.4427458047866821
-0.0848496407270431,0.8709554672241211,-0.2024679481983184,-0.4731809198856354,-0.3445901870727539,-0.1059211492538452,0.0,0.0,-0.0584346652030944,-0.5099260807037354
-0.0870417580008506,0.8601043224334717,-0.2152401208877563,-0.4832340478897095,-0.3487569391727447,-0.0833353549242019,0.0,0.0,0.2143937349319458,-0.4402240514755249
-0.0890412330627441,0.8497903347015381,-0.1962116658687591,-0.4593108296394348,-0.3526845574378967,-0.0785524398088455,0.0,0.0,0.0361393690109252,-0.835763692855835
-0.0909324660897255,0.8398030996322632,-0.1869510412216186,-0.4444115459918976,-0.3549689054489136,-0.0456869974732399,0.0,0.0,-0.0789363980293273,-0.5896503329277039
-0.0929323211312294,0.8295893669128418,-0.198757603764534,-0.4542477428913116,-0.3562707304954529,-0.0260366555303335,0.0,0.0,-0.1650556325912475,-0.8448892831802368
-0.095072366297245,0.8191683888435364,-0.2145479470491409,-0.4630197286605835,-0.355696827173233,0.0114782927557826,0.0,0.0,0.5414862632751465,-0.4949787259101867
-0.0971186608076095,0.8089549541473389,-0.2052983790636062,-0.4537631273269653,-0.3549902141094208,0.0141320098191499,0.0,0.0,0.5580829381942749,-0.4738998413085937
-0.0990944877266883,0.7994679808616638,-0.1977524310350418,-0.421603262424469,-0.3548111617565155,0.0035808838438242,0.0,0.0,-0.3062974214553833,-0.6874024868011475
-0.101181223988533,0.78974848985672,-0.2098175585269928,-0.4316966235637665,-0.3536048531532287,0.0241259150207042,0.0,0.0,0.0962626934051513,-0.4851047396659851
-0.1031819358468055,0.7803398966789246,-0.2011950761079788,-0.4178828597068786,-0.3524199724197387,0.0236976724117994,0.0,0.0,0.2175686359405517,-0.7270563244819641
-0.1051981002092361,0.771115243434906,-0.2040764093399047,-0.4093880951404571,-0.3498382866382599,0.0516334399580955,0.0,0.0,0.1184582710266113,-0.6224271059036255
-0.1072790175676345,0.7622748017311096,-0.2115498036146164,-0.3920656442642212,-0.3462026417255401,0.0727135315537452,0.0,0.0,-0.325615644454956,-0.5327355265617371
-0.1094632148742675,0.7532079219818115,-0.2227982580661773,-0.4019306004047394,-0.3416060507297516,0.0919316932559013,0.0,0.0,-0.418731689453125,0.1425439119338989
-0.1117129325866699,0.7438880205154419,-0.229273110628128,-0.4132108688354492,-0.3371101021766662,0.0899188816547393,0.0,0.0,0.1934139728546142,0.4644416570663452
-0.1138047203421592,0.7351781725883484,-0.2134713381528854,-0.3861056268215179,-0.3326261639595032,0.0896784663200378,0.0,0.0,0.810232400894165,-0.4057888984680176
-0.115887738764286,0.7270012497901917,-0.2120444476604461,-0.3625651001930237,-0.3287232518196106,0.0780584961175918,0.0,0.0,-0.3280008435249328,-0.2787252068519592
-0.1180325523018837,0.718571126461029,-0.2181217670440673,-0.3738450407981872,-0.3249260485172272,0.0759440883994102,0.0,0.0,0.4198158979415893,0.3126723766326904
-0.1200417503714561,0.7106356024742126,-0.2045812606811523,-0.3518713712692261,-0.3211139738559723,0.0762412548065185,0.0,0.0,-0.1239362359046936,0.386282205581665
-0.1221096068620681,0.7024469375610352,-0.2103392630815506,-0.3631512522697449,-0.3174110352993011,0.0740585178136825,0.0,0.0,0.2160708904266357,0.4923092126846313
-0.1240501403808593,0.6945858597755432,-0.1977554857730865,-0.3485825657844543,-0.3135688006877899,0.076844610273838,0.0,0.0,-0.0421594977378845,0.6444964408874512
-0.126001164317131,0.6864445209503174,-0.1975011229515075,-0.3613185286521911,-0.3110848367214203,0.0496791079640388,0.0,0.0,-0.2898021340370178,-0.1519194841384887
-0.1280052214860916,0.67805016040802,-0.2026940286159515,-0.3725977838039398,-0.3087152242660522,0.047392226755619,0.0,0.0,-0.8396573662757874,0.2457185983657837
-0.1300601959228515,0.6694024205207825,-0.2076749354600906,-0.3838769793510437,-0.306461751461029,0.0450698621571064,0.0,0.0,0.5802626609802246,0.3569607734680176
-0.1319425553083419,0.6615902781486511,-0.1902680844068527,-0.3467808067798614,-0.3043632507324219,0.0419700630009174,0.0,0.0,-0.8137761950492859,-0.1242930889129638
-0.1338712722063064,0.6535248756408691,-0.1947886645793914,-0.3580599427223205,-0.3023844361305237,0.039575807750225,0.0,0.0,-0.6977251172065735,0.3520559072494507
-0.1358439475297927,0.6452064514160156,-0.1990605890750885,-0.369339108467102,-0.3005271852016449,0.0371451005339622,0.0,0.0,0.2857648134231567,0.1203876733779907
-0.1378777474164962,0.6370488405227661,-0.2046074420213699,-0.3623096048831939,-0.2992590963840484,0.0253616981208324,0.0,0.0,-0.664829432964325,0.9144554138183594
-0.1398750245571136,0.62861168384552,-0.1989218890666961,-0.3751470446586609,-0.3000928461551666,-0.0166752841323614,0.0,0.0,-0.7985026240348816,0.0323374271392822
-0.1419080793857574,0.6199213266372681,-0.2023734748363495,-0.3864260613918304,-0.3010537326335907,-0.0192178208380937,0.0,0.0,-0.3665304183959961,0.8555827140808105
-0.1439146101474762,0.6109541654586792,-0.1980769038200378,-0.3990799188613891,-0.303722470998764,-0.0533749647438526,0.0,0.0,-0.988593816757202,0.8210544586181641
-0.145889475941658,0.6017094254493713,-0.1932076513767242,-0.4117760360240936,-0.3081560730934143,-0.0886712297797203,0.0,0.0,0.5526447296142578,-0.5328950881958008
-0.1476810425519943,0.5929723978042603,-0.1760141402482986,-0.3889828622341156,-0.3114150762557983,-0.0651803165674209,0.0,0.0,-0.6852018237113953,0.0510036945343017
-0.1494957953691482,0.5839823484420776,-0.1782020032405853,-0.4002630114555359,-0.3148088455200195,-0.0678761154413223,0.0,0.0,0.6981699466705322,-0.3085052967071533
-0.1511114090681076,0.5752853751182556,-0.158587098121643,-0.3871846497058868,-0.3178983032703399,-0.0617891438305377,0.0,0.0,-0.2464985847473144,-0.352977991104126
-0.1527431458234787,0.5663352608680725,-0.1600737869739532,-0.3984648585319519,-0.3211264014244079,-0.0645614340901374,0.0,0.0,0.7055413722991943,-0.283945083618164
-0.1541224420070648,0.5576435923576355,-0.1353265941143036,-0.3868766129016876,-0.3238292932510376,-0.0540580376982688,0.0,0.0,0.7371535301208496,-0.8396635055541992
-0.155326560139656,0.5498625040054321,-0.1193258911371231,-0.3460682034492492,-0.3249650299549103,-0.022714577615261,0.0,0.0,0.946170210838318,-0.9051752090454102
-0.1562783271074295,0.5431199669837952,-0.095799796283245,-0.2995303571224212,-0.3243154287338257,0.0129921380430459,0.0,0.0,0.6730613708496094,-0.895804762840271
-0.1569485664367675,0.5370544195175171,-0.0694624334573745,-0.2690359354019165,-0.3217739462852478,0.0508293695747852,0.0,0.0,0.659342885017395,-0.7224876284599304
-0.1574625074863433,0.5311696529388428,-0.0553251877427101,-0.2606771290302276,-0.3176922798156738,0.0816332846879959,0.0,0.0,0.4200248718261719,-0.8561589121818542
-0.1579456329345703,0.5257089734077454,-0.0537321679294109,-0.2415200322866439,-0.3120729029178619,0.1123877391219139,0.0,0.0,-0.9100301265716552,-0.6580616235733032
-0.1584583222866058,0.5200237035751343,-0.0576610155403614,-0.2513191998004913,-0.3054437339305877,0.132583662867546,0.0,0.0,-0.983482837677002,0.3403898477554321
-0.1589554846286773,0.5140858292579651,-0.0559836439788341,-0.2626023888587951,-0.2989673614501953,0.1295276582241058,0.0,0.0,0.4676942825317383,-0.9587340354919434
-0.1594157218933105,0.5090059638023376,-0.0539482347667217,-0.2241646647453308,-0.2907946109771728,0.163454920053482,0.0,0.0,-0.8284715414047241,-0.6358223557472229
-0.1598925590515136,0.5036954879760742,-0.056539349257946,-0.2342801541090011,-0.2816693782806396,0.1825041472911834,0.0,0.0,-0.973814070224762,-0.5885330438613892
-0.1603886634111404,0.498158186674118,-0.05962535738945,-0.2442046254873275,-0.2713968753814697,0.2054498642683029,0.0,0.0,-0.988201141357422,-0.4058713912963867
-0.1608523428440094,0.4923690557479858,-0.0562478080391883,-0.2554925382137298,-0.2612828612327575,0.2022802382707595,0.0,0.0,-0.4255979061126709,0.2514787912368774
-0.1612792015075683,0.4863280653953552,-0.0524437054991722,-0.2667800486087799,-0.2513284683227539,0.1990878283977508,0.0,0.0,-0.8631137609481812,0.6908698081970215
-0.1616226136684417,0.4800193011760711,-0.0428439900279045,-0.2789548337459564,-0.2426599413156509,0.1733706146478653,0.0,0.0,-0.9813809394836426,0.5381274223327637
-0.1618901193141937,0.4734455347061157,-0.034320380538702,-0.2909346520900726,-0.2349688410758972,0.1538217663764953,0.0,0.0,-0.93467915058136,-0.0162843465805053
-0.1621084213256836,0.4666194021701813,-0.0292525980621576,-0.302218496799469,-0.2274398356676101,0.1505803167819976,0.0,0.0,-0.9275967478752136,0.0887478590011596
-0.1622734069824218,0.4595408141613006,-0.0237733833491802,-0.3135020136833191,-0.2200733423233032,0.1473295390605926,0.0,0.0,-0.9945772290229796,0.499836802482605
-0.1623809784650802,0.4522095918655395,-0.0178891997784376,-0.3247852325439453,-0.2128696590662002,0.1440735757350921,0.0,0.0,-0.9893536567687988,0.5728844404220581
-0.1623841226100921,0.4446165561676025,-0.0061900983564555,-0.33663210272789,-0.2069341838359832,0.1187097057700157,0.0,0.0,-0.9303804636001588,0.360763669013977
-0.1623220443725586,0.4367707967758178,0.0004811777325812,-0.3479136526584625,-0.2011613249778747,0.1154571920633316,0.0,0.0,-0.977138340473175,-0.0426951646804809
-0.1621910035610199,0.4286720752716064,0.0075324485078454,-0.3591949045658111,-0.1955506205558776,0.1122136861085891,0.0,0.0,-0.8704870939254761,0.7991489171981812
-0.161925122141838,0.4203101098537445,0.0227498542517423,-0.3711428344249725,-0.1916817426681518,0.0773776322603225,0.0,0.0,-0.6514632105827332,-0.7145934700965881
-0.1616318672895431,0.4117157459259033,0.0243453327566385,-0.381337434053421,-0.1866789758205413,0.1000550985336303,0.0,0.0,-0.9924703240394592,0.5930848121643066
-0.1612070053815841,0.4028505682945251,0.039001028984785,-0.3935732841491699,-0.18318672478199,0.0698449313640594,0.0,0.0,-0.9908367991447448,0.0821232795715332
-0.1606991738080978,0.3937321901321411,0.0474674850702285,-0.4048525094985962,-0.1798520386219024,0.0666937455534935,0.0,0.0,-0.9862579703330994,0.720874547958374
-0.1600609719753265,0.3843467533588409,0.061779074370861,-0.4168862700462341,-0.1778117269277572,0.0408061519265174,0.0,0.0,-0.9852460026741028,-0.2373985052108764
-0.1593333184719085,0.3747080564498901,0.0708831474184989,-0.4281646907329559,-0.1759248375892639,0.0377377793192863,0.0,0.0,-0.8310951590538025,-0.1632872223854065
-0.158513069152832,0.3648159205913543,0.0802874118089675,-0.4394430220127105,-0.174188807606697,0.0347205847501754,0.0,0.0,-0.67387455701828,-0.1214399933815002
-0.1575974524021148,0.3546705245971679,0.089979350566864,-0.4507212340831756,-0.1726007461547851,0.0317611098289489,0.0,0.0,-0.2556328773498535,-0.0604637265205383
-0.1565835922956466,0.3442718386650085,0.0999463722109794,-0.4619993567466736,-0.1711574494838714,0.0288659669458866,0.0,0.0,0.1649136543273925,-0.5982000827789307
-0.1553985625505447,0.3344731330871582,0.1159790977835655,-0.435207724571228,-0.1686214059591293,0.050720851868391,0.0,0.0,-0.8225114345550537,-0.5393809676170349
