x_pos,y_pos,x_vel,y_vel,angle,ang_vel,leg_1,leg_2,main_booster,lat_booster
-0.0015119552845135,1.4029128551483154,-0.1532768160104751,-0.3558807969093323,0.0018584318459033,0.0366666316986084,0.0,0.0,-0.3129481673240661,0.7789523601531982
-0.0029475211631506,1.3942134380340576,-0.1438004821538925,-0.3866420388221741,0.0020960890688002,0.0047539277002215,0.0,0.0,0.2939553260803222,0.90240478515625
-0.0041840551421046,1.385270357131958,-0.1223025172948837,-0.3974641263484955,0.0007603072444908,-0.0267179496586322,0.0,0.0,-0.1685548424720764,0.5428348779678345
-0.0053794858977198,1.3756139278411863,-0.1174304857850074,-0.4291784167289734,-0.001329219317995,-0.0417944118380546,0.0,0.0,0.2630733251571655,0.3514304161071777
-0.0064705847762525,1.3659933805465698,-0.1075853109359741,-0.4275795221328735,-0.0028341787401586,-0.0301021300256252,0.0,0.0,-0.409716248512268,0.8323990106582642
-0.0074779512360692,1.3556597232818604,-0.0972956866025924,-0.4592885375022888,-0.0062450999394059,-0.0682247728109359,0.0,0.0,0.0616350173950195,0.4516594409942627
-0.0084960935637354,1.3451712131500244,-0.0984216555953025,-0.4661726653575897,-0.0096036037430167,-0.0671757906675338,0.0,0.0,0.7443963289260864,0.0972214937210083
-0.0093504907563328,1.3349932432174685,-0.0829185843467712,-0.4523666501045227,-0.0120863057672977,-0.0496585071086883,0.0,0.0,-0.5984155535697937,-0.3416112661361694
-0.0102072712033987,1.3241037130355835,-0.0832898393273353,-0.4840038120746612,-0.0144417118281126,-0.0471125021576881,0.0,0.0,-0.6552094221115112,-0.6396109461784363
-0.0111187938600778,1.3125076293945312,-0.090185172855854,-0.5153923630714417,-0.0153964702039957,-0.0190971978008747,0.0,0.0,0.1569979190826416,0.2988007068634033
-0.0119699481874704,1.3008227348327637,-0.0845732614398002,-0.5193312764167786,-0.0159310810267925,-0.010692985728383,0.0,0.0,-0.2301769256591797,-0.7225302457809448
-0.0128798484802246,1.2884259223937988,-0.0918634310364723,-0.5509660840034485,-0.0150638651102781,0.0173456165939569,0.0,0.0,-0.4703279733657837,-0.1394951343536377
-0.0138002391904592,1.2753173112869265,-0.093055322766304,-0.5825938582420349,-0.0140566248446702,0.0201466400176286,0.0,0.0,-0.4255580902099609,-0.6261696219444275
-0.0147768976166844,1.261492133140564,-0.0999441295862197,-0.614432156085968,-0.0118064368143677,0.0450076982378959,0.0,0.0,-0.4705487489700317,-0.4195232391357422
-0.0157682411372661,1.2469552755355835,-0.1015522330999374,-0.6460628509521484,-0.0094106309115886,0.04792046174407,0.0,0.0,0.0218286514282226,-0.5330475568771362
-0.0167410857975482,1.2319759130477903,-0.1010559424757957,-0.6657288074493408,-0.0056817950680851,0.0745836198329925,0.0,0.0,-0.0872066020965576,-0.0190303325653076
-0.0177326202392578,1.2162851095199585,-0.1030789837241172,-0.6973627805709839,-0.0018022577278316,0.077597826719284,0.0,0.0,0.45022714138031,0.2251855134963989
-0.0186193473637104,1.20037579536438,-0.0933334305882453,-0.7070815563201904,0.0028176854830235,0.0924068391323089,0.0,0.0,-0.3003051280975342,0.8011329174041748
-0.0194552429020404,1.1837626695632937,-0.0865468755364418,-0.738364577293396,0.0057463943958282,0.0585796050727367,0.0,0.0,0.6643047332763672,-0.0283015370368957
-0.0204001422971487,1.167292833328247,-0.0972372069954872,-0.7320144176483154,0.0084553826600313,0.0541846938431263,0.0,0.0,0.1866912841796875,0.1963893175125122
-0.0212846752256155,1.150922179222107,-0.0917786508798599,-0.7276008725166321,0.0117532406002283,0.0659629255533218,0.0,0.0,0.6837632656097412,0.5973713397979736
-0.0221426002681255,1.134514093399048,-0.0881394073367118,-0.7292691469192505,0.0140598220750689,0.046135876327753,0.0,0.0,0.4555807113647461,-0.0916337966918945
-0.0229233745485544,1.11811625957489,-0.0811107531189918,-0.7288239002227783,0.0170648265630006,0.0601056441664695,0.0,0.0,0.0173500776290893,0.6186952590942383
-0.0236417762935161,1.1012907028198242,-0.0738624632358551,-0.747826874256134,0.0190646909177303,0.0400009714066982,0.0,0.0,0.6014747619628906,-0.2066680192947387
-0.0245434753596782,1.084685206413269,-0.0917284563183784,-0.7380421757698059,0.020597131922841,0.0306519214063882,0.0,0.0,0.7775723934173584,0.2110366821289062
-0.0256528854370117,1.068477749824524,-0.1119308695197105,-0.720342755317688,0.0215767305344343,0.0195919461548328,0.0,0.0,-0.0781753063201904,0.2836525440216064
-0.026799488812685,1.0515588521957395,-0.115824781358242,-0.751971960067749,0.0227305721491575,0.0230768006294965,0.0,0.0,-0.0287421941757202,0.7104864120483398
-0.0279409401118755,1.0339372158050537,-0.1143694669008255,-0.783189594745636,0.0229531973600387,0.0044523016549646,0.0,0.0,-0.1022999882698059,0.5763729810714722
-0.0290870666503906,1.0156097412109375,-0.1141077280044555,-0.8145387172698975,0.0224548019468784,-0.009967996738851,0.0,0.0,0.9943952560424804,0.0805349349975586
-0.030313491821289,0.9974527359008788,-0.1222072467207908,-0.8069747090339661,0.0220178104937076,-0.0087395133450627,0.0,0.0,0.4702615737915039,-0.6113761067390442
-0.0316301360726356,0.9797199964523317,-0.1326759159564972,-0.7881438732147217,0.0230153892189264,0.0199514050036668,0.0,0.0,0.7562592029571533,0.3791501522064209
-0.0330848693847656,0.9619712233543396,-0.1462741792201995,-0.7888451814651489,0.0238117109984159,0.0159263629466295,0.0,0.0,-0.8782783150672913,0.4367251396179199
-0.0345854759216308,0.943510890007019,-0.1510541439056396,-0.8204744458198547,0.0247905068099498,0.019576134160161,0.0,0.0,-0.2840259671211242,0.3657653331756592
-0.0361332893371582,0.92433899641037,-0.155960738658905,-0.8521036505699158,0.0259529035538434,0.0232478156685829,0.0,0.0,0.9078645706176758,0.933229684829712
-0.0376538261771202,0.9055473804473876,-0.1515649259090423,-0.8351799249649048,0.0254803150892257,-0.0094519732519984,0.0,0.0,-0.0185674428939819,0.5663444995880127
-0.0391776077449321,0.8860501050949097,-0.1509223878383636,-0.8665220737457275,0.0240324232727289,-0.0289578083902597,0.0,0.0,0.9216392040252686,0.3212345838546753
-0.0407953262329101,0.8666343092918396,-0.1603526771068573,-0.8629031777381897,0.022629726678133,-0.028053879737854,0.0,0.0,0.9865400791168212,0.6828823089599609
-0.0423822402954101,0.847888171672821,-0.1562136709690094,-0.833121657371521,0.0201814919710159,-0.0489644780755043,0.0,0.0,0.4355065822601318,0.1720969676971435
-0.0440707206726074,0.8295275568962097,-0.1663989722728729,-0.8159971833229065,0.0177630353718996,-0.0483691878616809,0.0,0.0,-0.8203355669975281,0.4196176528930664
-0.0458127968013286,0.8104555606842041,-0.1719433963298797,-0.847626805305481,0.0155332135036587,-0.0445964895188808,0.0,0.0,0.9497115612030028,0.6494040489196777
-0.0477072708308696,0.7920534610748291,-0.185709148645401,-0.8178319931030273,0.0118468571454286,-0.0737270936369896,0.0,0.0,0.674750804901123,0.6443461179733276
-0.0494766235351562,0.773737907409668,-0.1724157333374023,-0.8139966726303101,0.0073850662447512,-0.0892359763383865,0.0,0.0,0.8282380104064941,0.7117390632629395
-0.051131535321474,0.755225658416748,-0.1600037515163421,-0.8227505087852478,0.0019673791248351,-0.1083538979291915,0.0,0.0,0.7183539867401123,0.4611426591873169
-0.0527410507202148,0.7368271350860596,-0.1561314016580581,-0.8177148699760437,-0.0027819394599646,-0.0949865281581878,0.0,0.0,0.8909380435943604,0.3970868587493896
-0.05445346981287,0.7182230353355408,-0.1664029061794281,-0.8268668055534363,-0.0075554181821644,-0.0954695492982864,0.0,0.0,0.9791969060897828,0.8597078323364258
-0.0560926422476768,0.6994979381561279,-0.1576669514179229,-0.8322736024856567,-0.0137232337146997,-0.123356319963932,0.0,0.0,0.9809322357177734,-0.3213615417480469
-0.0577098838984966,0.6808636784553528,-0.156015545129776,-0.8282508254051208,-0.0193611159920692,-0.1127577275037765,0.0,0.0,0.8647055625915527,0.8361513614654541
-0.0594408996403217,0.6629408001899719,-0.165628895163536,-0.7966887950897217,-0.0267460439354181,-0.1476982831954956,0.0,0.0,0.6596295833587646,-0.482161283493042
-0.0613436698913574,0.6454994082450867,-0.1823731958866119,-0.7753329873085022,-0.0345555581152439,-0.1561903357505798,0.0,0.0,-0.6639912128448486,-0.4380441904067993
-0.0633067116141319,0.6273471117019653,-0.1885881125926971,-0.8069663643836975,-0.0421730540692806,-0.1523498892784118,0.0,0.0,0.830222487449646,0.099088430404663
-0.0651449188590049,0.6094217300415039,-0.1770471334457397,-0.7968890070915222,-0.0488634742796421,-0.1338085383176803,0.0,0.0,0.7430588006973267,0.2453105449676513
-0.0670668631792068,0.5919541120529175,-0.1853349506855011,-0.7765781283378601,-0.0556429959833622,-0.1355906277894973,0.0,0.0,0.4721767902374267,0.0975890159606933
-0.0689310058951377,0.5743604302406311,-0.1802033483982086,-0.7821852564811707,-0.0617800578474998,-0.1227412223815918,0.0,0.0,0.9791085720062256,0.1496375799179077
-0.0707941055297851,0.5574856400489807,-0.1803165525197982,-0.750248908996582,-0.0677077546715736,-0.1185540184378624,0.0,0.0,0.8141100406646729,0.8344650268554688
-0.072437860071659,0.540672779083252,-0.1572496592998504,-0.7475789189338684,-0.0747604146599769,-0.1410531848669052,0.0,0.0,0.8900516033172607,0.617072343826294
-0.0741720199584961,0.5239601135253906,-0.1649307906627655,-0.7432340383529663,-0.0831621959805488,-0.1680355966091156,0.0,0.0,0.7861981391906738,-0.2285115122795105
-0.0757960304617881,0.5078117847442627,-0.1545917689800262,-0.7181583642959595,-0.0909029468894004,-0.1548150479793548,0.0,0.0,-0.4955463409423828,0.4272074699401855
-0.0774831771850586,0.4909522533416748,-0.1610950976610183,-0.7497907280921936,-0.0984532460570335,-0.1510059833526611,0.0,0.0,0.962460994720459,0.0007945299148559
-0.0790490135550499,0.4748284816741943,-0.1495885699987411,-0.7170941233634949,-0.1054030805826187,-0.1389970332384109,0.0,0.0,0.7451436519622803,-0.0057070851325988
-0.0806711167097091,0.4592441320419311,-0.1550299376249313,-0.6931596994400024,-0.1125357076525688,-0.1426521986722946,0.0,0.0,0.5646231174468994,0.1217432022094726
-0.082269474864006,0.4434630870819092,-0.1530710607767105,-0.7019050717353821,-0.1192552521824836,-0.134391039609909,0.0,0.0,0.8037612438201904,0.3145782947540283
-0.0839493721723556,0.4281307756900787,-0.1609097421169281,-0.68201744556427,-0.1262931227684021,-0.1407575607299804,0.0,0.0,-0.4626381397247314,0.5471968650817871
-0.085641860961914,0.4120760858058929,-0.1610337197780609,-0.7142592668533325,-0.1344610601663589,-0.1633591949939727,0.0,0.0,0.7942311763763428,-0.5222629308700562
-0.0873230919241905,0.3963031768798828,-0.1612468957901001,-0.7016530632972717,-0.1413211822509765,-0.1372023373842239,0.0,0.0,0.8100647926330566,-0.2958816289901733
-0.0889986008405685,0.3804693520069122,-0.1608897894620895,-0.7043743133544922,-0.1479560583829879,-0.1326977163553238,0.0,0.0,0.8197593688964844,-0.8301927447319031
-0.0908556953072547,0.3649377822875976,-0.1806225627660751,-0.6908050775527954,-0.1530352681875229,-0.1015840992331504,0.0,0.0,0.9547243118286132,0.3532488346099853
-0.092598058283329,0.3501898646354675,-0.1694533824920654,-0.6559659242630005,-0.157813474535942,-0.0955642610788345,0.0,0.0,0.8138396739959717,-0.4551809430122375
-0.0942657440900802,0.3351844549179077,-0.1625949144363403,-0.6673557162284851,-0.1619925051927566,-0.0835804194211959,0.0,0.0,0.927044153213501,-0.342900276184082
-0.0958066955208778,0.3209336102008819,-0.1502456814050674,-0.6337940692901611,-0.1658446490764618,-0.0770429819822311,0.0,0.0,0.9659205675125122,0.0754095315933227
-0.0974301323294639,0.3068319857120514,-0.1581583768129348,-0.6272116303443909,-0.1700351238250732,-0.0838092789053917,0.0,0.0,0.93522047996521,-0.1647322177886963
-0.0990904793143272,0.2932184636592865,-0.1615302711725235,-0.6055695414543152,-0.17454494535923,-0.0901961252093315,0.0,0.0,0.9525554180145264,-0.0498281717300415
-0.100652314722538,0.2799700498580932,-0.1520377099514007,-0.5893093943595886,-0.1787099093198776,-0.083299420773983,0.0,0.0,0.3969849348068237,0.1699758768081665
-0.1022597327828407,0.2670930325984955,-0.1562565118074417,-0.5728580355644226,-0.1832037419080734,-0.0898770540952682,0.0,0.0,0.9137853384017944,0.6424987316131592
-0.1036706939339637,0.2544520199298858,-0.1357503235340118,-0.5624921917915344,-0.1885768473148346,-0.1074616909027099,0.0,0.0,0.8809523582458496,0.2195223569869995
-0.1051011085510253,0.2417661696672439,-0.137695774435997,-0.5645061135292053,-0.1939562112092971,-0.1075870543718338,0.0,0.0,0.9664973020553588,0.866363525390625
-0.1063693016767501,0.2288838475942611,-0.1200852617621421,-0.5734453797340393,-0.2007343769073486,-0.1355637609958648,0.0,0.0,0.9876704216003418,-0.1660510897636413
-0.1076584830880165,0.2159016728401184,-0.1221886500716209,-0.5779160261154175,-0.2075213938951492,-0.1357399076223373,0.0,0.0,0.9985053539276124,-0.5706053376197815
-0.1088689789175987,0.2036384642124176,-0.1156052201986312,-0.5458066463470459,-0.2130234688520431,-0.1100415363907814,0.0,0.0,0.984256148338318,-0.4112461805343628
-0.1098436340689659,0.1920694261789322,-0.0926190689206123,-0.5148857235908508,-0.2179186195135116,-0.0979029014706611,0.0,0.0,0.9788596630096436,-0.7716784477233887
-0.1108723655343055,0.1812968105077743,-0.0994048118591308,-0.4792993664741516,-0.2214270234107971,-0.0701680332422256,0.0,0.0,0.9802072048187256,-0.5958436727523804
-0.1120869666337966,0.1704570353031158,-0.1188791766762733,-0.4821557998657226,-0.2240428328514099,-0.052316166460514,0.0,0.0,0.984250783920288,0.6668047904968262
-0.1130528450012207,0.160264790058136,-0.092962309718132,-0.4535436928272247,-0.2277091145515442,-0.0733255073428154,0.0,0.0,0.8975228071212769,-0.6805903315544128
-0.1141088455915451,0.1503870338201522,-0.1031880751252174,-0.4393872618675232,-0.2301604002714157,-0.0490256361663341,0.0,0.0,0.9741971492767334,0.0079813003540039
-0.115108773112297,0.1410025209188461,-0.0974220111966133,-0.4174918234348297,-0.2327668368816375,-0.0521288737654686,0.0,0.0,0.9468908309936525,-0.6266695857048035
-0.1160455718636512,0.1321341395378112,-0.0924670472741127,-0.3943440616130829,-0.2340026199817657,-0.0247153304517269,0.0,0.0,0.845651388168335,-0.2647985219955444
-0.1168016418814659,0.1234681010246276,-0.0749656781554222,-0.385256826877594,-0.2346466928720474,-0.0128817465156316,0.0,0.0,0.9731547832489014,-0.590121865272522
-0.1175439804792404,0.1146865487098693,-0.0749854147434234,-0.3901726007461548,-0.2338837087154388,0.0152593981474637,0.0,0.0,0.9450602531433104,-0.7262751460075378
-0.1181825622916221,0.1058583557605743,-0.0664526596665382,-0.391952782869339,-0.2312471121549606,0.0527323558926582,0.0,0.0,0.995699405670166,-0.0026807188987731
-0.1185540184378624,0.0972642749547958,-0.0406919792294502,-0.3814058303833008,-0.2276585698127746,0.0717706382274627,0.0,0.0,0.9961490631103516,0.0161362886428833
-0.1187177672982215,0.0885977372527122,-0.020810317248106,-0.3845010995864868,-0.2231650799512863,0.0898697525262832,0.0,0.0,0.949437141418457,-0.4301514625549316
-0.1187554374337196,0.0805184245109558,-0.0082963788881897,-0.358404129743576,-0.2185808718204498,0.0916841179132461,0.0,0.0,0.977269172668457,-0.1894506216049194
-0.1186233535408973,0.0730446428060531,0.0083830868825316,-0.3314612209796905,-0.2137080132961273,0.0974572449922561,0.0,0.0,0.9698755741119384,-0.4875322580337524
-0.118240550160408,0.0659779161214828,0.0326646491885185,-0.3132736086845398,-0.2080352902412414,0.1134545356035232,0.0,0.0,0.788164496421814,-0.4384059309959411
-0.1177405342459678,0.0586845241487026,0.0437593534588813,-0.3232894539833069,-0.2017491906881332,0.1257221400737762,0.0,0.0,0.7256011962890625,-0.2826467156410217
-0.1172500625252723,0.0514777526259422,0.0429509542882442,-0.3194815218448639,-0.1956131756305694,0.122720181941986,0.0,0.0,0.7637513875961304,0.1843767166137695
-0.1165538802742958,0.0448885299265384,0.0630059465765953,-0.2919944226741791,-0.1889601945877075,0.1330600082874298,0.0,0.0,0.9143967628479004,-0.4246706962585449
-0.1158217415213584,0.0385672412812709,0.0666160434484481,-0.2801203429698944,-0.1823380142450332,0.1324434578418731,0.0,0.0,0.9294257164001464,-0.3397690057754516
-0.1151250824332237,0.0329446159303188,0.0636457949876785,-0.2491691559553146,-0.1762988865375518,0.1207826733589172,0.0,0.0,0.8859144449234009,0.6084436178207397
-0.11419677734375,0.0277492143213748,0.0876482427120208,-0.230298563838005,-0.1711102128028869,0.1037738472223281,0.0,0.0,0.9056134223937988,-0.2853994369506836
-0.1132418662309646,0.0231372453272342,0.0905099287629127,-0.2044110894203186,-0.1661281138658523,0.0996420606970787,0.0,0.0,0.8921834230422974,-0.7070275545120239
-0.1123600006103515,0.0191268771886825,0.0819581970572471,-0.1775571405887603,-0.1598967611789703,0.1246269941329956,0.0,0.0,0.6229300498962402,-0.4436792135238647
-0.1114830002188682,0.0151353934779763,0.0815137550234794,-0.1767458319664001,-0.15370973944664,0.1237405315041542,1.0,0.0,0.5017399787902832,-0.7326601147651672
-0.1106199249625206,0.012101492844522,0.0610341355204582,-0.1327808797359466,-0.1276265680789947,0.522854208946228,1.0,0.0,0.5461004972457886,-0.1949930191040039
-0.1097396835684776,0.0096457339823246,0.0485957525670528,-0.1062660589814186,-0.0884088575839996,0.7844539880752563,1.0,0.0,0.6806445121765137,0.1384942531585693
-0.1087080016732215,0.0075466725975275,0.0642561912536621,-0.091443695127964,-0.0499068722128868,0.7700396180152893,1.0,0.0,0.4433138370513916,0.2824867963790893
-0.107606217265129,0.0052347159944474,0.0709538906812667,-0.1019040644168853,-0.0111608635634183,0.7749208211898804,0.0,0.0,0.9219378232955932,0.7218625545501709
-0.1063124686479568,0.0035634136293083,0.0910679176449775,-0.0744317471981048,0.0266446657478809,0.7561115026473999,0.0,0.0,0.357928991317749,0.2046799659729004
-0.1051119789481163,0.0021550036035478,0.0818128362298011,-0.0637054741382598,0.0644186735153198,0.7554811239242554,0.0,1.0,0.2148836851119995,0.990896701812744
-0.1039140671491622,0.0014878129586577,0.0983390063047409,-0.0309737529605627,0.084192581474781,0.3936076462268829,0.0,1.0,-0.3243260383605957,0.9201383590698242
-0.1028817147016525,0.0006566500524058,0.1049516201019287,-0.0368523932993412,0.0824677124619484,-0.0345390550792217,0.0,1.0,-0.1121823787689209,0.354122519493103
-0.102052591741085,-0.0004087591078132,0.1017820984125137,-0.0464285612106323,0.0637469962239265,-0.3744660317897796,0.0,1.0,-0.3509389162063598,0.1075180768966674
-0.1013423949480056,-0.0018673443701118,0.1007206812500953,-0.0638430789113044,0.0343396142125129,-0.588220477104187,0.0,1.0,0.0659462213516235,-0.5026240348815918
-0.1006444916129112,-0.0034549618139863,0.1020217314362526,-0.0701415240764617,0.0024681873619556,-0.6374801993370056,1.0,1.0,-0.2509036064147949,-0.8370935320854187
-0.0999548882246017,-0.0051053427159786,0.0855659693479538,-0.0736102163791656,-0.0131535436958074,-0.3114533722400665,1.0,1.0,0.3016633987426758,-0.8298544883728027
-0.0993982329964637,-0.0060027744621038,0.058294303715229,-0.03991624340415,-0.0157521050423383,-0.0519699975848197,1.0,1.0,-0.3120785355567932,-0.9196730852127076
-0.0989740341901779,-0.0065790559165179,0.0392646417021751,-0.0255870334804058,-0.0126452492550015,0.0621320381760597,1.0,1.0,-0.8209298253059387,-0.693305253982544
-0.0987123474478721,-0.0067315124906599,0.0222376957535743,-0.006752410903573,-0.0087627759203314,0.0776573717594146,1.0,1.0,-0.800288200378418,-0.1571347713470459
-0.0985633879899978,-0.0064608599059283,0.0116713205352425,0.0120414290577173,-0.0055792038328945,0.0636776760220527,1.0,1.0,-0.8849173784255981,0.1652722358703613
-0.0984148010611534,-0.0058735990896821,0.0116707766428589,0.0261075608432292,-0.0024286997504532,0.0630133301019668,1.0,1.0,-0.8146066665649414,0.2677303552627563
-0.0982831940054893,-0.0050021670758724,0.0113915037363767,0.0387304313480854,-0.0006818349356763,0.0349384248256683,1.0,1.0,-0.8570989370346069,0.0876543521881103
