x_pos,y_pos,x_vel,y_vel,angle,ang_vel,leg_1,leg_2,main_booster,lat_booster
-0.0015260695945471,1.4029598236083984,-0.1544490754604339,-0.3537959456443786,0.0016450562980026,0.0324417240917682,0.0,0.0,0.9766490711276272,0.5412194240357682
-0.0029469490982592,1.3951833248138428,-0.1427105665206909,-0.3456259369850158,0.0022576102055609,0.0122531745582818,0.0,0.0,-0.3839126330240068,-0.7232941164365942
-0.004413700196892,1.386735916137695,-0.1482978016138076,-0.3754438161849975,0.0038574945647269,0.0320006534457206,0.0,0.0,0.5138007108260088,-0.746112673471761
-0.0060629844665527,1.3783069849014282,-0.1676622778177261,-0.3746273815631866,0.0065744593739509,0.0543441250920295,0.0,0.0,0.5748317333512192,-0.8792753317670401
-0.0076482770964503,1.3701491355895996,-0.1631358414888382,-0.3625964820384979,0.0111232083290815,0.0909835249185562,0.0,0.0,-0.0513074142403193,-0.904669277023272
-0.0092888828366994,1.361324667930603,-0.169927641749382,-0.3922572731971741,0.0169307589530944,0.1161617413163185,0.0,0.0,-0.8625460639201659,0.7775958243033105
-0.0108701707795262,1.351837158203125,-0.1623783856630325,-0.421717494726181,0.0211336053907871,0.0840645581483841,0.0,0.0,0.6769397554193568,-0.9425156563375968
-0.012368488125503,1.3426759243011477,-0.1561115086078643,-0.4072685837745666,0.02734318934381,0.1242031827569007,0.0,0.0,-0.2174723079926923,0.6036804341744932
-0.0138187408447265,1.3328585624694824,-0.1499980241060257,-0.4364267289638519,0.0322588235139846,0.0983221977949142,0.0,0.0,0.6700899418991981,0.520929005304583
-0.0152502059936523,1.323482871055603,-0.1469552963972091,-0.4167898595333099,0.0360225290060043,0.0752806812524795,0.0,0.0,-0.8433629355642207,-0.5945433019611186
-0.0167187694460153,1.3134405612945557,-0.1515626460313797,-0.4464474618434906,0.0406806319952011,0.0931706726551055,0.0,0.0,0.927943203836805,-0.657529578459404
-0.0181717872619628,1.3036586046218872,-0.1514502018690109,-0.4349310994148254,0.0467659197747707,0.1217168346047401,0.0,0.0,-0.7336203185054593,-0.8922728174509351
-0.0196754448115825,1.293212890625,-0.1578062325716018,-0.464500218629837,0.0541254691779613,0.1472044885158538,0.0,0.0,-0.0230217378923476,0.58817652678676
-0.0211219787597656,1.2821017503738403,-0.1506659537553787,-0.4940556287765503,0.0600752681493759,0.1190067082643508,0.0,0.0,0.7117082743521519,-0.8469715632538728
-0.0225191116333007,1.2716225385665894,-0.1476106345653534,-0.4660764932632446,0.0678937509655952,0.1563843041658401,0.0,0.0,0.0263063362025854,0.5808121932945042
-0.0237995143979787,1.2607611417770386,-0.1347721517086029,-0.4830566346645355,0.0745650306344032,0.1334373354911804,0.0,0.0,0.0096280109716502,-0.5272819612639978
-0.0250593181699514,1.2500293254852295,-0.1338150054216385,-0.4773780107498169,0.082338161766529,0.1554769575595855,0.0,0.0,0.9495959146316088,0.888644728542506
-0.0260923393070697,1.2393180131912231,-0.1096205711364746,-0.4764167964458465,0.0886181741952896,0.1256114393472671,0.0,0.0,0.0970293380860853,0.8622038521022224
-0.0270200725644826,1.2287657260894775,-0.0973036959767341,-0.4692640602588653,0.0931119322776794,0.0898833200335502,0.0,0.0,-0.6573727824870583,0.6725926799868087
-0.0278912540525198,1.2175546884536743,-0.0903765484690666,-0.4984716475009918,0.0963566154241561,0.064899131655693,0.0,0.0,-0.7021890571063372,0.5256792498646594
-0.0287006385624408,1.2056901454925537,-0.08284293115139,-0.5274402499198914,0.0982459187507629,0.037789337337017,0.0,0.0,-0.5430145712730821,0.6860890874565553
-0.0294418334960937,1.1931648254394531,-0.0745431035757064,-0.5567042827606201,0.0986623540520668,0.0083295162767171,0.0,0.0,0.4826182256186964,-0.6980906768386012
-0.0301444046199321,1.1807140111923218,-0.0722361579537391,-0.5535047650337219,0.100635789334774,0.0394720211625099,0.0,0.0,-0.0423323735835785,-0.5323479437752354
-0.0308686252683401,1.1675868034362793,-0.0752787515521049,-0.5836309790611267,0.1034762114286422,0.0568134486675262,0.0,0.0,-0.2085021173427308,0.7307429970747898
-0.0315330512821674,1.153803467750549,-0.0681188032031059,-0.6127036809921265,0.1051355376839637,0.033189833164215,0.0,0.0,-0.4300106849347647,-0.6581873433941012
-0.03224353864789,1.1393275260925293,-0.0743024423718452,-0.6436117887496948,0.1083629354834556,0.064547948539257,0.0,0.0,0.5266657675635165,0.5945296705464229
-0.0329583175480365,1.1251996755599976,-0.0734796822071075,-0.6280494928359985,0.1103560552000999,0.0398624315857887,0.0,0.0,0.653413831532639,0.985871978743631
-0.0338149070739746,1.1116371154785156,-0.0854524299502372,-0.6027660965919495,0.1101502105593681,-0.0041166399605572,0.0,0.0,0.7300166470848661,-0.5654561176231787
-0.0349306091666221,1.0985920429229736,-0.1120708584785461,-0.5798119902610779,0.1106389239430427,0.009774480946362,0.0,0.0,0.5324589405697562,0.7977469960314316
-0.0360336303710937,1.0855605602264404,-0.1091230064630508,-0.5790957808494568,0.1094649359583854,-0.0234795566648244,0.0,0.0,-0.8222774080350452,0.6746989929811498
-0.037060260772705,1.0718806982040403,-0.1000474840402603,-0.6078001856803894,0.1068686544895172,-0.0519259497523307,0.0,0.0,-0.9950371980667114,0.1417142152786255
-0.0380635261535644,1.0575361251831057,-0.0976855009794235,-0.6373443603515625,0.104247085750103,-0.0524313747882843,0.0,0.0,-0.6388956904411316,0.7702493667602539
-0.038990594446659,1.0425424575805664,-0.0887112468481063,-0.6661109328269958,0.1002783253788948,-0.0793753713369369,0.0,0.0,0.2823212146759033,0.8218181133270264
-0.0399111732840538,1.0272961854934692,-0.0863387659192085,-0.6772449612617493,0.0946055650711059,-0.1134548932313919,0.0,0.0,-0.977544605731964,0.4048573970794678
-0.0408053398132324,1.0113853216171265,-0.0836866497993469,-0.7067914605140686,0.0889264047145843,-0.1135832518339157,0.0,0.0,-0.8253894448280334,0.6922121047973633
-0.0416162498295307,0.994823157787323,-0.0739172995090484,-0.735689103603363,0.0818242654204368,-0.1420427858829498,0.0,0.0,0.4786024093627929,-0.8090788125991821
-0.0425216667354106,0.978190779685974,-0.0849717259407043,-0.7389249801635742,0.0763024166226387,-0.1104371696710586,0.0,0.0,-0.4108625650405884,-0.7069954872131348
-0.0434503555297851,0.9608933329582214,-0.0886261090636253,-0.7685644626617432,0.0721097290515899,-0.0838535651564598,0.0,0.0,-0.3163328170776367,-0.0923696756362915
-0.0443485267460346,0.942931354045868,-0.0856065601110458,-0.7981099486351013,0.067934475839138,-0.083504818379879,0.0,0.0,-0.0214633345603942,-0.7281216382980347
-0.0452703461050987,0.9243001341819764,-0.0893782451748848,-0.8279260396957397,0.065163567662239,-0.0554183237254619,0.0,0.0,0.6098158359527588,0.1191904544830322
-0.0463130958378315,0.906129777431488,-0.1010189279913902,-0.8074300289154053,0.0619396604597568,-0.0644780993461608,0.0,0.0,0.8244805335998535,0.0614598989486694
-0.04722261428833,0.8881731033325195,-0.0883532389998436,-0.7979719638824463,0.059379655867815,-0.0512003377079963,0.0,0.0,0.1470870971679687,-0.6366053819656372
-0.0480854995548725,0.8698729872703552,-0.0851333439350128,-0.8132935762405396,0.0582340732216835,-0.022911462932825,0.0,0.0,0.488581895828247,0.2696171998977661
-0.0488519668579101,0.8516292572021484,-0.0759551972150802,-0.8108078837394714,0.0575451701879501,-0.0137778054922819,0.0,0.0,0.8051291704177856,0.2937414646148681
-0.0496457107365131,0.8331987261772156,-0.0785172879695892,-0.8190987706184387,0.0566980801522731,-0.0169419832527637,0.0,0.0,0.8981311321258545,0.9026131629943848
-0.050295066088438,0.8146804571151733,-0.0624155811965465,-0.8229442238807678,0.0542148798704147,-0.049664232879877,0.0,0.0,0.9736878871917723,-0.0279854536056518
-0.0508632659912109,0.7963029742240906,-0.0547112226486206,-0.8166990280151367,0.0521239154040813,-0.0418192893266677,0.0,0.0,0.9686298370361328,-0.5728276968002319
-0.051633071154356,0.7787405848503113,-0.0756642892956733,-0.780504584312439,0.050823625177145,-0.0260058343410491,0.0,0.0,0.5548275709152222,0.2255069017410278
-0.0525266639888286,0.7616150379180908,-0.0875196009874343,-0.7610674500465393,0.0490078404545784,-0.0363156720995903,0.0,0.0,-0.0052587389945983,0.8826444149017334
-0.053313635289669,0.7438275218009949,-0.0752046555280685,-0.7904487252235413,0.0455631278455257,-0.0688944011926651,0.0,0.0,0.9018614292144777,0.2560993432998657
-0.0539256110787391,0.726371705532074,-0.0585518702864646,-0.7757369875907898,0.0429503433406353,-0.0522560775279998,0.0,0.0,0.7259035110473633,0.7628237009048462
-0.0545357689261436,0.709409236907959,-0.0567703135311603,-0.7537649273872375,0.0387567020952701,-0.0838729292154312,0.0,0.0,-0.0499912500381469,0.1992616653442382
-0.0551047325134277,0.6917824745178223,-0.0527320615947246,-0.7833105325698853,0.0346363112330436,-0.08240757137537,0.0,0.0,0.2189648151397705,0.1446263790130615
-0.0556501373648643,0.6743735671043396,-0.0504511073231697,-0.7736379504203796,0.0306023955345153,-0.0806783288717269,0.0,0.0,0.5195262432098389,0.1813488006591797
-0.0560298934578895,0.6569788455963135,-0.0346214063465595,-0.7730352282524109,0.0272800475358963,-0.0664467811584472,0.0,0.0,-0.1035299301147461,-0.8322420716285706
-0.0564433112740516,0.6389126181602478,-0.0399925634264946,-0.8029190897941589,0.0259555205702781,-0.026490643620491,0.0,0.0,0.8567073345184326,0.2027750015258789
-0.0567310340702533,0.6215289235115051,-0.0280066430568695,-0.7725973725318909,0.0252010878175497,-0.0150887388736009,0.0,0.0,0.177882432937622,0.8898797035217285
-0.0568022727966308,0.60421222448349,-0.0047053983435034,-0.7695949077606201,0.0228089429438114,-0.0478429533541202,0.0,0.0,0.6910686492919922,0.3126895427703857
-0.056772232055664,0.5874971747398376,0.0049893702380359,-0.742860734462738,0.0208550710231065,-0.0390773750841617,0.0,0.0,-0.0604410171508789,0.6535172462463379
-0.056652545928955,0.570124626159668,0.0150146316736936,-0.7720728516578674,0.0178512744605541,-0.0600760765373706,0.0,0.0,0.7664299011230469,-0.1212292909622192
-0.0564402565360069,0.5526827573776245,0.0239281617105007,-0.7751643061637878,0.0151877822354435,-0.053269874304533,0.0,0.0,0.9405338764190674,-0.3367550373077392
-0.0563129410147666,0.535809338092804,0.0158924423158168,-0.7499040961265564,0.0120677016675472,-0.0624014660716056,0.0,0.0,0.8556764125823975,0.3961654901504516
-0.0560083389282226,0.5191449522972107,0.0328852161765098,-0.740619421005249,0.0096786972135305,-0.0477802380919456,0.0,0.0,0.5552988052368164,-0.2371900081634521
-0.0556410774588584,0.5026817321777344,0.0389433726668357,-0.7316840291023254,0.0074825850315392,-0.0439221374690532,0.0,0.0,0.7109849452972412,-0.0062351822853088
-0.0552227012813091,0.4861767292022705,0.0439344570040702,-0.7335500121116638,0.0054151429794728,-0.041348896920681,0.0,0.0,0.8137933015823364,-0.3887922763824463
-0.0548972114920616,0.4699791073799133,0.0351857654750347,-0.7198848724365234,0.0028110216371715,-0.0520824268460273,0.0,0.0,0.9072093963623048,-0.377331018447876
-0.0545030608773231,0.4545989036560058,0.0418511629104614,-0.6835629343986511,0.0004143307451158,-0.0479339323937892,0.0,0.0,0.2288384437561035,0.193882942199707
-0.0540009513497352,0.4388803541660309,0.0522614307701587,-0.6986045837402344,-0.0016064853407442,-0.0404163673520088,0.0,0.0,0.8032138347625732,-0.5810555219650269
-0.0534646026790142,0.4239014089107513,0.0543352141976356,-0.6657307147979736,-0.0022932053543627,-0.0137344282120466,0.0,0.0,0.3232614994049072,-0.0472527146339416
-0.052955437451601,0.4088267385959625,0.051874965429306,-0.6699884533882141,-0.0032339519821107,-0.0188149418681859,0.0,0.0,0.9143414497375488,-0.0877567529678344
-0.0525025352835655,0.3942646980285644,0.0466408804059028,-0.647205114364624,-0.0045717461034655,-0.0267558060586452,0.0,0.0,0.8824228048324585,0.257323145866394
-0.0519637092947959,0.3801013529300689,0.0549724176526069,-0.6294863224029541,-0.0056517445482313,-0.0216001477092504,0.0,0.0,0.5864682197570801,-0.1747927665710449
-0.0514963157474994,0.366490751504898,0.0483183674514293,-0.604922354221344,-0.0072078397497534,-0.0311216674745082,0.0,0.0,0.8741791248321533,0.356797456741333
-0.0508929267525672,0.3531971573829651,0.0614215210080146,-0.5908334255218506,-0.0082818251103162,-0.0214796122163534,0.0,0.0,0.451812744140625,-0.2691255807876587
-0.0502684600651264,0.3397546410560608,0.0635744407773017,-0.5974512100219727,-0.0093959383666515,-0.0222822688519954,0.0,0.0,0.8812437057495117,-0.6339656710624695
-0.0495596900582313,0.3261953890323639,0.0704115405678749,-0.6026293039321899,-0.008936489932239,0.0091888438910245,0.0,0.0,0.7005736827850342,-0.6335842609405518
-0.0488851554691791,0.312490314245224,0.0656988695263862,-0.609105110168457,-0.0072040660306811,0.0346484072506427,0.0,0.0,0.6698582172393799,-0.1214978098869323
-0.0481653213500976,0.299323171377182,0.070172294974327,-0.5851998925209045,-0.0054128305055201,0.0358245596289634,0.0,0.0,0.8557273149490356,-0.0228267908096313
-0.0473025329411029,0.2868649065494537,0.0839381143450737,-0.553689181804657,-0.0031075470615178,0.046105783432722,0.0,0.0,0.3472312688827514,-0.5368038415908813
-0.0465316772460937,0.2747479081153869,0.073797583580017,-0.5385299324989319,0.000139290918014,0.0649365782737732,0.0,0.0,0.4324827194213867,0.6023790836334229
-0.0457877144217491,0.2623908519744873,0.072486363351345,-0.5492055416107178,0.0020254093687981,0.0377224162220954,0.0,0.0,0.8784781694412231,0.4333884716033935
-0.044951818883419,0.2507174015045166,0.0813594013452529,-0.5188241600990295,0.0042226277291774,0.0439444109797477,0.0,0.0,0.381314754486084,-0.5973864793777466
-0.0442103371024131,0.2391001284122467,0.0708232745528221,-0.5163351893424988,0.0075149158947169,0.0658457428216934,0.0,0.0,0.7001256942749023,-0.2679315209388733
-0.0434827804565429,0.2278638929128646,0.0695817619562149,-0.4994077980518341,0.0106456279754638,0.0626140534877777,0.0,0.0,0.8044946193695068,0.0639947652816772
-0.0427289977669715,0.2171084433794021,0.0721678435802459,-0.478047251701355,0.0138154746964573,0.0633967965841293,0.0,0.0,0.5467476844787598,0.0343914031982421
-0.041853904724121,0.206507071852684,0.0838215500116348,-0.4712111055850982,0.0174627657979726,0.0729455053806305,0.0,0.0,0.207484483718872,-0.5069549083709717
-0.040957260876894,0.1956108659505844,0.0848109871149063,-0.4843394160270691,0.0222589317709207,0.0959232896566391,0.0,0.0,0.6788551807403564,-0.2017961740493774
-0.0399285331368446,0.184667021036148,0.0974650159478187,-0.4864816665649414,0.0275912806391716,0.1066472306847572,0.0,0.0,0.6645629405975342,-0.6035028696060181
-0.038757037371397,0.1739262491464615,0.1100316196680069,-0.4775172173976898,0.0346166901290416,0.1405085027217865,0.0,0.0,0.5525410175323486,-0.716261088848114
-0.0374646186828613,0.1630762368440628,0.1203049272298812,-0.4824546575546264,0.0434441789984703,0.1765495240688324,0.0,0.0,0.7650582790374756,-0.5012591481208801
-0.0362072959542274,0.1527661234140396,0.1157096028327941,-0.458548367023468,0.0533502846956253,0.1981221735477447,0.0,0.0,0.8548774719238281,-0.4185096621513366
-0.0349151603877544,0.1430711150169372,0.1189367398619651,-0.4312880337238312,0.0635178312659263,0.2033507525920868,0.0,0.0,0.5747628211975098,-0.6841643452644348
-0.0335426330566406,0.1336745768785476,0.1252273023128509,-0.418173223733902,0.0754150226712226,0.2379436790943145,0.0,0.0,0.2886240482330322,-0.34392911195755
-0.0320662483572959,0.1240051090717315,0.13516566157341,-0.4304269850254059,0.087777130305767,0.2472423613071441,0.0,0.0,0.9444255828857422,0.1417396068572998
-0.0306596755981445,0.1145605146884918,0.128375843167305,-0.4205271303653717,0.0999543443322181,0.2435444295406341,0.0,0.0,0.8713099956512451,-0.3104122877120971
-0.029211426153779,0.1059262380003929,0.1320036351680755,-0.3846518695354461,0.1126763448119163,0.2544403076171875,0.0,0.0,0.8309551477432251,0.0190904140472412
-0.0278166774660348,0.0975651815533638,0.126697763800621,-0.3726121783256531,0.1253803670406341,0.2540805041790008,0.0,0.0,0.7676923274993896,0.2854588031768799
-0.0266178138554096,0.0897834151983261,0.1076394915580749,-0.34693044424057,0.1375702321529388,0.2437971830368042,0.0,0.0,0.6710871458053589,-0.1319616436958313
-0.0253866203129291,0.0824060514569282,0.1103850975632667,-0.3291081488132477,0.1502692848443985,0.2539810836315155,0.0,0.0,0.4860134124755859,0.6890411376953125
-0.0242142677307128,0.0753721594810485,0.10590610653162,-0.3138011693954468,0.1615891903638839,0.2263980358839035,0.0,0.0,0.5756804943084717,0.7659164667129517
-0.023143196478486,0.0687314346432685,0.0973855704069137,-0.2962289750576019,0.1713204234838485,0.1946246176958084,0.0,0.0,0.336245059967041,-0.0964763760566711
-0.0221207626163959,0.0620175451040267,0.0925244688987732,-0.2995423376560211,0.181061178445816,0.1948148757219314,0.0,0.0,0.8167071342468262,0.8794757127761841
-0.0212496761232614,0.0555974096059799,0.0793184340000152,-0.2863125503063202,0.1888884752988815,0.1565458327531814,0.0,0.0,0.8984260559082031,0.9474616050720216
-0.0205677989870309,0.0493650995194911,0.0625132769346237,-0.2777270078659057,0.1945937871932983,0.1141063421964645,0.0,0.0,0.9595459699630736,0.9387670755386353
-0.0198054313659667,0.0437901131808757,0.0720955580472946,-0.2483261972665786,0.1987626403570175,0.0833772718906402,0.0,0.0,0.9452910423278807,0.4350612163543701
-0.019021701067686,0.0382111892104148,0.0737922638654708,-0.248573824763298,0.2033689320087433,0.0921258181333541,0.0,0.0,0.9605183601379396,0.940183401107788
-0.0181279182434082,0.0333851426839828,0.0862467661499977,-0.2149220257997512,0.2065246105194091,0.0631135404109954,0.0,0.0,0.8306694030761719,-0.5096114277839661
-0.0174427032470703,0.0291408151388168,0.0643547102808952,-0.1892248690128326,0.2107270658016204,0.0840493366122245,0.0,0.0,0.2713179588317871,0.4522159099578857
-0.0167548172175884,0.0252312272787094,0.0640182867646217,-0.1744460314512252,0.215541198849678,0.0962825715541839,0.0,0.0,0.5710546970367432,0.1104780435562133
-0.016082476824522,0.0214885100722312,0.0620400011539459,-0.1671132147312164,0.2207948565483093,0.1050731688737869,0.0,1.0,0.9644083976745604,0.982065200805664
-0.0156291965395212,0.0194163415580987,0.059470921754837,-0.0905391797423362,0.2052869349718094,-0.3118959069252014,0.0,1.0,0.5969092845916748,0.1803838014602661
-0.0153694152832031,0.0183644872158765,0.0546624660491943,-0.0430515967309474,0.1763477623462677,-0.5788983106613159,0.0,1.0,-0.1750544905662536,-0.4222793579101562
-0.0151426317170262,0.0169386956840753,0.0580644682049751,-0.0595773011445999,0.1408714801073074,-0.709635317325592,0.0,1.0,0.0950254201889038,-0.4885727167129516
-0.0150275230407714,0.0154214240610599,0.0460474751889705,-0.0645300969481468,0.1065139099955558,-0.6871522665023804,0.0,1.0,0.5994117259979248,-0.2290009260177612
-0.015089988708496,0.0139788249507546,0.0289941225200891,-0.0619782879948616,0.071583591401577,-0.6986071467399597,0.0,0.0,-0.7680814862251282,-0.8996119499206543
-0.0151965143159031,0.0118783330544829,0.0226960368454456,-0.0920910686254501,0.0386155731976032,-0.6593610048294067,0.0,0.0,0.036285400390625,-0.927856981754303
-0.0153413768857717,0.0096233822405338,0.0169302895665168,-0.09970124065876,0.0075944168493151,-0.6204239726066589,0.0,0.0,0.3406195640563965,-0.8979453444480896
-0.0154109001159667,0.0071457005105912,0.0224543642252683,-0.1102239936590194,-0.0214339718222618,-0.5805679559707642,0.0,0.0,0.5311706066131592,-0.8632959127426147
-0.0154078481718897,0.0049668527208268,0.0277053713798522,-0.0974519029259681,-0.0485025867819786,-0.5413726568222046,0.0,0.0,0.7895735502243042,-0.98855859041214
-0.0152941700071096,0.004189655650407,0.0170637443661689,-0.034735482186079,-0.0541263259947299,-0.1124745830893516,1.0,0.0,-0.3556522727012634,0.0603563785552978
-0.0150693897157907,0.0034237958025187,0.0095498859882354,-0.0336226150393486,-0.0413339659571647,0.2558545470237732,1.0,0.0,-0.5871495604515076,0.1474554538726806
