x_pos,y_pos,x_vel,y_vel,angle,ang_vel,leg_1,leg_2,main_booster,lat_booster
-0.0015781403053551,1.403232216835022,-0.1597839891910553,-0.3416918814182281,0.0017730235122144,0.0349749326705932,0.0,0.0,-0.4980866909027099,0.8261477947235107
-0.003143596695736,1.3951709270477295,-0.1564686894416809,-0.3582741916179657,0.0016935335006564,-0.001589186489582,0.0,0.0,-0.3210540413856506,-0.104307472705841
-0.0047697066329419,1.3867168426513672,-0.162500113248825,-0.3757386803627014,0.001582016586326,-0.0022302030120044,0.0,0.0,0.4139691591262817,0.7183713912963867
-0.0065165520645678,1.3785090446472168,-0.1728914678096771,-0.3647845983505249,-0.0001901675132103,-0.0354471951723098,0.0,0.0,0.322009801864624,0.6606388092041016
-0.0081628803163766,1.3706936836242676,-0.1617140024900436,-0.3473547399044037,-0.003082325682044,-0.057848572731018,0.0,0.0,-0.2118403911590576,0.5237634181976318
-0.0098271369934082,1.3624850511550903,-0.1621794402599334,-0.3648468554019928,-0.0072737401351332,-0.0838359147310257,0.0,0.0,-0.2533901929855346,0.1308119297027588
-0.0115619655698537,1.353884220123291,-0.1692179143428802,-0.3822861611843109,-0.0114899287000298,-0.0843316316604614,0.0,0.0,-0.45787513256073,0.3208860158920288
-0.0133695602416992,1.3448911905288696,-0.1764754056930542,-0.3997279405593872,-0.0157300047576427,-0.0848095342516899,0.0,0.0,0.4569363594055176,0.4173505306243896
-0.0152510646730661,1.3366129398345947,-0.1837893724441528,-0.3679690659046173,-0.0200428888201713,-0.08626589179039,0.0,0.0,-0.5526544451713562,0.7259141206741333
-0.017152214422822,1.327945351600647,-0.1842754483222961,-0.3853154480457306,-0.0258122999221086,-0.1153985634446144,0.0,0.0,0.0279910564422607,0.767808198928833
-0.0189994815737009,1.3194365501403809,-0.1773721426725387,-0.3783167600631714,-0.033084686845541,-0.1454614102840423,0.0,0.0,-0.2540458440780639,0.2028331756591797
-0.0209268573671579,1.3105357885360718,-0.1853667050600052,-0.3957666158676147,-0.0403739772737026,-0.1457992941141128,0.0,0.0,-0.6726101636886597,0.5731034278869629
-0.0228809360414743,1.3012431859970093,-0.1866230517625808,-0.4132657051086426,-0.0490610301494598,-0.1737571358680725,0.0,0.0,0.0396367311477661,0.1105823516845703
-0.0248636249452829,1.2918906211853027,-0.1896867454051971,-0.4159678816795349,-0.0575565360486507,-0.1699256002902984,0.0,0.0,-0.5601457357406616,0.8438558578491211
-0.0268483161926269,1.282148361206055,-0.1877960264682769,-0.433426171541214,-0.0681305453181266,-0.2114995419979095,0.0,0.0,-0.7677088379859924,0.5933425426483154
-0.0288637168705463,1.272002935409546,-0.189452439546585,-0.4515001475811004,-0.0801092311739921,-0.2395958006381988,0.0,0.0,-0.7563174366950989,0.6817744970321655
-0.0308993346989154,1.2614673376083374,-0.1898074448108673,-0.4690448641777038,-0.0937600135803222,-0.2730404734611511,0.0,0.0,-0.231930136680603,0.6545205116271973
-0.0329593643546104,1.2505275011062622,-0.1906311213970184,-0.48725026845932,-0.1090300753712654,-0.3054290115833282,0.0,0.0,-0.2304763793945312,0.07197105884552
-0.0351078994572162,1.2391984462738037,-0.1994981318712234,-0.5047127604484558,-0.1243061795830726,-0.3055498301982879,0.0,0.0,-0.5522143840789795,-0.3398824334144592
-0.0373456962406635,1.2274798154830933,-0.2084584683179855,-0.5221759676933289,-0.1395877748727798,-0.3056597113609314,0.0,0.0,-0.7716653347015381,-0.1960492730140686
-0.0396737083792686,1.2153717279434204,-0.2175045758485794,-0.539639413356781,-0.1548734605312347,-0.305741012096405,0.0,0.0,-0.4364282488822937,-0.2058770656585693
-0.0420927032828331,1.2028741836547852,-0.226629376411438,-0.5571035742759705,-0.1701620519161224,-0.3057996332645416,0.0,0.0,-0.3584797978401184,-0.243474543094635
-0.0446032509207725,1.1899871826171875,-0.2358263283967971,-0.5745684504508972,-0.1854525506496429,-0.3058370053768158,0.0,0.0,0.1130920648574829,0.1625173091888427
-0.0471208579838275,1.1770076751708984,-0.2368018180131912,-0.5788050293922424,-0.2005254030227661,-0.3014837205410003,0.0,0.0,0.3948836326599121,-0.8318433165550232
-0.0498198494315147,1.1644994020462036,-0.2564744353294372,-0.5578008890151978,-0.2140872180461883,-0.2712600827217102,0.0,0.0,-0.4197568893432617,-0.5055481195449829
-0.0526635162532329,1.15159809589386,-0.2722150981426239,-0.575197160243988,-0.2263839840888977,-0.2459349334239959,0.0,0.0,0.5838518142700195,-0.2093721032142639
-0.0554416663944721,1.139323115348816,-0.2657055556774139,-0.5474579334259033,-0.2386648058891296,-0.2456163913011551,0.0,0.0,0.3121923208236694,-0.8776154518127441
-0.0583408363163471,1.1276885271072388,-0.2794922590255737,-0.5188255310058594,-0.2492637485265731,-0.2119788825511932,0.0,0.0,-0.3647511601448059,-0.768073320388794
-0.061405561864376,1.1156959533691406,-0.2979272305965423,-0.5344744324684143,-0.2579696476459503,-0.1741179078817367,0.0,0.0,0.3114939928054809,-0.6585873961448669
-0.0645355209708213,1.1038976907730105,-0.3057504594326019,-0.52565598487854,-0.2653767466545105,-0.148142009973526,0.0,0.0,-0.1919753551483154,-0.2358443737030029
-0.0677613243460655,1.0917079448699951,-0.3153512179851532,-0.543100118637085,-0.2727840542793274,-0.1481463015079498,0.0,0.0,-0.1938244104385376,0.4705064296722412
-0.0710832625627517,1.0791263580322266,-0.3249748349189758,-0.5605442523956299,-0.2801913619041443,-0.1481464207172393,0.0,0.0,-0.0633449554443359,0.1917572021484375
-0.0745015144348144,1.0661531686782837,-0.3346168398857116,-0.5779884457588196,-0.2875984907150268,-0.148142859339714,0.0,0.0,0.2756760120391845,0.2553367614746094
-0.0779842361807823,1.0532097816467283,-0.3408714234828949,-0.5767421126365662,-0.2952329814434051,-0.1526897400617599,0.0,0.0,0.4802168607711792,0.2847504615783691
-0.0813860893249511,1.040674924850464,-0.3328558802604675,-0.5586134195327759,-0.3027995824813843,-0.151331752538681,0.0,0.0,-0.1175965070724487,0.3331978321075439
-0.0848844498395919,1.0277482271194458,-0.3425274491310119,-0.5760576128959656,-0.3103655278682709,-0.1513191759586334,0.0,0.0,0.4589103460311889,0.1813703775405883
-0.0883786231279373,1.015014886856079,-0.3420234620571136,-0.5675293803215027,-0.3180379271507263,-0.1534478366374969,0.0,0.0,0.1603416204452514,0.7410616874694824
-0.0917166694998741,1.002615451812744,-0.324999988079071,-0.5530429482460022,-0.3271869719028473,-0.1829817742109298,0.0,0.0,-0.0761650204658508,-0.1393326520919799
-0.0951509475708007,0.9898248314857484,-0.3346651196479797,-0.570489227771759,-0.3363350033760071,-0.1829605400562286,0.0,0.0,0.0013679265975952,0.3793160915374756
-0.0985438376665115,0.9771559238433838,-0.3306181132793426,-0.5651089549064636,-0.3454026281833648,-0.1813530772924423,0.0,0.0,0.0312596559524536,-0.2045201063156128
-0.1019309982657432,0.9648154973983764,-0.3297789692878723,-0.5506341457366943,-0.3547773659229278,-0.187494546175003,0.0,0.0,-0.1877099275588989,0.2817449569702148
-0.1054140105843544,0.9520837664604188,-0.3394010663032532,-0.568080723285675,-0.364150732755661,-0.1874680370092392,0.0,0.0,-0.0515667796134948,0.1912801265716552
-0.1089925765991211,0.9389608502388,-0.3490009009838104,-0.585527241230011,-0.3735226988792419,-0.1874398440122604,0.0,0.0,-0.4714622497558594,0.6028292179107666
-0.1126154884696006,0.9254152178764344,-0.3521064817905426,-0.6047226786613464,-0.3843403160572052,-0.2163528501987457,0.0,0.0,0.7043025493621826,0.0075796842575073
-0.1162583380937576,0.9119247794151306,-0.3539644777774811,-0.6023973822593689,-0.3953503370285034,-0.2202004641294479,0.0,0.0,0.4117616415023803,0.1241552829742431
-0.1198495849967002,0.8984159827232361,-0.3490243256092071,-0.6032400131225586,-0.4061771631240845,-0.2165364474058151,0.0,0.0,-0.2396955490112304,0.3594098091125488
-0.1235350593924522,0.884516179561615,-0.3584965169429779,-0.6206887364387512,-0.4170023500919342,-0.2165028750896453,0.0,0.0,-0.2702533006668091,-0.1488025784492492
-0.1273142844438552,0.8702253699302673,-0.3679262995719909,-0.6381374597549438,-0.4278257489204407,-0.2164680063724517,0.0,0.0,0.2408502101898193,-0.0095502138137817
-0.1310319006443023,0.8564134836196899,-0.3613899946212768,-0.6170535683631897,-0.439108282327652,-0.2256505191326141,0.0,0.0,-0.4630702137947082,-0.1657255887985229
-0.1348423063755035,0.8422107696533203,-0.3707229197025299,-0.6345027685165405,-0.4503889083862304,-0.2256125509738922,0.0,0.0,0.2126396894454956,-0.2895823121070862
-0.1384675949811935,0.82811439037323,-0.3527190685272217,-0.6297086477279663,-0.4611805975437164,-0.2158335447311401,0.0,0.0,0.8268928527832031,-0.6800426840782166
-0.1419301033020019,0.8148066401481628,-0.3376175761222839,-0.5943446755409241,-0.4706990122795105,-0.1903685331344604,0.0,0.0,0.7643358707427979,0.6912624835968018
-0.1451083123683929,0.8016158938407898,-0.308197557926178,-0.5895549654960632,-0.4813934564590454,-0.2138890326023101,0.0,0.0,0.863492488861084,-0.8475942015647888
-0.1480132043361663,0.7892805933952332,-0.2825063169002533,-0.5510483980178833,-0.4902856647968292,-0.1778443157672882,0.0,0.0,0.933203101158142,-0.904236614704132
-0.1506331413984298,0.7772197723388672,-0.2560651004314422,-0.5381667613983154,-0.496941477060318,-0.1331163495779037,0.0,0.0,0.8450016975402832,-0.7902148962020874
-0.1532491743564605,0.7655850052833557,-0.2569622695446014,-0.5187844038009644,-0.502163290977478,-0.1044357642531395,0.0,0.0,0.8551061153411865,-0.600461483001709
-0.1554631292819976,0.7546919584274292,-0.2181521356105804,-0.4853284955024719,-0.505815863609314,-0.0730510577559471,0.0,0.0,0.74253249168396,-0.8192684650421143
-0.1573345214128494,0.7442728281021118,-0.1856912523508072,-0.4636082947254181,-0.5074527263641357,-0.0327373705804348,0.0,0.0,0.92736554145813,-0.9181169271469116
-0.1588012725114822,0.7347108721733093,-0.1471000611782074,-0.4248179793357849,-0.5069687366485596,0.0096792122349143,0.0,0.0,0.8056437969207764,-0.7477179169654846
-0.1600646078586578,0.7259969115257263,-0.1280142217874527,-0.3866729736328125,-0.5050758123397827,0.0378589443862438,0.0,0.0,0.8814115524291992,-0.9553844332695008
-0.161219984292984,0.717444121837616,-0.1190819889307022,-0.3788212239742279,-0.5010746121406555,0.0800237208604812,0.0,0.0,0.8725650310516357,-0.940054178237915
-0.1622498482465744,0.7096928954124451,-0.1081551313400268,-0.3426253497600555,-0.4952719509601593,0.1160523891448974,0.0,0.0,0.8806333541870117,-0.7563590407371521
-0.1630003899335861,0.7022584080696106,-0.0819474384188652,-0.3279634416103363,-0.4875480532646179,0.1544776856899261,0.0,0.0,0.6807990074157715,-0.8411014676094055
-0.1635738313198089,0.6952872276306152,-0.0659014880657196,-0.3068343698978424,-0.4780033230781555,0.1908945590257644,0.0,0.0,0.4588762521743774,-0.7636851668357849
-0.1641118079423904,0.688427209854126,-0.0638643950223922,-0.3014551103115082,-0.4668436050415039,0.22319395840168,0.0,0.0,0.7691709995269775,-0.9317927360534668
-0.1646396666765213,0.6821736097335815,-0.0644953250885009,-0.274063378572464,-0.4539332985877991,0.2582059502601623,0.0,0.0,-0.0696979761123657,-0.4919756650924682
-0.1652440130710601,0.675529420375824,-0.0722389221191406,-0.2915151715278625,-0.4410125017166137,0.2584159970283508,0.0,0.0,0.5246672630310059,-0.2963975071907043
-0.165739819407463,0.6688124537467957,-0.061791967600584,-0.2947513163089752,-0.427729845046997,0.2656535804271698,0.0,0.0,0.5083701610565186,-0.6018115282058716
-0.1660026609897613,0.6627880334854126,-0.0397852435708045,-0.263714462518692,-0.4131160080432892,0.2922763228416443,0.0,0.0,-0.1280163526535034,-0.0946412086486816
-0.1663374900817871,0.656373918056488,-0.0470944829285144,-0.2811700701713562,-0.3984887301921844,0.2925456166267395,0.0,0.0,0.0091431140899658,-0.0103335976600646
-0.1666340827941894,0.6501742005348206,-0.0431250557303428,-0.2718307375907898,-0.3841064572334289,0.2876459956169128,0.0,0.0,-0.2555492520332336,0.1154618263244628
-0.1669997274875641,0.6435845494270325,-0.0501165613532066,-0.2892859578132629,-0.3697086870670318,0.2879551649093628,0.0,0.0,-0.4986443519592285,0.6170729398727417
-0.1673953980207443,0.6365906596183777,-0.0522811897099018,-0.3076162338256836,-0.3562840521335602,0.2684926092624664,0.0,0.0,-0.6552130579948425,-0.2316365838050842
-0.1678567826747894,0.6292064785957336,-0.0589342303574085,-0.3250695765018463,-0.3428420424461365,0.2688400745391845,0.0,0.0,-0.4742052555084228,0.3289096355438232
-0.1683821678161621,0.6214320659637451,-0.0654116198420524,-0.3425229787826538,-0.3293817639350891,0.2692054212093353,0.0,0.0,-0.1937412023544311,-0.4676647186279297
-0.1689697206020355,0.6132676005363464,-0.0717088878154754,-0.3599764406681061,-0.3159023523330688,0.2695880830287933,0.0,0.0,-0.6135088801383972,-0.26689612865448
-0.1696176528930664,0.6047128438949585,-0.0778217688202858,-0.3774300217628479,-0.3024030029773712,0.2699874341487884,0.0,0.0,-0.4966406226158142,-0.0789147615432739
-0.1703240424394607,0.5957679152488708,-0.0837462469935417,-0.3948836922645569,-0.2888828814029693,0.2704027891159057,0.0,0.0,-0.0741978287696838,-0.2312935590744018
-0.1710871756076812,0.5864328742027283,-0.0894785970449447,-0.4123374819755554,-0.2753412127494812,0.2708334028720855,0.0,0.0,-0.1679547429084777,0.0912336111068725
-0.1719048470258712,0.5767077207565308,-0.0950153693556785,-0.4297914505004883,-0.2617772817611694,0.271278440952301,0.0,0.0,-0.1614621877670288,0.184096097946167
-0.1727751791477203,0.5665925145149231,-0.1003534421324729,-0.4472454786300659,-0.2481904327869415,0.27173712849617,0.0,0.0,0.3591175079345703,0.5328688621520996
-0.1734600067138672,0.5570084452629089,-0.0808946341276168,-0.4239131808280945,-0.2355711311101913,0.2523860335350036,0.0,0.0,-0.4901140332221985,0.4311589002609253
-0.1741935759782791,0.547033965587616,-0.08582653850317,-0.4413653612136841,-0.2229276448488235,0.2528697848320007,0.0,0.0,-0.8690378069877625,0.92229163646698
-0.1749086380004882,0.5366505980491638,-0.0823743939399719,-0.4598768651485443,-0.2119450867176056,0.2196507453918457,0.0,0.0,0.0358022451400756,0.8931527137756348
-0.1755152642726898,0.5265040397644043,-0.0698024034500122,-0.4496741890907287,-0.2027298510074615,0.1843049377202987,0.0,0.0,0.3512012958526611,0.919069528579712
-0.1759175360202789,0.5166186690330505,-0.0476311855018138,-0.4383563101291656,-0.1952736973762512,0.149123340845108,0.0,0.0,0.0686631202697753,0.1264059543609619
-0.1763023436069488,0.5066628456115723,-0.0459984131157398,-0.4415088295936584,-0.1877205073833465,0.151063784956932,0.0,0.0,-0.9451902508735656,0.3279943466186523
-0.1767257750034332,0.4963153302669525,-0.04988644272089,-0.4589528143405914,-0.180140882730484,0.1515926420688629,0.0,0.0,-0.4415424466133117,0.535158634185791
-0.1771338433027267,0.485561728477478,-0.0470597557723522,-0.477193146944046,-0.1738700866699218,0.1254158318042755,0.0,0.0,0.0253669023513793,0.6026290655136108
-0.1773915290832519,0.4747354984283447,-0.0309647731482982,-0.4805671274662018,-0.1686624884605407,0.104152038693428,0.0,0.0,0.8264741897583008,-0.5751333236694336
-0.1775928437709808,0.4647625982761383,-0.0265066977590322,-0.4425297379493713,-0.1622911989688873,0.1274257451295852,0.0,0.0,-0.5565907955169678,0.6213264465332031
-0.1777729988098144,0.4543898105621338,-0.0231075976043939,-0.4604644775390625,-0.1571979075670242,0.1018656939268112,0.0,0.0,-0.6541459560394287,0.326972484588623
-0.1779813766479492,0.4436249434947967,-0.0259564965963363,-0.4779059290885925,-0.1520771533250808,0.1024148240685463,0.0,0.0,0.4633076190948486,0.1529045104980468
-0.1780836135149002,0.4328764379024505,-0.0158059522509574,-0.4771547317504883,-0.146515741944313,0.1112284511327743,0.0,0.0,-0.0028067827224731,0.4440658092498779
-0.1782101690769195,0.4217358231544494,-0.018252519890666,-0.4945966303348541,-0.1409267485141754,0.1117799878120422,0.0,0.0,-0.042026937007904,0.793755292892456
-0.1782870292663574,0.4101973176002502,-0.0115121630951762,-0.512462854385376,-0.1371151357889175,0.076232373714447,0.0,0.0,0.9189903736114502,0.6025997400283813
-0.1782753020524978,0.3992448151111603,-0.0013906584354117,-0.486544668674469,-0.1345589905977249,0.0511229634284973,0.0,0.0,0.726468563079834,0.5567927360534668
-0.1782641410827636,0.3891597986221313,7.677309440623503e-06,-0.4481256604194641,-0.1334570199251175,0.0220396686345338,0.0,0.0,-0.0334444642066955,0.7577171325683594
-0.1782011985778808,0.3786724209785461,0.0068957759067416,-0.4661607146263122,-0.1340584605932235,-0.012028781697154,0.0,0.0,0.903698205947876,-0.4137439727783203
-0.1780985891819,0.3690900802612304,0.0111253205686807,-0.4259594976902008,-0.1349179148674011,-0.0171890277415514,0.0,0.0,0.6595902442932129,0.4790776968002319
-0.177990049123764,0.3602500855922699,0.0120706055313348,-0.3929997086524963,-0.1361346095800399,-0.0243335161358118,0.0,0.0,0.6231732368469238,0.2514405250549316
-0.1778506338596344,0.3517496883869171,0.0152489002794027,-0.377914160490036,-0.1374372839927673,-0.0260535217821598,0.0,0.0,-0.143351674079895,0.5216014385223389
-0.1776878386735916,0.3428506255149841,0.0184003785252571,-0.3957121074199676,-0.1395532935857772,-0.0423204414546489,0.0,0.0,0.269317626953125,0.6628572940826416
-0.1775528937578201,0.3341713547706604,0.0171315763145685,-0.3860883116722107,-0.1431719362735748,-0.0723731592297554,0.0,0.0,0.0425490140914917,0.4543582201004028
-0.1772934943437576,0.3257588148117065,0.0292304810136556,-0.3742130398750305,-0.1464549303054809,-0.0656599327921867,0.0,0.0,-0.3196853399276733,0.269058346748352
-0.1770391464233398,0.3169539272785187,0.0286986492574214,-0.3916532695293426,-0.1497116237878799,-0.0651337951421737,0.0,0.0,0.3029488325119018,-0.4973752498626709
-0.1765855848789215,0.3086234927177429,0.0480648577213287,-0.3705149292945862,-0.1524131447076797,-0.0540300905704498,0.0,0.0,-0.3592287302017212,-0.5961397886276245
-0.1761821806430816,0.2999167442321777,0.0417832769453525,-0.3871150612831116,-0.153848111629486,-0.0286994818598032,0.0,0.0,-0.0724891424179077,-0.0030575990676879
-0.1757797300815582,0.2908175587654114,0.0416527576744556,-0.404554545879364,-0.1552574187517166,-0.0281862169504165,0.0,0.0,-0.4528512954711914,-0.6735453009605408
-0.1754230558872223,0.2813367843627929,0.0358717404305934,-0.4213892817497253,-0.1554642021656036,-0.0041355588473379,0.0,0.0,0.3934086561203003,-0.0255693793296813
-0.1749645173549652,0.2724854052066803,0.0460665002465248,-0.393415093421936,-0.1556738764047622,-0.0041936063207685,0.0,0.0,0.1583000421524047,-0.6794201731681824
-0.1744230240583419,0.2640670537948608,0.0529102310538291,-0.3740183711051941,-0.1544359028339386,0.0247595980763435,0.0,0.0,-0.6600613594055176,0.3727366924285888
-0.1738782823085785,0.255256325006485,0.0532176867127418,-0.3914578855037689,-0.1531731337308883,0.025255236774683,0.0,0.0,0.4026026725769043,0.0912877321243286
-0.173351764678955,0.246855080127716,0.0518456622958183,-0.3733058273792267,-0.1523661166429519,0.0161403603851795,0.0,0.0,0.1519091129302978,-0.737490177154541
-0.1729242354631424,0.2386280596256256,0.0405438877642154,-0.3654185831546783,-0.1501598209142685,0.0441257655620574,0.0,0.0,0.2604920864105224,0.3081998825073242
-0.1724428236484527,0.230650246143341,0.0459906682372093,-0.3543521761894226,-0.1480053663253784,0.0430886819958686,0.0,0.0,-0.1312340497970581,-0.0301162004470825
-0.1719548255205154,0.2222800403833389,0.0466199144721031,-0.3717919290065765,-0.1458269953727722,0.043567456305027,0.0,0.0,0.2323775291442871,0.9023823738098145
-0.171239286661148,0.2138672620058059,0.0711065232753753,-0.3738575279712677,-0.1453744173049926,0.0090514533221721,0.0,0.0,0.4751957654953003,-0.3297058343887329
-0.1703412979841232,0.205949380993843,0.0889065191149711,-0.3518246114253998,-0.1444958001375198,0.0175727494060993,0.0,0.0,0.5363485813140869,-0.6729293465614319
-0.16935396194458,0.1987647861242294,0.0964248925447464,-0.3190926611423492,-0.1421932429075241,0.0460512712597847,0.0,0.0,-0.6779338121414185,-0.1741868257522583
