x_pos,y_pos,x_vel,y_vel,angle,ang_vel,leg_1,leg_2,main_booster,lat_booster
-0.001528263092041,1.403219223022461,-0.154252290725708,-0.342268168926239,0.001279012998566,0.0251936018466949,0.0,0.0,-0.1395038366317749,0.5668426752090454
-0.0030130385421216,1.3951332569122314,-0.1480022519826889,-0.3593760430812835,0.0008132850634865,-0.0093148406594991,0.0,0.0,-0.0420779585838317,0.1648473739624023
-0.0045024873688817,1.386641263961792,-0.1479784995317459,-0.3774171769618988,-0.000145579688251,-0.0191791541874408,0.0,0.0,0.2590453624725342,0.5468649864196777
-0.0060529708862304,1.3783133029937744,-0.1522660851478576,-0.3701336681842804,-0.0029010279104113,-0.055114209651947,0.0,0.0,-0.5287759900093079,-0.2271652221679687
-0.0076083182357251,1.3695800304412842,-0.1522514671087265,-0.38815638422966,-0.0061473855748772,-0.0649332255125045,0.0,0.0,0.3663097620010376,0.6584138870239258
-0.0089886663481593,1.3611125946044922,-0.1331891119480133,-0.3763495683670044,-0.0109417513012886,-0.0958961024880409,0.0,0.0,-0.0618150830268859,-0.1327652335166931
-0.0103739742189645,1.3522403240203855,-0.1331831663846969,-0.3943745493888855,-0.0162258241325616,-0.105690911412239,0.0,0.0,-0.4686330556869507,-0.4384083151817322
-0.0117641445249319,1.3429629802703855,-0.133182555437088,-0.4123929142951965,-0.0219991486519575,-0.1154770404100418,0.0,0.0,-0.3619861602783203,0.4357008934020996
-0.0131593700498342,1.33328115940094,-0.1331866085529327,-0.4304132163524627,-0.0282606519758701,-0.1252416670322418,0.0,0.0,-0.049625813961029,0.1695790290832519
-0.0145594598725438,1.3231946229934692,-0.1331948190927505,-0.4484347403049469,-0.0350093245506286,-0.1349858939647674,0.0,0.0,0.475724458694458,-0.4892983436584472
-0.0158690456300973,1.3134955167770386,-0.1240198463201522,-0.4312507212162018,-0.0418789349496364,-0.1374047100543975,0.0,0.0,-0.3254911303520202,-0.4255552291870117
-0.017183780670166,1.303391695022583,-0.1240367889404296,-0.449280172586441,-0.0492337271571159,-0.1471094042062759,0.0,0.0,-0.3546508550643921,0.164967656135559
-0.018503475934267,1.2928838729858398,-0.1240558475255966,-0.4673018753528595,-0.0570720061659812,-0.156779870390892,0.0,0.0,-0.2511897087097168,-0.5954591035842896
-0.0198700912296772,1.2819695472717283,-0.1293067634105682,-0.4853748679161072,-0.0643471553921699,-0.1455162465572357,0.0,0.0,0.7046014070510864,0.0487488508224487
-0.0210416801273822,1.2719101905822754,-0.1100276112556457,-0.4474065899848938,-0.071417897939682,-0.1414277553558349,0.0,0.0,-0.7375555634498596,-0.5162597298622131
-0.0222519878298044,1.2614437341690063,-0.1142580732703208,-0.4655117988586426,-0.0781306847929954,-0.1342676132917404,0.0,0.0,-0.6807618737220764,-0.0967069864273071
-0.0234674457460641,1.2505731582641602,-0.1142903119325637,-0.4835321307182312,-0.0853211358189582,-0.1438221335411071,0.0,0.0,-0.1867727637290954,0.1128919124603271
-0.0246879570186138,1.2392984628677368,-0.1143229976296424,-0.5015577077865601,-0.0929870381951332,-0.1533318907022476,0.0,0.0,-0.194824993610382,-0.3581797480583191
-0.0259134285151958,1.2276194095611572,-0.1143552288413047,-0.5195848941802979,-0.1011264100670814,-0.1628023236989975,0.0,0.0,-0.2753450870513916,-0.8487516641616821
-0.0272195823490619,1.215547800064087,-0.1238796338438987,-0.5369898080825806,-0.1078208684921264,-0.1339014619588852,0.0,0.0,-0.3871736526489258,-0.6397626399993896
-0.0285700801759958,1.2030829191207886,-0.128853291273117,-0.5544517636299133,-0.1139784976840019,-0.1231634020805358,0.0,0.0,0.4442843198776245,-0.8048362731933594
-0.0299336425960063,1.1907947063446045,-0.1313300728797912,-0.546541154384613,-0.1189833059906959,-0.1001050844788551,0.0,0.0,0.1821284294128418,-0.9548861384391784
-0.0312225334346294,1.1786746978759766,-0.1253439933061599,-0.5389539003372192,-0.1225265488028526,-0.0708710700273513,0.0,0.0,0.3460737466812134,-0.7074341773986816
-0.0324787124991416,1.1665196418762207,-0.1231143102049827,-0.5404365062713623,-0.1250222027301788,-0.0499171540141105,0.0,0.0,-0.4035652875900268,-0.3761858940124511
-0.0337400436401367,1.15395987033844,-0.123154304921627,-0.5584610104560852,-0.1279753148555755,-0.0590678863227367,0.0,0.0,0.7169486284255981,-0.4817606806755066
-0.0350647941231727,1.142091989517212,-0.1283503472805023,-0.527820348739624,-0.1320824176073074,-0.0821424573659896,0.0,0.0,-0.2682923078536987,-0.6033019423484802
-0.0364411361515522,1.1298329830169678,-0.1342585235834121,-0.545154333114624,-0.1354399919509887,-0.0671514123678207,0.0,0.0,0.2965033054351806,-0.9334036111831664
-0.0379243865609169,1.118180274963379,-0.1463231146335601,-0.5180737376213074,-0.1374427825212478,-0.040055688470602,0.0,0.0,0.2875733375549316,0.0631566047668457
-0.039430521428585,1.1070412397384644,-0.1476838290691375,-0.49534472823143,-0.1403563469648361,-0.0582712367177009,0.0,0.0,0.2113853693008422,0.5325343608856201
-0.0408663749694824,1.0960214138031006,-0.1391258239746093,-0.4901949763298034,-0.1448044627904892,-0.0889624580740928,0.0,0.0,-0.0235580205917358,0.4302799701690674
-0.0423067100346088,1.08459734916687,-0.1391468197107315,-0.508217990398407,-0.1496817171573639,-0.0975448340177536,0.0,0.0,0.292996883392334,-0.1829042434692382
-0.0437603965401649,1.073291540145874,-0.139784425497055,-0.5030553936958313,-0.1552633196115493,-0.1116318106651306,0.0,0.0,-0.7130705714225769,-0.2210651636123657
-0.0452182777225971,1.0615816116333008,-0.1397926807403564,-0.5210795998573303,-0.161260649561882,-0.1199467927217483,0.0,0.0,-0.1759950518608093,-0.6691457629203796
-0.0467387214303016,1.0494755506515503,-0.1471116840839386,-0.5385844111442566,-0.1661881655454635,-0.0985501036047935,0.0,0.0,-0.3874354362487793,-0.9298356771469116
-0.0483332648873329,1.0369850397109983,-0.1559442579746246,-0.5555322766304016,-0.1697023957967758,-0.0702848061919212,0.0,0.0,-0.2606974840164184,0.3651449680328369
-0.049931526184082,1.02409029006958,-0.1559283882379531,-0.5735549330711365,-0.1736075729131698,-0.0781033784151077,0.0,0.0,-0.3037995100021362,-0.7597786784172058
-0.0515954978764057,1.010803461074829,-0.163704052567482,-0.5908413529396057,-0.1763072162866592,-0.053993247449398,0.0,0.0,-0.1447799801826477,-0.237220287322998
-0.0532628074288368,0.997112274169922,-0.1636695265769958,-0.6088636517524719,-0.1793775111436844,-0.0614056773483753,0.0,0.0,-0.1553819179534912,-0.3986226320266723
-0.0549331679940223,0.9830167293548584,-0.1636249721050262,-0.6268859505653381,-0.1828070133924484,-0.0685899928212165,0.0,0.0,-0.2453916072845459,0.03689706325531
-0.0566065795719623,0.968516767024994,-0.1635699421167373,-0.6449083089828491,-0.1865834146738052,-0.0755282342433929,0.0,0.0,0.2031865119934082,-0.8387057781219482
-0.0583293922245502,0.9544986486434937,-0.1698157340288162,-0.6233463287353516,-0.1890672147274017,-0.0496760606765747,0.0,0.0,-0.6098330616950989,-0.4450124502182007
-0.0600545890629291,0.940075933933258,-0.1697380393743515,-0.6413680911064148,-0.1918704956769943,-0.0560654513537883,0.0,0.0,-0.6994035243988037,-0.839853823184967
-0.0618377700448036,0.925255537033081,-0.1766327917575836,-0.6589057445526123,-0.1935702711343765,-0.0339954197406768,0.0,0.0,-0.546427309513092,-0.8837888836860657
-0.0636802688241005,0.9100455045700072,-0.1837471425533294,-0.6760656833648682,-0.1940773427486419,-0.010141503997147,0.0,0.0,-0.7269602417945862,-0.4807533025741577
-0.0655242949724197,0.8944308757781982,-0.1836322396993637,-0.6940863132476807,-0.1948552876710891,-0.0155587662011384,0.0,0.0,-0.5453561544418335,-0.535294771194458
-0.0674086585640907,0.8784176111221313,-0.1883921027183532,-0.7117108106613159,-0.1948966383934021,-0.0008271038532257,0.0,0.0,0.1090993881225586,-0.3150073885917663
-0.0691956505179405,0.8624290823936462,-0.1786101162433624,-0.7106133103370667,-0.1949819773435592,-0.0017068504821509,0.0,0.0,-0.5118647217750549,-0.3460277318954468
-0.0709831267595291,0.8460356593132019,-0.1784547269344329,-0.7286330461502075,-0.1952805966138839,-0.0059721213765442,0.0,0.0,0.2405263185501098,-0.666921854019165
-0.0728158950805664,0.8301617503166199,-0.1839684545993805,-0.7054193019866943,-0.1945937126874923,0.0137377008795738,0.0,0.0,-0.8892436623573303,-0.3288938999176025
-0.0746485739946365,0.8138827681541443,-0.183784544467926,-0.7234382629394531,-0.1940771043300628,0.0103321466594934,0.0,0.0,-0.6035820841789246,-0.5767749547958374
-0.0765149146318435,0.7972087264060974,-0.1878698021173477,-0.7409026026725769,-0.192825898528099,0.0250241253525018,0.0,0.0,-0.8080601692199707,-0.8495132327079773
-0.0784516334533691,0.7801566123962402,-0.1966567188501358,-0.7574926614761353,-0.1898263543844223,0.0599907524883747,0.0,0.0,0.0726774930953979,0.0795817375183105
-0.0802628546953201,0.7631044983863831,-0.1843371540307998,-0.7574647665023804,-0.1865987926721573,0.0645511001348495,0.0,0.0,-0.2450820207595825,0.4640395641326904
-0.0820724517107009,0.7456472516059875,-0.1840933859348297,-0.7754830121994019,-0.1834471821784973,0.0630318075418472,0.0,0.0,0.4508990049362182,0.3155903816223144
-0.0836730971932411,0.7283806800842285,-0.1637587398290634,-0.766951322555542,-0.1797415614128112,0.074112631380558,0.0,0.0,0.1149060726165771,0.2314200401306152
-0.0852778404951095,0.7111955285072327,-0.1638451963663101,-0.7633796334266663,-0.1763606071472168,0.0676189810037612,0.0,0.0,0.0803467035293579,0.0838074684143066
-0.0867276191711425,0.6943587064743042,-0.1486402451992035,-0.7478772401809692,-0.1726967543363571,0.0732766538858413,0.0,0.0,0.094645619392395,0.7153615951538086
-0.0879385024309158,0.6777381300926208,-0.1234315484762191,-0.7384183406829834,-0.1703470945358276,0.0469934083521366,0.0,0.0,-0.447979211807251,0.1695541143417358
-0.0891456604003906,0.6607121825218201,-0.1231089085340499,-0.7564343810081482,-0.1679495424032211,0.0479507334530353,0.0,0.0,0.4174476861953735,-0.1316825747489929
-0.090300366282463,0.6442942023277283,-0.1176391094923019,-0.729444146156311,-0.165782168507576,0.0433476194739341,0.0,0.0,0.2856965065002441,0.0966064929962158
-0.0913638100028038,0.6278872489929199,-0.1087826937437057,-0.728928804397583,-0.1633346676826477,0.0489498972892761,0.0,0.0,0.5001795291900635,-0.0471126437187194
-0.0924085602164268,0.6120395064353943,-0.1066161766648292,-0.7041074633598328,-0.161189392209053,0.0429052338004112,0.0,0.0,-0.5870862603187561,-0.8441519141197205
-0.093500517308712,0.5957968235015869,-0.1128294691443443,-0.7215028405189514,-0.1575605571269989,0.0725763216614723,0.0,0.0,0.4976372718811035,0.5608296394348145
-0.0944329276680946,0.5799567699432373,-0.0959711223840713,-0.7037168741226196,-0.154835820198059,0.054494597017765,0.0,0.0,0.0988657474517822,-0.1989393830299377
-0.0953130722045898,0.5641049742698669,-0.0909501388669014,-0.704220712184906,-0.1519031226634979,0.0586538836359977,0.0,0.0,0.538672924041748,-0.1041687130928039
-0.0962175354361534,0.5486898422241211,-0.0930473208427429,-0.6848536133766174,-0.1492998898029327,0.052064724266529,0.0,0.0,0.5077575445175171,-0.4024975299835205
-0.0969796180725097,0.5340231657028198,-0.0791309103369712,-0.6515644192695618,-0.1463831961154937,0.0583342127501964,0.0,0.0,-0.1377617716789245,-0.5926008224487305
-0.0977752655744552,0.5189526081085205,-0.0837623327970504,-0.6693954467773438,-0.1422058492898941,0.0835465490818023,0.0,0.0,0.8450677394866943,0.0765345096588134
-0.0983985885977745,0.5048856735229492,-0.0669186562299728,-0.6247655749320984,-0.1376309841871261,0.0914977416396141,0.0,0.0,-0.9180439114570618,0.6948769092559814
-0.098968505859375,0.4904005825519562,-0.0606833696365356,-0.6434463262557983,-0.1339553147554397,0.0735130533576011,0.0,0.0,0.056403636932373,-0.425331711769104
-0.0995307937264442,0.4761651456356048,-0.0599354691803455,-0.6323567032814026,-0.1302621662616729,0.0738626420497894,0.0,0.0,0.4930934906005859,0.6819899082183838
-0.0999279022216796,0.4623453319072723,-0.0424059964716434,-0.6139818429946899,-0.1275684237480163,0.0538748279213905,0.0,0.0,0.4695580005645752,-0.3500823974609375
-0.1003343611955642,0.4492591619491577,-0.0431401431560516,-0.5813958644866943,-0.1250882446765899,0.0496035255491733,0.0,0.0,-0.9193328619003296,0.5307607650756836
-0.1006853133440017,0.4357583522796631,-0.0367191657423973,-0.599901020526886,-0.1234683841466903,0.0323969945311546,0.0,0.0,0.4254382848739624,-0.2492026686668396
-0.101014420390129,0.4223592281341553,-0.0347472950816154,-0.5953623652458191,-0.1216428056359291,0.0365113839507103,0.0,0.0,0.3553379774093628,0.1467113494873047
-0.101246453821659,0.4089412689208984,-0.0256526414304971,-0.5961588621139526,-0.1192082017660141,0.0486919358372688,0.0,0.0,0.6048200130462646,-0.484063982963562
-0.1014601737260818,0.3956139683723449,-0.0240425206720829,-0.5921155214309692,-0.1165547147393226,0.0530697628855705,0.0,0.0,0.5430805683135986,-0.3013585209846496
-0.1015857681632042,0.3829858303070068,-0.0155594050884246,-0.5610171556472778,-0.1135672926902771,0.0597483590245246,0.0,0.0,0.5525949001312256,0.797468900680542
-0.1014680862426757,0.3710773289203644,0.0098452474921941,-0.5291194915771484,-0.1116528660058975,0.038288377225399,0.0,0.0,0.2232729196548462,0.3022396564483642
-0.1013553589582443,0.3596789538860321,0.0093489987775683,-0.5064508318901062,-0.1097364276647567,0.0383284986019134,0.0,0.0,-0.5779785513877869,-0.113080620765686
-0.1012322455644607,0.3478747308254242,0.0099893826991319,-0.5244637131690979,-0.1074264794588089,0.0461992807686328,0.0,0.0,0.1552592515945434,0.418877363204956
-0.1010111793875694,0.336484432220459,0.0192422848194837,-0.5060309767723083,-0.1045858263969421,0.056813258677721,0.0,0.0,0.2057702541351318,0.0183355808258056
-0.100809097290039,0.3253265619277954,0.0172799620777368,-0.4957053959369659,-0.1016809120774269,0.0580982342362403,0.0,0.0,-0.1956676244735717,0.3069559335708618
-0.1005961447954177,0.3137628138065338,0.0179515779018402,-0.5137187838554382,-0.0983640477061271,0.0663375034928321,0.0,0.0,0.3278167247772217,0.2823450565338135
-0.1003265380859375,0.3026337325572967,0.0232419054955244,-0.4943870007991791,-0.0946744680404663,0.0737914890050888,0.0,0.0,0.3116511106491089,0.7401384115219116
-0.0998663902282714,0.291769415140152,0.0432463809847831,-0.4826858341693878,-0.0919316112995147,0.0548571534454822,0.0,0.0,-0.4048722982406616,-0.34539395570755
-0.0993949919939041,0.2804993391036987,0.0439455136656761,-0.5006993412971497,-0.0887624472379684,0.0633830726146698,0.0,0.0,0.6498010158538818,-0.1763323545455932
-0.0987841635942459,0.2694120407104492,0.0570132732391357,-0.4925355017185211,-0.0847344547510147,0.0805598124861717,0.0,0.0,0.3468856811523437,0.2874588966369629
-0.0980029106140136,0.2585996389389038,0.0730615109205246,-0.4802704453468323,-0.0797175988554954,0.100337266921997,0.0,0.0,-0.280361533164978,0.571685791015625
-0.097154714167118,0.2473707050085067,0.0807299241423606,-0.4988512694835663,-0.0756669640541076,0.0810125917196273,0.0,0.0,0.2382283210754394,0.0524883270263671
-0.0962564498186111,0.2365789264440536,0.0853143259882927,-0.4794163107872009,-0.0711954832077026,0.0894296914339065,0.0,0.0,0.2379114627838134,-0.6545064449310303
-0.095331385731697,0.2262397557497024,0.0861741974949836,-0.4592287838459015,-0.0649359226226806,0.1251910477876663,0.0,0.0,-0.3288792371749878,0.3587018251419067
-0.0943944007158279,0.2154954820871353,0.0869170054793357,-0.4772457778453827,-0.0582305006682872,0.1341086030006408,0.0,0.0,0.6183593273162842,0.8220522403717041
-0.0932527557015419,0.2048009037971496,0.1084086298942565,-0.4751009345054626,-0.0525318309664726,0.1139735206961631,0.0,0.0,0.410219669342041,-0.3374477028846741
-0.0921208411455154,0.1943557411432266,0.107177734375,-0.4640300869941711,-0.0465902052819728,0.1188323348760604,0.0,0.0,0.3948168754577636,-0.4408631920814514
-0.0908715277910232,0.184591919183731,0.1181355342268943,-0.4337512850761413,-0.0398656576871871,0.1344909071922302,0.0,0.0,-0.2061681747436523,-0.7805670499801636
-0.0896738991141319,0.1744269281625747,0.110855147242546,-0.451568067073822,-0.0310740992426872,0.175830990076065,0.0,0.0,0.6833577156066895,0.6464706659317017
-0.0885249152779579,0.1650823950767517,0.1071686297655105,-0.4151724278926849,-0.0234328228980302,0.152825579047203,0.0,0.0,0.0259205102920532,0.2930425405502319
-0.0872992500662803,0.1559811234474182,0.1141089051961898,-0.4043917059898376,-0.0150842927396297,0.1669705808162689,0.0,0.0,0.1671594381332397,0.4993300437927246
-0.0860909447073936,0.1472711712121963,0.11208276450634,-0.3870454132556915,-0.0064521711319684,0.1726423949003219,0.0,0.0,-0.557466983795166,0.9157172441482544
-0.0848076790571212,0.1381626725196838,0.1207098960876464,-0.4048091769218445,0.0010689067421481,0.1504215747117996,0.0,0.0,0.4706265926361084,0.3929228782653808
-0.0835345238447189,0.1293144524097442,0.1193374767899513,-0.3932806849479675,0.0089483456686139,0.1575886756181717,0.0,0.0,0.3612028360366821,0.7072250843048096
-0.0823041945695877,0.120804913341999,0.1161828190088272,-0.378259927034378,0.0157108549028635,0.1352501958608627,0.0,0.0,0.4221189022064209,0.8508491516113281
-0.0811472907662391,0.1125629544258117,0.1102598309516906,-0.3663766980171203,0.02106748893857,0.107133150100708,0.0,0.0,0.1394813060760498,0.2822551727294922
-0.07991524040699,0.1046617329120636,0.1169707551598548,-0.3512635827064514,0.0272253230214118,0.123156651854515,0.0,0.0,0.3484681844711303,0.81995689868927
-0.078557014465332,0.0968051552772522,0.1306971758604049,-0.3492831587791443,0.0322822630405426,0.1011391133069992,0.0,0.0,0.0417386293411254,0.142333984375
-0.0771102905273437,0.0892695039510726,0.1386542022228241,-0.3350616097450256,0.0382266119122505,0.1188870444893837,0.0,0.0,0.4910624027252197,0.8805063962936401
-0.0756315216422081,0.0823887437582016,0.1431962549686432,-0.3059357404708862,0.0428540408611297,0.0925486981868743,0.0,0.0,-0.1568810939788818,-0.3431087732315063
-0.0741400718688964,0.0751032903790474,0.1439935266971588,-0.3239554464817047,0.0479464642703533,0.1018485426902771,0.0,0.0,0.717731237411499,-0.6168473958969116
-0.0726281180977821,0.0683188065886497,0.144114151597023,-0.301773726940155,0.0549428835511207,0.1399280577898025,0.0,0.0,0.656194806098938,0.0773329734802246
-0.0711557418107986,0.0623553618788719,0.13973268866539,-0.2653382122516632,0.0623712092638015,0.148566722869873,0.0,0.0,0.3623453378677368,-0.1605926752090454
-0.0696611404418945,0.0569646209478378,0.1412442475557327,-0.2399522364139557,0.0704962983727455,0.1625016927719116,0.0,0.0,0.2983286380767822,0.9072201251983644
-0.0680346488952636,0.0517195798456668,0.1557361036539077,-0.2334539890289306,0.0773325935006141,0.1367257237434387,0.0,0.0,0.3038116693496704,-0.3971505165100097
-0.0665294677019119,0.0467888936400413,0.1435927450656891,-0.2195181548595428,0.0841875523328781,0.1370993554592132,0.0,0.0,0.3172159194946289,0.2465258836746215
-0.0651482567191124,0.0420543998479843,0.1312195360660553,-0.2108245640993118,0.0910340845584869,0.1369306743144989,0.0,0.0,0.1765339374542236,0.5021772384643555
-0.0637679100036621,0.0375182479619979,0.1317014396190643,-0.202005922794342,0.0973093882203102,0.1255062222480774,0.0,0.0,0.317582368850708,0.4134300947189331
-0.0623957626521587,0.0332160554826259,0.1303278505802154,-0.1916737109422683,0.104144737124443,0.1367070972919464,0.0,0.0,0.4778667688369751,0.6549209356307983
-0.0608652122318744,0.0290116406977176,0.1467635780572891,-0.1873137354850769,0.1103971377015113,0.1250480562448501,0.0,0.0,0.4381263256072998,0.491118311882019
-0.0593032836914062,0.0253045409917831,0.1490349322557449,-0.1653047353029251,0.117505170404911,0.1421605050563812,0.0,0.0,0.1742947101593017,-0.2867742776870727
-0.0577784553170204,0.0220507718622684,0.1447882205247879,-0.145237997174263,0.1251581013202667,0.1530584394931793,0.0,0.0,-0.1253100037574768,-0.5754653215408325
-0.0562810897827148,0.0183793641626834,0.1405546367168426,-0.1639715880155563,0.1343031525611877,0.1829006969928741,0.0,0.0,0.0263682603836059,-0.3146997690200805
