x_pos,y_pos,x_vel,y_vel,angle,ang_vel,leg_1,leg_2,main_booster,lat_booster
-0.0015311241149902,1.4032353162765503,-0.1551094949245453,-0.3415440320968628,0.0017909165471792,0.0353295505046844,0.0,0.0,-0.550646185874939,0.4751543998718261
-0.0030691146384924,1.3951845169067385,-0.155586302280426,-0.3578099906444549,0.0035477478522807,0.0351408086717128,0.0,0.0,-0.272918701171875,0.7965981960296631
-0.0045369146391749,1.3867390155792236,-0.1466198712587356,-0.3753616511821747,0.0033888719044625,-0.0031776442192494,0.0,0.0,-0.2895331382751465,0.6975734233856201
-0.0059661865234375,1.3779021501541138,-0.1416512280702591,-0.3927473425865173,0.0021294639445841,-0.0251905228942632,0.0,0.0,-0.4416815042495727,0.7852514982223511
-0.0073252678848803,1.3686789274215698,-0.1327386051416397,-0.4099183678627014,-0.0010116829071193,-0.0628290027379989,0.0,0.0,-0.0337204933166503,0.5581445693969727
-0.0086347581818699,1.3590658903121948,-0.1264006644487381,-0.4272527694702148,-0.005506673362106,-0.0899078100919723,0.0,0.0,-0.0461953878402709,0.5171747207641602
-0.0099085811525583,1.3490638732910156,-0.1218459457159042,-0.4445655643939972,-0.0109883127734065,-0.1096426099538803,0.0,0.0,0.6052727699279785,-0.2993789911270141
-0.0110333440825343,1.339613676071167,-0.1076357141137123,-0.420056939125061,-0.015782106667757,-0.09588473290205,0.0,0.0,0.1520898342132568,-0.1475694179534912
-0.0121600152924656,1.330649733543396,-0.1077646166086196,-0.3984530568122864,-0.0206238366663455,-0.0968434363603591,0.0,0.0,0.0432896614074707,-0.1882923245429992
-0.0132796289399266,1.3219850063323977,-0.1070621609687805,-0.3851775825023651,-0.0254777632653713,-0.0970873683691024,0.0,0.0,-0.5660871863365173,0.3987411260604858
-0.0144009590148925,1.3129314184188845,-0.1072093695402145,-0.402474969625473,-0.0303448643535375,-0.0973507612943649,0.0,0.0,-0.5618273019790649,0.3214954137802124
-0.0155233386904001,1.303489089012146,-0.1073091402649879,-0.4197684824466705,-0.0352282375097274,-0.0976762920618057,0.0,0.0,-0.7731766104698181,0.6229743957519531
-0.0165867805480957,1.2936580181121826,-0.0998684167861938,-0.4370988607406616,-0.0416329279541969,-0.1281056106090545,0.0,0.0,-0.5834354162216187,-0.639516294002533
-0.0176953319460153,1.283435344696045,-0.1054912805557251,-0.4545049667358398,-0.0469367541372776,-0.1060862094163894,0.0,0.0,-0.5822239518165588,-0.5339782238006592
-0.0188358314335346,1.2728314399719238,-0.1094910055398941,-0.4714294373989105,-0.0514542981982231,-0.0903593376278877,0.0,0.0,-0.2447301745414734,-0.3541833758354187
-0.0199760440737009,1.2618389129638672,-0.1094289049506187,-0.4887252151966095,-0.056000966578722,-0.0909414440393447,0.0,0.0,-0.2730554938316345,0.7990515232086182
-0.0210378654301166,1.2504603862762451,-0.0995909422636032,-0.5059711933135986,-0.062527522444725,-0.1305430233478546,0.0,0.0,-0.718149721622467,-0.9145816564559937
-0.0221539493650198,1.238690733909607,-0.1063945740461349,-0.5233258605003357,-0.0677023082971572,-0.1035048812627792,0.0,0.0,0.581730842590332,-0.6960867047309875
-0.0231698993593454,1.2276842594146729,-0.0979392305016517,-0.4893516004085541,-0.0713190585374832,-0.0723416432738304,0.0,0.0,-0.8258280158042908,-0.5037339329719543
-0.0242294315248727,1.2162929773330688,-0.1034081205725669,-0.50639808177948,-0.0738425850868225,-0.0504749119281768,0.0,0.0,-0.4232626557350158,-0.8400706648826599
-0.0253392215818166,1.2045247554779053,-0.1097245961427688,-0.5230937600135803,-0.0750925466418266,-0.0250011179596185,0.0,0.0,-0.7085626125335693,-0.4128520488739013
-0.0264474861323833,1.1923675537109375,-0.1095074787735939,-0.5403882265090942,-0.0763913169503212,-0.025977749377489,0.0,0.0,-0.0648728013038635,-0.2853423953056335
-0.0275538451969623,1.179821252822876,-0.1092721819877624,-0.5576828718185425,-0.0777413770556449,-0.0270037557929754,0.0,0.0,-0.2511100769042969,-0.3908263444900512
-0.0286582950502634,1.1668858528137207,-0.1090215891599655,-0.5749775767326355,-0.0791459903120994,-0.0280950162559747,0.0,0.0,-0.6863868832588196,-0.270948052406311
-0.0297606475651264,1.1535615921020508,-0.1087586507201194,-0.5922724008560181,-0.0806081667542457,-0.0292460359632968,0.0,0.0,-0.2271439433097839,-0.8128967881202698
-0.0309413913637399,1.1398407220840454,-0.1185703054070472,-0.6097888350486755,-0.0801185667514801,0.0097918193787336,0.0,0.0,0.0829595327377319,0.1203688383102417
-0.0320793166756629,1.1264426708221436,-0.1142442002892494,-0.5954502820968628,-0.0796810090541839,0.0087513905018568,0.0,0.0,-0.5762046575546265,0.1886379718780517
-0.0332152359187603,1.112655520439148,-0.1139643192291259,-0.6127426028251648,-0.0793097913265228,0.0074245035648345,0.0,0.0,0.30158531665802,0.2385817766189575
-0.034403134137392,1.099403977394104,-0.1186146289110183,-0.5889626741409302,-0.0794832035899162,-0.0034683018457144,0.0,0.0,0.2417182922363281,0.6202592849731445
-0.0355284698307514,1.0863054990768433,-0.1110103279352188,-0.5822402834892273,-0.0809943601489067,-0.0302232448011636,0.0,0.0,-0.5251445174217224,-0.6699333190917969
-0.0367026329040527,1.072831630706787,-0.1171181425452232,-0.5988505482673645,-0.0812845379114151,-0.0058036232367157,0.0,0.0,-0.1042579412460327,-0.0139201879501342
-0.0378747954964637,1.058969020843506,-0.1168487519025802,-0.6161430478096008,-0.0816513523459434,-0.0073361033573746,0.0,0.0,-0.8346386551856995,-0.6310495734214783
-0.0391014106571674,1.0447299480438232,-0.1236579790711402,-0.6327854990959167,-0.0806660279631614,0.0197067148983478,0.0,0.0,-0.8242560029029846,0.4252129793167114
-0.0403263084590435,1.0301021337509155,-0.123409554362297,-0.6500779986381531,-0.0797619223594665,0.0180822648108005,0.0,0.0,-0.275797426700592,-0.3277175426483154
-0.0415497794747352,1.0150854587554932,-0.1231754198670387,-0.6673705577850342,-0.07894117385149,0.0164149645715951,0.0,0.0,-0.8492510914802551,0.7676981687545776
-0.0427092537283897,0.999678075313568,-0.1150988191366195,-0.6848210692405701,-0.0797795206308364,-0.0167670641094446,0.0,0.0,-0.650154173374176,-0.6219949722290039
-0.043918989598751,0.9838845133781432,-0.1213423162698745,-0.7019122242927551,-0.0794132351875305,0.0073258345946669,0.0,0.0,-0.5035709738731384,-0.4889602661132812
-0.0451278686523437,0.967702090740204,-0.1211657971143722,-0.7192047834396362,-0.0791360810399055,0.0055430782958865,0.0,0.0,0.0539537668228149,-0.1792465448379516
-0.0463186278939247,0.9519376158714294,-0.1191474199295044,-0.7006484866142273,-0.0790659338235855,0.0014030145248398,0.0,0.0,-0.5586116313934326,-0.4191367626190185
-0.0475090965628623,0.9357839822769164,-0.1190211325883865,-0.7179409861564636,-0.0790882110595703,-0.000445483776275,0.0,0.0,-0.5415099859237671,-0.8447842597961426
-0.0487774834036827,0.9192577004432678,-0.1287308186292648,-0.7343979477882385,-0.0772214084863662,0.0373359359800815,0.0,0.0,-0.1957583427429199,0.3467752933502197
-0.050046157091856,0.9023426175117492,-0.1286637634038925,-0.751690685749054,-0.0754498392343521,0.0354315713047981,0.0,0.0,-0.2694113254547119,0.303300142288208
-0.0513155944645404,0.8850385546684265,-0.1286294758319854,-0.7689834833145142,-0.0737746879458427,0.0335030332207679,0.0,0.0,-0.5343953371047974,0.065106987953186
-0.052585981786251,0.8673454523086548,-0.128629982471466,-0.78627610206604,-0.0721970349550247,0.0315528437495231,0.0,0.0,0.4981639385223388,-0.5334001779556274
-0.0539204590022563,0.8496657609939575,-0.1359133422374725,-0.7856517434120178,-0.0697562098503112,0.0488164387643337,0.0,0.0,0.0844893455505371,0.0963832139968872
-0.0552112571895122,0.8319221138954163,-0.1315924227237701,-0.7884909510612488,-0.0672751888632774,0.0496205985546112,0.0,0.0,0.298510193824768,0.2671647071838379
-0.0564328208565712,0.8143104910850525,-0.1247868686914444,-0.7826260328292847,-0.0646723434329032,0.0520565994083881,0.0,0.0,0.0373928546905517,0.6512421369552612
-0.0576514229178428,0.7971033453941345,-0.1229939237236976,-0.7647161483764648,-0.0635494366288185,0.0224583037197589,0.0,0.0,-0.5870651602745056,0.1762256622314453
-0.0588730797171592,0.7795071601867676,-0.1231962591409683,-0.7820088267326355,-0.0625274628400802,0.020439401268959,0.0,0.0,0.4055289030075073,0.0101408958435058
-0.060089111328125,0.7621715068817139,-0.1224512904882431,-0.770438551902771,-0.061690017580986,0.016748946160078,0.0,0.0,0.3393681049346924,0.304652452468872
-0.0611644759774208,0.7451292872428894,-0.1088271886110305,-0.7573826313018799,-0.0604160130023956,0.0254800766706466,0.0,0.0,0.4726545810699463,-0.0976691842079162
-0.062255859375,0.7286857962608337,-0.110085591673851,-0.7307805418968201,-0.0594808049499988,0.0187042839825153,0.0,0.0,-0.6990848779678345,-0.0496236085891723
-0.0633521080017089,0.7118532657623291,-0.110477402806282,-0.7480730414390564,-0.0586468130350112,0.0166798327118158,0.0,0.0,-0.0143563151359558,-0.2282077670097351
-0.0644539818167686,0.6946319341659546,-0.1109196096658706,-0.765365481376648,-0.0579137578606605,0.0146611155942082,0.0,0.0,0.2891247272491455,0.6849362850189209
-0.0653561577200889,0.6775726675987244,-0.0896867141127586,-0.7582072019577026,-0.0584445111453533,-0.0106151131913065,0.0,0.0,0.2652076482772827,-0.3621340990066528
-0.0663168877363205,0.6606711745262146,-0.095086358487606,-0.7512128949165344,-0.0594136863946914,-0.0193837489932775,0.0,0.0,0.0431466102600097,-0.1440322995185852
-0.0671954154968261,0.6441289782524109,-0.0870476067066192,-0.7352409362792969,-0.0602075085043907,-0.0158765576779842,0.0,0.0,0.5084998607635498,-0.3273276090621948
-0.0679185837507247,0.6281084418296814,-0.072004310786724,-0.7120357751846313,-0.060516782104969,-0.0061854482628405,0.0,0.0,-0.1107797026634216,-0.596412718296051
-0.0686907768249511,0.6117087602615356,-0.0778643190860748,-0.7288464903831482,-0.0598822347819805,0.0126909483224153,0.0,0.0,0.6692121028900146,-0.1046403646469116
-0.0695009231567382,0.59611576795578,-0.0811932832002639,-0.6930137872695923,-0.0596997551620006,0.0036493218503892,0.0,0.0,-0.2153640985488891,-0.0145828127861022
-0.0703201293945312,0.5801337957382202,-0.0820098966360092,-0.7103061079978943,-0.0596120916306972,0.0017537407111376,0.0,0.0,0.2210789918899536,0.2536231279373169
-0.0711920708417892,0.5645456314086914,-0.0868427902460098,-0.6928179860115051,-0.0599605590105056,-0.0069692656397819,0.0,0.0,0.4768835306167602,-0.3053089380264282
-0.0719362273812294,0.5492508411407471,-0.0744930654764175,-0.6797654032707214,-0.0598899312317371,0.0014126087771728,0.0,0.0,-0.0700477361679077,0.3911911249160766
-0.0726911574602127,0.5335671305656433,-0.0754750967025756,-0.6970576643943787,-0.0599091127514839,-0.0003836879623122,0.0,0.0,0.5040878057479858,0.4426031112670898
-0.0734284371137619,0.518040120601654,-0.0736484006047248,-0.6900919675827026,-0.0599831901490688,-0.0014816665789112,0.0,0.0,0.4575326442718506,-0.1309798955917358
-0.0742552727460861,0.5029146075248718,-0.0820032805204391,-0.6722704172134399,-0.0606481730937957,-0.0132997827604413,0.0,0.0,-0.4565603137016296,0.9043203592300416
-0.0750198364257812,0.4874039590358734,-0.0738236457109451,-0.689470648765564,-0.0632584914565086,-0.0522063300013542,0.0,0.0,0.7328379154205322,0.1698906421661377
-0.0756919831037521,0.4719554185867309,-0.064893439412117,-0.6867017149925232,-0.0655514299869537,-0.0458588823676109,0.0,0.0,0.8740692138671875,-0.1137337088584899
-0.0762834548950195,0.4575643539428711,-0.0568834021687507,-0.639703631401062,-0.0677807629108429,-0.0445870049297809,0.0,0.0,0.6973080635070801,0.3666586875915527
-0.076952077448368,0.4435220062732696,-0.0640870034694671,-0.6242349147796631,-0.070532776415348,-0.055040143430233,0.0,0.0,0.3345476388931274,0.8176712989807129
-0.0776156410574913,0.4299146234989166,-0.061758954077959,-0.6049944758415222,-0.075079321861267,-0.0909309834241867,0.0,0.0,-0.0319363474845886,0.1011515855789184
-0.0782938972115516,0.4159185886383056,-0.063165970146656,-0.6222885251045227,-0.0796950757503509,-0.0923148766160011,0.0,0.0,-0.2306631803512573,-0.2551227211952209
-0.0789874047040939,0.4015337824821472,-0.0646225064992904,-0.639582633972168,-0.084376648068428,-0.0936313793063163,0.0,0.0,0.9624509811401368,0.424157977104187
-0.0795516967773437,0.3877744674682617,-0.0520549342036247,-0.6117777228355408,-0.0887167826294899,-0.0868025571107864,0.0,0.0,0.7528918981552124,-0.6714242100715637
-0.080187126994133,0.3742532730102539,-0.0603690333664417,-0.6011326909065247,-0.091869831085205,-0.0630609840154647,0.0,0.0,0.8237884044647217,-0.7397024035453796
-0.0807837471365928,0.3608682155609131,-0.0580846890807151,-0.5949895977973938,-0.0934251472353935,-0.0311062596738338,0.0,0.0,0.8733377456665039,-0.2519198060035705
-0.081396959722042,0.3476739525794983,-0.0595356523990631,-0.5865232944488525,-0.0951967239379882,-0.0354317016899585,0.0,0.0,0.9922502040863036,-0.1522179245948791
-0.0819465667009353,0.3355203866958618,-0.0530837886035442,-0.5402783155441284,-0.0970611944794654,-0.0372895970940589,0.0,0.0,-0.0660908222198486,-0.7221963405609131
-0.0825627297163009,0.3229922652244568,-0.0609533861279487,-0.5568501949310303,-0.0977166593074798,-0.01310914196074,0.0,0.0,0.2554855346679687,0.3252162933349609
-0.0832211524248123,0.3110148012638092,-0.0647482573986053,-0.5324043035507202,-0.0988037139177322,-0.0217410493642091,0.0,0.0,-0.5661668181419373,0.1803239583969116
-0.0838979706168174,0.2986482381820678,-0.0665539279580116,-0.5496965646743774,-0.0999230071902275,-0.0223860163241624,0.0,0.0,0.0754189491271972,-0.424626350402832
-0.0845159515738487,0.2866568565368652,-0.0607712380588054,-0.5330226421356201,-0.1009481027722358,-0.0205016285181045,0.0,0.0,-0.3416293263435364,0.054079532623291
-0.0851530060172081,0.2742764055728912,-0.0626487582921981,-0.5503148436546326,-0.1019952148199081,-0.0209422670304775,0.0,0.0,0.3482778072357178,-0.0294069647789001
-0.0857975035905838,0.2623391449451446,-0.063167504966259,-0.5306323170661926,-0.1032659411430358,-0.0254148989915847,0.0,0.0,-0.2322487235069275,-0.3570912480354309
-0.0864615440368652,0.2500128746032715,-0.0651098117232322,-0.5479243397712708,-0.1045478209853172,-0.0256375782191753,0.0,0.0,0.8304872512817383,-0.7499135732650757
-0.0870323181152343,0.238252192735672,-0.0575269274413585,-0.5226688981056213,-0.104109302163124,0.0087704826146364,0.0,0.0,0.5755906105041504,0.4797260761260986
-0.0875667557120323,0.2265858799219131,-0.0539901740849018,-0.5184649229049683,-0.1035658195614814,0.0108696669340133,0.0,0.0,0.863189697265625,0.5847935676574707
-0.0879175215959549,0.2151791900396347,-0.0347650945186615,-0.5069854855537415,-0.1038794741034507,-0.0062728226184844,0.0,0.0,0.9446234703063964,0.2626254558563232
-0.0880467444658279,0.2043593078851699,-0.013425420038402,-0.480850487947464,-0.1033795624971389,0.0099982609972357,0.0,0.0,0.5798130035400391,0.0312052965164184
-0.0880249962210655,0.1936923414468765,0.0010341705055907,-0.4740088284015655,-0.1022442653775215,0.0227055922150611,0.0,0.0,0.6263439655303955,0.1692571640014648
-0.0879539474844932,0.1837406307458877,0.0059649082832038,-0.4422195553779602,-0.1011097058653831,0.0226909480988979,0.0,0.0,0.075695514678955,-0.1076334118843078
-0.0878336876630783,0.1741338819265365,0.0107536492869257,-0.4268828630447387,-0.0998504310846328,0.025185614824295,0.0,0.0,-0.5551498532295227,-0.4842767715454101
-0.0877343192696571,0.1641379743814468,0.0086296163499355,-0.4441745579242706,-0.0985530614852905,0.0259474609047174,0.0,0.0,0.4051709175109863,0.2281122207641601
-0.0875432044267654,0.1541547924280166,0.0173611529171466,-0.4435830116271972,-0.0968141928315162,0.0347771719098091,0.0,0.0,0.8186278343200684,-0.1743685603141784
-0.0873764008283615,0.1446277946233749,0.0151455048471689,-0.4233241379261017,-0.0952915400266647,0.0304527319967746,0.0,0.0,0.6847705841064453,0.4533216953277588
-0.0870609283447265,0.1360131800174713,0.0295512285083532,-0.3827487230300903,-0.0933116376399993,0.0395981967449188,0.0,0.0,-0.1339267492294311,-0.8976486921310425
-0.0868398696184158,0.1270194798707962,0.0181665867567062,-0.3994792699813843,-0.0894087627530098,0.0780574679374694,0.0,0.0,0.7776191234588623,0.1599680185317993
-0.0866967216134071,0.1189335212111473,0.0109322685748338,-0.3591784834861755,-0.0860537886619567,0.0670994147658348,0.0,0.0,-0.3105286359786987,-0.4891335964202881
-0.0865744575858116,0.1104585230350494,0.0087611619383096,-0.3764707148075104,-0.0826206430792808,0.0686629638075828,0.0,0.0,0.6770830154418945,-0.1082310080528259
-0.0864643082022667,0.1027397736907005,0.0077159432694315,-0.3428779542446136,-0.0793540999293327,0.0653309077024459,0.0,0.0,0.1858779191970825,0.5350463390350342
-0.0863549262285232,0.0954421609640121,0.008756985887885,-0.3242243230342865,-0.0771890729665756,0.0433005988597869,0.0,0.0,0.3540596961975097,0.6299831867218018
-0.0862073898315429,0.0883604884147644,0.0137741118669509,-0.3146898150444031,-0.0762238577008247,0.0193042904138565,0.0,0.0,0.3909716606140136,-0.6687130331993103
-0.0862027183175087,0.0816661193966865,-0.0017585444729775,-0.2974162101745605,-0.0740186125040054,0.0441050678491592,0.0,0.0,0.3756742477416992,0.8165507316589355
-0.0862627997994422,0.0752416923642158,-0.0065304585732519,-0.2855060696601867,-0.0735024437308311,0.0103234397247433,0.0,0.0,0.3293489217758178,0.9410465955734252
-0.0861278548836708,0.0692796111106872,0.0146730216220021,-0.2650426626205444,-0.0746771469712257,-0.0234938710927963,0.0,0.0,-0.2661617994308471,-0.4367558360099792
-0.0860129371285438,0.062928207218647,0.0125562343746423,-0.2823338806629181,-0.0757286250591278,-0.021029720082879,0.0,0.0,0.5194046497344971,0.3250306844711303
-0.0857315063476562,0.0572219714522361,0.0284467339515686,-0.2536252439022064,-0.0760338902473449,-0.0061052879318594,0.0,0.0,-0.0251044034957885,0.8251194953918457
-0.0854064971208572,0.0511262752115726,0.0342633239924907,-0.2710112035274505,-0.0777832046151161,-0.0349861867725849,0.0,0.0,0.5908613204956055,0.0798460245132446
-0.0848998054862022,0.0458558425307273,0.0516621768474578,-0.2342927157878875,-0.0787563100457191,-0.0194623209536075,0.0,0.0,-0.0854084491729736,0.4755876064300537
-0.0844117179512977,0.0401962362229824,0.0496351793408393,-0.2515837252140045,-0.0795833393931388,-0.0165403094142675,0.0,0.0,0.5004720687866211,0.5076403617858887
-0.0838498100638389,0.0352572537958622,0.0579049214720726,-0.219601958990097,-0.0812868997454643,-0.0340712592005729,0.0,0.0,0.1345154047012329,0.5043532848358154
-0.0831766128540039,0.0307316873222589,0.0698096603155136,-0.2012740224599838,-0.0837459042668342,-0.0491803660988807,0.0,0.0,0.1964619159698486,0.0150355100631713
-0.0824350342154502,0.026305828243494,0.0762016624212265,-0.1968178451061248,-0.0857736691832542,-0.0405550822615623,0.0,0.0,0.155469536781311,0.3337205648422241
-0.0817588791251182,0.0221481174230575,0.0698943361639976,-0.1849204748868942,-0.0880311131477356,-0.045149065554142,0.0,0.0,0.1633820533752441,-0.351894736289978
-0.0811575874686241,0.0181547738611698,0.0626527965068817,-0.1776348948478698,-0.0905362069606781,-0.0501019358634948,0.0,0.0,0.4145458936691284,0.2903857231140136
-0.0805473327636718,0.0144956680014729,0.0634660869836807,-0.1627747863531112,-0.0929518491029739,-0.0483129434287548,0.0,0.0,0.3665066957473755,-0.078567624092102
-0.0798904448747634,0.0111033534631133,0.0678483620285987,-0.1509046405553817,-0.0950893610715866,-0.0427504256367683,0.0,0.0,0.4819416999816894,-0.0500847101211547
-0.0790106803178787,0.0085318656638264,0.0704350173473358,-0.1132633909583091,-0.0777270048856735,0.3472347259521484,1.0,0.0,0.1241717338562011,-0.7524430155754089
-0.0779957771301269,0.0067516304552555,0.0694596618413925,-0.0777665600180625,-0.0460120700299739,0.6343251466751099,0.0,0.0,0.6215101480484009,0.7032636404037476
-0.0768956169486045,0.0057533476501703,0.0802263766527175,-0.043712992221117,-0.0165885910391807,0.5884696245193481,0.0,0.0,-0.7462682723999023,-0.2853561639785766
