x_pos,y_pos,x_vel,y_vel,angle,ang_vel,leg_1,leg_2,main_booster,lat_booster
-0.001594066619873,1.403396725654602,-0.1618667095899582,-0.3343749642372131,0.0022017853334546,0.0434650406241416,0.0,0.0,-0.5198549032211304,0.63142991065979
-0.0032053948380053,1.3956657648086548,-0.1623148620128631,-0.3435987532138824,0.0033736554905772,0.0234402064234018,0.0,0.0,-0.3513818979263305,0.9020578861236572
-0.0048009874299168,1.387700438499451,-0.1589292287826538,-0.3540136218070984,0.0027464295271784,-0.0125456228852272,0.0,0.0,0.0896631479263305,0.5548191070556641
-0.0065120696090161,1.3799995183944702,-0.1695805191993713,-0.3422585427761078,0.0012405716115608,-0.030119989067316,0.0,0.0,0.0724838972091674,0.7785568237304688
-0.0081365583464503,1.3727085590362549,-0.1598192006349563,-0.3240435719490051,-0.0013560182414948,-0.0519368350505828,0.0,0.0,-0.2387014627456665,-0.135574460029602
-0.0098320003598928,1.365189552307129,-0.1672952324151992,-0.3341714143753052,-0.0035758563317358,-0.0444008857011795,0.0,0.0,-0.3645598292350769,0.5765995979309082
-0.0115547180175781,1.3574429750442505,-0.1692926436662674,-0.344306468963623,-0.0065195281058549,-0.0588793084025383,0.0,0.0,-0.3159191608428955,0.2931525707244873
-0.0133483884856104,1.3494685888290403,-0.1767659187316894,-0.3544312417507171,-0.0090890685096383,-0.0513953790068626,0.0,0.0,-0.2307018041610717,0.4835101366043091
-0.0152130126953125,1.3412662744522097,-0.1842374503612518,-0.3645559251308441,-0.0112869767472147,-0.0439626798033714,0.0,0.0,0.0272165536880493,0.6975142955780029
-0.0170889850705862,1.33351731300354,-0.1843548715114593,-0.3444315195083618,-0.0144973993301391,-0.0642146840691566,0.0,0.0,-0.511751651763916,0.8219337463378906
-0.0189618114382028,1.3255393505096436,-0.1825278550386428,-0.3546255528926849,-0.0192009899765253,-0.0940802246332168,0.0,0.0,-0.241743266582489,0.5677223205566406
-0.02085542678833,1.3173314332962036,-0.1837044507265091,-0.3648809790611267,-0.0247959829866886,-0.1119100898504257,0.0,0.0,-0.3603874444961548,0.7605385780334473
-0.0227467529475688,1.3088973760604858,-0.1819871217012405,-0.3749857246875763,-0.0318614691495895,-0.1413226425647735,0.0,0.0,-0.7711620926856995,0.840705394744873
-0.0246349330991506,1.3002246618270874,-0.1801554858684539,-0.3856590688228607,-0.0404258891940116,-0.1713040322065353,0.0,0.0,-0.7590410709381104,0.3919001817703247
-0.0265934951603412,1.2913247346878052,-0.1875554025173187,-0.3957885205745697,-0.0486331135034561,-0.164159744977951,0.0,0.0,-0.566685676574707,0.7573602199554443
-0.0285519603639841,1.2821838855743408,-0.1861189007759094,-0.4065997004508972,-0.0582662299275398,-0.1926797032356262,0.0,0.0,-0.6132826209068298,0.7952306270599365
-0.0305030830204486,1.2728190422058103,-0.1837873011827469,-0.4166951477527618,-0.0694881901144981,-0.2244594395160675,0.0,0.0,-0.2938976287841797,0.906202793121338
-0.0324361808598041,1.2632111310958862,-0.1800903975963592,-0.4276841878890991,-0.0825935453176498,-0.2621307969093323,0.0,0.0,-0.6310955286026001,0.7451996803283691
-0.034370232373476,1.2533761262893677,-0.1788180917501449,-0.4379817545413971,-0.0970772877335548,-0.2897009253501892,0.0,0.0,-0.5262552499771118,0.6888303756713867
-0.0363266952335834,0.0,-0.1802172064781189,-0.4485198557376861,-0.1124138906598091,-0.306759774684906,0.0,0.0,-0.8099520206451416,0.7334046363830566
-0.0382820144295692,1.2330095767974854,-0.1786752641201019,-0.4590854942798614,-0.1291904300451278,-0.3355612456798553,0.0,0.0,0.0388963222503662,-0.8692649602890015
-0.0403299331665039,1.222906231880188,-0.1900397092103958,-0.4503903090953827,-0.1439108848571777,-0.2944356799125671,0.0,0.0,-0.4743180274963379,-0.8112406134605408
-0.0424962043762207,1.2125864028930664,-0.203492671251297,-0.4599815607070923,-0.1570461988449096,-0.2627299427986145,0.0,0.0,-0.2708922624588012,-0.5713629722595215
-0.0447709076106548,1.2020431756973269,-0.2156689912080764,-0.4698750376701355,-0.1688676476478576,-0.2364502400159835,0.0,0.0,-0.3154066801071167,-0.1736198663711547
-0.0471136085689067,1.191273212432861,-0.2227910459041595,-0.4800110459327698,-0.1803907603025436,-0.2304828912019729,0.0,0.0,-0.8348044157028198,-0.1411167979240417
-0.0495266914367675,1.18025541305542,-0.2301246225833892,-0.4910846650600433,-0.1916252523660659,-0.224689319729805,0.0,0.0,-0.6743462681770325,0.5408889055252075
-0.0519647598266601,1.1690016984939575,-0.2318345755338668,-0.501752495765686,-0.2036727368831634,-0.2409496754407882,0.0,0.0,-0.5537727475166321,0.1716585159301757
-0.0544698722660541,1.1575214862823486,-0.238841101527214,-0.5118826627731323,-0.215453639626503,-0.235617995262146,0.0,0.0,-0.3482654094696045,-0.3488521575927734
-0.0570416450500488,1.1458145380020142,-0.2457888424396515,-0.5220122933387756,-0.2269796580076217,-0.230520486831665,0.0,0.0,-0.6634535789489746,-0.1371802687644958
-0.0596796981990337,1.1338807344436646,-0.2526725530624389,-0.5321413278579712,-0.2382632791996002,-0.2256723195314407,0.0,0.0,-0.6158900260925293,-0.8413256406784058
-0.0624442100524902,1.12175190448761,-0.267206609249115,-0.5405860543251038,-0.247664988040924,-0.1880340576171875,0.0,0.0,-0.2576756477355957,-0.6333403587341309
-0.0653291717171669,1.109412670135498,-0.2808911204338074,-0.5497099757194519,-0.2554100155830383,-0.1549004465341568,0.0,0.0,-0.3244498372077942,-0.6801971197128296
-0.0683363899588584,1.0968749523162842,-0.2948724627494812,-0.5582645535469055,-0.2613849937915802,-0.1194995194673538,0.0,0.0,0.2653443813323974,-0.1008131504058837
-0.0713831931352615,1.084528565406799,-0.2987931370735168,-0.5497944951057434,-0.2674008905887604,-0.1203180402517318,0.0,0.0,0.867711067199707,-0.1048847436904907
-0.0742877945303917,1.072972536087036,-0.2848331928253174,-0.5146344900131226,-0.2731630504131317,-0.1152432411909103,0.0,0.0,0.6315293312072754,-0.3659395575523376
-0.0770356208086013,1.062260389328003,-0.2693958878517151,-0.4771170318126678,-0.2786903083324432,-0.1105453595519065,0.0,0.0,0.3090181350708008,0.3271929025650024
-0.0797653198242187,1.051849126815796,-0.2676258981227875,-0.4637540876865387,-0.2841794192790985,-0.1097820997238159,0.0,0.0,-0.3249629735946655,0.2459025382995605
-0.0825551003217697,1.041210055351257,-0.2737531363964081,-0.4738765060901642,-0.289552241563797,-0.1074562668800354,0.0,0.0,-0.3088186979293823,-0.8110843300819397
-0.0854671448469162,1.0303808450698853,-0.2878043055534363,-0.4819813072681427,-0.293063223361969,-0.0702190697193145,0.0,0.0,-0.2953786849975586,0.6827871799468994
-0.0883828178048133,1.0193002223968506,-0.2868396639823913,-0.4934338927268982,-0.2979475557804107,-0.0976868346333503,0.0,0.0,-0.0414400100708007,0.0282318592071533
-0.0913549438118934,1.007991909980774,-0.2925372123718261,-0.5035570859909058,-0.3027726411819458,-0.0965019538998603,0.0,0.0,-0.1178699731826782,0.6938877105712891
-0.0943193435668945,0.9964250922203064,-0.2901706397533417,-0.5153986811637878,-0.3092615008354187,-0.1297780722379684,0.0,0.0,-0.6850159764289856,-0.6220614314079285
-0.0973774939775466,0.9846432209014891,-0.3006010353565216,-0.5247639417648315,-0.3146750628948211,-0.1082712560892105,0.0,0.0,0.5799126625061035,0.8448551893234253
-0.1001671776175499,0.9732733964920044,-0.2722475230693817,-0.5068013668060303,-0.3216581642627716,-0.1396620720624923,0.0,0.0,0.1835485696792602,0.2259218692779541
-0.1029674559831619,0.9619905352592468,-0.2731688022613525,-0.5030006170272827,-0.3287960290908813,-0.1427570581436157,0.0,0.0,0.3819446563720703,-0.4332312345504761
-0.1056885719299316,0.950859010219574,-0.2654158473014831,-0.4962816536426544,-0.3357959389686584,-0.1399981677532196,0.0,0.0,-0.3725932836532593,-0.1767106056213379
-0.1084552779793739,0.9395004510879515,-0.2699222564697265,-0.5064099431037903,-0.342855155467987,-0.1411842107772827,0.0,0.0,-0.2514761686325073,0.1801668405532837
-0.1112650856375694,0.9279151558876038,-0.27418053150177,-0.5165388584136963,-0.3499928712844848,-0.1427541971206665,0.0,0.0,0.6167662143707275,0.1046422719955444
-0.1139730438590049,0.9172567129135132,-0.2633518874645233,-0.4755392372608185,-0.3578285276889801,-0.1567130386829376,0.0,0.0,0.1163579225540161,0.2696485519409179
-0.1166120544075965,0.9068623185157776,-0.2563075423240661,-0.4638909697532654,-0.3658460080623626,-0.1603493392467498,0.0,0.0,0.2631144523620605,-0.0104901194572448
-0.1190277114510536,0.8967940807342529,-0.2343508899211883,-0.449336439371109,-0.373489648103714,-0.1528728753328323,0.0,0.0,0.4076451063156128,-0.5512843132019043
-0.1213357001543045,0.8874323964118958,-0.2244164943695068,-0.4177588224411011,-0.3802630603313446,-0.1354681551456451,0.0,0.0,0.8210632801055908,-0.7061758637428284
-0.1234223395586013,0.8784812688827515,-0.2037858217954635,-0.3991389572620392,-0.3854601085186004,-0.1039401516318321,0.0,0.0,0.9245046377182008,-0.8702119588851929
-0.1252432763576507,0.8706386089324951,-0.1787455528974533,-0.3494709730148315,-0.3890273869037628,-0.071345753967762,0.0,0.0,0.9738562107086182,-0.553144633769989
-0.1267322599887848,0.8632933497428894,-0.1469374001026153,-0.3269990086555481,-0.3911129832267761,-0.041712187230587,0.0,0.0,0.9601576328277588,-0.6673924922943115
-0.1281891763210296,0.856593132019043,-0.1445403397083282,-0.2980967462062835,-0.3923428952693939,-0.0245983526110649,0.0,0.0,0.9434164762496948,-0.6749505400657654
-0.1292409002780914,0.8509339094161987,-0.1054009050130844,-0.2514652013778686,-0.3921037316322326,0.004783434793353,0.0,0.0,0.9176958799362184,-0.6056630611419678
-0.1298909187316894,0.8460644483566284,-0.0665962845087051,-0.2159735411405563,-0.3903961479663849,0.0341522619128227,0.0,0.0,0.4586617946624756,-0.7752785682678223
-0.1302588433027267,0.8419772982597351,-0.0397673472762107,-0.1808447390794754,-0.387223482131958,0.0634531453251838,0.0,0.0,0.1849323511123657,-0.8456897139549255
-0.1305364668369293,0.8385266661643982,-0.0321078523993492,-0.1521887332201004,-0.3825924694538116,0.0926200598478317,0.0,0.0,0.5895063877105713,-0.945034384727478
-0.1307011544704437,0.8353486061096191,-0.0224540121853351,-0.1396557986736297,-0.3762363195419311,0.1271238029003143,0.0,0.0,-0.7690750360488892,-0.8429796695709229
-0.1309333741664886,0.8319914937019348,-0.0308702103793621,-0.1472155898809433,-0.3681351840496063,0.1620227396488189,0.0,0.0,-0.633070170879364,-0.9299991726875304
-0.1312133818864822,0.8284381031990051,-0.036822035908699,-0.1556873768568039,-0.3588121235370636,0.186460942029953,0.0,0.0,-0.6266595125198364,-0.6647453308105469
-0.1315292418003082,0.8246868848800659,-0.0413944274187088,-0.1642988324165344,-0.3484812676906585,0.20661661028862,0.0,0.0,-0.5342130661010742,0.2581052780151367
-0.1318303048610687,0.8207105994224548,-0.0396629497408866,-0.1744389235973358,-0.3384641408920288,0.2003423422574997,0.0,0.0,-0.7407944202423096,0.3105064630508423
-0.1321130692958831,0.8165093660354614,-0.0375539697706699,-0.1845785081386566,-0.3287689983844757,0.1939037144184112,0.0,0.0,-0.5867340564727783,-0.4046629667282104
-0.1323740035295486,0.8120829463005066,-0.0350767336785793,-0.1947175860404968,-0.3194034397602081,0.1873110979795456,0.0,0.0,-0.8594446182250977,0.708803653717041
-0.1325511932373047,0.8073931336402893,-0.0248201433569192,-0.2068888396024704,-0.3120272755622864,0.1475232690572738,0.0,0.0,-0.45362389087677,-0.6665521264076233
-0.1327457427978515,0.8025082349777222,-0.0275021586567163,-0.2154037654399871,-0.3036890029907226,0.1667654812335968,0.0,0.0,-0.790573239326477,0.5191633701324463
-0.132875919342041,0.7973799705505371,-0.0198823269456625,-0.2265045791864395,-0.2965945601463318,0.141888678073883,0.0,0.0,-0.994307816028595,0.2558586597442627
-0.1329710930585861,0.7920259833335876,-0.0160528756678104,-0.2366400212049484,-0.2898557484149933,0.1347759664058685,0.0,0.0,-0.9506470561027528,-0.1651026010513305
-0.1330283135175705,0.7864461541175842,-0.0119212586432695,-0.2467750161886215,-0.2834779918193817,0.1275548636913299,0.0,0.0,-0.9639729857444764,0.3058674335479736
-0.133044809103012,0.7806405425071716,-0.0075030326843261,-0.25690957903862,-0.2774663269519806,0.1202332153916359,0.0,0.0,-0.9654002785682678,-0.1759199500083923
-0.1330179274082183,0.7746087908744812,-0.0028140207286924,-0.2670437395572662,-0.2718254029750824,0.1128183603286743,0.0,0.0,-0.9990957975387572,-0.6364821791648865
-0.1329971253871917,0.7683676481246948,-0.0043902872130274,-0.2761953771114349,-0.2652021944522857,0.1324640810489654,0.0,0.0,-0.9790596961975098,0.4434794187545776
-0.1329280883073806,0.7619007229804993,0.000792242004536,-0.2863300144672394,-0.2589580416679382,0.1248828619718551,0.0,0.0,-0.9998421669006348,0.5354952812194824
-0.1327710151672363,0.7551870346069336,0.0109803285449743,-0.2975541353225708,-0.254127949476242,0.0966020226478576,0.0,0.0,-0.996340274810791,0.4757925271987915
-0.1325614899396896,0.7482473254203796,0.0165954753756523,-0.3076868951320648,-0.2496839761734008,0.0888794735074043,0.0,0.0,-0.9876663088798524,-0.7946666479110718
-0.1323489248752594,0.7411090731620789,0.015902305021882,-0.3163500130176544,-0.244230106472969,0.1090773716568946,0.0,0.0,-0.9924103617668152,-0.0322288274765014
-0.1320802718400955,0.7337448000907898,0.0218908973038196,-0.3264831006526947,-0.2391683757305145,0.1012347117066383,0.0,0.0,-0.9756664633750916,-0.0811827182769775
-0.1317538321018219,0.7261543869972229,0.0280460808426141,-0.3366157710552215,-0.2345014214515686,0.0933391749858856,0.0,0.0,-0.9831589460372924,-0.4021497964859009
-0.1313682496547699,0.7183376550674438,0.0343551710247993,-0.3467479944229126,-0.230231687426567,0.0853951051831245,0.0,0.0,-0.9970842003822328,-0.7348929047584534
-0.1309879273176193,0.7103177905082703,0.0325025580823421,-0.3555851578712463,-0.224630668759346,0.1120203584432601,0.0,0.0,-0.9967499375343324,0.7292312383651733
-0.1304942071437835,0.7020571231842041,0.0455479137599468,-0.3665627539157867,-0.2207641899585724,0.0773296430706977,0.0,0.0,-0.995995819568634,-0.3697776198387146
-0.1299374550580978,0.693570077419281,0.0522497370839118,-0.3766941428184509,-0.2173010259866714,0.0692628845572471,0.0,0.0,-0.939985692501068,-0.8978934288024902
-0.1293757408857345,0.6848763823509216,0.0516168102622032,-0.3857220113277435,-0.2126971334218979,0.0920782461762428,0.0,0.0,-0.9996365308761596,0.1599354743957519
-0.1287488937377929,0.6759563088417053,0.058529932051897,-0.3958536386489868,-0.2084998339414596,0.0839460864663124,0.0,0.0,-0.9967451691627502,-0.3826512694358825
-0.1280559599399566,0.6668099164962769,0.0655359178781509,-0.4059849083423614,-0.2047105580568313,0.0757854953408241,0.0,0.0,-0.9991446733474731,-0.525044858455658
-0.1273268759250641,0.6574463248252869,0.068766638636589,-0.4155879616737366,-0.2005331218242645,0.0835486277937889,0.0,0.0,-0.9971789121627808,-0.3182624578475952
-0.1265301704406738,0.6478564739227295,0.0759353339672088,-0.4257189631462097,-0.1967661827802658,0.0753384381532669,0.0,0.0,-0.9928832650184632,-0.2823834419250488
-0.1256649941205978,0.6380398869514465,0.083175241947174,-0.4358496069908142,-0.1934108436107635,0.0671067908406257,0.0,0.0,-0.9991655349731444,-0.8062886595726013
-0.1247893348336219,0.6280204653739929,0.0831034928560257,-0.4447396993637085,-0.1889281123876571,0.0896545425057411,0.0,0.0,-0.9958561658859252,-0.3546111583709717
-0.1238442435860633,0.6177744269371033,0.0904677510261535,-0.4548705816268921,-0.1848588287830352,0.081385813653469,0.0,0.0,-0.9952769875526428,-0.5802941918373108
-0.1228672042489051,0.6073063015937805,0.0930958017706871,-0.4646798968315124,-0.1802385151386261,0.0924063175916671,0.0,0.0,-0.999327540397644,-0.6334598660469055
-0.1218733787536621,0.5966247320175171,0.0938131660223007,-0.4740724265575409,-0.1746531277894973,0.111707828938961,0.0,0.0,-0.9970749616622924,-0.2201479077339172
-0.1208085045218467,0.5857166647911072,0.1013264805078506,-0.4842037856578827,-0.1694833487272262,0.1033956035971641,0.0,0.0,-0.9955615997314452,-0.5470325350761414
-0.1197164505720138,0.5745934247970581,0.1033169478178024,-0.493708461523056,-0.1635914891958236,0.1178372725844383,0.0,0.0,-0.99910706281662,-0.6234408020973206
-0.1186105757951736,0.5632638931274414,0.103599764406681,-0.5027788877487183,-0.1566066592931747,0.139696717262268,0.0,0.0,-0.9943167567253112,-0.3265947103500366
-0.1174325942993164,0.5517081618309021,0.1112263649702072,-0.5129111409187317,-0.1500389873981475,0.1313532590866089,0.0,0.0,-0.9988253116607666,0.2716749906539917
-0.1161820441484451,0.5399260520935059,0.1188845410943031,-0.5230426788330078,-0.1438888907432556,0.1230020895600318,0.0,0.0,-0.9981840252876282,0.8190031051635742
-0.1148030310869216,0.5279110074043274,0.1335712671279907,-0.5335856676101685,-0.1395663022994995,0.0864518135786056,0.0,0.0,-0.9949584603309632,-0.6949754357337952
-0.1134078949689865,0.5156790614128113,0.1341466307640075,-0.5431502461433411,-0.1342165619134903,0.1069947257637977,0.0,0.0,-0.994532346725464,-0.3126617670059204
-0.1119395270943641,0.5032204985618591,0.1418836265802383,-0.5532800555229187,-0.1292851865291595,0.098627433180809,0.0,0.0,-0.9964659810066224,-0.5863668918609619
-0.1104553192853927,0.4905450642108917,0.1424138844013214,-0.5628420114517212,-0.1233092173933982,0.119519330561161,0.0,0.0,-0.9912641048431396,-0.5392193794250488
-0.108932115137577,0.4776527881622314,0.1458388268947601,-0.5724694728851318,-0.116863340139389,0.1289176046848297,0.0,0.0,-0.9795281291007996,-0.4050935506820678
-0.107335090637207,0.4645338654518127,0.1536347419023513,-0.5825997591018677,-0.1108361929655075,0.1205433756113052,0.0,0.0,-0.953899621963501,-0.4188668727874756
-0.1056641563773155,0.4511882662773132,0.1614468544721603,-0.592729389667511,-0.1052277535200119,0.1121689081192016,0.0,0.0,-0.7636123299598694,-0.7557686567306519
-0.1039803475141525,0.4376320242881775,0.1615706384181976,-0.6020349860191345,-0.0984711423516273,0.135132223367691,0.0,0.0,-0.8932318687438965,-0.5369829535484314
-0.10225410759449,0.4238601922988891,0.1654020398855209,-0.6116226315498352,-0.0913140848278999,0.1431411802768707,0.0,0.0,-0.5373306274414062,-0.3969849348068237
-0.100453570485115,0.4098617136478424,0.1732535362243652,-0.6217527985572815,-0.0845754742622375,0.1347720026969909,0.0,0.0,0.0415893793106079,-0.6757991909980774
-0.0985930413007736,0.3964202105998993,0.178305298089981,-0.5969820022583008,-0.0769117102026939,0.1532750576734542,0.0,0.0,-0.2921102643013,-0.5467882752418518
-0.0966966599225997,0.382761538028717,0.1813332140445709,-0.6066490411758423,-0.0686853751540184,0.164526492357254,0.0,0.0,-0.1286016106605529,-0.4335740804672241
-0.0947256088256836,0.3688763380050659,0.1892128139734268,-0.6167797446250916,-0.0608767643570899,0.1561721414327621,0.0,0.0,-0.2132633924484253,-0.6781882643699646
-0.0927442535758018,0.3547717332839966,0.189017504453659,-0.6265296339988708,-0.0518611744046211,0.1803118288516998,0.0,0.0,0.3788081407546997,-0.6127956509590149
-0.0908316597342491,0.3410955369472503,0.1815643459558487,-0.6075231432914734,-0.0422790572047233,0.1916423141956329,0.0,0.0,-0.0402010083198547,-0.0660759210586547
-0.0888442024588584,0.327193021774292,0.189462661743164,-0.6176551580429077,-0.0331133715808391,0.1833136528730392,0.0,0.0,0.3287968635559082,-0.0953345298767089
-0.0867468863725662,0.3137062489986419,0.2007768452167511,-0.5992425084114075,-0.0242669694125652,0.1769280135631561,0.0,0.0,0.6134626865386963,-0.5159783363342285
-0.0844706520438194,0.3005112707614898,0.21767058968544,-0.5863086581230164,-0.0144426682963967,0.1964861452579498,0.0,0.0,0.4455604553222656,-0.5415056347846985
-0.0820614844560623,0.2879886627197265,0.230069562792778,-0.5564866662025452,-0.0037357402034103,0.214138388633728,0.0,0.0,0.1916786432266235,-0.7073925733566284
-0.0796107277274131,0.2761197686195373,0.2331928014755249,-0.527516782283783,0.0079892454668879,0.2344996184110641,0.0,0.0,0.0502383708953857,-0.2462648153305053
