x_pos,y_pos,x_vel,y_vel,angle,ang_vel,leg_1,leg_2,main_booster,lat_booster
-0.0014649390941485,1.4034044742584229,-0.1489636451005935,-0.3340309560298919,0.0022101129870861,0.0436296574771404,0.0,0.0,-0.1505417823791504,0.2365086078643798
-0.0028709410689771,1.395691990852356,-0.1432514041662216,-0.3427838683128357,0.0048369094729423,0.0525415129959583,0.0,0.0,-0.0339685082435607,0.966428518295288
-0.0041248323395848,1.3877525329589844,-0.1261549443006515,-0.3528629243373871,0.0055963802151381,0.0151910707354545,0.0,0.0,-0.4981500506401062,0.5789792537689209
-0.005282592959702,1.3795915842056274,-0.1160930395126342,-0.3627139925956726,0.0059009213000535,0.0060911644250154,0.0,0.0,-0.4769469499588012,0.5500087738037109
-0.006328391842544,1.371212601661682,-0.1040190234780311,-0.3723921179771423,0.0053437068127095,-0.0111452620476484,0.0,0.0,-0.1479133367538452,-0.1623168587684631
-0.007314586546272,1.3626136779785156,-0.0985170826315879,-0.3821725249290466,0.0052415030077099,-0.0020442949607968,0.0,0.0,-0.020226776599884,0.3212063312530517
-0.0082411766052246,1.3537946939468384,-0.0930074304342269,-0.3919531404972076,0.0055886921472847,0.0069443965330719,0.0,0.0,-0.7548766136169434,0.1952837705612182
-0.0091080665588378,1.3447558879852295,-0.0874906033277511,-0.4017338752746582,0.0063802138902246,0.0158322043716907,0.0,0.0,-0.6212389469146729,0.2029297351837158
-0.0099153518676757,1.3354969024658203,-0.0819674581289291,-0.4115146994590759,0.0076103992760181,0.0246061030775308,0.0,0.0,-0.810957133769989,-0.0028609037399291
-0.0106628416106104,1.3260178565979004,-0.0764387622475624,-0.4212956726551056,0.009273137897253,0.0332579314708709,0.0,0.0,-0.0740522146224975,0.2871793508529663
-0.0113507267087697,1.3163189888000488,-0.07090525329113,-0.4310768544673919,0.0113619035109877,0.0417790971696376,0.0,0.0,-0.7580708861351013,0.7420651912689209
-0.0119136814028024,1.306399703025818,-0.0571688711643219,-0.4408642649650574,0.0122264930978417,0.0172933116555213,0.0,0.0,-0.7803102731704712,-0.4331885576248169
-0.0124170305207371,1.2962603569030762,-0.0516223832964897,-0.4506454169750213,0.0135035570710897,0.0255438424646854,0.0,0.0,-0.6883106827735901,-0.2107327580451965
-0.0128606799989938,1.2859011888504028,-0.0460734218358993,-0.4604266583919525,0.0151840848848223,0.0336136855185031,0.0,0.0,-0.9084584712982178,-0.6290765404701233
-0.0132830617949366,1.2753276824951172,-0.0452971123158931,-0.4699673652648926,0.0182153806090354,0.0606313049793243,0.0,0.0,-0.9776732921600342,-0.1346349716186523
-0.0136460307985544,1.2645344734191897,-0.0397464931011199,-0.4797496199607849,0.0216322429478168,0.0683430880308151,0.0,0.0,-0.9752511382102966,-0.5515140891075134
-0.0139833446592092,1.2535266876220703,-0.038415353745222,-0.4893074929714203,0.0262693632394075,0.092750683426857,0.0,0.0,-0.852436900138855,-0.3344177007675171
-0.0142614366486668,1.2422995567321775,-0.0328645706176757,-0.4990908801555633,0.0312718451023101,0.1000585705041885,0.0,0.0,-0.9110704064369202,-0.2434857487678527
-0.0144803998991847,1.2308526039123535,-0.0273129343986511,-0.508874773979187,0.0366291664540767,0.1071562767028808,0.0,0.0,-0.942938506603241,0.2119638919830322
-0.0146404262632131,1.2191861867904663,-0.021761143580079,-0.5186592936515808,0.0423294678330421,0.1140161901712417,0.0,0.0,-0.9051763415336608,0.7337737083435059
-0.0146715166047215,1.2073099613189695,-0.0074165998958051,-0.527957558631897,0.0465924628078937,0.0852674394845962,0.0,0.0,-0.7831923365592957,0.3790853023529053
-0.0146438600495457,1.1952142715454102,-0.001860158285126,-0.5377417206764221,0.0511738322675228,0.0916355401277542,0.0,0.0,-0.9757084846496582,0.0260893106460571
-0.0145576475188136,1.182898998260498,0.0036946521140635,-0.5475261211395264,0.0560586303472518,0.0977042689919471,0.0,0.0,-0.8618780374526978,0.6706855297088623
-0.0143535612151026,1.1703613996505735,0.0166919417679309,-0.5573644042015076,0.0597449764609336,0.0737335532903671,0.0,0.0,-0.7299665808677673,0.4733593463897705
-0.0140911098569631,1.1576042175292969,0.0222481600940227,-0.5671481490135193,0.0637058839201927,0.0792251974344253,0.0,0.0,-0.9204171895980836,0.8631203174591064
-0.013718033209443,1.1446154117584229,0.0343573316931724,-0.5774052143096924,0.0666213184595108,0.0583086982369422,0.0,0.0,-0.9472548365592957,-0.2123802900314331
-0.0132869724184274,1.1314071416854858,0.0399200581014156,-0.5871861577033997,0.0697788298130035,0.0631502941250801,0.0,0.0,-0.7809340357780457,0.4154460430145263
-0.0127979274839162,1.1179790496826172,0.0454803891479969,-0.5969671607017517,0.0731613487005233,0.0676504522562027,0.0,0.0,-0.8323259353637695,0.354053258895874
-0.0122512821108102,1.1043312549591064,0.0510376878082752,-0.6067482829093933,0.076751098036766,0.0717951953411102,0.0,0.0,-0.932489275932312,0.681450366973877
-0.0115951541811227,1.09046733379364,0.0631159767508506,-0.6163093447685242,0.0792205035686492,0.049388188868761,0.0,0.0,-0.8323066234588623,0.4059689044952392
-0.0108819007873535,1.0763834714889526,0.0686651021242141,-0.6260898113250732,0.0818597003817558,0.0527840927243232,0.0,0.0,-0.927720546722412,0.5102671384811401
-0.0100764278322458,1.062081217765808,0.078622817993164,-0.635761559009552,0.0837648212909698,0.0381023362278938,0.0,0.0,-0.7085796594619751,0.2119886875152588
-0.0092143062502145,1.047559142112732,0.0841606557369232,-0.6455415487289429,0.0858000665903091,0.0407049655914306,0.0,0.0,-0.7518029808998108,-0.3659789562225342
-0.0082957269623875,1.032817244529724,0.0896915048360824,-0.655321478843689,0.0879449173808097,0.0428971089422702,0.0,0.0,-0.3969776630401611,0.7212612628936768
-0.0072628022171556,1.01786470413208,0.1025330200791359,-0.664604127407074,0.0887020081281662,0.0151415495201945,0.0,0.0,-0.9127602577209472,-0.0363999605178833
-0.0061738966032862,1.0026922225952148,0.1080467924475669,-0.6743835210800171,0.0895266830921173,0.0164934303611516,0.0,0.0,-0.8021536469459534,-0.4238618612289428
-0.0050295828841626,0.9872998595237732,0.1135503053665161,-0.6841627955436707,0.0903975963592529,0.0174184925854206,0.0,0.0,-0.8685239553451538,-0.8286277651786804
-0.0038916587363928,0.971685528755188,0.1113277524709701,-0.694123387336731,0.0928380861878395,0.0488099344074726,0.0,0.0,-0.6485400199890137,0.3064368963241577
-0.0026989937759935,0.9558513164520264,0.11680668592453,-0.7039028406143188,0.0952819213271141,0.0488766841590404,0.0,0.0,-0.1243550181388855,0.0636941194534301
-0.0014517784584313,0.9397969841957092,0.1222710385918617,-0.7136820554733276,0.0977076962590217,0.0485154241323471,0.0,0.0,-0.7090625166893005,0.1666221618652343
-0.0001505851687397,0.923522651195526,0.1277190595865249,-0.7234611511230469,0.1000941544771194,0.0477292351424694,0.0,0.0,-0.2543171644210815,0.9569717645645142
0.0012952804099768,0.9070398211479188,0.1445566117763519,-0.7325727939605713,0.1001219972968101,0.0005568182095885,0.0,0.0,-0.7373915910720825,-0.5314921140670776
0.0027597427833825,0.8903257250785828,0.1456009298563003,-0.742905855178833,0.1009596288204193,0.016752490773797,0.0,0.0,-0.5351461172103882,-0.7729158997535706
0.0042263031937181,0.8733822107315063,0.1446215212345123,-0.7531846165657043,0.1029834225773811,0.040476243942976,0.0,0.0,-0.5532543063163757,0.1845588684082031
0.0057453154586255,0.8562183380126953,0.1499834358692169,-0.7629628777503967,0.1048860102891922,0.0380519144237041,0.0,0.0,-0.5722661018371582,-0.2911523580551147
0.0073163034394383,0.8388344645500183,0.1553176194429397,-0.7727406620979309,0.1066480427980423,0.0352405533194541,0.0,0.0,-0.7164589762687683,0.0004197359085083
0.0089385984465479,0.8212305903434753,0.1606210768222808,-0.7825183272361755,0.1082507297396659,0.0320534296333789,0.0,0.0,-0.7268737554550171,-0.9191668033599854
0.0105253215879201,0.8034021258354187,0.1550526916980743,-0.7926397919654846,0.1118475720286369,0.0719366148114204,0.0,0.0,-0.3496482372283935,0.044798731803894
0.0121623994782567,0.7853536605834961,0.1602848172187805,-0.8024178743362427,0.1152493506669998,0.0680356249213218,0.0,0.0,-0.4439520835876465,0.6828396320343018
0.013901138678193,0.7670920491218567,0.1719898879528045,-0.8117810487747192,0.1171253249049186,0.0375192388892173,0.0,0.0,-0.821855366230011,-0.2666798830032348
0.0156889911741018,0.7486098408699036,0.1771349757909774,-0.8215579390525818,0.1187732592225074,0.0329588688910007,0.0,0.0,-0.4376742839813232,-0.5723211169242859
0.0174758918583393,0.729902446269989,0.1760172694921493,-0.8316580057144165,0.1214276030659675,0.0530870035290718,0.0,0.0,-0.5072914958000183,-0.8050493001937866
0.0192592628300189,0.7109608054161072,0.1745983064174652,-0.8421609997749329,0.1251410841941833,0.0742696300148963,0.0,0.0,-0.4586941003799438,-0.8868597745895386
0.0210197456181049,0.6917940974235535,0.1708188354969024,-0.8523061871528625,0.1303401589393615,0.1039816737174987,0.0,0.0,0.3831266164779663,-0.6433477401733398
0.0228592865169048,0.6730286478996277,0.1774709820747375,-0.8345959186553955,0.1367991715669632,0.1291799545288086,0.0,0.0,-0.254521369934082,0.3537899255752563
0.0247442238032817,0.6540431380271912,0.182311862707138,-0.8443747758865356,0.1429604440927505,0.1232258230447769,0.0,0.0,0.3342379331588745,0.443236231803894
0.0266571044921875,0.635809600353241,0.1850682497024536,-0.8109940886497498,0.1491634845733642,0.1240608543157577,0.0,0.0,0.175754427909851,0.6706013679504395
0.0287034027278423,0.6181067228317261,0.1999370157718658,-0.787270724773407,0.153850182890892,0.0937339588999748,0.0,0.0,-0.2945894598960876,-0.2334638833999633
0.0307921413332223,0.6001834869384766,0.2045165300369262,-0.7970471978187561,0.1582061648368835,0.0871194973587989,0.0,0.0,0.0761045217514038,-0.0507700443267822
0.0327926650643348,0.5827860832214355,0.1962618380784988,-0.7736244797706604,0.1619922816753387,0.0757222026586532,0.0,0.0,0.353299617767334,-0.2021259069442749
0.0348258018493652,0.5656273365020752,0.1996794492006302,-0.7630125284194946,0.1656230390071869,0.0726152062416076,0.0,0.0,0.0564954280853271,-0.2279202938079834
0.036760427057743,0.5488956570625305,0.1905005723237991,-0.7439653873443604,0.1685995608568191,0.0595300309360027,0.0,0.0,0.4116401672363281,-0.1016136407852172
0.0387625694274902,0.5326232314109802,0.1971145719289779,-0.723572850227356,0.1716989278793335,0.0619872286915779,0.0,0.0,-0.1527994871139526,-0.1125763654708862
0.0408005714416503,0.5161300301551819,0.2010842561721801,-0.7333470582962036,0.1744259744882583,0.0545408427715301,0.0,0.0,-0.0111687183380126,-0.2124197483062744
0.0428730025887489,0.4994160234928131,0.2049013078212738,-0.7431210279464722,0.1767742484807968,0.0469651147723197,0.0,0.0,-0.2403458356857299,-0.6935312747955322
0.0449130050837993,0.4824642539024353,0.2003759443759918,-0.7538509368896484,0.1804137080907821,0.0727896392345428,0.0,0.0,0.8306853771209717,0.1084067821502685
0.0468372330069541,0.4666973650455475,0.1890719830989837,-0.7011597752571106,0.1837730854749679,0.0671876817941665,0.0,0.0,0.5213240385055542,0.7229783535003662
0.0488804802298545,0.4511367678642273,0.2026527374982834,-0.6917886734008789,0.1854447722434997,0.033433698117733,0.0,0.0,0.3983321189880371,-0.8329237699508667
0.0507768616080284,0.4364188909530639,0.1866858005523681,-0.6545000076293945,0.1884128004312515,0.059360634535551,0.0,0.0,0.15535569190979,0.4135694503784179
0.0525713935494422,0.4219493865966797,0.1772079467773437,-0.6433786749839783,0.1906733810901641,0.0452115610241889,0.0,0.0,-0.3081903457641601,-0.4302119612693786
0.0543886199593544,0.4072588384151459,0.1798693835735321,-0.6531514525413513,0.1925275921821594,0.0370843298733234,0.0,0.0,0.6228196620941162,-0.3825417160987854
0.0561387054622173,0.3932559192180633,0.1734306067228317,-0.6225553750991821,0.1941122412681579,0.031693123281002,0.0,0.0,0.0990028381347656,-0.228100299835205
0.0577140823006629,0.3798340559005737,0.1567680835723877,-0.5966289639472961,0.1948886215686798,0.0155280409380793,0.0,0.0,0.4196920394897461,0.5603296756744385
-999.0,0.3669540882110595,0.1611246466636657,-0.5723621845245361,0.19428052008152,-0.0121620437130332,0.0,0.0,0.2601848840713501,-0.7411606907844543
0.0607944503426551,0.3542611002922058,0.1470818668603897,-0.5641897320747375,0.1947134137153625,0.0086577925831079,0.0,0.0,0.5366371870040894,0.3946800231933594
0.0622830390930175,0.3418103456497192,0.1485526114702224,-0.5534089207649231,0.195021852850914,0.0061683738604187,0.0,0.0,0.3915995359420776,-0.1911242008209228
0.063697338104248,0.3295514583587646,0.1416546106338501,-0.5448097586631775,0.1947890520095825,-0.0046559725888073,0.0,0.0,0.7022173404693604,0.0324450731277465
0.0649492293596267,0.3182716369628906,0.1258834451436996,-0.50123530626297,0.1940974742174148,-0.0138314692303538,0.0,0.0,0.8314062356948853,0.1027169227600097
-999.0,0.3081273138523102,0.1173101216554641,-0.4507655799388885,0.1933969557285308,-0.0140102310106158,0.0,0.0,0.7975919246673584,-0.149326205253601
0.0669895187020301,0.299035906791687,0.0890835672616958,-0.4038475453853607,0.1917120665311813,-0.0336976274847984,0.0,0.0,0.9364113807678224,0.4001373052597046
0.067636489868164,0.2902517318725586,0.0674958527088165,-0.3900487720966339,0.1889062672853469,-0.0561158545315265,0.0,0.0,0.8051960468292236,0.2196868658065796
0.06815767288208,0.2825315296649933,0.0551197454333305,-0.3427375853061676,0.1858852207660675,-0.0604207813739776,0.0,0.0,0.7086944580078125,0.7448935508728027
0.068504050374031,0.2754524946212768,0.0397859886288642,-0.3139885067939758,0.180717647075653,-0.1033515557646751,0.0,0.0,0.3802474737167358,0.5721042156219482
0.0687311142683029,0.2689895927906036,0.0295248664915561,-0.2864253222942352,0.1738758236169815,-0.1368366926908493,0.0,0.0,0.0978292226791381,0.2878615856170654
0.0688545256853103,0.2629907429218292,0.0196279399096965,-0.265779048204422,0.1665802299976349,-0.1459117829799652,0.0,0.0,-0.4645215272903442,0.6368694305419922
0.0690166503190994,0.2567863464355469,0.0253899097442626,-0.2747509777545929,0.1574082970619201,-0.1834385693073272,0.0,0.0,-0.5974814295768738,-0.5062766671180725
0.0691208839416503,0.2503480315208435,0.019038688391447,-0.2852551341056824,0.1487979143857956,-0.1722074896097183,0.0,0.0,-0.3104639053344726,-0.735720157623291
0.0691539794206619,0.2436736226081848,0.0110991680994629,-0.2958828508853912,0.1410218775272369,-0.1555200815200805,0.0,0.0,-0.0871301889419555,-0.6980189085006714
0.0691203102469444,0.2367701083421707,0.0037973057478666,-0.3061609864234924,0.1338885128498077,-0.1426674425601959,0.0,0.0,-0.2544505596160888,-0.3660230636596679
0.0690590888261795,0.2296465933322906,0.001452722470276,-0.3159394264221191,0.1263449341058731,-0.1508716642856598,0.0,0.0,0.0958640575408935,-0.5594509243965149
0.0688568130135536,0.2230394929647445,-0.0133379502221941,-0.2930839657783508,0.1195012107491493,-0.136874571442604,0.0,0.0,-0.4877641797065735,-0.2361135482788086
0.0686227828264236,0.2162123769521713,-0.0161037854850292,-0.3028626441955566,0.1122508570551872,-0.1450072675943374,0.0,0.0,-0.0546060800552368,-0.7137724161148071
0.0683103576302528,0.2091603130102157,-0.0246698092669248,-0.3129436075687408,0.1057242602109909,-0.1305321156978607,0.0,0.0,-0.2723696231842041,-0.4195984005928039
0.0679624527692794,0.201888233423233,-0.0278124008327722,-0.3227224051952362,0.098795048892498,-0.1385842114686966,0.0,0.0,0.3756494522094726,-0.4435700178146362
0.0674919113516807,0.1950229257345199,-0.0394574515521526,-0.3046461343765259,0.0912629812955856,-0.1506412327289581,0.0,0.0,0.3921632766723633,-0.8136164546012878
0.066931627690792,0.1890354454517364,-0.0497596599161624,-0.2657386064529419,0.0850529298186302,-0.1242011561989784,0.0,0.0,-0.3225026130676269,0.3874521255493164
0.0663311034440994,0.1828281730413437,-0.0533854961395263,-0.275517851114273,0.0784471780061721,-0.1321152150630951,0.0,0.0,-0.3721088171005249,-0.6211606860160828
0.0656293854117393,0.1763995289802551,-0.0646005123853683,-0.2854351997375488,0.0729394480586052,-0.1101545691490173,0.0,0.0,-0.3555564880371094,-0.258695125579834
0.0648848563432693,0.1697510033845901,-0.0684974119067192,-0.2952142059803009,0.0670411959290504,-0.1179648041725158,0.0,0.0,0.1826146841049194,-0.6691950559616089
0.063964270055294,0.1636813431978225,-0.0869966745376586,-0.2695421576499939,0.062027383595705,-0.1002761349081993,0.0,0.0,-0.3582109212875366,-0.1423031091690063
0.06299839168787,0.1573917418718338,-0.0911276191473007,-0.2793211042881012,0.0566287823021411,-0.1079721301794052,0.0,0.0,0.0495641231536865,0.0181300640106201
0.0619525909423828,0.1513547003269195,-0.0986560210585594,-0.2681010961532593,0.050775296986103,-0.117069624364376,0.0,0.0,-0.314699649810791,0.4219247102737427
0.0608596801757812,0.145097866654396,-0.1029877439141273,-0.2778811752796173,0.0445432923734188,-0.1246400699019432,0.0,0.0,-0.0957976579666137,-0.1957437992095947
0.0597187057137489,0.1386212855577469,-0.1074086278676986,-0.2876618802547455,0.0379361435770988,-0.1321431845426559,0.0,0.0,-0.079540729522705,-0.1312006711959839
0.0585289001464843,0.1319251358509063,-0.1119118705391883,-0.2974431812763214,0.030957356095314,-0.1395757794380188,0.0,0.0,-0.561693549156189,-0.5126122832298279
0.0572532638907432,0.1250032484531402,-0.1210510954260826,-0.3075184524059295,0.0245268419384956,-0.128610298037529,0.0,0.0,-0.7627049684524536,-0.2176888585090637
0.0559274666011333,0.1178618520498275,-0.1257004290819168,-0.3172999918460846,0.0177322477102279,-0.1358921229839325,0.0,0.0,-0.6249362826347351,0.3578604459762573
0.0545508377254009,0.1105009391903877,-0.1304143071174621,-0.3270821571350097,0.0105775808915495,-0.1430932581424713,0.0,0.0,-0.5271387100219727,-0.2018028497695922
0.0531229004263877,0.1029206588864326,-0.1351876556873321,-0.3368649780750274,0.003067065263167,-0.1502100825309753,0.0,0.0,-0.1602677106857299,-0.4941391944885254
0.0516430847346782,0.0951212272047996,-0.1400157511234283,-0.3466483950614929,-0.0047948802821338,-0.1572388708591461,0.0,0.0,0.5992321968078613,-0.8252058625221252
0.0500417724251747,0.0882966816425323,-0.1534667611122131,-0.3033486008644104,-0.0113753462210297,-0.1316093206405639,0.0,0.0,0.3247346878051758,-0.6768710613250732
0.0483954437077045,0.0822058543562889,-0.1590737104415893,-0.2707587480545044,-0.0168623309582471,-0.1097397357225418,0.0,0.0,-0.0926873683929443,0.092935562133789
0.0466959960758686,0.0758954361081123,-0.164041057229042,-0.2805405855178833,-0.0226864144206047,-0.1164814978837966,0.0,0.0,0.4041527509689331,-0.2888432741165161
0.0448512062430381,0.0701572299003601,-0.1777596622705459,-0.2551486492156982,-0.0293233394622802,-0.1327383369207382,0.0,0.0,0.0204269886016845,0.5005171298980713
0.0429139137268066,0.0646772980690002,-0.1855160295963287,-0.2437323480844497,-0.0374370142817497,-0.1622735559940338,0.0,0.0,-0.0455455780029296,0.0380810499191284
0.0409226417541503,0.0589784942567348,-0.1905915141105651,-0.2535176873207092,-0.0458715334534645,-0.1686907112598419,0.0,0.0,0.3184950351715088,0.287022590637207
0.038917351514101,0.0536972619593143,-0.1917706131935119,-0.2350125908851623,-0.0545252859592437,-0.1730752736330032,0.0,0.0,0.2182178497314453,0.2590665817260742
0.0369682312011718,0.0485864728689193,-0.1862934827804565,-0.2274820655584335,-0.0630426406860351,-0.1703469157218933,0.0,0.0,0.1720234155654907,-0.0426946282386779
0.035064123570919,0.0439765788614749,-0.1818176358938217,-0.2052716761827469,-0.0715429112315177,-0.1700059026479721,0.0,0.0,0.1791564226150512,-0.0799828767776489
0.0331642143428325,0.0400072671473026,-0.181182324886322,-0.1768571734428405,-0.0802568271756172,-0.1742781400680542,0.0,0.0,-0.3604590892791748,-0.5418374538421631
0.0311709400266408,0.0358178727328777,-0.1912138313055038,-0.1866542547941208,-0.0882969200611114,-0.1608021557331085,0.0,0.0,0.0955253839492797,0.1319732666015625
