x_pos,y_pos,x_vel,y_vel,angle,ang_vel,leg_1,leg_2,main_booster,lat_booster
-0.0015521049499511,1.403241515159607,-0.1573000103235244,-0.341275155544281,0.0018622244242578,0.0367418453097343,0.0,0.0,-0.0867091677536948,0.9087285734565512
-0.0030567168723791,1.3951987028121948,-0.150428831577301,-0.3574570417404175,0.0018395074876025,-0.0004537223721854,0.0,0.0,0.94204059158203,-0.6924526654466168
-0.0044779777526855,1.3874800205230713,-0.1441141068935394,-0.3430579006671905,0.0037925608921796,0.0390648022294044,0.0,0.0,-0.9747318078104508,0.8114028052835732
-0.0058797835372388,1.379375696182251,-0.1410475969314575,-0.3601937294006347,0.0046513914130628,0.0171783417463302,0.0,0.0,0.740036569803765,0.8718289844089189
-0.0070981979370117,1.3719228506088257,-0.1214887350797653,-0.3312357664108276,0.0043039950542151,-0.0069487197324633,0.0,0.0,0.3143902201983535,-0.6718493445877205
-0.0082834241911768,1.3647342920303345,-0.1200223714113235,-0.319491982460022,0.0057808784767985,0.029540654271841,0.0,0.0,0.973913934311492,0.6402151176364727
-0.0094854356721043,1.3581979274749756,-0.1206534132361412,-0.2905084490776062,0.0062198867090046,0.0087809199467301,0.0,0.0,0.4583421672942014,-0.8343099895086759
-0.0106437681242823,1.3521381616592407,-0.1185232177376747,-0.2693336308002472,0.0088795004412531,0.0531972050666809,0.0,0.0,0.8541257235503192,0.8983050505900919
-0.0117907524108886,1.3471145629882812,-0.115952230989933,-0.2232776582241058,0.0101114092394709,0.0246402975171804,0.0,0.0,0.9483852286669918,0.8218379072807579
-0.0129196168854832,1.342998743057251,-0.112907588481903,-0.18292236328125,0.0101289320737123,0.0003506419016048,0.0,0.0,0.5568495390785653,0.6084265835634196
-0.0139557840302586,1.339342713356018,-0.1030845642089843,-0.1624907106161117,0.009600181132555,-0.010576088912785,0.0,0.0,-0.5649076804075404,-0.633604566746741
-0.0150745389983057,1.335301637649536,-0.11293925344944,-0.1796111762523651,0.0106554143130779,0.0211066994816064,0.0,0.0,0.5976251835672151,0.8562093772174433
-0.0160316471010446,1.331899881362915,-0.0957993492484092,-0.1511891633272171,0.0107438014820218,0.0017678212607279,0.0,0.0,0.2964688809445157,0.9801495994957522
-0.0168911926448345,1.3285260200500488,-0.0846527069807052,-0.1499358117580413,0.0094510866329073,-0.0258563198149204,0.0,0.0,-0.3443309836752304,-0.6066879541465318
-0.0178281776607036,1.324775218963623,-0.0938755124807357,-0.166710615158081,0.009633207693696,0.0036426815204322,0.0,0.0,0.8597592963501739,0.9660962930478976
-0.0185959823429584,1.3211350440979004,-0.0758470669388771,-0.1617835462093353,0.0087049696594476,-0.018566358834505,0.0,0.0,-0.6747645640223279,-0.6044851381400473
-0.0194425582885742,1.3171181678771973,-0.0852624997496604,-0.17852683365345,0.0092982882633805,0.0118675213307142,0.0,0.0,-0.4204132300392045,-0.8237480229810519
-0.0203813556581735,1.312710881233215,-0.0963674485683441,-0.195900484919548,0.0117547251284122,0.0491332598030567,0.0,0.0,-0.7232213962062264,-0.7716216416956574
-0.0214146617799997,1.3079272508621216,-0.1077429428696632,-0.2126529514789581,0.0161279235035181,0.0874719694256782,0.0,0.0,-0.0605358137682618,-0.7191816144311753
-0.0225560180842876,1.3027589321136477,-0.1208540946245193,-0.2297830730676651,0.0227687880396842,0.1328292191028595,0.0,0.0,-0.7826675512741645,-0.99739533209168
-0.0238038059324026,1.297213792800903,-0.1337575018405914,-0.2466073781251907,0.0316337533295154,0.1773155927658081,0.0,0.0,0.9695958423575604,-0.7847232651312983
-0.0251600258052349,1.2920714616775513,-0.1468749344348907,-0.2288227528333664,0.0427699759602546,0.2227444946765899,0.0,0.0,-0.6817594215730467,0.6489803736100174
-0.0264991763979196,1.286550760269165,-0.1442738026380539,-0.2456841766834259,0.0530268549919128,0.2051558941602707,0.0,0.0,-0.0568766581282944,0.8237901549868858
-0.027810763567686,1.2806456089019775,-0.1403938829898834,-0.262803167104721,0.0621588081121444,0.1826557219028473,0.0,0.0,0.4947636255836865,0.6553917817640375
-0.0292932502925395,1.275224208831787,-0.1565789580345153,-0.2413164526224136,0.0704104006290435,0.1650468409061432,0.0,0.0,-0.4172992230178551,-0.6786556890262316
-0.0308873169124126,1.2693967819213867,-0.1701733320951461,-0.2595404088497162,0.0810625404119491,0.2130425721406936,0.0,0.0,0.5438715656847006,-0.8098504206129647
-0.0326426513493061,1.264201521873474,-0.1886532306671142,-0.2316590249538421,0.0940646827220916,0.2600427269935608,0.0,0.0,0.606131573589052,-0.9374270489674714
-999.0,1.2598042488098145,-0.2249327450990677,-0.1964878588914871,0.1094895973801612,0.3084985315799713,0.0,0.0,0.4772697584283107,0.979488354287257
-0.0370087623596191,1.2560594081878662,-0.2414033710956573,-0.1675376147031784,0.1235880255699157,0.2819686830043793,0.0,0.0,0.9158499994608096,0.6941803672811386
-0.0393683426082134,1.2527797222137451,-0.24942347407341,-0.1469379216432571,0.1369909197092056,0.2680574953556061,0.0,0.0,-0.2043559023451642,0.8786122507987657
-0.041704274713993,1.2491449117660522,-0.2459734678268432,-0.1627292037010193,0.1493380963802337,0.2469436824321746,0.0,0.0,0.4193669997659741,0.7303848986960981
-0.044158361852169,1.2456810474395752,-0.2569523155689239,-0.1551468670368194,0.1608710885047912,0.2306602299213409,0.0,0.0,0.6543256360019141,-0.7326714626510407
-0.0469344146549701,1.242997646331787,-0.2911801934242248,-0.1207927763462066,0.1744552999734878,0.2716841995716095,0.0,0.0,0.5564888905577945,0.7086688460755309
-0.0498245246708393,1.24042809009552,-0.3017765879631042,-0.1157492399215698,0.1872696131467819,0.2562858760356903,0.0,0.0,-0.5331602082082854,-0.6172701221308103
-0.0528069511055946,1.237468123435974,-0.3129608333110809,-0.1334821879863739,0.2020662128925323,0.295931875705719,0.0,0.0,-0.7328357165836563,0.8100470364494203
-0.0557711608707904,1.2341556549072266,-0.3101941049098968,-0.1491629928350448,0.2159625589847564,0.2779273390769958,0.0,0.0,0.8200339240534109,0.6811891111667211
-0.0588652603328228,1.2312034368515017,-0.3224939405918121,-0.1331748217344284,0.2292008846998214,0.2647663056850433,0.0,0.0,-0.2104561791573176,0.6386901353423943
-0.061952494084835,1.227895736694336,-0.3211833834648132,-0.1489926427602768,0.2418535351753235,0.2530531585216522,0.0,0.0,-0.2432444363917931,-0.9193395920097108
-0.065160371363163,1.2241923809051514,-0.3359197080135345,-0.1671571433544159,0.2572641670703888,0.3082128167152405,0.0,0.0,0.7911410155730867,0.6336808961008187
-0.068499282002449,1.221100091934204,-0.3485644161701202,-0.1400796324014663,0.2722653448581695,0.3000237345695495,0.0,0.0,-0.1789811050492458,0.986156466355564
-0.0718210190534591,1.2176640033721924,-0.3459413349628448,-0.1553378105163574,0.2864076793193817,0.2828466892242431,0.0,0.0,-0.8313830494880676,0.9960455894470216
-0.07509346306324,1.213888168334961,-0.3393746316432953,-0.1702461540699005,0.2989099025726318,0.2500442266464233,0.0,0.0,-0.8889476656913757,0.9882495403289796
-0.0783183127641677,1.2097636461257937,-0.3330922722816467,-0.1855271905660629,0.3098846673965454,0.2194955796003341,0.0,0.0,-0.8785438537597656,0.9761605262756348
-0.081497386097908,1.205299735069275,-0.3270257115364074,-0.2003680020570755,0.319341778755188,0.1891423165798187,0.0,0.0,-0.8876632452011108,0.945868968963623
-0.0846469849348068,1.2004793882369995,-0.3231028914451599,-0.2160585671663284,0.32780921459198,0.1693492233753204,0.0,0.0,-0.8789939284324646,0.938323140144348
-0.0877570137381553,1.1953096389770508,-0.3179182112216949,-0.2313577979803085,0.3350224494934082,0.1442648023366928,0.0,0.0,-0.9751879572868348,0.990882158279419
-0.0908212661743164,1.1897978782653809,-0.3119592666625976,-0.2462578862905502,0.340808629989624,0.115723967552185,0.0,0.0,-0.845992922782898,0.9889514446258544
-0.0938635841012001,1.183948993682861,-0.3089320957660675,-0.2610795497894287,0.3457350432872772,0.0985279828310012,0.0,0.0,-0.8987761735916138,0.9860879182815552
-0.0968849211931228,1.1777594089508057,-0.3060724139213562,-0.27603679895401,0.3498752415180206,0.0828042477369308,0.0,0.0,-0.9424251914024352,0.997408390045166
-0.0998667702078819,1.1712270975112915,-0.301008939743042,-0.2910189628601074,0.3528447449207306,0.0593900755047798,0.0,0.0,-0.8354912996292114,0.998267650604248
-0.1027880683541297,1.164365530014038,-0.2933056354522705,-0.3052471876144409,0.3540777862071991,0.0246607679873704,0.0,0.0,-0.8475354313850403,0.9902691841125488
-0.1056739836931228,1.1571674346923828,-0.2887732088565826,-0.3199606537818908,0.3542638719081878,0.0037214402109384,0.0,0.0,-0.7855834364891052,0.996058702468872
-0.1084991469979286,1.1496329307556152,-0.281165063381195,-0.3345335721969604,0.3528394997119903,-0.0284874439239501,0.0,0.0,-0.9083247780799866,0.9904158115386964
-0.1112786307930946,1.1417683362960815,-0.2753926813602447,-0.3489188551902771,0.3501589000225067,-0.0536119416356086,0.0,0.0,-0.948388695716858,0.983652114868164
-0.1139901131391525,1.133570671081543,-0.2669637501239776,-0.363331526517868,0.3457627594470978,-0.0879222899675369,0.0,0.0,-0.969482123851776,0.990190863609314
-0.1166604980826377,1.1250228881835938,-0.2619807720184326,-0.3786927163600921,0.3404598832130432,-0.106057584285736,0.0,0.0,-0.9795102477073668,0.931586980819702
-0.1192725151777267,1.116146683692932,-0.2547729909420013,-0.3929983973503113,0.3337361812591553,-0.134473904967308,0.0,0.0,-0.9624893069267272,0.9790619611740112
-0.1218132004141807,1.106941819190979,-0.246028333902359,-0.407268077135086,0.325339525938034,-0.1679332107305526,0.0,0.0,-0.9525653123855592,0.9433636665344238
-0.1242920905351638,1.097407579421997,-0.2384844571352005,-0.4216630756855011,0.3155575394630432,-0.1956399232149124,0.0,0.0,-0.9818808436393738,0.969395399093628
-0.1267221421003341,1.087533712387085,-0.2326521575450897,-0.4366156756877899,0.3048290312290191,-0.2145695984363556,0.0,0.0,-0.9754591584205629,0.9211108684539796
-0.1290856301784515,1.0773096084594729,-0.2247624695301056,-0.4520201683044433,0.2928617000579834,-0.2393466532230377,0.0,0.0,-0.9844643473625184,0.930435299873352
-0.1313992440700531,1.0667386054992676,-0.2189593017101287,-0.4673849940299988,0.2800990045070648,-0.2552542388439178,0.0,0.0,-0.961884379386902,0.9663594961166382
-0.1336292326450348,1.0558253526687622,-0.209009051322937,-0.4824113547801971,0.265759527683258,-0.2867898344993591,0.0,0.0,-0.9525189995765686,0.8567860126495361
-0.1357939690351486,1.0445637702941897,-0.2014332264661789,-0.4978649020195007,0.2503973543643951,-0.3072440028190613,0.0,0.0,-0.974218249320984,0.8261172771453857
-0.1378932893276214,1.0329434871673584,-0.1939311325550079,-0.5138133764266968,0.2341281026601791,-0.3253851532936096,0.0,0.0,-0.9374374747276306,0.2324306964874267
-0.1399889886379242,1.0209459066390991,-0.1942919194698333,-0.5308731198310852,0.2186350375413894,-0.309861421585083,0.0,0.0,-0.9774692058563232,0.972623348236084
-0.1420025825500488,1.0086077451705933,-0.1847516596317291,-0.5459908246994019,0.201878473162651,-0.3351311683654785,0.0,0.0,-0.9648805260658264,0.4722652435302734
-0.1440066397190094,0.9958922266960144,-0.1845112442970276,-0.563049852848053,0.1858922690153122,-0.3197240829467773,0.0,0.0,-0.9773962497711182,0.803797721862793
-0.1459340155124664,0.9828266501426696,-0.1758780032396316,-0.5786715745925903,0.1689817458391189,-0.3382104337215423,0.0,0.0,-0.9858885407447816,0.309061050415039
-0.1478456556797027,0.9693832397460938,-0.1750142872333526,-0.5957290530204773,0.1528350412845611,-0.3229344487190246,0.0,0.0,-0.9744774103164672,0.6454300880432129
-0.1496957838535308,0.9555745124816896,-0.1684905737638473,-0.6121137142181396,0.1363525986671447,-0.3296492099761963,0.0,0.0,-0.981087327003479,0.075553297996521
-0.1515236794948578,0.941387414932251,-0.1669869720935821,-0.629167914390564,0.120626650750637,-0.3145191669464111,0.0,0.0,-0.9869083762168884,0.0772525072097778
-0.1533259451389312,0.9268216490745544,-0.1651592552661895,-0.6462191939353943,0.1056532263755798,-0.2994681298732757,0.0,0.0,-0.9956946969032288,0.1464231014251709
-0.1550993025302887,0.9118766784667968,-0.1630053520202636,-0.6632674932479858,0.0914282277226448,-0.2844997048377991,0.0,0.0,-0.9868990182876588,0.0577348470687866
-0.1568406075239181,0.8965522050857544,-0.1605241894721985,-0.6803131699562073,0.0779473483562469,-0.2696175873279571,0.0,0.0,-0.9545354843139648,0.090476393699646
-0.1585465371608734,0.8808476328849792,-0.1577154844999313,-0.6973562836647034,0.0652060732245445,-0.2548256516456604,0.0,0.0,-0.9230884313583374,-0.3050368428230285
-0.160213753581047,0.8647629618644714,-0.1545799076557159,-0.7143968939781189,0.0531996861100196,-0.2401279956102371,0.0,0.0,-0.9133701920509338,0.1002981662750244
-0.161839097738266,0.8482974767684937,-0.1511189043521881,-0.7314353585243225,0.0419232584536075,-0.2255287617444992,0.0,0.0,-0.6978767514228821,-0.8662710785865784
-0.1634788513183593,0.831455647945404,-0.1548105478286743,-0.7482959628105164,0.0328646041452884,-0.181173026561737,0.0,0.0,-0.1631532907485962,-0.308568000793457
-0.1650704443454742,0.8142321109771729,-0.1507069021463394,-0.7653279900550842,0.0245253648608922,-0.1667848527431488,0.0,0.0,-0.3084073066711426,-0.3354460000991821
-0.1666105240583419,0.7966266870498657,-0.1462874561548233,-0.7823583483695984,0.0168999060988426,-0.1525091826915741,0.0,0.0,0.1075767278671264,-0.6844356060028076
-0.1681285798549652,0.7794392108917236,-0.1462199985980987,-0.7638338208198547,0.011376891285181,-0.1104600802063942,0.0,0.0,0.1606764793395996,0.3436412811279297
-0.1696651428937912,0.7624743580818176,-0.1484273374080658,-0.753959059715271,0.0062263305298984,-0.1030113920569419,0.0,0.0,0.3391503095626831,0.3953835964202881
-0.1711890250444412,0.7459506392478943,-0.1476674824953079,-0.7343757152557373,0.0015653910813853,-0.093218557536602,0.0,0.0,0.3924934864044189,0.5290124416351318
-0.1726195365190506,0.7299309372901917,-0.1379425525665283,-0.7119846343994141,-0.0034849809017032,-0.1010074466466903,0.0,0.0,-0.7691590189933777,0.5533807277679443
-0.1739339828491211,0.713528573513031,-0.1257391273975372,-0.729019820690155,-0.0091139711439609,-0.112579807639122,0.0,0.0,0.0178123712539672,0.8246933221817017
-0.1750953644514084,0.6970506310462952,-0.1094584316015243,-0.7324082851409912,-0.0157066490501165,-0.1318537294864654,0.0,0.0,0.2925750017166137,-0.9452157616615297
-0.176171213388443,0.6806551218032837,-0.1035328134894371,-0.7287327647209167,-0.0197083111852407,-0.0800332054495811,0.0,0.0,0.3810197114944458,-0.1469785571098327
-0.1770408600568771,0.6645890474319458,-0.084151417016983,-0.714093804359436,-0.0224840193986892,-0.055514108389616,0.0,0.0,0.9369080066680908,-0.2798154354095459
-0.1776604652404785,0.6488274931907654,-0.0605662278831005,-0.7005329132080078,-0.0238556768745183,-0.0274331122636795,0.0,0.0,0.9477313756942748,0.2437293529510498
-0.1781868934631347,0.6340111494064331,-0.0518741533160209,-0.6585163474082947,-0.0246196649968624,-0.0152796208858489,0.0,0.0,-0.1513348817825317,0.6739742755889893
-0.1785763800144195,0.6188146471977234,-0.037384994328022,-0.6754265427589417,-0.0261640083044767,-0.0308867953717708,0.0,0.0,0.010326862335205,0.731525182723999
-0.1787261068820953,0.6038438081741333,-0.0126214455813169,-0.66541987657547,-0.0284938756376504,-0.0465973541140556,0.0,0.0,0.391007661819458,0.4498587846755981
-0.178698256611824,0.5888980031013489,0.0041375258006155,-0.6642804741859436,-0.0298245102167129,-0.0266126282513141,0.0,0.0,0.8642966747283936,0.2594802379608154
-0.1786254942417144,0.5744332671165466,0.0082940096035599,-0.6428981423377991,-0.0308350697159767,-0.0202108938246965,0.0,0.0,0.6236804723739624,-0.2506720423698425
-999.0,0.5608527660369873,0.027121428400278,-0.603581428527832,-0.0308793932199478,-0.0008864280534908,0.0,0.0,-0.1956569552421569,-0.2428555488586425
-0.1779934912919998,0.5468888878822327,0.0355943068861961,-0.6206030249595642,-0.0303558483719825,0.0104709155857563,0.0,0.0,0.4892416000366211,-0.6027982831001282
-0.1776878386735916,0.5336303114891052,0.0285296384245157,-0.5892348885536194,-0.0283505264669656,0.0401064865291118,0.0,0.0,-0.7266079187393188,-0.4703239202499389
-0.1772886216640472,0.5199884176254272,0.0373494699597358,-0.6062570810317993,-0.0258073005825281,0.050864465534687,0.0,0.0,0.7989760637283325,-0.7469403147697449
-0.1768957078456878,0.5071988105773926,0.0348222479224205,-0.568359375,-0.0213941372931003,0.0882633775472641,0.0,0.0,-0.957793116569519,0.97926664352417
-0.1763395369052887,0.494031012058258,0.0523512288928031,-0.58519047498703,-0.0181563980877399,0.0647546052932739,0.0,0.0,-0.097661554813385,0.7946341037750244
-0.1756252348423004,0.480475902557373,0.0691883265972137,-0.6024229526519775,-0.0159482322633266,0.0441634282469749,0.0,0.0,0.517586350440979,-0.7441357374191284
-0.1749807298183441,0.4673714339733124,0.0604531578719615,-0.5823867321014404,-0.0120029961690306,0.0789047181606292,0.0,0.0,0.7716395854949951,0.0196176767349243
-0.1743908822536468,0.454729288816452,0.0552920810878276,-0.5618478655815125,-0.0083585064858198,0.0728898346424102,0.0,0.0,0.3568723201751709,0.866808295249939
-0.1735274344682693,0.4425924718379974,0.0838665589690208,-0.5394020676612854,-0.0059145488776266,0.0488790348172187,0.0,0.0,-0.5469368100166321,0.7828028202056885
-0.1724939346313476,0.4300651848316192,0.1022072061896324,-0.5567631125450134,-0.0047848508693277,0.0225939061492681,0.0,0.0,0.6173157691955566,-0.2800551652908325
-0.1712121069431305,0.4182741343975067,0.1259877979755401,-0.5240404009819031,-0.002621185965836,0.0432733111083507,0.0,0.0,-0.7666780352592468,0.5375924110412598
-0.1697858870029449,0.4061044752597809,0.1411126405000686,-0.5408740639686584,-0.0011337832547724,0.0297481920570135,0.0,0.0,-0.3800009489059448,0.3625593185424804
-0.1682556122541427,0.3935517370700836,0.151197001338005,-0.5578972697257996,0.0006797367241233,0.0362703427672386,0.0,0.0,0.1506519317626953,0.9059019088745116
-0.1664868295192718,0.3812218904495239,0.1765451431274414,-0.5479982495307922,0.0010082190856337,0.0065695280209183,0.0,0.0,0.5339746475219727,-0.4999656677246094
-0.1646202057600021,0.3696460425853729,0.1860921680927276,-0.5144830942153931,0.0015764712588861,0.0113651808351278,0.0,0.0,-0.4321316480636596,-0.5499176383018494
-0.1626868247985839,0.3576919734477997,0.1915199160575866,-0.5312963128089905,0.0033697329927235,0.0358650758862495,0.0,0.0,-0.1359532475471496,0.5483148097991943
-0.1605978906154632,0.3453523814678192,0.208106517791748,-0.548427402973175,0.0041384627111256,0.0153749585151672,0.0,0.0,0.0947078466415405,0.1508665084838867
-0.1584851294755935,0.3332438766956329,0.2106960713863372,-0.5381592512130737,0.0047133327461779,0.0114974565804004,0.0,0.0,0.4754769802093506,-0.0353813171386718
-0.1563821732997894,0.3214410841464996,0.2101020365953445,-0.5245690941810608,0.0049075367860496,0.0038842051289975,0.0,0.0,0.177988052368164,-0.6131772994995117
-0.1542394608259201,0.3098573684692383,0.2127451598644256,-0.5148376226425171,0.0064112213440239,0.0300738513469696,0.0,0.0,-0.6317000389099121,0.1767176389694214
-0.1519892662763595,0.2978906631469726,0.2234106510877609,-0.5318610072135925,0.0080001233145594,0.0317780300974845,0.0,0.0,0.0791122913360595,-0.1662927865982055
-0.1495479643344879,0.2858943045139313,0.2420720309019088,-0.533183217048645,0.0100360447540879,0.0407182984054088,0.0,0.0,0.5841325521469116,-0.4970983266830444
-0.1469119042158126,0.2744998633861542,0.2610910832881927,-0.5064405202865601,0.0125237563624978,0.0497542023658752,0.0,0.0,0.1991496086120605,-0.7594839334487915
-0.1442145407199859,0.2636071443557739,0.2656739354133606,-0.4841575920581817,0.0165292397141456,0.0801097154617309,0.0,0.0,-0.5074132680892944,-0.5750489234924316
-0.1414497345685959,0.2523244321346283,0.2714309990406036,-0.5015226006507874,0.0215114653110504,0.0996449068188667,0.0,0.0,-0.0282787680625915,-0.8795461654663086
