x_pos,y_pos,x_vel,y_vel,angle,ang_vel,leg_1,leg_2,main_booster,lat_booster
-0.0014844894176349,1.4033995866775513,-0.1505593955516815,-0.3342523872852325,0.0018859436968341,0.0372117906808853,0.0,0.0,-0.3069401979446411,0.753329873085022
-0.0028654099442064,1.3956735134124756,-0.1384608894586563,-0.3433797657489776,0.0022541405633091,0.0073653869330883,0.0,0.0,-0.3951176404953003,0.5643157958984375
-0.0041523934341967,1.3877179622650146,-0.1278484612703323,-0.3535771071910858,0.0014146598987281,-0.0167915988713502,0.0,0.0,0.3033139705657959,0.1031608581542968
-0.0054939268156886,1.3801283836364746,-0.1330213397741317,-0.3373145461082458,0.0002875745703931,-0.0225438028573989,0.0,0.0,-0.5043557286262512,0.5043529272079468
-0.006747436709702,1.3723152875900269,-0.1231488958001136,-0.3472502529621124,-0.0018796916119754,-0.0433491840958595,0.0,0.0,0.1534278392791748,0.0908880233764648
-0.0078640934079885,1.3648457527160645,-0.1101168990135192,-0.3319835662841797,-0.003409945173189,-0.030608057975769,0.0,0.0,-0.2939085960388183,0.0857807397842407
-0.0089405057951807,1.3571511507034302,-0.1062739863991737,-0.3419903218746185,-0.0047546667046844,-0.0268970392644405,0.0,0.0,-0.6275355219841003,0.1010440587997436
-0.0099763870239257,1.349231481552124,-0.1024277582764625,-0.351990669965744,-0.0059056268073618,-0.0230214186012744,0.0,0.0,-0.4758423566818237,0.6182711124420166
-0.0109241483733057,1.3410930633544922,-0.092590719461441,-0.3617176711559295,-0.0080556087195873,-0.0430037081241607,0.0,0.0,-0.7500447034835815,0.4366506338119507
-0.0118311885744333,1.332729697227478,-0.0887366384267807,-0.3717197775840759,-0.0099968360736966,-0.038828507065773,0.0,0.0,-0.8638851642608643,0.1624855995178222
-0.0126974107697606,1.324141263961792,-0.0848816037178039,-0.381721943616867,-0.0117231449112296,-0.0345292836427688,0.0,0.0,-0.9492572546005248,-0.154872715473175
-0.0135229108855128,1.3153276443481443,-0.0810257941484451,-0.391724020242691,-0.013227473013103,-0.0300891436636447,0.0,0.0,-0.5209123492240906,0.073137879371643
-0.0143075939267873,1.3062891960144043,-0.0771698355674743,-0.4017260670661926,-0.0145031828433275,-0.0255168266594409,0.0,0.0,-0.957623302936554,-0.7591044306755066
-0.0151043888181447,1.2970194816589355,-0.0799710601568222,-0.4119781851768493,-0.0142112849280238,0.0058384970761835,0.0,0.0,-0.7788972854614258,0.0335112810134887
-0.0158601757138967,1.2875248193740845,-0.0761205852031707,-0.4219801127910614,-0.013678940013051,0.0106475781649351,0.0,0.0,-0.8098499774932861,0.5939146280288696
-0.0165196415036916,1.277796983718872,-0.0653292536735534,-0.432355523109436,-0.0142923155799508,-0.0122685162350535,0.0,0.0,-0.8926447033882141,-0.1837055683135986
-0.0171380043029785,1.2678438425064087,-0.0614774599671363,-0.442357450723648,-0.0146521944552659,-0.0071981819346547,0.0,0.0,-0.9372647404670716,0.1934642791748047
-0.0177153591066598,1.257665753364563,-0.0576282739639282,-0.4523594677448272,-0.0147539563477039,-0.0020356650929898,0.0,0.0,-0.976976215839386,-0.4629158973693847
-0.0182515140622854,1.247262716293335,-0.0537817850708961,-0.4623614549636841,-0.0145921157673001,0.0032372646965086,0.0,0.0,-0.8828744888305664,-0.7327045202255249
-0.0188121795654296,1.2366355657577517,-0.0581724345684051,-0.4722992181777954,-0.0125118074938654,0.0416098609566688,0.0,0.0,-0.942884087562561,0.3733536005020141
-0.0193317420780658,1.225783348083496,-0.0543383657932281,-0.482301652431488,-0.0101590724661946,0.0470587201416492,0.0,0.0,-0.8709807395935059,-0.0789684653282165
-0.0198101997375488,1.2147061824798584,-0.0505082495510578,-0.4923041760921478,-0.0075284522026777,0.0526173822581768,0.0,0.0,-0.93920236825943,-0.0748391151428222
-0.0202475544065237,1.2034040689468384,-0.0466830022633075,-0.5023070573806763,-0.004616086371243,0.0582527033984661,0.0,0.0,-0.8715234994888306,-0.1387678980827331
-0.0206439979374408,1.191877007484436,-0.042863231152296,-0.5123099684715271,-0.0014180889120325,0.0639654472470283,0.0,0.0,-0.7395121455192566,0.3652334213256836
-0.0209992416203022,1.1801248788833618,-0.0390495136380195,-0.5223131775856018,0.0020691228564828,0.0697500556707382,0.0,0.0,-0.9649114608764648,0.7982563972473145
-0.0212654117494821,1.168130874633789,-0.0292314831167459,-0.533073902130127,0.0046460106968879,0.0515376850962638,0.0,0.0,-0.9336317777633668,0.2705215215682983
-0.0214905738830566,1.1559120416641235,-0.0254206843674182,-0.5430747866630554,0.0075194044038653,0.0574680157005786,0.0,0.0,-0.955180823802948,0.2692391872406006
-0.021674633026123,1.1434683799743652,-0.0216167066246271,-0.5530759692192078,0.0106924446299672,0.0634605959057807,0.0,0.0,-0.9162102341651917,0.2814733982086181
-0.0218176841735839,1.1307997703552246,-0.017820281907916,-0.5630773305892944,0.0141679216176271,0.0695093348622322,0.0,0.0,-0.7084633111953735,0.5432062149047852
-0.0218781474977731,1.1179052591323853,-0.0088250180706381,-0.5731208324432373,0.0169058348983526,0.0547584183514118,0.0,0.0,-0.8762765526771545,0.8021001815795898
-0.0218324661254882,1.1047966480255127,0.0031548358965665,-0.5826274752616882,0.0183055829256773,0.0279949661344289,0.0,0.0,-0.8796144127845764,-0.2266135811805725
-0.0217458717525005,1.0914629697799685,0.006923615001142,-0.5926283597946167,0.0200143437832593,0.0341751351952552,0.0,0.0,-0.929895281791687,-0.2100510597229004
-0.021618653088808,1.0779045820236206,0.0106812976300716,-0.6026294231414795,0.0220336653292179,0.0403863824903965,0.0,0.0,-0.619735836982727,-0.2579488158226013
-0.0214507095515728,1.064121127128601,0.0144268097355961,-0.6126306653022766,0.0243647620081901,0.0466221012175083,0.0,0.0,-0.9213497638702391,0.25030517578125
-0.021242331713438,1.0501128435134888,0.0181589759886264,-0.6226319670677185,0.0270085521042346,0.0528758764266967,0.0,0.0,-0.785568118095398,0.1274360418319702
-0.0209936145693063,1.0358798503875732,0.0218765251338481,-0.6326335072517395,0.0299656130373477,0.0591409988701343,0.0,0.0,-0.8710913062095642,0.6774566173553467
-0.0206534378230571,1.021420955657959,0.0320159122347831,-0.642660915851593,0.0319477580487728,0.0396428219974041,0.0,0.0,-0.7684244513511658,0.375615119934082
-0.020273208618164,1.006737232208252,0.0356998965144157,-0.6526622772216797,0.0342432782053947,0.0459102652966976,0.0,0.0,-0.9016861319541932,0.775193452835083
-0.0197959896177053,0.991840124130249,0.0465356446802616,-0.662117063999176,0.0354093424975872,0.0233215000480413,0.0,0.0,-0.8395875692367554,0.1757490634918213
-0.0192791931331157,0.9767183661460876,0.0501794107258319,-0.6721183061599731,0.0368875078856945,0.0295634064823389,0.0,0.0,-0.8474844098091125,0.383821964263916
-0.0187231060117483,0.961371660232544,0.0538001582026481,-0.6821197271347046,0.0386766046285629,0.0357817746698856,0.0,0.0,-0.7712472677230835,-0.2177498340606689
-0.0181280132383108,0.945800244808197,0.0573957450687885,-0.6921213269233704,0.0407750755548477,0.0419693626463413,0.0,0.0,-0.7293328046798706,0.7482693195343018
-0.0174250602722167,0.9300000071525574,0.0696077868342399,-0.70225590467453,0.041453443467617,0.0135671887546777,0.0,0.0,-0.7604577541351318,-0.1965674757957458
-0.0166835784912109,0.9139748215675354,0.0731456503272056,-0.7122572064399719,0.0424369573593139,0.0196706764400005,0.0,0.0,-0.6342576146125793,0.1170557737350463
-0.015904139727354,0.8977249264717102,0.0766505375504493,-0.7222585678100586,0.0437230020761489,0.0257206466048955,0.0,0.0,-0.7325510382652283,0.7419798374176025
-0.015023517422378,0.8812467455863953,0.0880634039640426,-0.73236483335495,0.0437208302319049,-4.346592322690413e-05,0.0,0.0,-0.8263928294181824,0.5140153169631958
-0.0140607831999659,0.8645437955856323,0.0971166267991066,-0.7423271536827087,0.0428888015449047,-0.0166407451033592,0.0,0.0,-0.4451626539230346,-0.3624606132507324
-0.0130613325163722,0.8476161360740662,0.1005028262734413,-0.7523285150527954,0.0423488467931747,-0.0107991676777601,0.0,0.0,-0.2401038408279419,0.1412498950958252
-0.0120253562927246,0.8304635882377625,0.1038418784737587,-0.7623297572135925,0.0420966707170009,-0.0050434032455086,0.0,0.0,-0.4415017366409302,-0.2712163925170898
-0.0109538082033395,0.8130861520767212,0.1071294546127319,-0.7723309397697449,0.0421275570988655,0.0006178949261084,0.0,0.0,-0.7340028285980225,0.2377455234527588
-0.0098470691591501,0.7954838275909424,0.1103608459234237,-0.782332181930542,0.0424363762140274,0.0061762705445289,0.0,0.0,-0.6653328537940979,0.1960475444793701
-0.0087059019133448,0.7776567935943604,0.1135309934616088,-0.7923333048820496,0.0430175252258777,0.0116229029372334,0.0,0.0,-0.7088832855224609,-0.0357739329338073
-0.0075309751555323,0.7596048712730408,0.1166344061493873,-0.8023345470428467,0.0438649579882621,0.016948789358139,0.0,0.0,-0.6216744780540466,0.1757715940475464
-0.0063230516389012,0.7413281202316284,0.11966522783041,-0.8123357892036438,0.0449721924960613,0.0221447777003049,0.0,0.0,-0.7219026684761047,0.5534067153930664
-0.0050285337492823,0.7228280305862427,0.1294714212417602,-0.8222241997718811,0.0449590906500816,-0.0002619354927446,0.0,0.0,-0.7195374965667725,-0.9205954670906068
-0.0037870407104492,0.7040934562683105,0.1217694729566574,-0.8327246904373169,0.0473142601549625,0.0471031479537487,0.0,0.0,-0.766562819480896,0.5099815130233765
-0.0024688721168786,0.685141921043396,0.130376860499382,-0.8423334956169128,0.0487329326570034,0.0283735580742359,0.0,0.0,-0.0126361846923828,-0.2176060080528259
-0.0011217116843909,0.6659656167030334,0.1330507099628448,-0.8523347973823547,0.0503807254135608,0.032955601811409,0.0,0.0,-0.1000651121139526,-0.4289823174476623
0.0002532959042582,0.6465644240379333,0.1356167942285537,-0.8623362183570862,0.0522487238049507,0.0373599007725715,0.0,0.0,0.5562927722930908,-0.5234922170639038
0.0014978408580645,0.6280426383018494,0.1215117797255516,-0.8232971429824829,0.0551682263612747,0.058389663696289,0.0,0.0,-0.2053001523017883,-0.0814529061317443
0.002767753554508,0.6092960238456726,0.1238377913832664,-0.833298921585083,0.0582886449992656,0.0624082498252391,0.0,0.0,0.7044042348861694,-0.2953888177871704
0.0039161681197583,0.5913993716239929,0.1119747012853622,-0.7955244779586792,0.061121005564928,0.0566471330821514,0.0,0.0,0.2383098602294922,0.680641770362854
0.0052204132080078,0.5738709568977356,0.1286040842533111,-0.7791176438331604,0.0629288703203201,0.03615727648139,0.0,0.0,-0.4872851371765136,-0.5706354975700378
0.0065021514892578,0.5561144948005676,0.1250691413879394,-0.7893096804618835,0.0659961700439453,0.0613456740975379,0.0,0.0,0.3674638271331787,0.023119568824768
0.007787418551743,0.5386305451393127,0.1252417415380478,-0.7772137522697449,0.0692496225237846,0.0650694966316223,0.0,0.0,-0.0713781714439392,0.3305661678314209
0.0090899467468261,0.5209218263626099,0.1268191039562225,-0.7872157692909241,0.0726468935608863,0.0679455250501632,0.0,0.0,0.7656159400939941,0.485719084739685
0.0103643415495753,0.5043591856956482,0.1237678378820419,-0.7363001704216003,0.0762810632586479,0.0726837143301963,0.0,0.0,0.1862164735794067,-0.0911619067192077
0.0116950031369924,0.4878926277160644,0.1289910525083542,-0.7320594191551208,0.0803052261471748,0.0804833471775055,0.0,0.0,0.4455617666244507,0.2467961311340332
0.0130005832761526,0.4723210632801056,0.1262819916009903,-0.692305326461792,0.0845421627163887,0.0847388580441474,0.0,0.0,-0.536071240901947,0.3495813608169555
0.0143155101686716,0.4565248489379883,0.1271214038133621,-0.7023076415061951,0.0888680517673492,0.086517795920372,0.0,0.0,0.0354396104812622,0.411179780960083
0.0155425071716308,0.4411303400993347,0.1185333281755447,-0.6844547986984253,0.0930017232894897,0.0826734751462936,0.0,0.0,0.1241208314895629,0.4958570003509521
0.0167560577392578,0.4261464476585388,0.1170266419649124,-0.666225254535675,0.0972908064723014,0.0857816338539123,0.0,0.0,-0.0395183563232421,0.6350579261779785
0.0180110931396484,0.410950630903244,0.1221477016806602,-0.6755918264389038,0.1006249412894249,0.0666827261447906,0.0,0.0,-0.1294393539428711,0.417411208152771
0.0192667003720998,0.3955299854278564,0.1221736446022987,-0.68559330701828,0.1039855778217315,0.0672129690647125,0.0,0.0,0.5694968700408936,0.556060791015625
0.0204917900264263,0.3804359436035156,0.1203154772520065,-0.671002209186554,0.1061626672744751,0.0435417667031288,0.0,0.0,0.8062765598297119,0.4281333684921264
0.0217493064701557,0.3656588494777679,0.1232103109359741,-0.6569425463676453,0.1086764708161354,0.0502759106457233,0.0,0.0,0.7290482521057129,0.1350753307342529
0.0229290965944528,0.3511810600757599,0.1156346052885055,-0.6436285376548767,0.1110127121210098,0.0467246733605861,0.0,0.0,0.2803891897201538,0.476170539855957
0.0240261070430278,0.3373936414718628,0.1074216961860656,-0.6129454374313354,0.1132766604423523,0.0452791824936866,0.0,0.0,0.4220898151397705,0.5686444044113159
0.0251520164310932,0.3244536817073822,0.1113396286964416,-0.5752054452896118,0.1145113110542297,0.0246931761503219,0.0,0.0,-0.2581160068511963,0.0104357004165649
0.0262652393430471,0.3112885355949402,0.1101635694503784,-0.5852050185203552,0.1156676560640335,0.0231266226619482,0.0,0.0,0.0949065685272216,0.1487481594085693
0.0272534377872943,0.2982105016708374,0.0981529057025909,-0.5812968611717224,0.1163306683301925,0.0132600264623761,0.0,0.0,0.759711503982544,0.0649335384368896
0.028170108795166,0.2861692607402801,0.090914785861969,-0.5352269411087036,0.1170772686600685,0.0149319376796484,0.0,0.0,0.8630262613296509,0.1508681774139404
0.0288790706545114,0.274849534034729,0.0708152130246162,-0.5031053423881531,0.1171616241335868,0.0016873817658051,0.0,0.0,0.9178045988082886,-0.263477087020874
0.0294127464294433,0.2644655406475067,0.0537314005196094,-0.461481899023056,0.1167994067072868,-0.0072445822879672,0.0,0.0,0.8212013244628906,0.4304419755935669
0.0298216827213764,0.255002349615097,0.0414854623377323,-0.4205395579338074,0.1162054240703582,-0.0118796415627002,0.0,0.0,0.2949258089065552,0.3215761184692383
0.0302220340818166,0.2460052073001861,0.0405091345310211,-0.3998387157917022,0.1157384365797042,-0.00933956541121,0.0,0.0,0.6505820751190186,0.6382534503936768
0.0306340213865041,0.2372991889715194,0.0430988185107708,-0.3867873251438141,0.1138523295521736,-0.0377221927046775,0.0,0.0,0.3311264514923095,-0.2140275239944458
0.0310569759458303,0.2288641035556793,0.0440701879560947,-0.3747586607933044,0.1120864152908325,-0.0353185012936592,0.0,0.0,0.6974080801010132,-0.2343751192092895
0.0315366759896278,0.2211035788059234,0.049287237226963,-0.3448148071765899,0.1107762977480888,-0.0262023899704217,0.0,0.0,0.7208397388458252,-0.5540087223052979
0.0320528969168663,0.2137443870306015,0.0516818948090076,-0.327073723077774,0.1107278913259506,-0.0009680503862909,0.0,0.0,0.7397496700286865,-0.7827388644218445
0.0323830619454383,0.2073334008455276,0.0317868962883949,-0.2850219309329986,0.1119474470615387,0.0243910551071167,0.0,0.0,0.6724021434783936,0.6916441917419434
0.0326839461922645,0.2018616944551468,0.0304705314338207,-0.2431573718786239,0.1115637347102165,-0.007674275431782,0.0,0.0,-0.6343896985054016,-0.1550096869468689
0.0329523086547851,0.1961645483970642,0.0275387875735759,-0.2531546652317047,0.110868401825428,-0.0139064667746424,0.0,0.0,-0.2427659630775451,-0.4372850656509399
0.0331872925162315,0.1902419477701187,0.0245271380990743,-0.2631519138813019,0.1098454445600509,-0.0204592142254114,0.0,0.0,0.0985331535339355,0.2926157712936401
0.0333161354064941,0.184592917561531,0.0144211305305361,-0.2509549856185913,0.1083176434040069,-0.0305560287088155,0.0,0.0,-0.1267865300178527,0.4548044204711914
0.0334098823368549,0.1787184625864029,0.011268587782979,-0.2609521746635437,0.106431595981121,-0.0377211160957813,0.0,0.0,0.2558076381683349,-0.6245535016059875
0.033353041857481,0.1732524782419204,-0.004623538814485,-0.2428576052188873,0.1053846701979637,-0.0209388621151447,0.0,0.0,-0.1447618007659912,0.1299309730529785
0.0332596786320209,0.1675609648227691,-0.0078945411369204,-0.2528545260429382,0.103950910270214,-0.0286750849336385,0.0,0.0,0.2296396493911743,-0.2168583869934082
0.0331396088004112,0.162428930401802,-0.0104636326432228,-0.2279851585626602,0.1024165377020835,-0.0306874010711908,0.0,0.0,-0.421704888343811,0.3575782775878906
0.0329815857112407,0.1570713073015213,-0.0138337360695004,-0.2379820197820663,0.1004689708352088,-0.0389513745903968,0.0,0.0,-0.1531689167022705,0.5639961957931519
0.0328231826424598,0.1514981091022491,-0.0124668953940272,-0.2474768608808517,0.0971243157982826,-0.0668933093547821,0.0,0.0,-0.3429276943206787,-0.4662156105041504
0.0326258651912212,0.145699456334114,-0.0159195475280284,-0.2574744522571563,0.0933422744274139,-0.0756405889987945,0.0,0.0,0.052958607673645,-0.2035055160522461
0.0322793945670127,0.1402375549077987,-0.030035525560379,-0.2424710094928741,0.0887676402926445,-0.0914925187826156,0.0,0.0,-0.2207520008087158,-0.068202257156372
0.031892966479063,0.1345504075288772,-0.0335568450391292,-0.2524695694446563,0.0837337076663971,-0.100678876042366,0.0,0.0,-0.3794834017753601,0.0179420709609985
0.0314663872122764,0.1286381036043167,-0.037108015269041,-0.2624686360359192,0.0782302916049957,-0.1100684851408004,0.0,0.0,-0.270857572555542,-0.0415188670158386
0.0309990886598825,0.1225007846951484,-0.0406863875687122,-0.272468239068985,0.0722477585077285,-0.1196508780121803,0.0,0.0,-0.3881255388259887,-0.5125133991241455
0.0304598808288574,0.1161390170454979,-0.0481615960597991,-0.282477855682373,0.0665506199002265,-0.113942839205265,0.0,0.0,-0.1873681545257568,-0.1412002444267273
0.0298794750124216,0.109552226960659,-0.05178739503026,-0.2924780249595642,0.0603565983474254,-0.123880349099636,0.0,0.0,-0.0969588756561279,-0.1906813383102417
0.0292572975158691,0.1027406305074691,-0.0554337203502655,-0.3024788796901703,0.0536575689911842,-0.1339807361364364,0.0,0.0,-0.117936372756958,-0.2307981252670288
0.0285933502018451,0.0957043766975402,-0.0590987429022789,-0.3124805390834808,0.0464458391070365,-0.1442346423864364,0.0,0.0,0.4801309108734131,-0.3851759433746338
0.0278469081968069,0.0895390138030052,-0.0667895674705505,-0.2737898826599121,0.0386842414736747,-0.1552317887544632,0.0,0.0,-0.3041337132453918,-0.33989417552948
0.0270581245422363,0.0831493437290191,-0.0704870969057083,-0.2837934792041778,0.0303959343582391,-0.1657661646604538,0.0,0.0,-0.0244983434677124,-0.6768842935562134
0.0261805541813373,0.0765297263860702,-0.0800109207630157,-0.2940660119056701,0.0227410476654768,-0.1530976295471191,0.0,0.0,0.3002991676330566,0.0008097887039184
0.0251528732478618,0.0704124271869659,-0.0940136760473251,-0.2717752754688263,0.0141017287969589,-0.1727863252162933,0.0,0.0,0.3961079120635986,-0.0974688529968261
0.0239677429199218,0.0647210702300071,-0.1086997389793396,-0.252881795167923,0.0044159148819744,-0.1937166005373001,0.0,0.0,0.2236018180847168,-0.4657551646232605
0.0227218624204397,0.0594321116805076,-0.1141496673226356,-0.2350606918334961,-0.0058936993591487,-0.2061920166015625,0.0,0.0,-0.149614930152893,-0.4656704068183899
0.0214327815920114,0.0539197772741317,-0.1179059743881225,-0.2450700849294662,-0.016758183017373,-0.217289537191391,0.0,0.0,0.5862789154052734,0.0576679706573486
0.0202315337955951,0.0486987680196762,-0.10914146900177,-0.2322002202272415,-0.0276021212339401,-0.2168785631656646,0.0,0.0,-0.1236441731452941,-0.516491174697876
0.018952751532197,0.0432582460343837,-0.1172068491578102,-0.2420303225517273,-0.0381486266851425,-0.210930198431015,0.0,0.0,0.2271867990493774,-0.6306617856025696
0.0176241882145404,0.0385002233088016,-0.1229085177183151,-0.2117503583431244,-0.0479736924171447,-0.196501225233078,0.0,0.0,-0.0168066024780273,-0.1289832592010498
0.0162520408630371,0.0335188247263431,-0.1266948580741882,-0.2217609584331512,-0.0583703033626079,-0.2079322040081024,0.0,0.0,0.4430217742919922,-0.5207479000091553
