x_pos,y_pos,x_vel,y_vel,angle,ang_vel,leg_1,leg_2,main_booster,lat_booster
-0.0015607833629474,1.403499960899353,-0.1581092029809951,-0.3297775089740753,0.0018202626379206,0.0359106585383415,0.0,0.0,-0.2770752278575232,0.904590136686369
-0.0030802725814282,1.3959746360778809,-0.1518095582723617,-0.3344607651233673,0.0016769529320299,-0.0028658260125666,0.0,0.0,-0.5000721712759191,0.0378838547110904
-0.0046339035034179,1.3883243799209597,-0.1552489399909973,-0.3400107026100158,0.0015597279416397,-0.0023444842081516,0.0,0.0,0.1489107990936824,0.3572152117915353
-0.006303405854851,1.3810707330703735,-0.1664586067199707,-0.3223859965801239,0.0010716438991948,-0.0097624231129884,0.0,0.0,-0.1040288392253072,-0.0509766867697648
-0.0080036167055368,1.373692512512207,-0.1695505231618881,-0.3279175460338592,0.0006117378943599,-0.0091990958899259,0.0,0.0,-0.9507655454904648,0.7872759248294252
-0.009656524285674,1.3661891222000122,-0.1629190444946289,-0.3334889709949493,-0.0017320803599432,-0.0468806438148021,0.0,0.0,-0.3344924562308484,-0.6925622496455343
-0.0113927843049168,1.3585615158081057,-0.1727155447006225,-0.3390081226825714,-0.0026236593257635,-0.017833225429058,0.0,0.0,-0.8664289529894811,0.8792095412732006
-0.0130672454833984,1.3508117198944092,-0.1643850207328796,-0.3444406390190124,-0.0056589115411043,-0.0607109367847442,0.0,0.0,0.828275639088726,0.1417624139268641
-0.0147723201662302,1.3443269729614258,-0.1674121618270874,-0.2882284224033355,-0.0087271276861429,-0.0613694190979003,0.0,0.0,0.1140280427580409,0.4453099571210952
-0.0164939872920513,1.3384523391723633,-0.1690926998853683,-0.2611148059368133,-0.0117690442129969,-0.0608439743518829,0.0,0.0,-0.7640734689070061,0.2300907998202105
-0.018233586102724,1.3324534893035889,-0.1709181517362594,-0.2666429877281189,-0.014782284386456,-0.0602701120078563,0.0,0.0,-0.7921852788694939,0.8592404020245296
-0.019913101568818,1.326327204704285,-0.1630129814147949,-0.2723401188850403,-0.0196704007685184,-0.0977711826562881,0.0,0.0,-0.2870019142775055,0.2463837514939988
-0.0216056816279888,1.320076823234558,-0.1643417179584503,-0.2778690159320831,-0.0245303269475698,-0.0972073078155517,0.0,0.0,-0.7707656743406348,0.6984828354647706
-0.0232474319636821,1.313693642616272,-0.1577241122722625,-0.2838132977485657,-0.03090894035995,-0.1275837570428848,0.0,0.0,-0.7931382630908532,-0.607579960130942
-0.0249334331601858,1.307194709777832,-0.163116455078125,-0.2889695763587951,-0.036337710916996,-0.1085856407880783,0.0,0.0,0.6844493575236854,-0.5402804911091255
-0.0265368465334177,1.3010152578353882,-0.1562953144311905,-0.2747413218021393,-0.0403417386114597,-0.0800876170396804,0.0,0.0,0.2284899651282272,0.4108069340480783
-0.0280145648866891,1.295658826828003,-0.1442305445671081,-0.2381644248962402,-0.0438439436256885,-0.0700503289699554,0.0,0.0,0.8426537678015975,-0.9203589864522572
-0.0293704979121685,1.2907896041870115,-0.1342257708311081,-0.2164519727230072,-0.0451875664293766,-0.0268748067319393,0.0,0.0,-0.5928187879049629,0.0224712266153735
-0.0307229049503803,1.2857959270477295,-0.1339089125394821,-0.2219806611537933,-0.0465155728161335,-0.026562675833702,0.0,0.0,-0.2247919783364311,-0.2144713820210713
-0.0320692062377929,1.2806777954101562,-0.133292555809021,-0.2275061607360839,-0.0478288084268569,-0.0262670256197452,0.0,0.0,-0.0162840360541733,-0.8533621656499688
-0.0334589965641498,1.275445580482483,-0.1390152424573898,-0.2325446009635925,-0.0477924868464469,0.0007261611171998,0.0,0.0,-0.9720142902054748,-0.7708930056068317
-0.0348962768912315,1.2700889110565186,-0.1452949196100235,-0.2380271106958389,-0.0462462790310382,0.030927050858736,0.0,0.0,0.7498940254991902,0.3347813610012168
-0.0361541733145713,1.2654625177383425,-0.1280101239681244,-0.2055533081293106,-0.0440558455884456,0.0438128262758255,0.0,0.0,-0.4558365860596314,0.9519468689452588
-0.0373101234436035,1.2606953382492063,-0.1156694069504737,-0.2118673324584961,-0.0439783036708831,0.001551239634864,0.0,0.0,-0.762938172802512,-0.2451224466830814
-0.0384444221854209,1.2558039426803589,-0.1135075911879539,-0.2173915207386016,-0.0439007692039012,0.0015507115749642,0.0,0.0,-0.5740539042296451,-0.1827441963052041
-0.0395545959472656,1.2507668733596802,-0.1110932603478431,-0.2238718867301941,-0.0438283756375312,0.001448196475394,0.0,0.0,0.2997465520599314,-0.944295412168622
-0.0406829826533794,1.2464723587036133,-0.1147989258170127,-0.1908080875873565,-0.0418826527893543,0.0389142744243145,0.0,0.0,-0.0962299217954145,-0.4422161391494539
-0.04178037494421,1.242053508758545,-0.1116905957460403,-0.1963337361812591,-0.0399487614631652,0.038677729666233,0.0,0.0,0.7147721934173703,0.96738092227527
-0.0428866371512413,1.2387279272079468,-0.1104149594902992,-0.1478064656257629,-0.0401633754372596,-0.0042923083528876,0.0,0.0,0.5547682754082424,0.3122450957231103
-0.0439571365714073,1.235967040061951,-0.1067203134298324,-0.1227165088057518,-0.0404887497425079,-0.0065074614249169,0.0,0.0,-0.1595624242678959,0.3120716368634236
-0.0449874885380268,0.0,-0.1026790142059326,-0.1282418966293335,-0.0408372804522514,-0.0069709382951259,0.0,0.0,-0.930903971195221,0.5967532396316528
-0.0459336265921592,1.2300662994384766,-0.0931872054934501,-0.1340623795986175,-0.042247287929058,-0.028200039640069,0.0,0.0,-0.9993517398834229,-0.5670514702796936
-0.0468844398856163,1.2269349098205566,-0.0949242115020752,-0.1391712576150894,-0.0424048081040382,-0.0031502835918217,0.0,0.0,-0.9989784955978394,0.6999914646148682
-0.047736931592226,1.2236700057983398,-0.0837939083576202,-0.1451546996831894,-0.043843638151884,-0.0287765152752399,0.0,0.0,-0.9690908193588256,0.8265829086303711
-0.0484704002737998,1.2202779054641724,-0.0701407343149185,-0.1508501023054123,-0.0470103584229946,-0.063334509730339,0.0,0.0,-0.9641636610031128,0.0774492025375366
-0.0491492263972759,1.216761827468872,-0.0646327808499336,-0.1563764065504074,-0.0502203665673732,-0.0642000511288642,0.0,0.0,-0.9865840673446656,-0.2525535821914673
-0.0497706420719623,1.2131216526031494,-0.0588506460189819,-0.1619027554988861,-0.0534777641296386,-0.0651479735970497,0.0,0.0,-0.9348657131195068,0.2414294481277465
-0.0503321662545204,1.2093572616577148,-0.0528019368648529,-0.1674291938543319,-0.0567866824567317,-0.0661785379052162,0.0,0.0,-0.9970939755439758,0.3417515754699707
-0.0508311279118061,1.2054686546325684,-0.0464946664869785,-0.1729556769132614,-0.0601512864232063,-0.0672918483614921,0.0,0.0,-0.9995257258415222,-0.1727356314659118
-0.0512651428580284,1.2014559507369995,-0.039937175810337,-0.1784822344779968,-0.0635756775736808,-0.0684878751635551,0.0,0.0,-0.9781537652015686,0.5359530448913574
-0.0515968315303325,1.1973204612731934,-0.0287494156509637,-0.1839939057826995,-0.06794074177742,-0.0873011276125907,0.0,0.0,-0.96583092212677,-0.3845468163490295
-0.0518587119877338,1.1930609941482544,-0.021717581897974,-0.1895211786031723,-0.0723738297820091,-0.088661752641201,0.0,0.0,-0.9961946606636048,-0.1878288984298706
-0.0520488731563091,1.1886775493621826,-0.0144619271159172,-0.1950485706329345,-0.0768790319561958,-0.0901040136814117,0.0,0.0,-0.9947552680969238,-0.0518553853034973
-0.0521650314331054,1.184170126914978,-0.0069915005005896,-0.2005760371685028,-0.081460416316986,-0.091627337038517,0.0,0.0,-0.9974216818809508,0.3428561687469482
-0.0522051826119422,1.1795387268066406,0.0006846114411018,-0.2061036229133606,-0.0861219689249992,-0.0932309851050376,0.0,0.0,-0.9929138422012328,-0.364309549331665
-0.0521675124764442,1.1747833490371704,0.0085573475807905,-0.2116313427686691,-0.0908676609396934,-0.0949140936136245,0.0,0.0,-0.9824743866920472,-0.8070507645606995
-0.0521075241267681,1.1699074506759644,0.009418879635632,-0.2169190347194671,-0.0942575260996818,-0.0677972286939621,0.0,0.0,-0.9428415298461914,-0.1080950498580932
-0.0519660003483295,1.1649075746536257,0.0176581051200628,-0.2224459946155548,-0.0977393612265586,-0.0696365535259246,0.0,0.0,-0.8152529001235962,-0.4460417032241821
-0.0517414100468158,1.1597834825515747,0.0260673221200704,-0.2279730886220932,-0.1013169735670089,-0.0715523362159729,0.0,0.0,-0.9692060947418212,-0.5954456925392151
-0.0514807701110839,1.154541254043579,0.0285373590886592,-0.2331635951995849,-0.1037658154964447,-0.0489767789840698,0.0,0.0,-0.8598489165306091,-0.6499099731445312
-0.0511728301644325,1.14918053150177,0.0323701500892639,-0.238358587026596,-0.1053306981921196,-0.0312975868582725,0.0,0.0,-0.7452069520950317,0.4498978853225708
-0.0507773384451866,1.143695831298828,0.0412389263510704,-0.2438850253820419,-0.1070024594664573,-0.0334353372454643,0.0,0.0,-0.8120352625846863,-0.4267680644989013
-0.0502927787601947,1.138087034225464,0.0502447411417961,-0.2494115382432937,-0.1087846830487251,-0.0356443561613559,0.0,0.0,-0.7806394100189209,-0.6239613890647888
-0.0497664436697959,1.132367730140686,0.0532948486506938,-0.2542376816272735,-0.1094405949115753,-0.0131186340004205,0.0,0.0,-0.8097959756851196,-0.5653342008590698
-0.0491824150085449,1.1265276670455933,0.0583373308181762,-0.2595506012439728,-0.1093660518527031,0.0014909845776855,0.0,0.0,-0.7118051052093506,-0.4734060764312744
-0.0485056862235069,1.120563507080078,0.0677096098661422,-0.2650770246982574,-0.1094121858477592,-0.0009225425310432,0.0,0.0,-0.9002688527107239,-0.8627709746360779
-0.0477922447025775,1.114492654800415,0.0700611248612403,-0.2697266340255737,-0.1081268191337585,0.0257070809602737,0.0,0.0,-0.7951613664627075,-0.6220373511314392
-0.0470215789973735,1.1083061695098877,0.0749279111623764,-0.2747990190982818,-0.1060111969709396,0.0423126481473445,0.0,0.0,-0.9173440337181092,-0.3757803440093994
-0.0461555495858192,1.101995825767517,0.0846054181456565,-0.2803258299827575,-0.1040257290005683,0.0397095307707786,0.0,0.0,-0.8934521079063416,-0.5916605591773987
-0.0452451705932617,1.0955744981765747,0.0878256112337112,-0.2851662635803222,-0.1008424013853073,0.0636665076017379,0.0,0.0,-0.7299377918243408,-0.8341279029846191
-0.044298268854618,1.0890313386917114,0.0900878831744194,-0.2905052006244659,-0.096276007592678,0.0913276299834251,0.0,0.0,-0.8107136487960815,-0.5383777022361755
-0.0433027260005474,1.0823742151260376,0.0938274636864662,-0.2955100238323211,-0.0905956551432609,0.1136073470115661,0.0,0.0,-0.8439180850982666,-0.7581965327262878
-0.0422560684382915,1.075598120689392,0.0978581830859184,-0.3007629811763763,-0.083856426179409,0.134784311056137,0.0,0.0,-0.9053953886032104,-0.3473188877105713
-0.0411102287471294,1.068698525428772,0.1079286113381385,-0.3062930703163147,-0.0772613659501075,0.131901279091835,0.0,0.0,-0.8678395748138428,-0.4623971581459045
-0.0398644432425498,1.0616750717163086,0.1180628314614296,-0.3118229508399963,-0.0708129480481147,0.1289683729410171,0.0,0.0,-0.8294411301612854,-0.7193371653556824
-0.0385866165161132,1.054535984992981,0.1196689009666442,-0.3169283866882324,-0.0627867430448532,0.1605240404605865,0.0,0.0,-0.8891381025314331,0.252170205116272
-0.037207793444395,1.0472736358642578,0.1299173682928085,-0.322459876537323,-0.0549118518829345,0.1574977934360504,0.0,0.0,-0.9492471218109132,0.8131945133209229
-0.0356548316776752,1.0398718118667605,0.1493434309959411,-0.3287577927112579,-0.0490313284099102,0.1176104918122291,0.0,0.0,-0.4057952165603637,-0.7521942853927612
-0.0340564735233783,1.0323594808578491,0.1525940150022506,-0.3336671590805053,-0.0418752990663051,0.1431207358837127,0.0,0.0,-0.8781588077545166,-0.4976171255111694
-0.032355785369873,1.0247234106063845,0.1629847735166549,-0.3391972482204437,-0.0348766781389713,0.1399724781513214,0.0,0.0,-0.7771100401878357,-0.6900409460067749
-0.030615234747529,1.016970157623291,0.1655309051275253,-0.3444156348705292,-0.0264550410211086,0.1684325933456421,0.0,0.0,-0.8958779573440552,0.2602332830429077
-0.0287715904414653,1.0090935230255127,0.1759987920522689,-0.3499471843242645,-0.0181943383067846,0.1652142852544784,0.0,0.0,-0.9449674487113952,-0.5976845622062683
-0.0268817897886037,1.001102089881897,0.1793058365583419,-0.3550939261913299,-0.0086528295651078,0.1908300369977951,0.0,0.0,-0.9511066675186156,0.4440758228302002
-0.0248884204775095,0.9929873943328856,0.1898383796215057,-0.3606269955635071,0.0007247446337714,0.1875514239072799,0.0,0.0,-0.9130687713623048,0.988734006881714
-0.022717285901308,0.9847416281700134,0.2096674442291259,-0.3664983808994293,0.0080810012295842,0.1471253335475921,0.0,0.0,-0.6476398706436157,-0.5152108073234558
-0.0204779617488384,0.9763665795326232,0.2157182395458221,-0.3722948133945465,0.0161798577755689,0.1619770973920822,0.0,0.0,-0.6852331757545471,0.5208324193954468
-0.0180953033268451,0.9678635001182556,0.2312317192554474,-0.3780033886432647,0.0231301300227642,0.1390053927898407,0.0,0.0,-0.8793632984161377,-0.3829063177108764
-0.0156080247834324,0.9592368006706238,0.2418597936630249,-0.3835324347019195,0.0299120303243398,0.135638028383255,0.0,0.0,-0.7836785316467285,-0.6999894380569458
-0.0130641935393214,0.950491189956665,0.2464676648378372,-0.3888708353042602,0.0377311669290065,0.1563827693462371,0.0,0.0,-0.6020840406417847,-0.5249370336532593
-0.0104648591950535,0.9416247606277466,0.2509358525276184,-0.3943219482898712,0.0466185212135314,0.1777471899986267,0.0,0.0,-0.9022863507270812,-0.6587651371955872
-0.0078235622495412,0.93262380361557,0.2536919713020324,-0.4004019796848297,0.0569289438426494,0.206208735704422,0.0,0.0,-0.7077639698982239,-0.7465246915817261
-0.0051325797103345,0.9235020279884338,0.2574457228183746,-0.4059020578861236,0.0684533566236496,0.2304883897304535,0.0,0.0,-0.8547669649124146,-0.6151208281517029
-0.0023932456970214,0.9142516255378724,0.261018842458725,-0.4117652177810669,0.0812374427914619,0.2556817531585693,0.0,0.0,-0.5714859962463379,-0.6833387613296509
0.0003922462346963,0.9048749208450316,0.2643226981163025,-0.4175762832164764,0.0953345447778701,0.2819421291351318,0.0,0.0,-0.9028304815292358,-0.2475239038467407
0.0032827376853674,0.8953761458396912,0.2750244438648224,-0.4231167733669281,0.1092604547739029,0.2785182595252991,0.0,0.0,-0.8045954704284668,-0.8051142692565918
0.0062244413420557,0.885746955871582,0.2789300680160522,-0.4291473031044006,0.1243887767195701,0.3025662302970886,0.0,0.0,-0.7218244671821594,-0.9319021701812744
0.009201431646943,0.8759744167327881,0.2808869183063507,-0.4358302354812622,0.1411379128694534,0.3349830508232116,0.0,0.0,-0.7913590669631958,-0.5912158489227295
0.012244701385498,0.8660683035850525,0.2867102324962616,-0.4420332908630371,0.1587187945842743,0.3516177535057068,0.0,0.0,-0.6066802740097046,-0.4243947267532348
0.0153925893828272,0.8560415506362915,0.2974056005477905,-0.4475819766521454,0.1761301755905151,0.3482275903224945,0.0,0.0,-0.7374643683433533,-0.9026333093643188
0.018592070788145,0.8458732962608337,0.3013909161090851,-0.4542377591133117,0.1947678625583648,0.3727537989616394,0.0,0.0,-0.4827335476875305,-0.2703258991241455
0.0218960754573345,0.835584819316864,0.3120692372322082,-0.4597889482975006,0.2132379412651062,0.3694017231464386,0.0,0.0,0.1335333585739135,-0.7253136038780212
0.0251609794795513,0.8259339928627014,0.3069441318511963,-0.4318682551383972,0.2330201119184494,0.3956432938575744,0.0,0.0,-0.2323234677314758,-0.6502645015716553
0.028489876538515,0.8161518573760986,0.3125738501548767,-0.4381054639816284,0.2536754012107849,0.4131055474281311,0.0,0.0,0.5120859146118164,-0.0741192102432251
0.0319367423653602,0.8067192435264587,0.3242282271385193,-0.4229096472263336,0.2745942175388336,0.4183765351772308,0.0,0.0,0.694331169128418,0.3852649927139282
0.0352936759591102,0.7978991270065308,0.3157396018505096,-0.3958829939365387,0.2951021790504455,0.4101592898368835,0.0,0.0,0.5659893751144409,0.5102276802062988
0.03863525390625,0.790193498134613,0.31527841091156,-0.3464115262031555,0.3146323561668396,0.3906037509441376,0.0,0.0,0.4778034687042236,0.9820709228515624
0.0419732108712196,0.7831181883811951,0.3171241879463196,-0.3181796371936798,0.3319843113422394,0.3470390737056732,0.0,0.0,0.2137843370437622,0.6945768594741821
0.0451766960322856,0.7767325639724731,0.305408239364624,-0.2873257100582123,0.3476249277591705,0.3128127157688141,0.0,0.0,0.427321195602417,0.9645487070083618
0.048428725451231,0.7711619734764099,0.3123069703578949,-0.2507542967796325,0.3611928522586822,0.2713589370250702,0.0,0.0,-0.0380016565322876,0.7964736223220825
0.0518351569771766,0.7655040621757507,0.3293696045875549,-0.2543505728244781,0.3731138110160827,0.2384189814329147,0.0,0.0,0.6200103759765625,0.5668487548828125
0.0550353042781353,0.7607284188270569,0.3102418780326843,-0.2148302048444748,0.3835014998912811,0.2077539414167404,0.0,0.0,0.6037408113479614,0.7463501691818237
-999.0,0.7565172910690308,0.3070377707481384,-0.1893767714500427,0.3921615779399872,0.1732015907764434,0.0,0.0,0.5711561441421509,0.2458269596099853
0.0611189827322959,0.7529109716415405,0.285715252161026,-0.1623634397983551,0.4001681804656982,0.1601326912641525,0.0,0.0,0.6775623559951782,0.8345208168029785
0.0638497322797775,0.7498526573181152,0.2676143050193786,-0.1374788880348205,0.4060387313365936,0.1174109131097793,0.0,0.0,0.880266547203064,0.8677151203155518
0.0665409117937088,0.7479202151298523,0.2652396857738495,-0.0870058760046958,0.410213828086853,0.0835013017058372,0.0,0.0,0.9454576969146729,0.3939336538314819
0.0692251175642013,0.7465037107467651,0.2643455564975738,-0.0641346871852874,0.4145931899547577,0.0875872001051902,0.0,0.0,0.9564433097839355,0.6691750288009644
0.0718598365783691,0.7463507652282715,0.2604017555713653,-0.0077042826451361,0.417911946773529,0.0663752779364585,0.0,0.0,0.9497075080871582,0.5966020822525024
0.0742364898324012,0.7473438382148743,0.2359296381473541,0.0436225794255733,0.4197861552238464,0.0374833457171916,0.0,0.0,0.926560878753662,0.5629196166992188
0.076504610478878,0.7497178912162781,0.2258243560791015,0.1052189320325851,0.4208578169345855,0.0214334372431039,0.0,0.0,0.8399593830108643,0.6457041501998901
0.0787353515625,0.7529378533363342,0.2232274264097213,0.1431543827056884,0.4206984341144562,-0.0031873756088316,0.0,0.0,0.7438633441925049,0.6731665134429932
0.0807487517595291,0.7572464346885681,0.2029031068086624,0.1919541209936142,0.4190049767494201,-0.0338689908385276,0.0,0.0,0.1807037591934204,0.5739881992340088
0.0827112197875976,0.7622625231742859,0.1989481598138809,0.2237391918897628,0.4160898625850677,-0.0583023317158222,0.0,0.0,0.020095944404602,0.5738283395767212
0.0847456902265548,0.7676008939743042,0.2072819024324417,0.2383829802274704,0.4119600653648376,-0.0825959518551826,0.0,0.0,-0.1784600019454956,0.5805807113647461
0.0869053825736045,0.7728374004364014,0.2207836806774139,0.2341277003288269,0.4067761898040771,-0.1036777049303054,0.0,0.0,-0.3965568542480469,0.1793113946914672
0.0891558676958084,0.7779495120048523,0.2299549877643585,0.228603258728981,0.4015040695667267,-0.1054426208138465,0.0,0.0,-0.2657866477966308,0.0752700567245483
0.0914956107735633,0.7829371094703674,0.2389714419841766,0.22307850420475,0.3961493670940399,-0.1070941314101219,0.0,0.0,-0.0541275143623352,0.0283942222595214
0.0939229950308799,0.7878004312515259,0.2478203773498535,0.2175534665584564,0.3907179832458496,-0.108627401292324,0.0,0.0,0.1346427202224731,-0.1443595886230468
0.0964251533150672,0.7929331064224243,0.2549877166748047,0.2294221669435501,0.3856309652328491,-0.1017407551407814,0.0,0.0,0.0618590116500854,0.0019344091415405
0.0989041328430175,0.7985876202583313,0.2524626553058624,0.2525412738323211,0.3807695508003235,-0.0972280949354171,0.0,0.0,-0.0145999789237976,0.1348624229431152
0.1014651283621788,0.8041178584098816,0.2607231140136719,0.2470159232616424,0.3758506774902344,-0.0983771979808807,0.0,0.0,0.2647358179092407,0.0381902456283569
0.1040634140372276,0.8098837733268738,0.2643119394779205,0.257437139749527,0.3711066842079162,-0.0948797464370727,0.0,0.0,0.4386731386184692,0.5937573909759521
