x_pos,y_pos,x_vel,y_vel,angle,ang_vel,leg_1,leg_2,main_booster,lat_booster
-0.0015332221519201,1.4034513235092163,-0.154779627919197,-0.3319490551948547,0.0013111808802932,0.0258302725851535,0.0,0.0,0.5911340801845442,-0.7304369897580809
-0.0030799866653978,1.3964952230453491,-0.1570797711610794,-0.309162974357605,0.0036910641938447,0.0476028174161911,0.0,0.0,0.205204960415595,-0.8894296392332988
-0.0045962333679199,1.389801263809204,-0.1554290652275085,-0.2975247800350189,0.0074588814750313,0.0753631889820098,0.0,0.0,-0.7855916092712856,0.9062698468541068
-0.0060673714615404,1.3829317092895508,-0.149033635854721,-0.3053240180015564,0.0093474825844168,0.0377759411931037,0.0,0.0,0.1241159893877981,0.8276291360131102
-0.0073890686035156,1.3765592575073242,-0.1320655047893524,-0.283213347196579,0.0092408657073974,-0.0021325079724192,0.0,0.0,0.3153895078982107,0.6036943235245666
-0.0085612293332815,1.3706637620925903,-0.1157276406884193,-0.2620204389095306,0.0077727111056447,-0.0293660648167133,0.0,0.0,0.5719190173464102,0.9711054372514912
-0.0097003933042287,1.365419626235962,-0.1100479513406753,-0.2330558151006698,0.0039456682279706,-0.0765479207038879,0.0,0.0,0.0376788384564683,0.6770090774527892
-0.0106965061277151,1.3606150150299072,-0.094112791121006,-0.213536188006401,-0.0014984336448833,-0.1088918074965477,0.0,0.0,-0.4944752116883157,0.9124263412665417
-0.0116390231996774,1.355647325515747,-0.0865639969706535,-0.2208064943552017,-0.0090921875089406,-0.1518891006708145,0.0,0.0,-0.1619399659950289,0.8018530737107037
-0.0125358579680323,1.35051167011261,-0.0800394043326377,-0.228332445025444,-0.018635245040059,-0.1908792555332183,0.0,0.0,0.7552512717153217,0.9670329693301772
-0.0132608413696289,1.3461472988128662,-0.0607184395194053,-0.1941540539264679,-0.0302813909947872,-0.232944369316101,0.0,0.0,-0.6957550163104698,0.981084187267646
-0.0139188766479492,1.341606378555298,-0.051499105989933,-0.2021798491477966,-0.0444308407604694,-0.2830149531364441,0.0,0.0,0.7487857409192575,-0.6623619060648006
-0.0144672393798828,1.338001012802124,-0.0419281311333179,-0.1606659740209579,-0.0572092272341251,-0.2555908858776092,0.0,0.0,-0.8292192824601488,0.7136400690555207
-0.0149744991213083,1.3342130184173584,-0.0359391458332538,-0.1689826399087906,-0.0718621164560318,-0.2930845022201538,0.0,0.0,0.0491136801743496,0.5891599471631817
-0.0153195383027195,1.3310288190841677,-0.0184167753905057,-0.1423688530921936,-0.0878068581223487,-0.3189240992069244,0.0,0.0,0.7559753626848944,-0.706221547938878
-0.0155896190553903,1.3281291723251345,-0.0124070141464471,-0.1297962516546249,-0.1023086756467819,-0.2900626361370086,0.0,0.0,-0.1964376775968677,0.7579722894621392
-0.0158101078122854,1.3250572681427002,-0.0053659351542592,-0.1377533823251724,-0.1188903748989105,-0.3316644430160522,0.0,0.0,-0.7036567655155834,-0.5054003056958225
-0.0160859115421772,1.3218170404434204,-0.0115015627816319,-0.1453637778759002,-0.1349087357521057,-0.3203960061073303,0.0,0.0,-0.576306036508474,0.5535547317433571
-0.0163366310298442,1.3184027671813965,-0.0075693866237998,-0.1534287333488464,-0.152388110756874,-0.3496192395687103,0.0,0.0,0.5363972176071743,-0.8686383726498798
-0.0166850090026855,0.0,-0.0188369378447532,-0.1247828751802444,-0.1684044301509857,-0.3203555941581726,0.0,0.0,-0.929801382853864,-0.8972949273639504
-0.0171151161193847,1.3127150535583496,-0.0283417161554098,-0.1314433366060257,-0.1831306964159011,-0.2945517599582672,0.0,0.0,0.3534600482307313,0.6743720439893308
-0.0174452774226665,1.3101398944854736,-0.0169603899121284,-0.1165073588490486,-0.1992944926023483,-0.3233048319816589,0.0,0.0,-0.404579116492576,0.751978552938418
-0.0177339557558298,1.3073731660842896,-0.0109761925414204,-0.1254805922508239,-0.2173666357994079,-0.3614755868911743,0.0,0.0,-0.5517700411026976,0.6961693377342029
-0.0179935451596975,1.3044103384017944,-0.0065570389851927,-0.1346562504768371,-0.2370517402887344,-0.3937374949455261,0.0,0.0,0.5100098849187842,-0.8893224671782469
-0.0183555595576763,1.3022152185440063,-0.0184501074254512,-0.1005246713757515,-0.2551339268684387,-0.3616760671138763,0.0,0.0,-0.2207862136113321,0.7646104527311817
-0.0187077522277832,1.2998169660568235,-0.016397338360548,-0.109978437423706,-0.2743722796440124,-0.3847672939300537,0.0,0.0,0.943972757999988,-0.6864673863195734
-0.0189072601497173,1.2985081672668457,-0.0026508062146604,-0.0615212172269821,-0.292162150144577,-0.3557974398136139,0.0,0.0,-0.119933228711333,0.6256483846467968
-0.0191019065678119,1.2970197200775146,-0.0013510684948414,-0.0698997005820274,-0.3108710646629333,-0.3741784691810608,0.0,0.0,0.5099498724394875,-0.710072449154628
-0.0192907340824604,1.2964640855789185,-0.0021593491546809,-0.0283722337335348,-0.3282658755779266,-0.3478960692882538,0.0,0.0,0.0880056872902761,0.6862767640958605
-0.0193751342594623,1.2961740493774414,0.0094334231689572,-0.0170667674392461,-0.3469531536102295,-0.3737456202507019,0.0,0.0,-0.9073233617004112,0.990231119110358
-0.0194164272397756,1.2956842184066772,0.0154405804350972,-0.0266196075826883,-0.3675640523433685,-0.4122180342674255,0.0,0.0,-0.9601900577545166,-0.9975888133049012
-0.019577408209443,1.295067310333252,0.0009709891746751,-0.0319040864706039,-0.3856819570064544,-0.3623574376106262,0.0,0.0,-0.8836634159088135,-0.9967226386070251
-0.0198551174253225,1.2943387031555176,-0.013203578069806,-0.0364090055227279,-0.4012397825717926,-0.3111560642719269,0.0,0.0,-0.7557497024536133,-0.9922232031822203
-0.0202518459409475,1.2934801578521729,-0.0275323204696178,-0.041646372526884,-0.4143035113811493,-0.2612736821174621,0.0,0.0,-0.7628728151321411,-0.9063311219215392
-0.0207498557865619,1.2924922704696655,-0.0396428070962429,-0.0469181798398494,-0.4252752065658569,-0.2194340229034423,0.0,0.0,-0.3260612487792969,-0.9620413184165956
-0.0213515274226665,1.2913827896118164,-0.0521100386977195,-0.0517712272703647,-0.4340137243270874,-0.1747704893350601,0.0,0.0,-0.3417932987213135,-0.985702633857727
-0.0220675468444824,1.2901452779769895,-0.0658211261034011,-0.0568000003695488,-0.4403106570243835,-0.1259388774633407,0.0,0.0,-0.6969704627990723,-0.9645237922668456
-0.0228858944028615,1.2887848615646362,-0.0781030803918838,-0.0616368427872657,-0.4443851411342621,-0.0814896821975708,0.0,0.0,-0.7162594199180603,-0.8107972145080566
-0.0238037109375,1.2873013019561768,-0.0900367647409439,-0.0664993152022361,-0.446295827627182,-0.0382130220532417,0.0,0.0,-0.7775740623474121,-0.9400261640548706
-0.0248260498046875,1.2856886386871338,-0.1025428026914596,-0.0715720579028129,-0.4459664821624756,0.0065867276862263,0.0,0.0,-0.810213565826416,-0.97639262676239
-0.0259694103151559,1.2839664220809937,-0.1171897277235984,-0.0756383389234542,-0.4428400099277496,0.0625292062759399,0.0,0.0,-0.5927603244781494,-0.8537688255310059
-0.0272038467228412,1.2821013927459717,-0.1279776394367218,-0.0814712792634964,-0.4378966093063354,0.0988684073090553,0.0,0.0,-0.2969076633453369,-0.7132884860038757
-0.0285260193049907,1.2800838947296145,-0.1382821798324585,-0.0877916812896728,-0.4312976896762848,0.131978303194046,0.0,0.0,-0.4386290311813354,-0.5541098713874817
-0.0299247745424509,1.2779130935668943,-0.1472479104995727,-0.0942403301596641,-0.4233023822307586,0.1599064022302627,0.0,0.0,-0.2701221704483032,-0.0555839538574218
-0.0313673019409179,1.2755675315856934,-0.152058869600296,-0.1019265204668045,-0.4148579239845276,0.1688884794712066,0.0,0.0,-0.525288999080658,-0.3568260669708252
-0.03285389021039,1.2730470895767212,-0.156921848654747,-0.1096131429076194,-0.4059514999389648,0.1781278401613235,0.0,0.0,-0.2261490821838379,-0.5390822291374207
-0.0344204902648925,1.2703720331192017,-0.1663354039192199,-0.1161532178521156,-0.3955719769001007,0.2075900137424469,0.0,0.0,-0.0652641654014587,-0.1693856716156005
-0.0360316261649131,1.2675225734710691,-0.1712950766086578,-0.123842641711235,-0.3847076296806335,0.2172870934009552,0.0,0.0,-0.2916368246078491,-0.4681235551834106
-0.0376876816153526,1.2644991874694824,-0.176298588514328,-0.131532996892929,-0.3733482658863067,0.227187231183052,0.0,0.0,0.0570505857467651,0.10590660572052
-0.0392828956246376,1.261763572692871,-0.1706744134426117,-0.1187101528048515,-0.3615471422672272,0.236021801829338,0.0,0.0,-0.0065679550170898,0.4737396240234375
-0.0409235954284668,1.2588543891906738,-0.1757576465606689,-0.1264026314020156,-0.3492330908775329,0.2462809532880783,0.0,0.0,-0.5939407348632812,0.7105991840362549
-0.0425613410770893,1.2557497024536133,-0.1747683584690094,-0.1353551000356674,-0.337710291147232,0.2304564267396927,0.0,0.0,-0.1771053671836853,0.8475394248962402
-0.0441720001399517,1.2524276971817017,-0.1706345528364181,-0.14544378221035,-0.3277139365673065,0.199927881360054,0.0,0.0,-0.3586210012435913,0.6345887184143066
-0.0457802787423133,1.2489125728607178,-0.1696884334087371,-0.1542477905750274,-0.3184797167778015,0.1846845895051956,0.0,0.0,-0.6705297827720642,0.7304888963699341
-0.0473675727844238,1.245186686515808,-0.1663548797369003,-0.1639434695243835,-0.310566633939743,0.1582615375518798,0.0,0.0,0.1354924440383911,0.7789714336395264
-0.048917006701231,1.241751790046692,-0.1615204215049743,-0.1512726992368698,-0.3037499785423279,0.1363329440355301,0.0,0.0,-0.672063946723938,0.2081824541091919
-0.050513457506895,1.238142013549805,-0.1667768210172653,-0.1589593589305877,-0.296381801366806,0.1473638117313385,0.0,0.0,-0.4336403012275696,0.7259640693664551
-0.0520894043147563,1.2343297004699707,-0.1635185331106186,-0.1682476699352264,-0.2902690172195434,0.1222557201981544,0.0,0.0,-0.3599706888198852,0.7721613645553589
-0.0536456108093261,1.2303204536437988,-0.1604013741016388,-0.1772404760122299,-0.285351425409317,0.0983520299196243,0.0,0.0,0.3753972053527832,0.7122430801391602
-0.0550778396427631,1.2270898818969729,-0.1470494419336319,-0.1428392678499221,-0.281419962644577,0.0786290913820266,0.0,0.0,-0.3943127393722534,0.8034298419952393
-0.0564931854605674,1.2236489057540894,-0.1441854238510131,-0.1524254977703094,-0.2786963880062103,0.0544713661074638,0.0,0.0,0.2915698289871216,0.7638435363769531
-0.0578318610787391,1.220839023590088,-0.1354684233665466,-0.1245842054486274,-0.277052104473114,0.0328857898712158,0.0,0.0,0.7309114933013916,-0.2167816758155822
-0.0589457526803016,1.2185823917388916,-0.1141332760453224,-0.0997726470232009,-0.2742354571819305,0.0563326701521873,0.0,0.0,-0.150560200214386,0.2265075445175171
-0.0601076111197471,1.2161506414413452,-0.1194920539855957,-0.1074569895863533,-0.2708423435688019,0.0678615421056747,0.0,0.0,0.0948587656021118,0.7556569576263428
-0.0611842162907123,1.2138961553573608,-0.1100449934601783,-0.0997621119022369,-0.2684027254581451,0.0487924888730049,0.0,0.0,-0.7480955123901367,0.7961406707763672
-0.0622607246041297,1.21144700050354,-0.1093476563692092,-0.1085379868745803,-0.2666628658771515,0.0347974188625812,0.0,0.0,-0.6587114334106445,0.1744415760040283
-0.0633852034807205,1.2088228464126587,-0.1147186979651451,-0.1162221282720565,-0.2643400132656097,0.0464568175375461,0.0,0.0,0.4220759868621826,0.0993974208831787
-0.0644236579537391,1.206360101699829,-0.1070116162300109,-0.1088811084628105,-0.2611056268215179,0.0646877363324165,0.0,0.0,-0.2362812757492065,0.4220621585845947
-0.0655099898576736,1.2037224769592283,-0.1123804822564125,-0.1165660470724105,-0.2572848796844482,0.076414868235588,0.0,0.0,0.2410581111907959,0.572482705116272
-0.066585823893547,1.2014358043670654,-0.1106138080358505,-0.1011051014065742,-0.2541825175285339,0.0620473399758338,0.0,0.0,-0.1897687315940857,0.6444054841995239
-0.0676671043038368,1.198960304260254,-0.1106753796339035,-0.1095839664340019,-0.2515929341316223,0.0517919436097145,0.0,0.0,-0.6216673254966736,0.8203756809234619
-0.0687299743294715,1.196285843849182,-0.1077020913362503,-0.1186241805553436,-0.250154584646225,0.0287667512893676,0.0,0.0,0.0842525959014892,-0.239942729473114
-0.0697852149605751,1.1942731142044067,-0.107123851776123,-0.0891797691583633,-0.2485159784555435,0.0327722690999507,0.0,0.0,-0.2273502349853515,0.1125342845916748
-0.0708877593278884,1.1920853853225708,-0.1124468594789505,-0.0968645587563514,-0.2462851703166961,0.0446158461272716,0.0,0.0,-0.9074677228927612,0.8512172698974609
-0.0719772353768348,1.1896929740905762,-0.1101193875074386,-0.1061337143182754,-0.2450902163982391,0.0238993559032678,0.0,0.0,-0.4799414873123169,0.7423704862594604
-0.0730518326163292,1.1870942115783691,-0.1075712442398071,-0.1154848337173461,-0.2449768781661987,0.0022666612640023,0.0,0.0,-0.7473465800285339,-0.348784327507019
-0.0741732567548751,1.184320330619812,-0.1128371134400367,-0.1231695264577865,-0.2442693412303924,0.0141502972692251,0.0,0.0,-0.980821430683136,0.7458182573318481
-0.0752838104963302,1.1813569068908691,-0.1108814105391502,-0.131741389632225,-0.2444466352462768,-0.0035460120998322,0.0,0.0,-0.1617031097412109,-0.124984860420227
-0.076440617442131,1.178218126296997,-0.1160953789949417,-0.1394260972738266,-0.2440289556980133,0.0083539215847849,0.0,0.0,-0.9342761635780334,0.4308323860168457
-0.0776434913277626,1.1749043464660645,-0.1212788596749305,-0.1471108496189117,-0.2430159896612167,0.0202591829001903,0.0,0.0,-0.7897841334342957,0.6439576148986816
-0.0788543671369552,1.1713948249816897,-0.1216597184538841,-0.155888170003891,-0.2424340546131134,0.0116388341411948,0.0,0.0,0.0186730623245239,0.1586469411849975
-0.0799694061279296,1.1684108972549438,-0.1127684861421585,-0.1324092745780944,-0.2411414980888366,0.0258507393300533,0.0,0.0,-0.2524813413619995,0.5659041404724121
-0.0810931175947189,1.1652387380599976,-0.1133010536432266,-0.1408406943082809,-0.2402036041021347,0.018758125603199,0.0,0.0,-0.000644564628601,0.8321744203567505
-0.0822028145194053,1.1618733406066897,-0.1109753847122192,-0.1495663076639175,-0.2401940673589706,0.0001906376273836,0.0,0.0,-0.8617966175079346,-0.4117178320884704
-0.0833563804626464,1.1583330631256104,-0.1159549951553344,-0.1572511941194534,-0.2395892292261123,0.0120967281982302,0.0,0.0,-0.8342137336730957,0.2531592845916748
-0.0845534354448318,1.1546177864074707,-0.1208822131156921,-0.1649361550807953,-0.2383893579244613,0.0239977743476629,0.0,0.0,-0.5768774151802063,-0.0549466609954834
-0.0857932120561599,1.1507272720336914,-0.125752717256546,-0.1726212799549102,-0.2365947365760803,0.0358921363949775,0.0,0.0,-0.8501639366149902,0.9009945392608644
-0.0869966521859169,1.146626591682434,-0.1206234470009803,-0.1822059154510498,-0.2363090515136718,0.0057136034592986,0.0,0.0,-0.6740447282791138,-0.4201002120971679
-0.0882416740059852,1.1423509120941162,-0.1253663301467895,-0.189891055226326,-0.2354295700788498,0.0175892505794763,0.0,0.0,-0.1006166934967041,0.7771615982055664
-0.0894551277160644,1.1378681659698486,-0.1208852902054786,-0.1993124485015869,-0.2358924448490142,-0.0092574842274189,0.0,0.0,-0.8783249258995056,0.4666457176208496
-0.0907086357474327,1.1332101821899414,-0.1254800111055374,-0.2069976329803466,-0.2357628494501114,0.0025918087922036,0.0,0.0,-0.3307060003280639,0.7159410715103149
-0.0919427871704101,1.128361701965332,-0.1226376891136169,-0.215612381696701,-0.2365556359291076,-0.0158558674156665,0.0,0.0,-0.9306957125663756,-0.0381275415420532
-0.0932153686881065,1.123338222503662,-0.1270613968372345,-0.2232975959777832,-0.2367576956748962,-0.004041071049869,0.0,0.0,-0.1984891891479492,-0.1147812604904174
-0.094525434076786,1.1181397438049316,-0.1313902586698532,-0.2309827804565429,-0.2363700270652771,0.0077534117735922,0.0,0.0,-0.2149780392646789,0.0979677438735961
-0.0958720222115516,1.1127662658691406,-0.135617658495903,-0.2386680096387863,-0.2353937476873397,0.0195254031568765,0.0,0.0,0.0344717502593994,-0.1889506578445434
-0.097076416015625,1.107987403869629,-0.1222236528992652,-0.2121172249317169,-0.2335850000381469,0.036175288259983,0.0,0.0,0.0430943965911865,0.3007372617721557
-0.0982462912797927,1.1035629510879517,-0.1192737221717834,-0.1962818056344986,-0.231258288025856,0.0465340614318847,0.0,0.0,-0.378791868686676,0.6929455995559692
-0.099405862390995,1.098954677581787,-0.1177422404289245,-0.2045283019542694,-0.2294504344463348,0.0361572206020355,0.0,0.0,-0.3638842105865478,0.3951468467712402
-0.1005970984697341,1.0941716432571411,-0.1214914917945861,-0.2122142016887664,-0.2270596772432327,0.0478152409195899,0.0,0.0,-0.1332826614379882,0.6770472526550293
-0.101770594716072,1.089202046394348,-0.1190582960844039,-0.220607727766037,-0.2253270596265792,0.0346526429057121,0.0,0.0,-0.2458938956260681,0.4669480323791504
-0.1029729843139648,1.0840574502944946,-0.1225208267569542,-0.2282938808202743,-0.2230152189731598,0.0462369583547115,0.0,0.0,-0.1778180003166198,0.7041119337081909
-0.1041510552167892,1.0787184238433838,-0.1193225160241127,-0.2370707541704177,-0.221487820148468,0.0305480808019638,0.0,0.0,0.0046390295028686,0.2275512218475341
-0.105343721807003,1.0737627744674685,-0.1210254877805709,-0.2199823409318924,-0.2197136580944061,0.0354833863675594,0.0,0.0,0.2980334758758545,0.626258373260498
-0.1065502166748046,1.0692601203918457,-0.1214871779084205,-0.1999973952770233,-0.2188608795404434,0.0170556437224149,0.0,0.0,-0.5388275384902954,-0.7933637499809265
-0.1078285202383995,1.0646039247512815,-0.1305433511734008,-0.2065403163433075,-0.2161183804273605,0.0548500530421733,0.0,0.0,0.7967731952667236,0.2493245601654052
-0.1089758872985839,1.0603395700454712,-0.1183188408613205,-0.1890072673559188,-0.2125002741813659,0.0723618268966674,0.0,0.0,0.2705121040344238,-0.0579859614372253
-0.1099087744951248,1.0567257404327393,-0.0979428216814994,-0.1599570363759994,-0.2078022509813308,0.0939604043960571,0.0,0.0,0.6844450235366821,0.5293450355529785
-0.1106774359941482,1.0540975332260132,-0.0809661298990249,-0.1162327229976654,-0.2036722749471664,0.0825996324419975,0.0,0.0,-0.3802382946014404,0.866206169128418
-0.1113760024309158,1.0512791872024536,-0.0723739564418792,-0.1249187290668487,-0.2011316865682602,0.0508121661841869,0.0,0.0,-0.1172560453414917,0.9592101573944092
-0.1120027527213096,1.0482606887817385,-0.0635931566357612,-0.1340326964855194,-0.2002094388008117,0.0184449199587106,0.0,0.0,-0.1108694672584533,0.5118535757064819
-0.1125992760062217,1.045060634613037,-0.0601068958640098,-0.1421630233526229,-0.1997503936290741,0.0091805206611752,0.0,0.0,-0.5899219512939453,0.7229833602905273
-0.11314058303833,1.0416734218597412,-0.0535386092960834,-0.1506190448999405,-0.2003408819437027,-0.0118099022656679,0.0,0.0,-0.1030934453010559,0.6547601222991943
-0.1136296242475509,1.0380909442901611,-0.0473703332245349,-0.1594273000955581,-0.2018849849700927,-0.0308819059282541,0.0,0.0,-0.3602064847946167,0.3774416446685791
-0.1141208633780479,1.0343340635299685,-0.0481312647461891,-0.1671152561903,-0.2028935700654983,-0.0201718993484973,0.0,0.0,-0.1891323924064636,-0.0361015200614929
-0.1146120056509971,1.030402421951294,-0.0486332401633262,-0.1748031675815582,-0.2033719569444656,-0.0095676118507981,0.0,0.0,0.491647720336914,0.972615122795105
-0.114944078028202,1.0270270109176636,-0.0312901809811592,-0.1502886861562729,-0.2053012102842331,-0.0385849252343177,0.0,0.0,-0.4817394018173218,0.0172828435897827
-0.1152707114815712,1.0234767198562622,-0.0312629677355289,-0.157976895570755,-0.206711933016777,-0.0282142218202352,0.0,0.0,-0.5282725095748901,0.8506731986999512
-0.1155103668570518,1.019719481468201,-0.0210101027041673,-0.1674097925424575,-0.2096976488828659,-0.0597141794860363,0.0,0.0,-0.7445658445358276,-0.5663430094718933
-0.1157756820321083,1.0158019065856934,-0.0250219404697418,-0.1743345558643341,-0.2112215608358383,-0.0304785817861557,0.0,0.0,0.1962834596633911,0.5430248975753784
-0.1158431023359298,1.0125516653060913,-0.0046837767586112,-0.1447506248950958,-0.2132977098226547,-0.0415230467915535,0.0,0.0,0.0663939714431762,0.7123966217041016
