x_pos,y_pos,x_vel,y_vel,angle,ang_vel,leg_1,leg_2,main_booster,lat_booster
-0.0014768600231036,1.4032601118087769,-0.1495932638645172,-0.3404396176338196,0.0017050390597432,0.0336292572319507,0.0,0.0,0.9708015383726958,-0.8022227726435085
-0.0029058456420898,1.3960806131362915,-0.1463020741939544,-0.3190923929214477,0.0050772819668054,0.0674518421292305,0.0,0.0,-0.9108126862238568,-0.7339042187311622
-0.0043375017121434,1.388530969619751,-0.1476778090000152,-0.3355686366558075,0.0095395408570766,0.0892534255981445,0.0,0.0,0.8310303296074546,-0.9778393858727416
-0.0059588430449366,1.3814414739608765,-0.1683164089918136,-0.3151401281356811,0.0156437549740076,0.1220958232879638,0.0,0.0,0.3125620784288605,0.9432574003507064
-0.0073591233231127,1.3747724294662476,-0.1443589627742767,-0.2964533567428589,0.0199310109019279,0.0857531726360321,0.0,0.0,0.8487856479853235,-0.7679599140286454
-0.0086304666474461,1.3686530590057373,-0.1333598643541336,-0.2720709443092346,0.0260848384350538,0.1230877861380577,0.0,0.0,-0.7502866423364098,-0.7192347425434658
-0.0099295619875192,1.362167477607727,-0.1375747919082641,-0.2883952558040619,0.0336700417101383,0.1517180800437927,0.0,0.0,-0.959008519961909,-0.7167513182491569
-0.0112431524321436,1.3553187847137451,-0.1400642693042755,-0.3046116828918457,0.0422772243618965,0.1721595227718353,0.0,0.0,0.8345128050299999,0.6398497204885779
-0.0125356670469045,1.349508285522461,-0.136577233672142,-0.2584671676158905,0.049529705196619,0.1450631022453308,0.0,0.0,0.552592626281339,-0.8333838900352599
-0.0139069557189941,1.3443570137023926,-0.146086111664772,-0.2292627841234207,0.0583847388625144,0.1771173775196075,0.0,0.0,0.9818888128640296,-0.8579197097103807
-0.0152566907927393,1.3399150371551514,-0.145826905965805,-0.1978731155395507,0.0691382363438606,0.2150897681713104,0.0,0.0,0.0551855141205497,-0.977166354298657
-0.0166380889713764,1.3356112241744995,-0.1508730798959732,-0.1919216513633728,0.0817668512463569,0.252595454454422,0.0,0.0,-0.6773691006188154,-0.8083774844807508
-0.0180587768554687,1.3309433460235596,-0.1560137718915939,-0.2082817107439041,0.0956009179353714,0.2767063081264496,0.0,0.0,-0.6296309646587641,-0.6780071700865586
-0.0195192340761423,1.325900912284851,-0.1611270308494568,-0.2251425087451934,0.1105778962373733,0.2995668649673462,0.0,0.0,-0.8611901966827404,0.6280430465054613
-0.0209165569394826,1.3205132484436035,-0.1531662195920944,-0.2404991239309311,0.1239563822746276,0.2675946056842804,0.0,0.0,0.5011682644531037,0.7691729419593056
-0.0221770294010639,1.31518816947937,-0.138073593378067,-0.2377100586891174,0.135943666100502,0.2397675067186355,0.0,0.0,-0.2318293501205499,0.9889979705053806
-0.023348044604063,1.3095309734344482,-0.12662073969841,-0.2523211240768432,0.1454481482505798,0.1901070773601532,0.0,0.0,-0.7593390619271689,0.842421754812595
-0.0244451519101858,1.3035212755203247,-0.1170881986618042,-0.2678356170654297,0.1528240889310836,0.147532045841217,0.0,0.0,0.7905983842557707,0.7663065785565186
-0.0255139358341693,1.2984846830368042,-0.1129009276628494,-0.2244745194911956,0.1588570922613144,0.1206708773970604,0.0,0.0,-0.4106568581079455,0.763411705137455
-0.0265467651188373,1.2930960655212402,-0.1079297438263893,-0.240002766251564,0.1635136306285858,0.0931388735771179,0.0,0.0,-0.0981340686322429,0.6502488137772248
-0.0275381095707416,1.287363052368164,-0.1021600365638732,-0.255133181810379,0.16653673350811,0.0604676827788353,0.0,0.0,-0.7131375114546559,-0.6832041593007823
-0.0286044124513864,1.281248927116394,-0.1109328046441078,-0.2722273766994476,0.1708482205867767,0.0862376540899276,0.0,0.0,-0.4818396332767212,0.9333628685837914
-0.0296092983335256,1.274791955947876,-0.1024660691618919,-0.2871996760368347,0.1728322505950927,0.0396841019392013,0.0,0.0,0.3549792551626618,0.719839733894548
-0.0305687896907329,1.2683724164962769,-0.0965444892644882,-0.2853857576847076,0.1734236031770706,0.0118279866874217,0.0,0.0,-0.8424416155568704,0.9816201548063304
-0.0315044410526752,1.261606216430664,-0.0925975888967514,-0.3006016910076141,0.1724545806646347,-0.0193824060261249,0.0,0.0,-0.5842666368839007,-0.8870139868425921
-0.0325615890324115,1.25443696975708,-0.1068899258971214,-0.3187738955020904,0.1736350655555725,0.0236098226159811,0.0,0.0,-0.7481423564822278,-0.9866058950627228
-0.033736802637577,1.246889352798462,-0.120600126683712,-0.3358122408390045,0.1767204701900482,0.0617082603275775,0.0,0.0,0.58912112560656,0.642708527360286
-0.0351813323795795,1.24013352394104,-0.1458848267793655,-0.3004288673400879,0.17815463244915,0.0286832656711339,0.0,0.0,-0.0251092715136918,-0.8435459995104968
-0.0367540344595909,1.2329987287521362,-0.1606970429420471,-0.317514955997467,0.1815850138664245,0.0686075240373611,0.0,0.0,0.6634065374170439,0.9332044864799092
-0.0384164825081825,1.2262341976165771,-0.1677077263593673,-0.3008326590061188,0.1830555349588394,0.0294107403606176,0.0,0.0,0.7285959947182499,-0.8128535246971185
-0.0403367057442665,1.2204091548919678,-0.1950949132442474,-0.2592733204364776,0.1861320286989212,0.06152955442667,0.0,0.0,0.407642869561126,-0.7053173418446379
-0.0425089821219444,1.2147302627563477,-0.2215126752853393,-0.2529332041740417,0.190443530678749,0.0862299129366874,0.0,0.0,-0.3959354606798995,0.921929484194963
-0.0446796417236328,1.2087136507034302,-0.2197064906358719,-0.2677460014820099,0.1930923461914062,0.0529764220118522,0.0,0.0,-0.3420466666316142,0.8345923494934002
-0.0468530654907226,1.20234215259552,-0.2184328585863113,-0.2833155691623688,0.1941873431205749,0.021899988874793,0.0,0.0,0.1934362608709745,0.6523564664949709
-0.0491146072745323,1.1962933540344238,-0.2258997708559036,-0.2688046097755432,0.1939289718866348,-0.0051673264242708,0.0,0.0,-0.6614035111922454,-0.8872398464653246
-0.0515100471675396,1.18986713886261,-0.2409319132566452,-0.2857988476753235,0.1953317373991012,0.0280552916228771,0.0,0.0,-0.7290956359057186,-0.665177541545215
-0.0540270805358886,1.183057188987732,-0.2544257640838623,-0.3030259311199188,0.198068082332611,0.0547268688678741,0.0,0.0,0.3252680288643073,0.725372610782635
-0.0566457733511924,1.1768132448196411,-0.2631219923496246,-0.2776717245578766,0.1993286907672882,0.0252121686935424,0.0,0.0,-0.6734118635315318,0.7217514218410653
-0.0592856407165527,1.1702287197113037,-0.263821005821228,-0.2926241755485534,0.1991637349128723,-0.003298993455246,0.0,0.0,-0.0801869649354245,0.8403625515495395
-0.0619315132498741,1.1633014678955078,-0.262606143951416,-0.3076111972332001,0.1971650421619415,-0.0399738028645515,0.0,0.0,-0.0923425563556854,0.7771987834128582
-0.0646044760942459,1.1560312509536743,-0.2639638781547546,-0.3226827979087829,0.1938112676143646,-0.067075528204441,0.0,0.0,-0.8506467342376709,0.9597110748291016
-0.0672647505998611,1.148421049118042,-0.2603186964988708,-0.3374899625778198,0.1880699545145034,-0.1148264408111572,0.0,0.0,-0.7527967095375061,0.9109385013580322
-0.0699203461408615,1.1404608488082886,-0.2576669752597809,-0.3528091311454773,0.18014457821846,-0.1585074961185455,0.0,0.0,-0.8236947059631348,0.9431585073471068
-0.0725703239440918,1.1321587562561035,-0.2548352181911468,-0.3677816689014435,0.1699488312005996,-0.203915074467659,0.0,0.0,-0.930616021156311,0.8685251474380493
-0.0752375572919845,1.123499870300293,-0.2548404335975647,-0.3835208714008331,0.1580676436424255,-0.2376238107681274,0.0,0.0,-0.8872496485710144,0.894805908203125
-0.0779110938310623,1.114487886428833,-0.253461629152298,-0.3991157114505768,0.1441943943500518,-0.2774650752544403,0.0,0.0,-0.8967093825340271,0.8849973678588867
-0.080591581761837,1.1051263809204102,-0.2521031200885772,-0.414603978395462,0.1283048391342163,-0.3177915811538696,0.0,0.0,-0.8956171870231628,0.9798240661621094
-0.0832951515913009,1.0954264402389526,-0.2527061998844147,-0.4296724200248718,0.110748142004013,-0.3511341512203216,0.0,0.0,-0.7806534767150879,0.6504354476928711
-0.0860450714826583,1.0853792428970337,-0.25619637966156,-0.4452599883079529,0.0921063348650932,-0.3728360533714294,0.0,0.0,-0.9045730829238892,0.96636962890625
-0.0888076797127723,1.0749801397323608,-0.2554968595504761,-0.4610313475131988,0.0715356394648552,-0.4114143848419189,0.0,0.0,-0.9573186635971068,0.9173476696014404
-0.0915677994489669,1.0642324686050415,-0.2528599798679352,-0.4767270386219024,0.0486313141882419,-0.4580867886543274,0.0,0.0,-0.950619339942932,0.6800572872161865
-0.0943674072623252,1.0531359910964966,-0.2554606795310974,-0.4925585985183716,0.0244301762431859,-0.484022855758667,0.0,0.0,-0.923301875591278,0.2426154613494873
-0.0972554236650466,1.0416831970214844,-0.2642140090465545,-0.5087947845458984,0.0001565287384437,-0.4854732453823089,0.0,0.0,-0.9427425265312196,0.5280319452285767
-0.100190445780754,1.029879093170166,-0.2677585482597351,-0.5248143672943115,-0.0252457689493894,-0.5080463886260986,0.0,0.0,-0.8823124170303345,0.145179271697998
-0.103214643895626,1.0177193880081177,-0.276632010936737,-0.5410558581352234,-0.0507214590907096,-0.5095139741897583,0.0,0.0,-0.9371350407600404,0.2490463256835937
-0.1063284873962402,1.0052045583724976,-0.2855589985847473,-0.5572978258132935,-0.0762710273265838,-0.5109914541244507,0.0,0.0,-0.8536803722381592,0.3954311609268188
-0.1095324531197547,0.9923340678215028,-0.2945353984832763,-0.5735403299331665,-0.1018949672579765,-0.5124789476394653,0.0,0.0,-0.7770640254020691,0.0658098459243774
-0.1128267273306846,0.9791081547737122,-0.3035574555397033,-0.5897830724716187,-0.1275937706232071,-0.5139763355255127,0.0,0.0,-0.6697196960449219,0.8078663349151611
-0.1161394119262695,0.9655221700668336,-0.3036064505577087,-0.6064243316650391,-0.1551777571439743,-0.5516800284385681,0.0,0.0,-0.2560152411460876,-0.5976021885871887
-0.119594857096672,0.9515990018844604,-0.3192630112171173,-0.6217578649520874,-0.1814874112606048,-0.5261932015419006,0.0,0.0,-0.6164520978927612,-0.3709955215454101
-0.1231412887573242,0.9373210668563844,-0.3284028470516205,-0.6380037069320679,-0.2078733742237091,-0.5277194976806641,0.0,0.0,-0.1957790851593017,-0.8009105324745178
-0.1268503218889236,0.9227142333984376,-0.3465986847877502,-0.6527921557426453,-0.2324543744325637,-0.4916203916072845,0.0,0.0,-0.232822299003601,-0.3203257322311401
-0.1306507140398025,0.9077513813972472,-0.3557996749877929,-0.6690304279327393,-0.2571129500865936,-0.4931712746620178,0.0,0.0,-0.0675005316734314,0.1008460521697998
-0.1345426589250564,0.892432451248169,-0.3650285005569458,-0.6852689981460571,-0.2818495631217956,-0.4947314858436584,0.0,0.0,0.3372048139572143,-0.5334179997444153
-0.1384704560041427,0.8772355914115906,-0.3697752952575683,-0.6800425052642822,-0.3055707812309265,-0.4744248986244201,0.0,0.0,0.432137131690979,-0.8238299489021301
-0.1425129920244217,0.8624984622001648,-0.3827924132347107,-0.6596547365188599,-0.3278446495532989,-0.4454770982265472,0.0,0.0,0.7149558067321777,-0.7417565584182739
-0.1463917791843414,0.8486892580986023,-0.3680123388767242,-0.618381679058075,-0.3486241102218628,-0.4155895709991455,0.0,0.0,0.2108638286590576,-0.7270245552062988
-0.1502818167209625,0.8348097205162048,-0.370672196149826,-0.62142413854599,-0.3679282665252685,-0.3860834538936615,0.0,0.0,0.1171261072158813,-0.3268995881080627
-0.154039666056633,0.8213691115379333,-0.3576075732707977,-0.602154552936554,-0.3872283399105072,-0.3860023617744446,0.0,0.0,0.800321102142334,-0.2198054790496826
-0.1577904671430587,0.8083438277244568,-0.3565182089805603,-0.584071695804596,-0.4070833921432495,-0.3971017003059387,0.0,0.0,0.4831855297088623,-0.634958028793335
-0.1615209579467773,0.7958822250366211,-0.3556280434131622,-0.5589771270751953,-0.4258815944194793,-0.3759641945362091,0.0,0.0,0.4034938812255859,-0.864852786064148
-0.1651603728532791,0.7838078737258911,-0.3482660055160522,-0.5414705872535706,-0.4429321885108948,-0.3410120904445648,0.0,0.0,0.0758801698684692,-0.2732018828392029
-0.1687331199645996,0.7721726298332214,-0.3412892520427704,-0.5222727656364441,-0.4604520201683044,-0.3503964245319366,0.0,0.0,0.5198769569396973,-0.8544078469276428
-0.1721549928188324,0.7608850598335266,-0.3279731273651123,-0.5064582824707031,-0.4761708378791809,-0.3143762946128845,0.0,0.0,0.4006898403167724,-0.8336794972419739
-0.1756070107221603,0.7497396469116211,-0.3325591683387756,-0.4997720122337341,-0.490264743566513,-0.281878262758255,0.0,0.0,0.8972033262252808,-0.6807705163955688
-0.1789520233869552,0.7386982440948486,-0.3233277201652527,-0.4947575330734253,-0.5028181672096252,-0.2510677874088287,0.0,0.0,0.7302796840667725,-0.7241981029510498
-0.1823032349348068,0.7278226613998413,-0.325224757194519,-0.4870277345180511,-0.5140076875686646,-0.2237907201051712,0.0,0.0,0.826352596282959,-0.6101114153862
-0.1853657662868499,0.7177771925926208,-0.29744952917099,-0.4498071074485779,-0.524003267288208,-0.1999104917049408,0.0,0.0,0.6572613716125488,-0.787073016166687
-0.1880868971347808,0.7084181904792786,-0.2648882865905761,-0.4187578856945038,-0.5322481393814087,-0.1648974865674972,0.0,0.0,0.9042046070098876,-0.7518975734710693
-0.1905928552150726,0.7000717520713806,-0.2444869577884674,-0.3733776211738586,-0.539263904094696,-0.1403155475854873,0.0,0.0,0.9923992156982422,-0.6072374582290649
-0.1931734979152679,0.6920352578163147,-0.2526386976242065,-0.3593578934669494,-0.545520544052124,-0.1251323372125625,0.0,0.0,0.9808608293533324,-0.3783637285232544
-0.1953154504299163,0.6848132014274597,-0.2089088410139084,-0.3231326341629028,-0.5516310334205627,-0.1222114339470863,0.0,0.0,0.9389986991882324,-0.5063341856002808
-0.197338193655014,0.6782203912734985,-0.1975639015436172,-0.2949623465538025,-0.5571064949035645,-0.1095096245408058,0.0,0.0,0.9818178415298462,-0.3574898242950439
-0.1990812271833419,0.6723514199256897,-0.1692758798599243,-0.2629382312297821,-0.5629615783691406,-0.117101214826107,0.0,0.0,0.9831767082214355,-0.4455869197845459
-0.2004826515913009,0.6671955585479736,-0.1350134015083313,-0.2313221991062164,-0.5689572095870972,-0.1199131160974502,0.0,0.0,0.8189570903778076,-0.581989586353302
-0.2015848606824875,0.6624394059181213,-0.1063346043229103,-0.2130443900823593,-0.5735158324241638,-0.0911722630262374,0.0,0.0,0.8978075981140137,-0.8471115827560425
-0.202601283788681,0.6578377485275269,-0.0992857590317726,-0.2055399417877197,-0.5762892961502075,-0.0554700084030628,0.0,0.0,0.7325434684753418,-0.8843972086906433
-0.20345139503479,0.6533660888671875,-0.0843328088521957,-0.1990347951650619,-0.5770885944366455,-0.0159856304526329,0.0,0.0,0.8271071910858154,-0.7436730861663818
-0.2039513140916824,0.6492270827293396,-0.0509172491729259,-0.1835572272539138,-0.5759978890419006,0.0218142643570899,0.0,0.0,0.0841941833496093,-0.9518687129020692
-0.2043778002262115,0.6450154781341553,-0.0452082753181457,-0.1860738098621368,-0.5729929208755493,0.0601003766059875,0.0,0.0,-0.3143113851547241,-0.8756960034370422
-0.2049534320831298,0.6405016779899597,-0.0616892874240875,-0.1988475769758224,-0.5681461095809937,0.0969356596469879,0.0,0.0,0.3114724159240722,-0.9352606534957886
-0.2053332328796386,0.6364275813102722,-0.0438080690801143,-0.1786110401153564,-0.5613354444503784,0.1362138092517852,0.0,0.0,0.0770741701126098,-0.9528701305389404
-0.2055543363094329,0.6325277090072632,-0.0296364016830921,-0.1702048480510711,-0.5525857210159302,0.1749944239854812,0.0,0.0,-0.398477554321289,-0.949068248271942
-0.2059242278337478,0.6283049583435059,-0.0459487996995449,-0.184028074145317,-0.5422213077545166,0.2072879821062088,0.0,0.0,-0.2034657597541809,-0.9301947355270386
-0.2064548432826995,0.6237787008285522,-0.0639126747846603,-0.1968658864498138,-0.5297600030899048,0.2492255270481109,0.0,0.0,-0.452351450920105,-0.7476751208305359
-0.2071174681186676,0.6189360022544861,-0.078363724052906,-0.2105699330568313,-0.5159687995910645,0.27582448720932,0.0,0.0,-0.1573783159255981,-0.581998884677887
-0.2079126834869384,0.6137666702270508,-0.0928118675947189,-0.2248032540082931,-0.5009430050849915,0.3005160987377167,0.0,0.0,0.0478345155715942,-0.0371917486190795
-0.2086259424686432,0.6089565753936768,-0.0843634232878685,-0.2090980261564254,-0.4863230884075165,0.2923986315727234,0.0,0.0,0.4293884038925171,-0.0100300908088684
-0.2090812176465988,0.6045329570770264,-0.0589508041739463,-0.1919557005167007,-0.4713916778564453,0.2986279726028442,0.0,0.0,-0.3631156682968139,-0.0373612642288208
-0.2096269577741623,0.5997478365898132,-0.0680698975920677,-0.2081608474254608,-0.4564928114414215,0.297977864742279,0.0,0.0,0.0087947845458984,0.3896471261978149
-0.210106611251831,0.5952503085136414,-0.0613172128796577,-0.1955915838479995,-0.441855639219284,0.2927433550357818,0.0,0.0,0.1308388710021972,-0.0268602967262268
-0.2105455845594406,0.590864360332489,-0.0572467520833015,-0.1907927989959716,-0.4273206889629364,0.2906990349292755,0.0,0.0,-0.1799020767211914,-0.1217706203460693
-0.2110737264156341,0.5861167311668396,-0.0662398040294647,-0.2069968581199646,-0.412804365158081,0.2903262078762054,0.0,0.0,0.2131214141845703,0.2900431156158447
-0.2116375416517257,0.5816023945808411,-0.0693998485803604,-0.1968995779752731,-0.3988127410411834,0.2798325419425964,0.0,0.0,0.0657415390014648,0.2033379077911377
-0.2120465338230133,0.5773274302482605,-0.05428297072649,-0.1863101571798324,-0.3845136165618896,0.2859822511672973,0.0,0.0,0.149065613746643,0.3307645320892334
-0.2124072611331939,0.5730234980583191,-0.0497136153280735,-0.1876716166734695,-0.3700203597545624,0.2898650765419006,0.0,0.0,-0.1973479986190796,-0.0035333037376403
-0.2128547132015228,0.5683580040931702,-0.058475375175476,-0.203875258564949,-0.3555247783660888,0.2899118959903717,0.0,0.0,0.1487879753112793,-0.5557556748390198
-0.2132567465305328,0.5641261339187622,-0.0550697371363639,-0.1844808459281921,-0.3399054408073425,0.3123867809772491,0.0,0.0,-0.555724024772644,-0.0806503295898437
-0.2137438803911209,0.5595330595970154,-0.0636815577745437,-0.2006870359182357,-0.3242722749710083,0.3126624524593353,0.0,0.0,-0.5079386830329895,0.0294625759124755
-0.214315265417099,0.5545787811279297,-0.0722066909074783,-0.2168932259082794,-0.3086194097995758,0.313057392835617,0.0,0.0,-0.6365303993225098,0.5998358726501465
-0.2149243354797363,0.5492474436759949,-0.0749054029583931,-0.2340373545885086,-0.2941417992115021,0.2895520627498626,0.0,0.0,0.0974566936492919,-0.012754738330841
-0.2154254466295242,0.5442880988121033,-0.0643856972455978,-0.217604249715805,-0.2794458866119385,0.2939185202121734,0.0,0.0,-0.7370486855506897,0.5383318662643433
-0.2159620821475982,0.5389443635940552,-0.0668179988861084,-0.2350378781557083,-0.2659525573253631,0.2698663771152496,0.0,0.0,-0.2217469811439514,0.4655001163482666
-0.2165786325931549,0.5332385897636414,-0.0749050825834274,-0.2512389719486236,-0.2524147629737854,0.2707558274269104,0.0,0.0,-0.5868640542030334,0.4398350715637207
-0.2172736674547195,0.5271708965301514,-0.0828570574522018,-0.2674401402473449,-0.2388262599706649,0.2717700600624084,0.0,0.0,0.0094834566116333,0.5401515960693359
-0.2179371863603592,0.5212327837944031,-0.0787086561322212,-0.2619618475437164,-0.226293072104454,0.2506637871265411,0.0,0.0,-0.6965519189834595,0.8154683113098145
-0.2186110913753509,0.514907956123352,-0.0781397894024849,-0.2794898748397827,-0.2154121100902557,0.2176196575164795,0.0,0.0,-0.9157260060310364,0.8020308017730713
-0.2192845344543457,0.5081881284713745,-0.0762404426932334,-0.2973851561546325,-0.2064317017793655,0.1796077191829681,0.0,0.0,-0.2019283771514892,0.357579231262207
-0.2200298309326172,0.5011049509048462,-0.0835168659687042,-0.3135778307914734,-0.1973761022090912,0.1811119019985199,0.0,0.0,-0.5935874581336975,0.4691064357757568
-0.2208448946475982,0.4936584234237671,-0.0905873253941536,-0.3297705948352813,-0.1882395148277282,0.1827317625284195,0.0,0.0,0.7941596508026123,0.890479326248169
