x_pos,y_pos,x_vel,y_vel,angle,ang_vel,leg_1,leg_2,main_booster,lat_booster
-0.0015007018810138,1.4034905433654783,-0.1519370973110199,-0.3302099108695984,0.0016643612179905,0.0328240245580673,0.0,0.0,-0.2279307209100565,0.6041431515043897
-0.0029279708396643,1.395946979522705,-0.1429512202739715,-0.3352653384208679,0.0018926316406577,0.0045667230151593,0.0,0.0,0.9863780773403026,0.7922018862912272
-0.0040981294587254,1.388992428779602,-0.1159882098436355,-0.3090907037258148,0.0008787625120021,-0.0202793441712856,0.0,0.0,-0.5292063692684166,0.979601930981142
-0.0051859854720532,1.3819005489349363,-0.1060790866613388,-0.3151974081993103,-0.001794398878701,-0.0534680895507335,0.0,0.0,0.9287154723728666,0.83479596748006
-0.0060225487686693,1.3758187294006348,-0.0795541033148765,-0.2703159153461456,-0.0058574574068188,-0.081268809735775,0.0,0.0,-0.7439164313111339,-0.923924087556064
-0.0068967817351222,1.369601845741272,-0.0846376046538353,-0.2763176262378692,-0.0086173713207244,-0.0552034489810466,0.0,0.0,0.2653555096075795,-0.8233886737634841
-0.0078345295041799,1.3639155626296997,-0.0924840494990348,-0.2527304589748382,-0.0098824827000498,-0.0253042541444301,0.0,0.0,-0.2778990353504633,-0.5569847417640953
-0.0087889675050973,1.3580970764160156,-0.0948900654911995,-0.2585960030555725,-0.0104334773495793,-0.0110208326950669,0.0,0.0,0.1625467425037472,-0.6601660586768175
-0.0097839357331395,1.3530362844467163,-0.1001216396689415,-0.2249283045530319,-0.0098088765516877,0.0124931707978248,0.0,0.0,0.7402427607970816,-0.958570892227776
-0.0108341220766305,1.3489959239959717,-0.1074526086449623,-0.1795607060194015,-0.0074069583788514,0.0480428673326969,0.0,0.0,-0.5773630856230552,-0.8255016857383041
-0.0119279865175485,1.3448225259780884,-0.1131086125969886,-0.185465857386589,-0.0037254686467349,0.0736366957426071,0.0,0.0,-0.3407819412358168,-0.5161469753817417
-0.0130471233278512,1.3405146598815918,-0.1164203062653541,-0.1914579421281814,0.0007353020482696,0.0892234146595001,0.0,0.0,0.9455082171120406,-0.8305740972213553
-0.0140554429963231,1.337312936782837,-0.1072625890374183,-0.1423133909702301,0.0070871138013899,0.1270481497049331,0.0,0.0,-0.6519489350883174,-0.9872327443549174
-0.0151251796633005,1.3339678049087524,-0.1150189638137817,-0.14873568713665,0.0150456652045249,0.159185379743576,0.0,0.0,0.3540668933455784,-0.6852448324793428
-0.0161250121891498,1.3315114974975586,-0.1094969362020492,-0.1092826575040817,0.0244625397026538,0.1883545517921447,0.0,0.0,0.8454171331921383,-0.7773175798000896
-0.0170560833066701,1.329413890838623,-0.1043650731444358,-0.0934458822011947,0.0355898812413215,0.2225668728351593,0.0,0.0,0.7820454093397218,-0.6767751816267259
-0.0179102905094623,1.3285809755325315,-0.0982877239584922,-0.0373764708638191,0.0483217537403106,0.2546605467796325,0.0,0.0,-0.1431854269953316,-0.8179518746466343
-0.0188127513974905,1.327605366706848,-0.1042235866189003,-0.0438661091029644,0.0621666014194488,0.276921808719635,0.0,0.0,-0.2699648357936939,-0.6840217532801832
-0.0197615623474121,1.326500654220581,-0.1098750010132789,-0.0497852154076099,0.0770219638943672,0.2971338927745819,0.0,0.0,0.3805846209113965,-0.8426690243862529
-0.0208919532597064,1.3259553909301758,-0.1294788569211959,-0.0251599010080099,0.0933345034718513,0.3262805640697479,0.0,0.0,-0.5543901685401189,-0.6551635974545738
-0.0220677368342876,1.3252785205841064,-0.1349028795957565,-0.031254306435585,0.1105456873774528,0.3442547619342804,0.0,0.0,0.2034036267201464,0.5579029866022365
-0.0232318881899118,1.3249571323394775,-0.1324885189533233,-0.0155470129102468,0.1265369802713394,0.3198549747467041,0.0,0.0,0.7192172045019338,0.7103900202806473
-0.024273682385683,1.325385332107544,-0.1189930066466331,0.0176974367350339,0.1413085758686065,0.2954583168029785,0.0,0.0,-0.0548108742231692,0.6986739851086359
-0.0252632144838571,1.3256865739822388,-0.112055018544197,0.0120974751189351,0.1544017046689987,0.2618863582611084,0.0,0.0,-0.6726380080443348,-0.7740243055249156
-0.026338767260313,1.3258408308029177,-0.1224163025617599,0.0052450280636549,0.1692854911088943,0.2977022528648376,0.0,0.0,0.8067622253173747,-0.7964923141167275
-0.0277888290584087,1.326925277709961,-0.1609711647033691,0.0462976694107055,0.185290589928627,0.3201017677783966,0.0,0.0,-0.3029191031565061,-0.9041002315966816
-0.0293234828859567,1.3278650045394895,-0.171040341258049,0.039471261203289,0.2029766738414764,0.3537217676639557,0.0,0.0,-0.077011388559401,0.8014705800074182
-0.0308262817561626,1.3286972045898438,-0.1664250195026397,0.0346897952258586,0.2192793041467666,0.3260519802570343,0.0,0.0,-0.1277853348611224,-0.8357027007616733
-0.0324254035949707,1.3293797969818115,-0.1779052317142486,0.0275472104549407,0.2375094592571258,0.3646035194396972,0.0,0.0,0.4309565681592717,-0.8561313167016404
-0.0342275612056255,1.330513834953308,-0.1996873319149017,0.0471361950039863,0.2573332190513611,0.396474540233612,0.0,0.0,-0.5155129150815394,-0.5113657755881634
-0.0360883697867393,1.331509351730347,-0.2063318938016891,0.0405617132782936,0.2780432105064392,0.4141997396945953,0.0,0.0,-0.9414271116256714,0.9960956573486328
-0.0379036888480186,1.3323981761932373,-0.1998498737812042,0.035900093615055,0.2968906462192535,0.3769494891166687,0.0,0.0,-0.9141222238540648,0.9980671405792236
-0.0396784767508506,1.3331952095031738,-0.1938789188861847,0.0319838523864746,0.3138707280158996,0.3396009504795074,0.0,0.0,-0.9280270338058472,0.9970192909240724
-0.0414076820015907,1.3338849544525146,-0.1874113380908966,0.0274457335472106,0.3289387822151184,0.301361083984375,0.0,0.0,-0.8569640517234802,0.998997688293457
-0.0430850982666015,1.334483623504639,-0.1800566166639328,0.0237558670341968,0.3418061733245849,0.2573480606079101,0.0,0.0,-0.8977518081665039,0.9863829612731934
-0.0447139739990234,1.3349967002868652,-0.1730559021234512,0.0203540716320276,0.3524850308895111,0.2135770618915558,0.0,0.0,-0.8834459185600281,0.9812119007110596
-0.046297837048769,1.3354098796844482,-0.1666304767131805,0.0163268148899078,0.3611480295658111,0.1732601523399353,0.0,0.0,-0.9584999680519104,0.972320795059204
-0.0478342063724994,0.0,-0.1597232520580291,0.0130976000800728,0.3675842583179474,0.1287252604961395,0.0,0.0,-0.8887682557106018,0.9659914970397948
-0.0493340492248535,1.335983157157898,-0.154214009642601,0.0097345756366848,0.3720592856407165,0.0895005241036415,0.0,0.0,-0.8913400769233704,0.9648244380950928
-0.0507880225777626,1.336136817932129,-0.1475745439529419,0.0062618604861199,0.3743652999401092,0.0461202561855316,0.0,0.0,-0.8980255722999573,0.7670547962188721
-0.0522258765995502,1.3361892700195312,-0.1446450352668762,0.0021029848139733,0.3752782940864563,0.0182600226253271,0.0,0.0,-0.990088939666748,0.9324133396148682
-0.0536099448800087,0.0,-0.1370187252759933,-0.0012111011892557,0.3737975358963012,-0.0296151340007781,0.0,0.0,-0.9949505925178528,0.8489212989807129
-0.0549491867423057,1.3360177278518677,-0.1305415481328964,-0.0051701110787689,0.3702189922332763,-0.0715708062052726,0.0,0.0,-0.9769256711006165,0.7927876710891724
-0.0562503822147846,1.3357853889465332,-0.1248704642057418,-0.008980001322925,0.3646658360958099,-0.1110633760690689,0.0,0.0,-0.9459545612335204,0.3721178770065307
-0.0575820915400981,1.335418939590454,-0.1278425753116607,-0.0149380434304475,0.3590393662452698,-0.1125293597579002,0.0,0.0,-0.9704097509384156,0.8740866184234619
-0.05887346342206,1.3349494934082031,-0.1218988671898841,-0.0190773513168096,0.3514216244220733,-0.1523549556732177,0.0,0.0,-0.9968254566192628,0.5095428228378296
-0.0601540580391883,1.3343666791915894,-0.1196564212441444,-0.0238744709640741,0.3425896763801574,-0.1766397953033447,0.0,0.0,-0.9955255389213562,0.0013731718063354
-0.0614664070308208,1.3336503505706787,-0.1227503269910812,-0.0298366602510213,0.3336945176124573,-0.1779025048017501,0.0,0.0,-0.9983269572257996,0.8445901870727539
-0.0627638846635818,1.3328334093093872,-0.1198578476905822,-0.0340568758547306,0.3233846724033355,-0.2061970233917236,0.0,0.0,-0.9336658716201782,0.8011095523834229
-0.0640356987714767,1.3319106101989746,-0.1156860738992691,-0.0384919382631778,0.3114431500434875,-0.2388307303190231,0.0,0.0,-0.9945335984230042,0.7623873949050903
-0.0652696639299392,1.3308897018432615,-0.1099407076835632,-0.0425523035228252,0.2975256145000458,-0.278350681066513,0.0,0.0,-0.9682707190513612,0.0860496759414672
-0.0665367096662521,1.3297369480133057,-0.1131527200341224,-0.0485244207084178,0.2835594713687897,-0.2793230414390564,0.0,0.0,-0.9448663592338562,0.0415949821472168
-0.0678371414542198,1.3284523487091064,-0.1163894087076187,-0.0544968470931053,0.2695484161376953,-0.280221164226532,0.0,0.0,-0.9960727095603944,-0.3798309564590454
-0.0691710487008094,1.3270362615585327,-0.1196487173438072,-0.0604695715010166,0.2554962038993835,-0.2810444235801697,0.0,0.0,-0.9375538229942322,0.158669114112854
-0.0705387145280838,1.3254884481430054,-0.1229287832975387,-0.0664425790309906,0.2414065897464752,-0.281792402267456,0.0,0.0,-0.9721792936325072,-0.1044234037399292
-0.0719401389360427,1.3238091468811035,-0.1262278854846954,-0.0724158436059951,0.2272833436727523,-0.282464861869812,0.0,0.0,-0.9778092503547668,-0.473477303981781
-0.0733756050467491,1.321998119354248,-0.1295444667339325,-0.0783893689513206,0.2131302803754806,-0.283061683177948,0.0,0.0,-0.9889474511146544,-0.1837301254272461
-0.0748449340462684,1.3200558423995972,-0.1328770667314529,-0.0843631029129028,0.1989511549472808,-0.283582866191864,0.0,0.0,-0.9907159805297852,-0.3245538473129272
-0.0763484016060829,1.317981839179993,-0.1362243592739105,-0.0903370454907417,0.1847497224807739,-0.2840285003185272,0.0,0.0,-0.9889237880706788,0.1485471725463867
-0.0778861045837402,1.3157767057418823,-0.1395851224660873,-0.0963111817836761,0.1705297827720642,-0.2843989729881286,0.0,0.0,-0.9947033524513244,-0.1997272968292236
-0.0794579535722732,1.313439965248108,-0.1429582387208938,-0.1022854670882225,0.156295046210289,-0.2846946120262146,0.0,0.0,-0.9097710847854614,-0.0017414093017578
-0.0810640305280685,1.310971736907959,-0.1463427096605301,-0.1082599014043808,0.1420492380857467,-0.2849161028861999,0.0,0.0,-0.94798481464386,-0.3707945346832275
-0.082704447209835,1.308372139930725,-0.1497375518083572,-0.1142344623804092,0.1277960389852523,-0.2850641310214996,0.0,0.0,-0.977675437927246,-0.3754736185073852
-0.0843792930245399,1.3056412935256958,-0.1531419306993484,-0.1202091202139854,0.1135390624403953,-0.2851396799087524,0.0,0.0,-0.7814541459083557,-0.6830130219459534
-0.0861409157514572,1.3027645349502563,-0.1631684005260467,-0.126912772655487,0.1006290167570114,-0.2582007050514221,0.0,0.0,-0.449927806854248,-0.6679129600524902
-0.0880004912614822,1.2997465133666992,-0.174547791481018,-0.1334033161401748,0.0893275439739227,-0.2260296046733856,0.0,0.0,-0.5166441202163696,0.2884335517883301
-0.0898941978812217,1.2965964078903198,-0.177976980805397,-0.1393718421459198,0.0780327096581459,-0.2258967459201812,0.0,0.0,-0.8951437473297119,-0.594498872756958
-0.0918624848127365,1.2933019399642944,-0.1864590495824813,-0.1459200382232666,0.067772552371025,-0.2052030861377716,0.0,0.0,-0.9788920879364014,-0.2364752292633056
-0.0938652008771896,1.28987455368042,-0.1899007260799408,-0.1518867313861847,0.0575256794691085,-0.2049377858638763,0.0,0.0,-0.9782289266586304,-0.2397955656051635
-0.0959021598100662,1.2863147258758545,-0.1933476477861404,-0.1578534245491027,0.0472952499985694,-0.204608529806137,0.0,0.0,-0.9689603447914124,-0.7293562293052673
-0.0980400070548057,1.2826203107833862,-0.2051459103822708,-0.1639480143785476,0.0387563146650791,-0.1707785427570343,0.0,0.0,-0.9652724266052246,-0.2873765230178833
-0.1002121940255165,1.2787928581237793,-0.2086018770933151,-0.1699120104312896,0.0302399229258298,-0.1703278124332428,0.0,0.0,-0.9627947211265564,-0.7452914714813232
-0.1024906188249588,1.2748372554779053,-0.2210573852062225,-0.1756865680217743,0.0235474985092878,-0.1338483840227127,0.0,0.0,-0.984085738658905,0.4195762872695923
-0.1048033684492111,1.2707481384277344,-0.2245204001665115,-0.1816481947898864,0.0168832931667566,-0.1332845389842987,0.0,0.0,-0.9974977970123292,-0.0179498195648193
-0.1071503609418869,1.2665255069732666,-0.2279861271381378,-0.187609776854515,0.0102499183267354,-0.1326673626899719,0.0,0.0,-0.9862675070762634,-0.1889873147010803
-0.109531782567501,1.2621694803237915,-0.2314541637897491,-0.1935713440179824,0.0036499572452157,-0.1319992989301681,0.0,0.0,-0.988563358783722,-0.8798604607582092
-0.1120208725333213,1.2576706409454346,-0.2441169917583465,-0.1999453604221344,-0.0010726229520514,-0.0944518893957138,0.0,0.0,-0.9765512347221376,-0.1927434206008911
-0.1145442947745323,1.253037929534912,-0.2475885450839996,-0.2059050500392913,-0.0057571250945329,-0.0936901271343231,0.0,0.0,-0.9415428638458252,0.2713247537612915
-0.1171019524335861,1.2482715845108032,-0.2510612308979034,-0.2118647098541259,-0.0104013951495289,-0.0928854644298553,0.0,0.0,-0.9861321449279784,0.6852403879165649
-0.1196496933698654,1.2433778047561646,-0.2489936649799347,-0.2175566256046295,-0.0161119773983955,-0.1142118200659751,0.0,0.0,-0.9753551483154296,-0.1098244190216064
-0.1222317665815353,1.23835027217865,-0.2524675130844116,-0.2235171049833297,-0.0217784661799669,-0.1133298873901367,0.0,0.0,-0.9518595337867736,-0.3211881518363952
-0.1248480826616287,1.2331891059875488,-0.2559414207935333,-0.2294775545597076,-0.0273991636931896,-0.1124138832092285,0.0,0.0,-0.9453067779541016,-0.1427599787712097
-0.1274987161159515,1.227894306182861,-0.2594149708747864,-0.2354379147291183,-0.0329725071787834,-0.1114668995141983,0.0,0.0,-0.952803373336792,-0.4741795063018799
-0.1301835030317306,1.222465753555298,-0.2628877758979797,-0.241398200392723,-0.0384971052408218,-0.1104920506477356,0.0,0.0,-0.996644139289856,0.945601224899292
-0.1328290998935699,1.2169044017791748,-0.2571505010128021,-0.2473802119493484,-0.0458149053156375,-0.1463558971881866,0.0,0.0,-0.9935617446899414,0.4090528488159179
-0.1355088204145431,1.2112096548080444,-0.2606208324432373,-0.25334233045578,-0.0530816577374935,-0.1453350186347961,0.0,0.0,-0.9916903972625732,-0.1168664693832397
-0.1382226943969726,1.2053816318511963,-0.2640892565250397,-0.2593043446540832,-0.0602964721620082,-0.1442963033914566,0.0,0.0,-0.9821365475654602,0.7343302965164185
-0.1409039497375488,1.1994088888168335,-0.2591767907142639,-0.2658429741859436,-0.0691466480493545,-0.1770038455724716,0.0,0.0,-0.9754942059516908,0.5863056182861328
-0.1435616463422775,1.193297028541565,-0.2554137110710144,-0.2721477150917053,-0.0793962776660919,-0.204992800951004,0.0,0.0,-0.99542897939682,0.6125798225402832
-0.1461940705776214,1.1870410442352295,-0.2514313459396362,-0.2787182629108429,-0.0910963341593742,-0.234000951051712,0.0,0.0,-0.995151162147522,-0.720798671245575
-0.1489173918962478,1.1806654930114746,-0.2620518207550049,-0.2840166389942169,-0.1012909039855003,-0.2038912326097488,0.0,0.0,-0.9651485085487366,-0.0016339421272277
-0.1516745537519455,1.1741573810577393,-0.2655046284198761,-0.2899827063083648,-0.1114317029714584,-0.2028158009052276,0.0,0.0,-0.7786195874214172,-0.5709131956100464
-0.1545010507106781,1.1675242185592651,-0.2734057605266571,-0.2955206036567688,-0.1206146329641342,-0.1836588233709335,0.0,0.0,-0.8233495354652405,-0.1133115291595459
-0.1573613137006759,1.160758376121521,-0.2768482565879822,-0.3014848828315735,-0.1297443956136703,-0.1825951635837555,0.0,0.0,-0.9253942966461182,-0.6873266696929932
-0.1603140830993652,1.1538684368133545,-0.2876603007316589,-0.3068956434726715,-0.137329876422882,-0.1517091989517212,0.0,0.0,-0.9002312421798706,0.6856712102890015
-0.1632384359836578,1.1468408107757568,-0.2833217978477478,-0.3132055401802063,-0.1464223861694336,-0.1818502247333526,0.0,0.0,-0.8615660071372986,0.3645122051239013
-0.1661963462829589,1.1396801471710205,-0.2867442369461059,-0.3191696405410766,-0.1554639935493469,-0.180832028388977,0.0,0.0,-0.5144309997558594,-0.7803304195404053
-0.1692605912685394,1.1324105262756348,-0.2993233799934387,-0.3238553702831268,-0.1625677049160003,-0.1420738995075225,0.0,0.0,-0.2615453004837036,0.8985573053359985
-0.1722776442766189,1.1249922513961792,-0.2925998568534851,-0.3307200074195862,-0.1716797202825546,-0.1822403967380523,0.0,0.0,-0.5832354426383972,0.8087509870529175
-0.1752698868513107,1.1174319982528689,-0.2887179553508758,-0.3372610509395599,-0.1822179555892944,-0.2107643634080886,0.0,0.0,-0.015390932559967,-0.2206041812896728
-0.1782953292131424,1.1097391843795776,-0.2921028733253479,-0.343227356672287,-0.1927110105752945,-0.2098607122898101,0.0,0.0,-0.4545796513557434,0.6613688468933105
-0.1813050210475921,1.101897120475769,-0.2893226444721222,-0.3500937521457672,-0.2044354230165481,-0.2344884127378463,0.0,0.0,-0.3920448422431946,0.6695783138275146
-0.1843057572841644,1.093910574913025,-0.2874232828617096,-0.3567586839199066,-0.2172035276889801,-0.2553622722625732,0.0,0.0,-0.3589456081390381,0.6428790092468262
-0.1873022019863128,1.0857783555984497,-0.2861129641532898,-0.3634801506996155,-0.2309046983718872,-0.2740238010883331,0.0,0.0,-0.2068520784378051,0.4364771842956543
-0.1903311759233474,1.077514410018921,-0.2894444763660431,-0.3694526851177215,-0.2445696145296096,-0.2732980251312256,0.0,0.0,0.4261562824249267,0.8821849822998047
-0.1931909620761871,1.069528102874756,-0.2709028720855713,-0.3575293719768524,-0.2599256932735443,-0.3071208298206329,0.0,0.0,-0.7199667692184448,-0.8264668583869934
-0.1961293220520019,1.0614356994628906,-0.2801132500171661,-0.3621619641780853,-0.2739759683609009,-0.2810053825378418,0.0,0.0,-0.6510223746299744,0.5482721328735352
-0.1990589201450348,1.0531991720199585,-0.2782616019248962,-0.3688850998878479,-0.2890637218952179,-0.3017552495002746,0.0,0.0,-0.6389721632003784,-0.4942556619644165
-0.2020200788974762,1.0448317527770996,-0.2815147042274475,-0.3748607039451599,-0.3041273355484009,-0.301272988319397,0.0,0.0,0.1498924493789672,-0.1351299285888672
-0.204841136932373,1.036886215209961,-0.2678320705890655,-0.356186956167221,-0.3189248442649841,-0.2959502339363098,0.0,0.0,-0.7380757927894592,0.3905606269836426
-0.207693338394165,1.0288095474243164,-0.2710326611995697,-0.3621618449687958,-0.3337055742740631,-0.2956144511699676,0.0,0.0,-0.8523740768432617,-0.1571311950683593
-0.210576444864273,1.0206013917922974,-0.2742033004760742,-0.3681367039680481,-0.348473459482193,-0.2953574955463409,0.0,0.0,-0.5253206491470337,-0.0929359197616577
-0.2134900540113449,1.0122618675231934,-0.277341216802597,-0.374111533164978,-0.3632326126098633,-0.2951831221580505,0.0,0.0,-0.8534311652183533,0.2058730125427246
-0.2164338529109954,1.0037908554077148,-0.2804433107376098,-0.3800863623619079,-0.3779873549938202,-0.2950951159000397,0.0,0.0,-0.3104552030563354,0.0926026105880737
-0.2194075137376785,0.99518883228302,-0.2835061848163605,-0.3860612213611603,-0.3927422165870666,-0.2950969934463501,0.0,0.0,-0.7791033983230591,0.1142416000366211
-0.2224105298519134,0.9864551424980164,-0.2865262925624847,-0.3920361399650574,-0.4075018167495727,-0.2951923012733459,0.0,0.0,-0.1551374197006225,-0.3058698177337646
-0.225442498922348,0.977590262889862,-0.2894997000694275,-0.3980111479759216,-0.4222710430622101,-0.2953843474388122,0.0,0.0,0.6113653182983398,-0.3493993282318115
-0.2282430231571197,0.9689952731132508,-0.2669733166694641,-0.3859759271144867,-0.4364657998085022,-0.2838950157165527,0.0,0.0,0.0846387147903442,-0.0327885150909423
-0.2308237552642822,0.9608386754989624,-0.2453340590000152,-0.3665478527545929,-0.4503844082355499,-0.2783724367618561,0.0,0.0,0.6337108612060547,-0.1789303421974182
-0.2330623567104339,0.953611135482788,-0.2112883776426315,-0.3253341019153595,-0.4642135798931122,-0.2765836715698242,0.0,0.0,0.8824653625488281,-0.6139374375343323
