x_pos,y_pos,x_vel,y_vel,angle,ang_vel,leg_1,leg_2,main_booster,lat_booster
-0.0015342712868005,1.4031119346618652,-0.1547757387161255,-0.347037136554718,0.0011928073363378,0.0234875623136758,0.0,0.0,-0.2343242764472961,0.3717246055603027
-0.0030797005165368,1.3948140144348145,-0.1551278978586197,-0.3687953650951385,0.0017733431886881,0.0116127897053956,0.0,0.0,0.4178845882415771,0.8087742328643799
-0.004444217775017,1.3865176439285278,-0.135038211941719,-0.3687273859977722,0.0003747248556464,-0.0279751513153314,0.0,0.0,-0.0688876509666442,0.7458443641662598
-0.0057722092606127,1.3777060508728027,-0.1296179592609405,-0.3916283249855041,-0.0027792977634817,-0.0630861297249794,0.0,0.0,0.2055754661560058,0.5738683938980103
-0.0069605829194188,1.3690969944000244,-0.1141356229782104,-0.3826398849487304,-0.0074270055629312,-0.0929625779390335,0.0,0.0,0.0769205093383789,-0.2704215049743652
-0.008067226037383,1.3605055809020996,-0.1058321148157119,-0.3818755149841308,-0.0122086247429251,-0.09564109146595,0.0,0.0,0.3152563571929931,-0.375597596168518
-0.0091965673491358,1.3520915508270264,-0.1074535101652145,-0.3740049600601196,-0.0176328811794519,-0.1084948182106018,0.0,0.0,-0.4774424433708191,-0.4387967586517334
-0.0103362081572413,1.343165397644043,-0.1079225093126297,-0.3967975974082947,-0.0236076489090919,-0.1195065006613731,0.0,0.0,-0.3612494468688965,-0.5745977163314819
-0.0115320207551121,1.3337352275848389,-0.1141669377684593,-0.4192161858081817,-0.0289659406989812,-0.1071755290031433,0.0,0.0,-0.2456497550010681,-0.4432251453399658
-0.0127379419282078,1.3237929344177246,-0.1146337613463401,-0.4420060813426971,-0.0348636358976364,-0.1179648637771606,0.0,0.0,0.0421746969223022,-0.1722182631492614
-0.0138864517211914,1.3138980865478516,-0.1086145043373107,-0.4399325251579284,-0.0410356484353542,-0.1234514117240905,0.0,0.0,-0.629509449005127,0.3063085079193115
-0.0150448800995945,1.303491234779358,-0.1090757846832275,-0.462728351354599,-0.0477334707975387,-0.1339685767889022,0.0,0.0,-0.1166489720344543,-0.6461327075958252
-0.0162528995424509,1.2925786972045898,-0.1145275384187698,-0.4852121770381927,-0.0539442412555217,-0.1242268085479736,0.0,0.0,0.3369135856628418,-0.514238715171814
-0.017435360699892,1.281578540802002,-0.1126368045806884,-0.4891148507595062,-0.0595001727342605,-0.1111289411783218,0.0,0.0,-0.6766446232795715,-0.4956610202789306
-0.0186274535953998,1.270066261291504,-0.1130946725606918,-0.5119100213050842,-0.065559983253479,-0.1212073117494583,0.0,0.0,0.3951375484466553,-0.9627044796943665
-0.0197827331721782,1.2584036588668823,-0.1109349578619003,-0.518547773361206,-0.070117637515068,-0.0911612585186958,0.0,0.0,-0.5291427373886108,-0.6542335748672485
-0.0209869388490915,1.246240735054016,-0.1163420230150222,-0.5407706499099731,-0.0741587355732917,-0.0808291360735893,0.0,0.0,-0.4193414449691772,-0.4764972925186157
-0.0222003944218158,1.2335658073425293,-0.1167971715331077,-0.5635607838630676,-0.0786782205104827,-0.0903975814580917,0.0,0.0,-0.5523192882537842,-0.4526463150978088
-0.0234230998903512,1.220379114151001,-0.1172484010457992,-0.5863521099090576,-0.0836667567491531,-0.0997796282172203,0.0,0.0,0.4781219959259033,-0.8846670985221863
-0.0247635841369628,1.20745587348938,-0.1302244216203689,-0.5745871663093567,-0.0874567851424217,-0.0758071988821029,0.0,0.0,0.0403597354888916,-0.8801069855690002
-0.026045799255371,1.1947308778762815,-0.1257255375385284,-0.5657014846801758,-0.0899398550391197,-0.0496657863259315,0.0,0.0,0.1836299896240234,-0.1042680740356445
-0.0273001678287982,1.1819663047790527,-0.1225300878286361,-0.5674956440925598,-0.0928246900439262,-0.0577020533382892,0.0,0.0,-0.4600284099578857,-0.5802930593490601
-0.0285992622375488,1.1686936616897583,-0.1274759620428085,-0.5900442004203796,-0.0952323675155639,-0.0481582581996917,0.0,0.0,0.3259052038192749,-0.8277174234390259
-0.0298855789005756,1.1552741527557373,-0.127501830458641,-0.5964930057525635,-0.0963443890213966,-0.0222423933446407,0.0,0.0,0.0991706848144531,0.2599115371704101
-0.0312332157045602,1.1419956684112549,-0.1327894032001495,-0.5902954339981079,-0.098303273320198,-0.0391815155744552,0.0,0.0,-0.2552333474159241,-0.6386238932609558
-0.0326527580618858,1.128195881843567,-0.1411805897951126,-0.6133713126182556,-0.0990759953856468,-0.0154545083642005,0.0,0.0,0.4578582048416137,-0.669319212436676
-0.0340659134089946,1.1148524284362793,-0.1414988338947296,-0.5930348634719849,-0.0988911986351013,0.0036960802972316,0.0,0.0,-0.3038473129272461,-0.4043856859207153
-0.0354870781302452,1.1009966135025024,-0.1419305354356765,-0.6158227324485779,-0.0990800485014915,-0.0037768210750073,0.0,0.0,-0.2679364681243896,-0.4237779378890991
-0.0369161590933799,1.086628556251526,-0.1423573642969131,-0.6386106014251709,-0.0996304452419281,-0.0110080083832144,0.0,0.0,-0.1927661299705505,-0.6152969002723694
-0.038403321057558,1.071753740310669,-0.1490857154130935,-0.6610814929008484,-0.0992614328861236,0.0073802778497338,0.0,0.0,-0.8486658930778503,0.3167002201080322
-0.0398980155587196,1.0563666820526123,-0.1495014131069183,-0.6838691234588623,-0.099229097366333,0.0006466716877184,0.0,0.0,-0.4425563812255859,-0.152138352394104
-0.0413999557495117,1.040467381477356,-0.1499107629060745,-0.7066565752029419,-0.0995207130908966,-0.0058322316035628,0.0,0.0,-0.3481124639511108,0.1462373733520507
-0.0429091453552246,1.0240558385849,-0.1503131985664367,-0.7294439673423767,-0.1001233458518982,-0.0120526459068059,0.0,0.0,0.5807615518569946,0.0181502103805542
-0.0444515235722065,1.0076560974121094,-0.1530419439077377,-0.7289531230926514,-0.101306028664112,-0.0236538536846637,0.0,0.0,0.3350729942321777,-0.5113152861595154
-0.0459753051400184,0.9915056824684144,-0.1519624590873718,-0.7178279161453247,-0.1017203107476234,-0.0082855867221951,0.0,0.0,-0.707042932510376,-0.6007816791534424
-0.0475510582327842,0.9748544096946716,-0.1580657660961151,-0.7400242686271667,-0.101242683827877,0.009552544914186,0.0,0.0,0.2124823331832885,-0.6382573246955872
-0.049171257764101,0.958197057247162,-0.1634843498468399,-0.7402244210243225,-0.0997853353619575,0.0291469506919384,0.0,0.0,-0.6130819916725159,-0.4456682205200195
-0.0507974624633789,0.9410275220870972,-0.1638427227735519,-0.7630115151405334,-0.0985726490616798,0.0242538172751665,0.0,0.0,0.4636552333831787,0.0464385747909545
-0.0523907653987407,0.9244650602340698,-0.1601482033729553,-0.7360571622848511,-0.0977524146437645,0.0164048336446285,0.0,0.0,0.1285935640335083,0.1370772123336792
-0.0539297088980674,0.9080073237419128,-0.1545987725257873,-0.7314127683639526,-0.0970606580376625,0.0138351861387491,0.0,0.0,0.4612424373626709,-0.5592036247253418
-0.0555527694523334,0.8920912742614746,-0.1636814475059509,-0.7072924971580505,-0.0956961140036583,0.0272909346967935,0.0,0.0,-0.5995877981185913,-0.4598140716552734
-0.0571808815002441,0.8756628632545471,-0.1639916151762008,-0.7300789952278137,-0.0945226922631263,0.0234686490148305,0.0,0.0,-0.6352499723434448,0.0879887342453002
-0.0588137619197368,0.8587220311164856,-0.1642878204584121,-0.7528654336929321,-0.093527153134346,0.0199105758219957,0.0,0.0,0.3635017871856689,-0.5360175371170044
-0.0603639595210552,0.8419126868247986,-0.1571497619152069,-0.7469521164894104,-0.0914255753159523,0.0420316085219383,0.0,0.0,-0.0695218443870544,0.4626874923706054
-0.0619184486567974,0.8245910406112671,-0.1574157476425171,-0.7697384357452393,-0.0894758850336074,0.0389936342835426,0.0,0.0,-0.2739802598953247,-0.2316877841949463
-0.0634768456220626,0.806756854057312,-0.1576654911041259,-0.7925245761871338,-0.087665356695652,0.0362105257809162,0.0,0.0,0.4175527095794678,0.1696705818176269
-0.0649531334638595,0.7889761328697205,-0.1495701372623443,-0.7901375889778137,-0.0857393220067024,0.0385206565260887,0.0,0.0,0.5736736059188843,0.6803579330444336
-0.0664272308349609,0.7718852758407593,-0.1476318091154098,-0.7595803141593933,-0.085523135960102,0.0043238429352641,0.0,0.0,-0.0940489768981933,0.1050078868865966
-0.0679043754935264,0.7542819380760193,-0.1478286981582641,-0.7823657393455505,-0.0854092240333557,0.002278208034113,0.0,0.0,0.8086585998535156,-0.4289343953132629
-0.0693597793579101,0.7370012402534485,-0.1454551070928573,-0.7680395841598511,-0.0854929685592651,-0.0016747300978749,0.0,0.0,0.3302133083343506,-0.1416995525360107
-0.0706631690263748,0.7198801636695862,-0.130718320608139,-0.7609116435050964,-0.0851214826107025,0.0074293920770287,0.0,0.0,-0.2238351106643676,0.0756387710571289
-0.0719686523079872,0.7022466659545898,-0.1308572888374328,-0.7836970090866089,-0.0848179385066032,0.006071145646274,0.0,0.0,0.9428439140319824,0.3334710597991943
-0.0731035247445106,0.6848655343055725,-0.1143361553549766,-0.7724464535713196,-0.0839767903089523,0.0168231315910816,0.0,0.0,0.7395516633987427,0.0783993005752563
-0.0741660147905349,0.6682268381118774,-0.1070672646164894,-0.7394540309906006,-0.0831666514277458,0.0162025559693574,0.0,0.0,0.5089137554168701,-0.5102260708808899
-0.0750874504446983,0.6517260074615479,-0.094328299164772,-0.7332472205162048,-0.0809992179274559,0.0433487333357334,0.0,0.0,0.3253613710403442,0.0634968280792236
-0.0760555267333984,0.6352871656417847,-0.0986078083515167,-0.7305212616920471,-0.079213261604309,0.0357191935181617,0.0,0.0,0.1348682641983032,-0.1676521897315979
-0.0769164115190506,0.6191467046737671,-0.0881738066673278,-0.7172483801841736,-0.0771461501717567,0.0413420535624027,0.0,0.0,0.2229501008987426,-0.3323156237602234
-0.0776371955871582,0.6032283306121826,-0.0746319517493248,-0.7073504328727722,-0.0746152102947235,0.0506189987063407,0.0,0.0,0.1396827697753906,0.4473298788070678
-0.0782641395926475,0.5876412391662598,-0.0654916912317276,-0.6926215887069702,-0.0718460902571678,0.0553824082016944,0.0,0.0,0.2750954627990722,0.7224606275558472
-0.0788556113839149,0.5724561810493469,-0.0604178793728351,-0.6748327612876892,-0.0705961883068084,0.0249981041997671,0.0,0.0,-0.7255563735961914,0.1889518499374389
-0.0794465094804763,0.5567583441734314,-0.0603717789053916,-0.6976176500320435,-0.0693309381604194,0.0253050960600376,0.0,0.0,0.7203938961029053,-0.00192791223526
-0.0800901427865028,0.5416517853736877,-0.0651721060276031,-0.6713659763336182,-0.0685261338949203,0.0160958208143711,0.0,0.0,0.4070267677307129,0.8779370784759521
-0.0805140510201454,0.5266700387001038,-0.0415957272052764,-0.6658921837806702,-0.069312609732151,-0.0157294478267431,0.0,0.0,0.6011947393417358,0.0098494291305542
-0.0808725357055664,0.5120621919631958,-0.0352033488452434,-0.6492692828178406,-0.0699579119682312,-0.0129060847684741,0.0,0.0,0.3038949966430664,0.0016053915023803
-0.0812011733651161,0.4974143803119659,-0.0322809405624866,-0.6510422229766846,-0.0705333724617958,-0.0115088941529393,0.0,0.0,0.4822916984558105,0.5063921213150024
-0.0815695747733116,0.483055979013443,-0.0349747538566589,-0.6382415890693665,-0.0723769143223762,-0.0368709042668342,0.0,0.0,0.3294709920883178,-0.3844239711761474
-0.0818687453866005,0.4692132771015167,-0.0281918011605739,-0.6153150200843811,-0.0740890204906463,-0.0342421159148216,0.0,0.0,-0.0312105417251586,0.3368599414825439
-0.0821657180786132,0.4548579454421997,-0.0280165709555149,-0.638099730014801,-0.0757451727986335,-0.0331232324242591,0.0,0.0,0.2322261333465576,-0.8860568404197693
-0.0824580192565918,0.4409577548503876,-0.0294164232909679,-0.6177775263786316,-0.0755599960684776,0.0037033329717814,0.0,0.0,0.119455337524414,0.564018726348877
-0.0827495604753494,0.4270250797271728,-0.0281479321420192,-0.6192815899848938,-0.0765547826886177,-0.0198955126106739,0.0,0.0,0.4872987270355224,-0.591627299785614
-0.0831276923418045,0.4135094583034515,-0.0378563031554222,-0.6006912589073181,-0.0765068009495735,0.0009592959540896,0.0,0.0,0.4918081760406494,0.2981204986572265
-0.0834320038557052,0.4003184139728546,-0.0306833274662494,-0.5862563848495483,-0.0762612298130989,0.0049117649905383,0.0,0.0,0.086282730102539,0.2190160751342773
-0.0837752372026443,0.3874548375606537,-0.0342509448528289,-0.5717195868492126,-0.0763361752033233,-0.0014987626345828,0.0,0.0,0.8023029565811157,0.4197289943695068
-0.0839871391654014,0.375011533498764,-0.0215641520917415,-0.5530173778533936,-0.0759673714637756,0.0073763942345976,0.0,0.0,0.2742595672607422,0.0782996416091919
-0.0841985717415809,0.3625096380710602,-0.0214704405516386,-0.5556249022483826,-0.0756446570158004,0.0064542973414063,0.0,0.0,0.6332781314849854,0.553093433380127
-0.0842668563127517,0.3499566316604614,-0.0062992200255393,-0.5579368472099304,-0.0761634781956672,-0.0103766378015279,0.0,0.0,0.8430887460708618,0.3529278039932251
-0.0843376144766807,0.3374613225460052,-0.006469290703535,-0.5553799271583557,-0.0767700150609016,-0.0121306795626878,0.0,0.0,0.692434549331665,0.5306055545806885
-0.0843092948198318,0.325669527053833,0.0044637201353907,-0.5241658687591553,-0.0783816799521446,-0.0322332121431827,0.0,0.0,0.2628636360168457,-0.061815857887268
-0.0841671973466873,0.3142902553081512,0.0154801281169056,-0.5058116316795349,-0.0796355232596397,-0.0250769555568695,0.0,0.0,0.4863626956939697,-0.753145158290863
-0.0841331481933593,0.3035257160663605,0.0032635845709592,-0.4784137904644012,-0.0795007050037384,0.0026963544078171,0.0,0.0,-0.3693066835403442,0.4443175792694092
-0.0840950012207031,0.2922485768795013,0.0036001452244818,-0.5011981129646301,-0.0792934298515319,0.0041458751074969,0.0,0.0,0.6875226497650146,0.0768942832946777
-0.0839477553963661,0.2816610634326935,0.014258581213653,-0.4705305099487304,-0.078824758529663,0.0093733789399266,0.0,0.0,0.0451173782348632,0.4982936382293701
-0.0838314071297645,0.2711128294467926,0.011388836428523,-0.4687989950180053,-0.0785840526223182,0.0048141907900571,0.0,0.0,0.5122032165527344,-0.4513928890228271
-0.083712100982666,0.2609855234622955,0.0118539202958345,-0.4501002728939056,-0.0785094648599624,0.0014919717796146,0.0,0.0,0.1382894515991211,0.3079380989074707
-0.083558939397335,0.2510668635368347,0.0152183948084712,-0.4408237040042877,-0.0784099772572517,0.0019895881414413,0.0,0.0,-0.3902163505554199,-0.6557105183601379
-0.0834456458687782,0.2406408637762069,0.0100420303642749,-0.4633121192455292,-0.0771339908242225,0.025519797578454,0.0,0.0,0.5342718362808228,0.3765549659729004
-0.0832815170288086,0.230175033211708,0.0149646326899528,-0.46507528424263,-0.0757002830505371,0.0286740213632583,0.0,0.0,0.5349600315093994,0.2885078191757202
-0.0829987525939941,0.219746246933937,0.0263724885880947,-0.4634063839912414,-0.0738161206245422,0.0376834385097026,0.0,0.0,-0.2535377144813537,-0.1927686929702758
-0.0827116966247558,0.2088047564029693,0.0267640799283981,-0.4861911833286285,-0.0718846395611763,0.038629375398159,0.0,0.0,0.6520954370498657,0.2145823240280151
-0.0822526961565017,0.197925716638565,0.0432471297681331,-0.4833879768848419,-0.0692658573389053,0.0523757562041282,0.0,0.0,0.9269065856933594,0.0770248174667358
-0.0817353278398513,0.1878459006547927,0.0490872524678707,-0.4478702843189239,-0.0666402503848075,0.0525118336081504,0.0,0.0,0.6322247982025146,-0.4410567283630371
-0.0811330825090408,0.1783720552921295,0.0573934316635131,-0.420935183763504,-0.0638413950800895,0.0559771880507469,0.0,0.0,-0.1872338652610778,-0.4972636103630066
-0.0805265456438064,0.1683857291936874,0.0578038021922111,-0.4437204599380493,-0.0610164999961853,0.0564977936446666,0.0,0.0,0.3246469497680664,-0.8928565979003906
-0.0798780471086502,0.1582672894001007,0.06010302901268,-0.4495196044445038,-0.0563201531767845,0.0939270034432411,0.0,0.0,0.7405824661254883,0.3673793077468872
-0.0792501419782638,0.1484446823596954,0.0582745596766471,-0.4363982081413269,-0.0518663451075553,0.0890761464834213,0.0,0.0,0.5613219738006592,0.0714493989944458
-0.0784958824515342,0.139324814081192,0.0705392211675643,-0.4051640927791595,-0.0470356419682502,0.0966142565011978,0.0,0.0,0.2868050336837768,-0.2989544868469238
-0.0777346640825271,0.1303580850362777,0.0713205114006996,-0.398377001285553,-0.0422890111804008,0.0949325487017631,0.0,0.0,0.6033811569213867,-0.3539336919784546
-0.0770571678876876,0.1220437362790107,0.0635140612721443,-0.3694165349006653,-0.038108255714178,0.0836151763796806,0.0,0.0,-0.0914192795753479,-0.5207485556602478
-0.0764107704162597,0.1132215559482574,0.0595310516655445,-0.3919738531112671,-0.0330556742846965,0.1010516509413719,0.0,0.0,0.8282420635223389,0.2621546983718872
-0.0757919326424598,0.1051347330212593,0.0570670291781425,-0.3593170046806335,-0.0282994247972965,0.0951249822974205,0.0,0.0,0.6511070728302002,0.4521344900131225
-0.0752305015921592,0.0976611003279686,0.0517448373138904,-0.3320865631103515,-0.0239557400345802,0.0868737623095512,0.0,0.0,-0.0865654945373535,-0.3589321374893188
-0.0746649727225303,0.0896750539541244,0.0521821491420269,-0.3548730015754699,-0.019650213420391,0.0861105695366859,0.0,0.0,0.7866818904876709,0.9520539045333862
-0.0741481781005859,0.082154780626297,0.0495005846023559,-0.3342090845108032,-0.0175011772662401,0.0429809726774692,0.0,0.0,0.5565009117126465,-0.1026573777198791
-0.0737606063485145,0.0748656094074249,0.0372961685061454,-0.323946088552475,-0.0160625521093606,0.0287727359682321,0.0,0.0,0.7240290641784668,0.8718688488006592
-0.073165513575077,0.0681889876723289,0.0596642605960369,-0.2967378497123718,-0.0162142254412174,-0.0030337264761328,0.0,0.0,0.239665150642395,-0.066353440284729
-0.0725161582231521,0.0614138692617416,0.0649446174502372,-0.3011154532432556,-0.0162245966494083,-0.0002073709620162,0.0,0.0,0.3587096929550171,0.2017302513122558
-0.0717336684465408,0.0550642572343349,0.07777801156044,-0.2822005450725555,-0.0157633610069751,0.0092246942222118,0.0,0.0,0.2735450267791748,0.6078498363494873
-0.0709095001220703,0.0491035319864749,0.0832989290356636,-0.264929324388504,-0.0166353099048137,-0.0174388196319341,0.0,0.0,-0.1881056427955627,-0.1077046394348144
-0.0700819045305252,0.0426301807165145,0.0837451890110969,-0.2877143323421478,-0.0176049936562776,-0.0193937011063098,0.0,0.0,0.6670225858688354,0.2376015186309814
-0.0691636055707931,0.0365193225443363,0.09255962818861,-0.2716025412082672,-0.0183250866830348,-0.0144018502905964,0.0,0.0,0.8119707107543945,-0.511929452419281
-0.068274401128292,0.0312452409416437,0.0887600630521774,-0.2344001233577728,-0.0181664954870939,0.0031716518569737,0.0,0.0,0.4486722946166992,0.1993657350540161
-0.067316249012947,0.0264927968382835,0.0955332368612289,-0.2112154364585876,-0.0178859271109104,0.0056112618185579,0.0,0.0,0.0841932296752929,0.0994637012481689
-0.066296674311161,0.0216776225715875,0.1015583053231239,-0.2140055149793625,-0.0174936279654502,0.0078462045639753,0.0,0.0,0.2286189794540405,-0.2443430423736572
-0.0653569251298904,0.017041765153408,0.0941421762108802,-0.2060402184724807,-0.0176636353135108,-0.0034002598840743,0.0,0.0,0.225191593170166,0.4638217687606811
-0.0645027160644531,0.0124682756140828,0.086191788315773,-0.203273206949234,-0.0184241812676191,-0.015210916288197,0.0,0.0,0.5553678274154663,0.5695661306381226
-0.0636127442121505,0.0081772422417998,0.0911364033818245,-0.190741628408432,-0.0205295030027627,-0.0421066731214523,0.0,0.0,0.4401648044586181,0.3133610486984253
-0.0626877769827842,0.0040703155100345,0.0946936830878257,-0.18256276845932,-0.0226973388344049,-0.0433568321168422,0.0,0.0,-0.0029776692390441,0.4915809631347656
-0.0617601387202739,-0.0005491638439707,0.0951366275548935,-0.2053482681512832,-0.0250407457351684,-0.0468679219484329,1.0,0.0,0.9701080322265624,-0.0454710125923156
-0.0606566444039344,-0.0040311361663043,0.1017675623297691,-0.1549074500799179,-0.015646481886506,0.1890539675951004,1.0,0.0,0.9703586101531982,-0.7133406400680542
-0.0596722587943077,-0.0054921531118452,0.0910532176494598,-0.0648948550224304,-0.0083704972639679,0.1455087214708328,1.0,1.0,-0.3692558407783508,-0.9726552963256836
