x_pos,y_pos,x_vel,y_vel,angle,ang_vel,leg_1,leg_2,main_booster,lat_booster
-0.0014983176952227,1.4035212993621826,-0.1516449749469757,-0.3288384079933166,0.001623400603421,0.0320128239691257,0.0,0.0,-0.1685406565666198,0.7889082431793213
-0.0028962134383618,1.3960387706756592,-0.1395462155342102,-0.3325604200363159,0.0013759216526523,-0.0049490807577967,0.0,0.0,-0.3738998174667358,0.6699954271316528
-0.0041891098953783,1.3884477615356443,-0.1272613555192947,-0.3373805582523346,-0.0006287114229053,-0.0400960892438888,0.0,0.0,0.0964500904083252,-0.2756767272949219
-0.0055128098465502,1.3812508583068848,-0.1298107206821441,-0.319862961769104,-0.0031553786247968,-0.050538070499897,0.0,0.0,-0.446103572845459,-0.0855182409286499
-0.0067812921479344,1.3739509582519531,-0.124149739742279,-0.3244552612304687,-0.0058291680179536,-0.0534809157252311,0.0,0.0,-0.0578839778900146,-0.386621356010437
-0.0079878810793161,1.366547703742981,-0.117811419069767,-0.3290422558784485,-0.0086541408672928,-0.05650445073843,0.0,0.0,-0.1586484313011169,0.162702202796936
-0.0091262813657522,1.359041452407837,-0.1108263283967971,-0.3336304426193237,-0.0116339419037103,-0.059601504355669,0.0,0.0,-0.3447098731994629,0.1574139595031738
-0.0101902009919285,1.3514320850372314,-0.1032266989350318,-0.3382189571857452,-0.0147723536938428,-0.0627739205956459,0.0,0.0,-0.0712690949440002,0.1754875183105468
-0.0111740110442042,1.343719720840454,-0.0950458794832229,-0.3428076505661011,-0.018073046579957,-0.0660197287797927,0.0,0.0,-0.789755642414093,-0.4317004084587097
-0.0120721813291311,1.3359043598175049,-0.0863172635436058,-0.3473965227603912,-0.0215395558625459,-0.0693364515900611,0.0,0.0,-0.881247341632843,-0.3357051014900207
-0.0128796575590968,1.3279858827590942,-0.0770743638277053,-0.3519856333732605,-0.025175305083394,-0.0727216452360153,0.0,0.0,-0.7218063473701477,0.3537285327911377
-0.013591575436294,1.3199645280838013,-0.0673502683639526,-0.3565749526023865,-0.0289836041629314,-0.0761727914214134,0.0,0.0,-0.7946826219558716,-0.3149523138999939
-0.0142035484313964,1.311840295791626,-0.0571774020791053,-0.3611645102500915,-0.0329676158726215,-0.0796874314546585,0.0,0.0,-0.865882158279419,-0.3772799968719482
-0.0147114749997854,1.3036130666732788,-0.0465872213244438,-0.3657543063163757,-0.0371303707361221,-0.0832626298069953,0.0,0.0,-0.9074729681015016,-0.7480462789535522
-0.0151564599946141,1.2952930927276611,-0.0412583537399768,-0.3698604702949524,-0.0403367169201374,-0.0641327276825904,0.0,0.0,-0.7281864881515503,-0.4358065128326416
-0.0154899600893259,1.2868701219558716,-0.0299263540655374,-0.3744499981403351,-0.0437281057238578,-0.0678336843848228,0.0,0.0,-0.8317331075668335,-0.8937933444976807
-0.0157628059387207,1.2783581018447876,-0.0250542405992746,-0.3783788084983825,-0.0459358915686607,-0.0441594533622264,0.0,0.0,-0.8843011260032654,-0.5765967965126038
-0.0159528739750385,1.2697404623031616,-0.0174626372754573,-0.3830523490905761,-0.0474603772163391,-0.0304927229881286,0.0,0.0,-0.9696486592292786,-0.2848984003067016
-0.0160223953425884,1.2610197067260742,-0.0052202269434928,-0.3876417875289917,-0.0491772852838039,-0.0343412384390831,0.0,0.0,-0.8854333758354187,-0.5662151575088501
-0.0160195343196392,1.252199411392212,0.0009239064529538,-0.3920347988605499,-0.0498128980398178,-0.0127132711932063,0.0,0.0,-0.9620870351791382,-0.4993911981582641
-0.0158914569765329,1.2432760000228882,0.0136573165655136,-0.3966239690780639,-0.0506458468735218,-0.0166605450212955,0.0,0.0,-0.901374340057373,-0.2612349987030029
-0.0156357772648334,1.2342495918273926,0.0266084130853414,-0.4012130200862884,-0.0516773052513599,-0.0206311661750078,0.0,0.0,-0.66957688331604,-0.8046113848686218
-0.015300559811294,1.2251226902008057,0.033500887453556,-0.4056360423564911,-0.0516542717814445,0.000460599490907,0.0,0.0,-0.8896444439888,-0.8688862919807434
-0.0148950573056936,1.2158877849578855,0.0391841270029544,-0.4103918075561523,-0.0503081642091274,0.0269245449453592,0.0,0.0,-0.9494246244430542,-0.226292073726654
-0.0143568040803074,1.206549882888794,0.0526749603450298,-0.4149810671806335,-0.0491667315363884,0.0228308178484439,0.0,0.0,-0.9336509704589844,-0.346386194229126
-0.0136847496032714,1.197087287902832,0.0662488266825676,-0.4205228686332702,-0.0482306331396102,0.0187219437211751,0.0,0.0,-0.9057211875915528,-0.638161301612854
-0.0129270553588867,1.1875295639038086,0.073757953941822,-0.4247308075428009,-0.0462380945682525,0.0398506000638008,0.0,0.0,-0.8621601462364197,-0.6200030446052551
-0.0120917316526174,1.1778793334960938,0.0802053362131118,-0.428801417350769,-0.0429493896663188,0.0657738968729972,0.0,0.0,-0.4852558970451355,-0.4504011869430542
-0.0111182210966944,1.168126106262207,0.0942324101924896,-0.4333892166614532,-0.0398669019341468,0.0616499856114387,0.0,0.0,-0.9112100601196288,-0.8326123356819153
-0.0100736618041992,1.1582709550857544,0.0998077318072319,-0.4378889203071594,-0.0352768823504447,0.0918004289269447,0.0,0.0,-0.7719383239746094,-0.6626366972923279
-0.0089394571259617,1.1483231782913208,0.1076826453208923,-0.441995620727539,-0.029614720493555,0.1132433265447616,0.0,0.0,-0.6666675209999084,-0.6453791856765747
-0.0077219964005053,1.138271689414978,0.1147584319114685,-0.4466094970703125,-0.0227090548723936,0.138113260269165,0.0,0.0,-0.9055671095848083,-0.5492531061172485
-0.0064119338057935,1.128124713897705,0.1229623407125473,-0.4508770108222961,-0.0147659443318843,0.1588620692491531,0.0,0.0,-0.7285805344581604,0.2588057518005371
-0.0049591064453125,1.117875337600708,0.1374310255050659,-0.4554687142372131,-0.0070272674784064,0.1547737717628479,0.0,0.0,-0.9118857979774476,-0.7092437148094177
-0.0034177780617028,1.1075258255004885,0.1451150029897689,-0.459962248802185,0.0018800941761583,0.1781468540430069,0.0,0.0,-0.8524799942970276,-0.1812047958374023
-0.001732635544613,1.097074270248413,0.159710481762886,-0.4645550549030304,0.0105847837403416,0.1740939319133758,0.0,0.0,-0.631271243095398,-0.4641575217247009
9.71794142969884e-05,1.086520433425903,0.1743609309196472,-0.4691473543643951,0.0190879870206117,0.1700639426708221,0.0,0.0,-0.7275131940841675,-0.6043311357498169
0.0020270347595214,1.075867772102356,0.1834353357553482,-0.4736040830612182,0.028516512364149,0.1885704696178436,0.0,0.0,-0.8463183641433716,-0.5384831428527832
0.0040568350814282,1.0651172399520874,0.1924761235713958,-0.4780397415161133,0.038886684924364,0.2074035704135894,0.0,0.0,-0.8993785381317139,0.1862047910690307
0.0062323571182787,1.054264783859253,0.2072630673646927,-0.4826342463493347,0.0490598864853382,0.2034637928009033,0.0,0.0,-0.9351714849472046,-0.740027904510498
0.0084851263090968,1.0433118343353271,0.2134266197681427,-0.4872342646121979,0.0607704259455204,0.2342107743024826,0.0,0.0,-0.7758805751800537,-0.0138230919837951
0.0108842849731445,1.0322571992874146,0.228284552693367,-0.4918309450149536,0.0722879916429519,0.2303514033555984,0.0,0.0,-0.9285937547683716,-0.4624503850936889
0.0134305004030466,1.0211011171340942,0.2431726902723312,-0.496427059173584,0.0836149454116821,0.2265394032001495,0.0,0.0,-0.8501873016357422,-0.7208084464073181
0.0160763747990131,1.009835720062256,0.2521396279335022,-0.5014208555221558,0.095953568816185,0.246772289276123,0.0,0.0,-0.6978158950805664,-0.7465527057647705
0.0188075061887502,0.9984514117240906,0.2592582404613495,-0.5069153904914856,0.1096986308693885,0.2749011814594269,0.0,0.0,-0.668759822845459,-0.5340722799301147
0.021647835150361,0.9869545102119446,0.2693899571895599,-0.5121137499809265,0.1242478117346763,0.2909837961196899,0.0,0.0,-0.3702864646911621,-0.7584460973739624
0.0245826728641986,0.9753430485725404,0.2776884734630584,-0.5174580216407776,0.1399809867143631,0.3146634697914123,0.0,0.0,-0.3413511514663696,-0.5814267992973328
0.0276107788085937,0.9636264443397522,0.2858445048332214,-0.52242511510849,0.1569149047136306,0.3386780917644501,0.0,0.0,-0.0282838344573974,-0.6372231245040894
0.0307254791259765,0.9518012404441832,0.2931720614433288,-0.5275903940200806,0.1752306967973709,0.3663155734539032,0.0,0.0,0.2371604442596435,-0.8339163661003113
0.0338394157588481,0.9404156804084778,0.2916585803031921,-0.5084758996963501,0.1950379163026809,0.3961446583271026,0.0,0.0,0.1008950471878051,-0.2079535722732544
0.0371213927865028,0.9295193552970886,0.3082610964775085,-0.487027645111084,0.21512471139431,0.4017361998558044,0.0,0.0,0.2839617729187011,0.1557754278182983
0.0403855331242084,0.9193493723869324,0.3069213330745697,-0.4549621641635895,0.2348468154668808,0.3944423198699951,0.0,0.0,0.4508399963378906,-0.4419648051261902
0.043800164014101,0.9096837043762208,0.3217902183532715,-0.4328448176383972,0.2548604905605316,0.4002737402915954,0.0,0.0,0.1413571834564209,-0.4734596014022827
0.0472262389957904,0.9007204174995422,0.3231603801250458,-0.4018732011318207,0.2747372388839721,0.3975356519222259,0.0,0.0,0.3793067932128906,-0.0005437731742858
0.0508097633719444,0.8922967314720154,0.3385911583900451,-0.3782241642475128,0.2950479984283447,0.4062155783176422,0.0,0.0,0.1452835798263549,0.4847605228424072
0.0543829910457134,0.884214460849762,0.3381152153015136,-0.36322882771492,0.3149168491363525,0.3973776400089264,0.0,0.0,0.3128374814987182,0.7175695896148682
0.0580398552119731,0.8770075440406799,0.3480343818664551,-0.3242465555667877,0.3333032727241516,0.3677282035350799,0.0,0.0,0.2318751811981201,0.6221342086791992
0.0618341453373432,0.8704961538314819,0.3630325496196747,-0.2932725548744201,0.3504760563373565,0.3434559106826782,0.0,0.0,0.2470935583114624,0.8589823246002197
0.065685749053955,0.8648364543914795,0.3706045746803283,-0.2551680207252502,0.3658028244972229,0.3065356612205505,0.0,0.0,0.3845027685165405,0.6344494819641113
0.0694299712777137,0.8599923253059387,0.3614225387573242,-0.2186806201934814,0.3795782625675201,0.2755089700222015,0.0,0.0,0.2960901260375976,0.4405362606048584
0.0732523947954177,0.8554737567901611,0.3692426681518554,-0.2043439298868179,0.3934360146522522,0.2771551012992859,0.0,0.0,0.4460490942001343,0.4170346260070801
0.0769070610404014,0.8516538739204407,0.3529993891716003,-0.1732776015996933,0.4067908525466919,0.2670967280864715,0.0,0.0,0.6852281093597412,0.7168905735015869
0.0806798934936523,0.8485724329948425,0.3660944104194641,-0.1402164846658706,0.418851226568222,0.2412075996398925,0.0,0.0,0.7484784126281738,0.3025789260864258
0.0843603163957595,0.8462933301925659,0.3568718433380127,-0.104658119380474,0.4309430122375488,0.241835355758667,0.0,0.0,0.8974997997283936,0.834051251411438
0.0880668610334396,0.8445808291435242,0.3611914813518524,-0.0790381878614425,0.4412495493888855,0.2061306685209274,0.0,0.0,0.882836103439331,-0.3697966337203979
0.0915066748857498,0.8435894846916199,0.335217148065567,-0.0468552224338054,0.4508322477340698,0.1916538178920745,0.0,0.0,0.973423719406128,0.8225681781768799
0.0947296172380447,0.8439444303512573,0.3151516318321228,0.0134493401274085,0.4586755037307739,0.1568653881549835,0.0,0.0,0.9915435314178468,0.7376289367675781
0.0980948433279991,0.8447719812393188,0.3306305110454559,0.0348257645964622,0.4651766121387481,0.1300220936536789,0.0,0.0,0.9951989650726318,0.6016428470611572
0.1012166962027549,0.8469399213790894,0.3074181675910949,0.0947430431842804,0.4704482555389404,0.1054326891899108,0.0,0.0,0.990325093269348,0.3141088485717773
0.1041268333792686,0.8496899008750916,0.2867787480354309,0.1207785904407501,0.4751473367214203,0.0939819142222404,0.0,0.0,0.9846491813659668,0.4408600330352783
0.106714442372322,0.853346049785614,0.2550275027751922,0.1612064242362976,0.4792932868003845,0.0829189345240593,0.0,0.0,0.968482494354248,0.717260479927063
0.1091917976737022,0.8579531311988831,0.245314747095108,0.2039176523685455,0.4819852709770202,0.0538394041359424,0.0,0.0,0.9141502380371094,0.9435924291610718
0.1112783402204513,0.8637030720710754,0.2082971781492233,0.2554329037666321,0.4823790490627289,0.0078756567090749,0.0,0.0,0.5237200260162354,0.963471293449402
0.1133993119001388,0.8701633810997009,0.2135232388973236,0.2876248955726623,0.4807853996753692,-0.0318732634186744,0.0,0.0,-0.2455471754074096,0.8710823059082031
0.1157256141304969,0.8765590786933899,0.2356196194887161,0.2852921783924103,0.4774494171142578,-0.0667192935943603,0.0,0.0,0.1842141151428222,0.4435603618621826
0.1181336417794227,0.8831956386566162,0.2436261922121048,0.2959257066249847,0.4743181467056274,-0.0626253858208656,0.0,0.0,0.2809176445007324,0.608501672744751
0.12058687210083,0.8900889754295349,0.2493438422679901,0.3077414929866791,0.4698555171489715,-0.0892521515488624,0.0,0.0,0.0242305994033813,0.5563702583312988
0.1229938492178917,0.8975672721862793,0.2458225786685943,0.3340816795825958,0.4641976654529571,-0.1131568551063537,0.0,0.0,-0.8065937161445618,0.4114261865615845
0.1255447417497635,0.9049425721168518,0.2602246403694153,0.3294935226440429,0.4585293531417846,-0.1133663058280944,0.0,0.0,-0.2544064521789551,0.4431067705154419
0.1282385885715484,0.9122148752212524,0.2745536863803863,0.3249052464962005,0.4528535902500152,-0.1135150641202926,0.0,0.0,-0.4563971757888794,0.6465778350830078
0.1311124861240387,0.9194047451019288,0.2935354709625244,0.321522057056427,0.4461221396923065,-0.1346291154623031,0.0,0.0,-0.3054263591766357,0.3162931203842163
0.1341279000043869,0.9264917969703674,0.3076995015144348,0.3169325590133667,0.4393888413906097,-0.1346661150455474,0.0,0.0,0.5079545974731445,0.306387186050415
0.1369767189025879,0.9341304302215576,0.2914486825466156,0.3415361642837524,0.4322284758090973,-0.1432073563337326,0.0,0.0,-0.7922853231430054,0.428324818611145
0.1399648636579513,0.941666543483734,0.305417537689209,0.3369459807872772,0.4250712990760803,-0.1431437134742736,0.0,0.0,0.3623530864715576,0.3140614032745361
0.1428446769714355,0.9498819708824158,0.294642299413681,0.3671181499958038,0.4178740382194519,-0.1439453065395355,0.0,0.0,-0.188652753829956,0.6308083534240723
0.1459136009216308,0.958029568195343,0.3149388432502746,0.3644746243953705,0.4091857671737671,-0.1737651526927948,0.0,0.0,-0.5664534568786621,0.3144025802612304
0.149118423461914,0.96607506275177,0.3285488486289978,0.3598823249340057,0.4005075097084045,-0.1735654175281524,0.0,0.0,-0.3343458175659179,0.2095639705657959
0.1524577140808105,0.9740182757377625,0.3420181274414062,0.3552899360656738,0.391841322183609,-0.1733236014842987,0.0,0.0,-0.199930191040039,0.4121226072311401
0.1559300422668457,0.98185932636261,0.3553350865840912,0.3506975471973419,0.3831892907619476,-0.1730403006076812,0.0,0.0,-0.1586894392967224,0.1472643613815307
0.1595336943864822,0.9895980954170228,0.3684872984886169,0.3461050689220428,0.3745535016059875,-0.1727159172296524,0.0,0.0,0.1064885854721069,0.3341660499572754
0.1630794554948806,0.9979352355003356,0.3627183437347412,0.372642308473587,0.3659184277057647,-0.1727017611265182,0.0,0.0,0.0906524658203125,0.287106990814209
0.1665928810834884,1.0068821907043457,0.3594024777412414,0.3996880650520324,0.3573981523513794,-0.1704057157039642,0.0,0.0,0.2238314151763916,0.5692762136459351
0.1701954901218414,1.016500473022461,0.3692758679389953,0.4296889305114746,0.3479140102863312,-0.1896829903125763,0.0,0.0,-0.3156442642211914,0.3619773387908935
0.1739215850830078,1.0260167121887207,0.3816279172897339,0.4250949919223785,0.3384543657302856,-0.1891928017139434,0.0,0.0,0.2265888452529907,0.3371437788009643
0.177606388926506,1.0359466075897217,0.3776803910732269,0.4434531033039093,0.3288409411907196,-0.1922687590122223,0.0,0.0,0.3728623390197754,0.5027425289154053
0.1812860518693924,1.046854019165039,0.3779913485050201,0.487017273902893,0.3184032738208771,-0.2087538540363311,0.0,0.0,0.1995649337768554,0.3665027618408203
0.1849359571933746,1.0582404136657717,0.3751015663146972,0.5082492232322693,0.3079183995723724,-0.2096977531909942,0.0,0.0,0.2255799770355224,0.3603885173797607
0.1884319335222244,1.070326805114746,0.3601149320602417,0.5393670797348022,0.2970399856567383,-0.2175683081150055,0.0,0.0,-0.703681468963623,0.4809904098510742
0.1920375823974609,1.0823116302490234,0.3710797429084778,0.534770667552948,0.2861974835395813,-0.2168507277965545,0.0,0.0,-0.3798657059669494,0.5249141454696655
0.1957848519086837,1.0942145586013794,0.3861939013004303,0.5312305688858032,0.2744185030460357,-0.2355797290802002,0.0,0.0,-0.4915597438812256,0.3917732238769531
0.1996347457170486,1.1060163974761963,0.3964620530605316,0.5266323685646057,0.2626805901527405,-0.2347584664821624,0.0,0.0,0.1439325809478759,0.2411098480224609
0.2034775763750076,1.1182096004486084,0.3958111405372619,0.5439479351043701,0.2509068548679352,-0.2354752272367477,0.0,0.0,-0.1755003929138183,0.4374334812164306
0.2074151933193206,1.130301594734192,0.4052936136722564,0.5393495559692383,0.2391798049211502,-0.2345412224531173,0.0,0.0,-0.4406313896179199,0.0947755575180053
0.211443617939949,1.1422922611236572,0.4143493771553039,0.534751296043396,0.2275024652481079,-0.2335468083620071,0.0,0.0,0.329351544380188,0.7589294910430908
0.2155788391828537,1.1550838947296145,0.4263998568058014,0.5704566836357117,0.2144700586795807,-0.2606480717658996,0.0,0.0,-0.4461849927902221,-0.1203482151031494
0.2197955101728439,1.1677749156951904,0.4345356822013855,0.5658556818962097,0.2014938443899154,-0.2595241665840149,0.0,0.0,-0.8916871547698975,-0.1085191965103149
0.2240889519453048,1.180364966392517,0.4421780109405517,0.5612546801567078,0.1885772496461868,-0.258331835269928,0.0,0.0,-0.3460862040519714,-0.0389617085456848
0.2284539192914962,1.1928541660308838,0.4493058323860168,0.5566537976264954,0.1757238507270813,-0.2570684552192688,0.0,0.0,-0.5493193864822388,0.5741753578186035
0.2329396307468414,1.2052639722824097,0.4627671241760254,0.553166925907135,0.1615093201398849,-0.2842905521392822,0.0,0.0,-0.4919476509094238,0.2811510562896728
0.2374861687421798,1.2175735235214231,0.4688075184822082,0.5485630631446838,0.1473655104637146,-0.2828764021396637,0.0,0.0,-0.5042287707328796,-0.417853832244873
0.2420878410339355,1.2297825813293457,0.4742769598960876,0.5439594388008118,0.1332963109016418,-0.2813839912414551,0.0,0.0,-0.6157414317131042,-0.7939661145210266
0.2466822564601898,1.2418864965438845,0.47207111120224,0.5390357375144958,0.120728775858879,-0.2513507008552551,0.0,0.0,-0.4852045774459839,-0.6096118092536926
0.2512789666652679,1.2538789510726929,0.4711719453334808,0.5338804125785828,0.1092993095517158,-0.2285894155502319,0.0,0.0,-0.731906533241272,-0.7718148231506348
0.255840003490448,1.2657588720321655,0.4656666815280914,0.5286703705787659,0.099808469414711,-0.1898167729377746,0.0,0.0,-0.1000944972038269,0.0601594448089599
0.2604323327541351,1.2775371074676514,0.4687157571315765,0.5240759253501892,0.0904086902737617,-0.1879957616329193,0.0,0.0,-0.735938549041748,0.1399295330047607
0.2650497555732727,1.2892132997512815,0.4711375832557678,0.5194816589355469,0.0811042264103889,-0.186089277267456,0.0,0.0,-0.3122414350509643,-0.1442373394966125
0.2696860432624817,1.3007875680923462,0.4729281365871429,0.5148875713348389,0.071899376809597,-0.184097021818161,0.0,0.0,-0.5442613363265991,0.1375923156738281
0.2743349969387054,1.3122597932815552,0.4740858972072601,0.51029372215271,0.0627984181046485,-0.1820191144943237,0.0,0.0,-0.6854017376899719,0.0086902379989624
0.2789901793003082,1.3236300945281982,0.4746120572090149,0.5056999921798706,0.0538056194782257,-0.1798560172319412,0.0,0.0,-0.6227818131446838,-0.0632615089416503
0.2836454510688782,1.3348983526229858,0.4745102524757385,0.5011065602302551,0.0449251718819141,-0.1776086539030075,0.0,0.0,-0.7558030486106873,-0.6641415953636169
0.2882478833198547,1.3460538387298584,0.4679171144962311,0.4960086643695831,0.0373441278934478,-0.1516208052635193,0.0,0.0,-0.7675540447235107,-0.5686110258102417
0.2928005158901214,1.3571054935455322,0.4618553221225738,0.4913418591022491,0.0308303330093622,-0.1302759945392608,0.0,0.0,-0.718856930732727,-0.6759888529777527
