x_pos,y_pos,x_vel,y_vel,angle,ang_vel,leg_1,leg_2,main_booster,lat_booster
-0.0015052795642986,1.4035003185272217,-0.1528728306293487,-0.329771339893341,0.0021038923878222,0.0415265709161758,0.0,0.0,0.644312628036366,-0.5702113614566309
-0.0029839514754712,1.396665334701538,-0.151579350233078,-0.3037823736667633,0.0057732728309929,0.0733954310417175,0.0,0.0,-0.9883360301475476,0.4767429421477813
-0.0044473647139966,1.3897058963775637,-0.1503841131925583,-0.309332937002182,0.0097750835120677,0.0800436735153198,0.0,0.0,0.311386804324508,0.4709786293190806
-0.0059953690506517,1.3832159042358398,-0.1587234884500503,-0.2884765267372131,0.0136528154835104,0.0775618702173233,0.0,0.0,0.3628558006728408,-0.2865922201811165
-0.0074319839477539,1.377410888671875,-0.1484274119138717,-0.2580530941486358,0.0183645710349082,0.0942437499761581,0.0,0.0,-0.1852946933308636,-0.9053094243051256
-0.0089127542451024,1.3714791536331177,-0.154563158750534,-0.263722687959671,0.0247791465371847,0.1283033490180969,0.0,0.0,-0.9716501875828152,-0.1133847369561734
-0.0103840827941894,1.3654240369796753,-0.1539331972599029,-0.2692438066005707,0.0315059088170528,0.1345476657152176,0.0,0.0,-0.1259648361192218,-0.4743968407789567
-0.0118472101166844,1.3592456579208374,-0.1534283608198166,-0.274768054485321,0.0385391265153884,0.1406773328781128,0.0,0.0,-0.7297839597529363,0.6845962388013135
-0.0132509227842092,1.3529540300369265,-0.1464391052722931,-0.2797931432723999,0.0445411242544651,0.1200511679053306,0.0,0.0,0.587140776021075,-0.0228683511096021
-0.0146808624267578,1.34758460521698,-0.1493412107229232,-0.238845407962799,0.0508317872881889,0.1258247047662735,0.0,0.0,-0.4756276702837825,0.545807584714209
-0.016057014465332,1.3420953750610352,-0.1430143564939499,-0.2441531717777252,0.0561687126755714,0.1067484468221664,0.0,0.0,-0.1317686028633218,-0.7175990569720578
-0.0174796096980571,1.336477279663086,-0.1491902619600296,-0.2499741017818451,0.0630378797650337,0.1373957842588424,0.0,0.0,0.3196425936766225,0.6187549661784806
-0.018772030249238,1.3315906524658203,-0.1354273855686187,-0.2174578309059143,0.0691691637039184,0.1226367950439453,0.0,0.0,-0.5021194765355204,-0.9537820980045
-0.0201290138065814,1.3265645503997805,-0.1438299864530563,-0.2237696051597595,0.0772349461913108,0.161330372095108,0.0,0.0,0.7189202622713045,-0.4584592671569694
-0.0214052200317382,1.3227152824401855,-0.1367009580135345,-0.1715647429227829,0.0862347930669784,0.1800135374069214,0.0,0.0,-0.2379623480869701,0.3181185326620844
-0.0226818080991506,1.3187429904937744,-0.1369662880897522,-0.1771050542593002,0.0954660177230835,0.1846416145563125,0.0,0.0,-0.3740435642751283,0.2092457547799884
-0.023959731683135,1.314648151397705,-0.1372985541820526,-0.1826312392950058,0.1049165353178978,0.1890275925397873,0.0,0.0,-0.011329450671512,0.7082423711124135
-0.0251703262329101,1.3104350566864014,-0.1290204674005508,-0.1878232210874557,0.1128318458795547,0.1583200395107269,0.0,0.0,-0.0058199254799149,-0.4293363200188975
-0.0263834949582815,1.3060989379882812,-0.1294568181037902,-0.1933526545763015,0.1209394633769989,0.1621670871973037,0.0,0.0,-0.4543387421550224,0.818340861732869
-0.0275441166013479,1.3016490936279297,-0.1229596734046936,-0.1983350217342376,0.1278103590011596,0.1374307572841644,0.0,0.0,0.7976429008780657,-0.4759869525670456
-0.0286748893558979,1.2983198165893557,-0.1207795366644859,-0.1486435681581497,0.1354903876781463,0.1536143720149994,0.0,0.0,0.7266918389179413,-0.2102216249809545
-0.0298600196838378,1.295556902885437,-0.126412883400917,-0.1235309615731239,0.1433708369731903,0.1576234400272369,0.0,0.0,0.3084837706845125,-0.7896427986051008
-0.0310578346252441,1.2933216094970703,-0.129516988992691,-0.1003087237477302,0.1530948877334594,0.1944979131221771,0.0,0.0,-0.4636222160678465,-0.8941005376710524
-0.0323214530944824,1.2909395694732666,-0.1377578675746917,-0.1070786193013191,0.16451296210289,0.2283818274736404,0.0,0.0,0.2203109823796714,0.7394809583146047
-0.0337277427315712,1.289125680923462,-0.150495707988739,-0.0817385464906692,0.1744015514850616,0.1977897584438324,0.0,0.0,0.6562389468893506,0.3318804433289939
-0.0354032516479492,1.2881726026535034,-0.1768056899309158,-0.0434832125902175,0.1836868375539779,0.1857055872678756,0.0,0.0,0.4002610119064842,-0.8913580959118265
-0.0372628197073936,1.2879918813705444,-0.197028249502182,-0.0094444444403052,0.1948129087686538,0.2225212752819061,0.0,0.0,0.8433722275658524,-0.1474504941091293
-0.0394491180777549,1.28900146484375,-0.2290383875370025,0.0434590801596641,0.2052970677614212,0.2096835076808929,0.0,0.0,0.2610011674987993,0.970443007473852
-0.0418010726571083,1.290751814842224,-0.2436335980892181,0.0766021460294723,0.2137986868619918,0.1700324714183807,0.0,0.0,0.7703278197657497,0.6861516828014369
-0.0442398078739643,1.293151617050171,-0.2508588433265686,0.1056296154856681,0.2208573818206787,0.1411741375923156,0.0,0.0,0.3241863917947598,-0.7299279570324047
-0.0468733794987201,1.2964158058166504,-0.2717789709568023,0.1437865793704986,0.229374423623085,0.1703412383794784,0.0,0.0,-0.9037774801254272,0.9040184020996094
-0.049450684338808,1.2995723485946655,-0.2645237147808075,0.1392191797494888,0.2362594902515411,0.1377017796039581,0.0,0.0,-0.9509022831916808,0.9069806337356568
-0.0519741997122764,1.3026349544525146,-0.2574925720691681,0.1352787464857101,0.24148890376091,0.1045883148908615,0.0,0.0,-0.9495429396629332,0.8867299556732178
-0.0544399246573448,1.305587887763977,-0.250062346458435,0.130666896700859,0.2450346499681472,0.0709152966737747,0.0,0.0,-0.9844566583633424,0.4032135009765625
-0.0569096580147743,1.308416485786438,-0.2503506541252136,0.125148743391037,0.2484706789255142,0.0687206238508224,0.0,0.0,-0.9884359836578368,0.5786871910095215
-0.059338092803955,1.3111419677734375,-0.2449064701795578,0.120788961648941,0.2505693137645721,0.0419727489352226,0.0,0.0,-0.9857544302940368,0.3257726430892944
-0.0617695823311805,1.3137431144714355,-0.2450636178255081,0.1152723059058189,0.2525199055671692,0.0390121079981327,0.0,0.0,-0.9622092247009276,0.3934948444366455
-0.0642035454511642,0.0,-0.2451465427875518,0.109756126999855,0.2543041706085205,0.035685446113348,0.0,0.0,-0.9883118271827698,0.6119940280914307
-0.0665968880057334,1.3185945749282837,-0.2397634536027908,0.1054860278964042,0.254741907119751,0.0087547292932868,0.0,0.0,-0.9937297701835632,0.3990137577056885
-0.0689913779497146,1.3208447694778442,-0.2396818399429321,0.0999708920717239,0.2549787163734436,0.0047359326854348,0.0,0.0,-0.9928324818611144,0.5623624324798584
-0.0713517218828201,1.322988510131836,-0.2351417988538742,0.0954328998923301,0.2540586292743683,-0.0184016488492488,0.0,0.0,-0.996976375579834,0.5653153657913208
-0.0736595168709755,0.0,-0.2283041924238205,0.0909971967339515,0.2515298426151275,-0.0505755320191383,0.0,0.0,-0.9978628158569336,0.5345851182937622
-0.0759177207946777,1.3269518613815308,-0.2218668907880783,0.0862512364983558,0.2475041300058365,-0.0805138200521469,0.0,0.0,-0.998908281326294,0.1160526275634765
-0.0781737342476844,1.3287526369094849,-0.2213955670595169,0.0807359218597412,0.2432172745466232,-0.0857373774051666,0.0,0.0,-0.996613621711731,0.6167012453079224
-0.0803815871477127,1.3304380178451538,-0.2151544839143753,0.0758222043514251,0.237501174211502,-0.1143220067024231,0.0,0.0,-0.9873605370521544,-0.4706109762191772
-0.082585334777832,1.331998586654663,-0.2144613713026046,0.0703058391809463,0.231498435139656,-0.1200549229979515,0.0,0.0,-0.99369615316391,-0.1110944747924804
-0.0847840309143066,1.3334347009658811,-0.2136516571044922,0.064789280295372,0.225197434425354,-0.1260199695825576,0.0,0.0,-0.9940365552902222,-0.3739573955535888
-0.0869765281677246,1.3347461223602295,-0.2127217501401901,0.0592724718153476,0.2185872942209243,-0.1322026550769806,0.0,0.0,-0.993943214416504,0.2936596870422363
-0.0891617760062217,1.3359332084655762,-0.2116683274507522,0.0537553466856479,0.2116578370332718,-0.1385890990495681,0.0,0.0,-0.9778730273246764,-0.4495414495468139
-0.0913386344909668,1.3369958400726318,-0.2104883193969726,0.0482378490269184,0.2043995261192321,-0.1451659798622131,0.0,0.0,-0.9899979829788208,-0.3549611568450928
-0.093505859375,1.337933897972107,-0.2091788798570633,0.0427199155092239,0.1968034952878952,-0.151920661330223,0.0,0.0,-0.9905975461006165,0.1475418806076049
-0.0956622138619422,1.3387478590011597,-0.2077375203371048,0.0372014865279197,0.1888614445924759,-0.1588411480188369,0.0,0.0,-0.9960813522338868,0.156315803527832
-0.0978064537048339,1.339437484741211,-0.2061620056629181,0.0316825099289417,0.1805656254291534,-0.1659162044525146,0.0,0.0,-0.9945343136787416,-0.4946067929267883
-0.099937155842781,1.3400031328201294,-0.2044503986835479,0.0261629167944192,0.1719088554382324,-0.1731352657079696,0.0,0.0,-0.9962683320045472,-0.3488819599151611
-0.1020532622933387,1.340444803237915,-0.2026010751724243,0.0206426493823528,0.1628844290971756,-0.1804884076118469,0.0,0.0,-0.8772770166397095,-0.6107104420661926
-0.1042082756757736,1.34074604511261,-0.2075177878141403,0.0142425624653697,0.1549045443534851,-0.1595974862575531,0.0,0.0,-0.9920717477798462,-0.4468590021133423
-0.1063459366559982,1.3409230709075928,-0.2053898125886917,0.0087228482589125,0.1465449333190918,-0.167192205786705,0.0,0.0,-0.96025550365448,0.0023756027221679
-0.108464814722538,1.3409764766693115,-0.2031209915876388,0.0032024169340729,0.1378001719713211,-0.1748952567577362,0.0,0.0,-0.9829502701759338,-0.34062260389328
-0.1105636581778526,1.340905785560608,-0.2007109224796295,-0.002318789018318,0.1286652237176895,-0.1826992183923721,0.0,0.0,-0.9752535820007324,-0.631824254989624
-0.1126973181962966,1.3407059907913208,-0.205215573310852,-0.0082023339346051,0.1205542236566543,-0.1622198671102523,0.0,0.0,-0.978840947151184,-0.0907780528068542
-0.1148080825805664,1.3403822183609009,-0.2025233954191208,-0.0137231349945068,0.1120439171791076,-0.1702060103416443,0.0,0.0,-0.9398370981216432,0.529097318649292
-0.1168602928519249,1.339943528175354,-0.1953588426113128,-0.0187968946993351,0.102249227464199,-0.1958936750888824,0.0,0.0,-0.7701733112335205,-0.3763397932052612
-0.1188870444893837,1.339381217956543,-0.1923857778310775,-0.0243207551538944,0.0920473337173461,-0.2040377110242843,0.0,0.0,-0.9112235903739928,-0.5074838399887085
-0.1209253296256065,1.338690996170044,-0.194099947810173,-0.0301089901477098,0.0824062228202819,-0.1928222179412841,0.0,0.0,-0.9569600224494934,-0.3505811691284179
-0.1229353919625282,1.33787739276886,-0.1908508092164993,-0.0356332473456859,0.0723509937524795,-0.2011045217514038,0.0,0.0,-0.8145173788070679,-0.3984391689300537
-0.1249158829450607,1.3369405269622805,-0.1874657869338989,-0.0411585122346878,0.0618785358965396,-0.2094490975141525,0.0,0.0,-0.9003098607063293,-0.6648248434066772
-0.1269164979457855,1.3358837366104126,-0.1903322637081146,-0.0466033890843391,0.0522603318095207,-0.1923640668392181,0.0,0.0,-0.941853165626526,0.0875200033187866
-0.128884881734848,1.33470356464386,-0.1866816729307174,-0.0521286353468894,0.0422192402184009,-0.2008217275142669,0.0,0.0,-0.9851149320602416,-0.3430284261703491
-0.1308199912309646,0.0,-0.1829016208648681,-0.057654932141304,0.0317527279257774,-0.2093302756547927,0.0,0.0,-0.8294348120689392,-0.223912239074707
-0.1327201873064041,1.3319745063781738,-0.1789947748184204,-0.0631823241710662,0.0208584256470203,-0.2178863584995269,0.0,0.0,-0.9506787657737732,-0.7106248140335083
-0.1346493661403656,1.330426573753357,-0.1830982416868209,-0.0686921700835228,0.011162563227117,-0.1939170509576797,0.0,0.0,-0.991733193397522,-0.5257796049118042
-0.1365809440612793,1.3287558555603027,-0.1839009821414947,-0.0742119625210762,0.0020266524516046,-0.182718276977539,0.0,0.0,-0.9941368699073792,-0.8629878759384155
-0.1385571509599685,1.3269712924957275,-0.1900348365306854,-0.0793231651186943,-0.0054603358730673,-0.1497395932674408,0.0,0.0,-0.9840553998947144,-0.73924320936203
-0.14054536819458,1.3250635862350464,-0.19209586083889,-0.0848240107297897,-0.0120926322415471,-0.1326461732387542,0.0,0.0,-0.993971347808838,-0.680075466632843
-0.1425499022006988,1.3230279684066772,-0.1947364062070846,-0.0905261263251304,-0.0177347138524055,-0.112841710448265,0.0,0.0,-0.9990031719207764,-0.7261788249015808
-0.1445639580488205,1.3208625316619873,-0.1965398639440536,-0.0963145568966865,-0.0225354619324207,-0.0960151329636573,0.0,0.0,-0.997031271457672,-0.6502828001976013
-0.1465896666049957,1.3185683488845823,-0.198639839887619,-0.1020228639245033,-0.0264163222163915,-0.077617347240448,0.0,0.0,-0.9998364448547364,-0.5868062973022461
-0.1486187875270843,1.316157579421997,-0.1997333467006683,-0.1072048097848892,-0.0295555014163255,-0.0627834796905517,0.0,0.0,-0.9957380294799804,-0.1675243973731994
-0.1506034880876541,1.3136229515075684,-0.1948361694812774,-0.1127260848879814,-0.033138021826744,-0.0716504976153373,0.0,0.0,-0.992556929588318,-0.224266767501831
-0.1525426805019378,1.3109644651412964,-0.1898487508296966,-0.1182477474212646,-0.0371650718152523,-0.0805409476161003,0.0,0.0,-0.9818840026855468,-0.2984298467636108
-0.1544357240200042,1.3081824779510498,-0.1847756057977676,-0.1237698495388031,-0.0416377149522304,-0.0894529223442077,0.0,0.0,-0.9979149103164672,-0.2555428743362427
-0.1562817543745041,1.30527663230896,-0.1796213090419769,-0.1292924284934997,-0.0465569421648979,-0.098384603857994,0.0,0.0,-0.9990736842155457,-0.1135915517807006
-0.158079907298088,1.3022472858428955,-0.1743905991315841,-0.1348155289888382,-0.0519236624240875,-0.1073342785239219,0.0,0.0,-0.9990715384483336,-0.2645522356033325
-0.1598296165466308,1.299094557762146,-0.169088214635849,-0.1403392702341079,-0.0577386692166328,-0.1163001284003257,0.0,0.0,-0.9992141723632812,0.0057919025421142
-0.1615301072597503,1.295818328857422,-0.1637190878391266,-0.1458636224269867,-0.0640027076005935,-0.1252804845571518,0.0,0.0,-0.9920179843902588,-0.4875551462173462
-0.1631809175014495,1.2924190759658811,-0.1582881808280944,-0.1513886749744415,-0.070716381072998,-0.1342736184597015,0.0,0.0,-0.9973384141921996,-0.0997582077980041
-0.1647812873125076,1.288896560668945,-0.1528005748987198,-0.156914472579956,-0.077880285680294,-0.1432779282331466,0.0,0.0,-0.9996128082275392,-0.014246642589569
-0.1663307249546051,1.2852510213851929,-0.1472614109516143,-0.162441074848175,-0.0854948759078979,-0.1522917002439499,0.0,0.0,-0.9974491000175476,-0.2569142580032348
-0.1678288429975509,1.2814826965332031,-0.1416759341955185,-0.1679685264825821,-0.0935605242848396,-0.1613133251667022,0.0,0.0,-0.981863260269165,-0.617460310459137
-0.1693129539489746,1.2775919437408447,-0.1407701224088668,-0.1734130531549453,-0.1011334061622619,-0.1514576524496078,0.0,0.0,-0.9866216778755188,-0.5432664752006531
-0.1707877218723297,1.2735888957977295,-0.1404988467693328,-0.1783996075391769,-0.1080631092190742,-0.1385939866304397,0.0,0.0,-0.9713532328605652,-0.532598614692688
-0.1722495108842849,1.269473671913147,-0.1397648900747299,-0.1833878010511398,-0.1144353002309799,-0.1274438798427581,0.0,0.0,-0.9921744465827942,-0.309135377407074
-0.1736586540937423,1.265235185623169,-0.1340472400188446,-0.1889148652553558,-0.1212593540549278,-0.13648122549057,0.0,0.0,-0.9283431768417358,-0.5663920044898987
-0.1750524491071701,1.2608747482299805,-0.1330063045024871,-0.1943280398845672,-0.1275966018438339,-0.1267445385456085,0.0,0.0,-0.9584945440292358,-0.4829010963439941
-0.1763932257890701,1.2563912868499756,-0.1272559314966201,-0.199855551123619,-0.1343855708837509,-0.1357798278331756,0.0,0.0,-0.8903366923332214,-0.5719168186187744
-0.1777187287807464,1.2517999410629272,-0.126274287700653,-0.2046466916799545,-0.1406408101320266,-0.1251051723957061,0.0,0.0,-0.9815516471862792,-0.5457066893577576
-0.1790354698896408,1.247094750404358,-0.1260894834995269,-0.2096569985151291,-0.1462145000696182,-0.1114734634757042,0.0,0.0,-0.8989962935447693,-0.3238023519515991
-0.1802991926670074,1.2422666549682615,-0.1203333958983421,-0.2151844650506973,-0.1522391438484192,-0.12049300968647,0.0,0.0,-0.9348754286766052,-0.3904833197593689
-0.1815097779035568,1.2373158931732178,-0.1145875453948974,-0.2207125872373581,-0.1587143242359161,-0.1295035779476165,0.0,0.0,-0.95299232006073,-0.6629974842071533
-0.1827235221862793,1.2322604656219482,-0.115887239575386,-0.225275307893753,-0.1641917377710342,-0.1095481663942337,0.0,0.0,-0.9284517168998718,-0.4534351229667663
-0.1838844269514084,1.2270824909210205,-0.1101802140474319,-0.230803295969963,-0.1701184958219528,-0.1185351461172103,0.0,0.0,-0.9195619225502014,-0.2376231551170349
-0.1849930733442306,1.2217817306518557,-0.1045023202896118,-0.2363319396972656,-0.1764938533306121,-0.1275072246789932,0.0,0.0,-0.9317843317985536,-0.305385947227478
-0.1860497444868087,1.2163584232330322,-0.0988601595163345,-0.2418612390756607,-0.1833169758319854,-0.1364621222019195,0.0,0.0,-0.9220849871635436,-0.5012314915657043
-0.1871034651994705,1.210824966430664,-0.0993916913866996,-0.2466844767332077,-0.1893308758735656,-0.1202780976891517,0.0,0.0,-0.8750056028366089,-0.6736707091331482
-0.1881486922502517,1.205185055732727,-0.0992063209414482,-0.2513481378555298,-0.1946735084056854,-0.10685296356678,0.0,0.0,-0.6430424451828003,-0.1929309368133545
-0.1891432702541351,1.1994225978851318,-0.0937113538384437,-0.256877064704895,-0.2004606574773788,-0.115742802619934,0.0,0.0,-0.8689422607421875,-0.4197604060173034
-0.1900878846645355,1.193537712097168,-0.0882797166705131,-0.2624065577983856,-0.2066909372806549,-0.1246057301759719,0.0,0.0,-0.9218704104423524,-0.6083229780197144
-0.1910312622785568,1.18755042552948,-0.0889878720045089,-0.2668585479259491,-0.2120896279811859,-0.1079737767577171,0.0,0.0,-0.7308026552200317,-0.1136638522148132
-0.1919260919094085,1.1814405918121338,-0.0837046578526496,-0.2723880410194397,-0.2179283499717712,-0.1167745813727378,0.0,0.0,-0.6727187037467957,-0.6515734791755676
-0.1928171217441558,1.175222873687744,-0.0840244740247726,-0.2771010398864746,-0.2230597883462906,-0.1026290282607078,0.0,0.0,-0.8927927613258362,-0.5757673978805542
-0.1937052756547927,1.1689035892486572,-0.0844797044992446,-0.2815271914005279,-0.227449432015419,-0.08779276907444,0.0,0.0,-0.6859273314476013,-0.5546600818634033
-0.1945851296186447,1.1624794006347656,-0.0842304974794387,-0.2861000895500183,-0.2312642186880111,-0.076295293867588,0.0,0.0,-0.4876470565795898,-0.5666916966438293
-0.1954585015773773,1.1559432744979858,-0.0841259956359863,-0.2910061776638031,-0.2345234751701355,-0.0651852563023567,0.0,0.0,-0.29287850856781,-0.8522098660469055
-0.1963668763637542,1.1493138074874878,-0.0892336517572403,-0.2948940396308899,-0.2361429631710052,-0.0323896296322345,0.0,0.0,-0.4508442878723144,-0.7606955170631409
-0.1973039656877517,1.1425851583480835,-0.0935278683900833,-0.2990787625312805,-0.2363290637731552,-0.0037221149541437,0.0,0.0,0.3983813524246216,-0.8141354918479919
-0.198170855641365,1.1364588737487793,-0.0876805931329727,-0.2721231579780578,-0.2353224754333496,0.0201313234865665,0.0,0.0,0.201055645942688,-0.7567177414894104
-0.1989451348781585,1.130787372589111,-0.0795339941978454,-0.2517322599887848,-0.2331897020339965,0.0426555052399635,0.0,0.0,-0.0801894068717956,-0.8065143823623657
-0.1997311562299728,1.1250030994415283,-0.0815345495939254,-0.2566121816635132,-0.2302062213420868,0.0596695356070995,0.0,0.0,0.1242554187774658,-0.6557316184043884
-0.2003515660762787,1.119770646095276,-0.065978355705738,-0.2319436073303222,-0.226218968629837,0.0797449648380279,0.0,0.0,-0.1188263297080993,-0.7507064342498779
-0.2009913474321365,1.1144416332244873,-0.0689539760351181,-0.2360911220312118,-0.2211855053901672,0.1006694585084915,0.0,0.0,-0.0104315280914306,-0.0429396033287048
-0.2015980780124664,1.1089898347854614,-0.065254308283329,-0.2416199892759323,-0.2165567725896835,0.0925747901201248,0.0,0.0,-0.4552017450332641,-0.8237276077270508
