x_pos,y_pos,x_vel,y_vel,angle,ang_vel,leg_1,leg_2,main_booster,lat_booster
-0.0015437125694006,1.4031546115875244,-0.1572882831096649,-0.3451293110847473,0.0026131500490009,0.0516099520027637,0.0,0.0,-0.4219908714294433,0.775942325592041
-0.0030411719344556,1.3949391841888428,-0.1514722555875778,-0.3651347458362579,0.0043195248581469,0.0341315045952796,0.0,0.0,-0.339358925819397,0.1776176691055297
-0.0045580863952636,1.3862535953521729,-0.1542379558086395,-0.3860372602939605,0.0068470346741378,0.0505550093948841,0.0,0.0,0.4024695158004761,0.9820561408996582
-0.0061358450911939,1.3777307271957395,-0.1591006219387054,-0.3787965178489685,0.0081494497135281,0.0260504838079214,0.0,0.0,0.4718402624130249,0.9300702810287476
-0.0075332643464207,1.369615077972412,-0.1401782780885696,-0.3607036769390106,0.008588089607656,0.0087737450376153,0.0,0.0,0.0348107814788818,0.7827160358428955
-0.0087899211794137,1.3615405559539795,-0.1254287511110305,-0.3588593304157257,0.0083534540608525,-0.0046932310797274,0.0,0.0,-0.3296488523483276,0.8544034957885742
-0.0099992752075195,1.3529973030090332,-0.1198730692267417,-0.3796943724155426,0.0073061641305685,-0.020947778597474,0.0,0.0,0.2639158964157104,0.3648949861526489
-0.0111146923154592,1.3447281122207642,-0.1118540167808532,-0.3675232529640198,0.0076172901317477,0.0062229810282588,0.0,0.0,-0.3183333873748779,0.7776727676391602
-0.0121863363310694,1.3359981775283811,-0.1067694798111915,-0.3879949748516083,0.0072288899682462,-0.0077690803445875,0.0,0.0,-0.483784556388855,0.7130695581436157
-0.0132173541933298,1.3268036842346191,-0.1021003574132919,-0.4086407124996185,0.0062389918603003,-0.0197997204959392,0.0,0.0,-0.4684842824935913,0.642587423324585
-0.0142052648589015,1.3171404600143433,-0.0971285179257392,-0.4294697046279907,0.0046001090668141,-0.0327809453010559,0.0,0.0,-0.5571559071540833,0.8450520038604736
-0.0151326181367039,1.3070063591003418,-0.089994728565216,-0.4503979384899139,0.0018934095278382,-0.0541392192244529,0.0,0.0,0.1798059940338134,0.1511580944061279
-0.0159808155149221,1.2971521615982056,-0.0833364576101303,-0.437965840101242,0.0004268728080205,-0.0293328668922185,0.0,0.0,-0.5619162321090698,0.456132173538208
-0.0168411247432231,1.2868280410766602,-0.0853533521294593,-0.4588510692119598,-0.0002441183460177,-0.0134212058037519,0.0,0.0,-0.6793261766433716,0.1926984786987304
-0.0177125930786132,1.2760341167449951,-0.0872687846422195,-0.4797280728816986,-0.0001227022730745,0.0024284629616886,0.0,0.0,-0.6116601228713989,-0.8366090655326843
-0.0186481475830078,1.2647607326507568,-0.0958529263734817,-0.5010435581207275,0.0021445909515023,0.0453499928116798,0.0,0.0,-0.2646799087524414,0.4597687721252441
-0.0195928569883108,1.2530176639556885,-0.097549669444561,-0.521923303604126,0.0051942430436611,0.0609986409544944,0.0,0.0,-0.4667627811431885,0.6904264688491821
-0.0204779617488384,1.2407996654510498,-0.0906665846705436,-0.5430354475975037,0.0073277973569929,0.0426747575402259,0.0,0.0,-0.233866274356842,0.3468587398529053
-0.0213696472346782,1.2281118631362915,-0.0921070426702499,-0.5639156103134155,0.0102345123887062,0.0581396594643592,0.0,0.0,-0.8372032642364502,0.7254102230072021
-0.0222168918699026,1.2149549722671509,-0.087184689939022,-0.5847693085670471,0.0126594733446836,0.0485037714242935,0.0,0.0,-0.3251430988311767,-0.0771293044090271
-0.0230682380497455,1.2013285160064695,-0.0883446112275123,-0.6056501865386963,0.0158450510352849,0.0637171119451522,0.0,0.0,-0.2425920963287353,0.4719662666320801
-0.0239220615476369,1.187232494354248,-0.0893574208021164,-0.6265314817428589,0.0197833590209484,0.0787733644247055,0.0,0.0,-0.6414403319358826,0.6061654090881348
-0.0247186664491891,1.172668218612671,-0.0829085633158683,-0.647354781627655,0.0230027642101049,0.0643933564424514,0.0,0.0,-0.9657464623451232,0.8920061588287354
-0.025435734540224,1.1576271057128906,-0.0737163200974464,-0.6685261130332947,0.0249819178134202,0.0395866520702838,0.0,0.0,-0.6451241374015808,0.4289579391479492
-0.026150893419981,1.1421165466308594,-0.0742489323019981,-0.6894078850746155,0.0276904888451099,0.0541761927306652,0.0,0.0,-0.59087735414505,0.2682795524597168
-0.0268619544804096,1.126115083694458,-0.074578121304512,-0.7112432718276978,0.0311184152960777,0.0685585886240005,0.0,0.0,0.614527702331543,0.642715573310852
-0.0275349617004394,1.11071515083313,-0.070211574435234,-0.6844997406005859,0.0339863412082195,0.0573585741221904,0.0,0.0,-0.5437997579574585,0.857115626335144
-0.0281483642756938,1.0948575735092163,-0.0635956376791,-0.7048333883285522,0.0362172797322273,0.0446187704801559,0.0,0.0,-0.2787899971008301,0.4998393058776855
-0.0287532806396484,1.0785306692123413,-0.0634512454271316,-0.725713312625885,0.0391358472406864,0.0583714842796325,0.0,0.0,-0.3875529766082763,0.7628085613250732
-0.0292900092899799,1.0617350339889526,-0.0558269321918487,-0.7465304732322693,0.0412655733525753,0.0425946973264217,0.0,0.0,-0.0655889511108398,0.7691850662231445
-0.0297527313232421,1.044482707977295,-0.0475044138729572,-0.7668085694313049,0.0424783565104007,0.0242558103054761,0.0,0.0,0.1428298950195312,0.4922831058502197
-0.0302691459655761,1.0272116661071775,-0.0532753840088844,-0.7676423192024231,0.0440903156995773,0.0322392471134662,0.0,0.0,0.3421211242675781,0.7404389381408691
-0.0308166500180959,1.0104531049728394,-0.0554139018058776,-0.7448434829711914,0.0447527319192886,0.0132482182234525,0.0,0.0,0.2088721990585327,0.207755446434021
-0.0314066894352436,0.9936175346374512,-0.0600826255977153,-0.7482796907424927,0.0458165630698204,0.0212767422199249,0.0,0.0,0.8231406211853027,0.707088828086853
-0.0319360718131065,0.977356493473053,-0.0532414726912975,-0.7227268815040588,0.0461184754967689,0.0060381866060197,0.0,0.0,-0.3736590147018432,-0.132317841053009
-0.032447051256895,0.960625946521759,-0.0519977323710918,-0.7436065673828125,0.0470026545226573,0.0176837891340255,0.0,0.0,-0.1106746792793273,0.1348148584365844
-0.032938577234745,0.9434260725975036,-0.0506174676120281,-0.7644861936569214,0.0484500229358673,0.0289472825825214,0.0,0.0,0.735490083694458,0.2773118019104004
-0.0334082618355751,0.9269578456878662,-0.0491703823208808,-0.7319983839988708,0.0506251566112041,0.0435028746724128,0.0,0.0,-0.3834461569786072,0.7707066535949707
-0.0337998382747173,0.9100330471992492,-0.0404215678572654,-0.7522569298744202,0.0518868565559387,0.0252336524426937,0.0,0.0,-0.0631744861602783,0.8269460201263428
-0.034100342541933,0.8926451802253723,-0.0300898887217044,-0.7727925777435303,0.0519245266914367,0.0007535208715125,0.0,0.0,0.182741641998291,0.2713367938995361
-0.0344826690852642,0.8756170868873596,-0.038397379219532,-0.7568137049674988,0.0520838126540184,0.0031859050504863,0.0,0.0,0.6346942186355591,0.7680138349533081
-0.0346725471317768,0.8589088320732117,-0.0183230377733707,-0.742562472820282,0.0514171123504638,-0.0133336959406733,0.0,0.0,0.2925211191177368,0.0296483039855957
-0.034774400293827,0.8421046137809753,-0.0102892126888036,-0.7468582391738892,0.0515264309942722,0.0021863463334739,0.0,0.0,0.0666371583938598,0.3619605302810669
-0.0348042473196983,0.8253470659255981,-0.0037955262232571,-0.7448052167892456,0.052329484373331,0.0160609595477581,0.0,0.0,-0.0063191056251525,0.938512086868286
-0.0347384437918663,0.8081144094467163,0.0071538463234901,-0.7658751010894775,0.0517620779573917,-0.0113481106236577,0.0,0.0,-0.3966010808944702,0.8405072689056396
-0.0345743186771869,0.7904092669487,0.0184643026441335,-0.7868244647979736,0.0497358255088329,-0.0405251234769821,0.0,0.0,0.6565189361572266,-0.0778299570083618
-0.0343443863093853,0.7729105353355408,0.0244435910135507,-0.7776755094528198,0.0483018644154071,-0.028678823262453,0.0,0.0,0.1424691677093505,0.4902040958404541
-0.0341926589608192,0.7558003067970276,0.0167119391262531,-0.7603995203971863,0.0467865765094757,-0.0303060822188854,0.0,0.0,-0.0618677139282226,0.690435528755188
-0.033970832824707,0.7382297515869141,0.0245446376502513,-0.7808406949043274,0.0444453842937946,-0.0468237325549125,0.0,0.0,-0.0370152592658996,0.5490398406982422
-0.0336792953312397,0.7201908826828003,0.0323736518621444,-0.8016337156295776,0.0412640795111656,-0.0636261031031608,0.0,0.0,-0.154394268989563,-0.5972995758056641
-0.0333956703543663,0.701680064201355,0.0304823163896799,-0.8226439356803894,0.0391683503985405,-0.0419147983193397,0.0,0.0,0.0314246416091918,0.1760685443878173
-0.0331377983093261,0.6833869814872742,0.0279307216405868,-0.8129738569259644,0.0370528660714626,-0.0423095263540744,0.0,0.0,0.0470385551452636,0.099177598953247
-0.0327927581965923,0.665050208568573,0.0362037606537342,-0.8149186372756958,0.0353703722357749,-0.0336497798562049,0.0,0.0,-0.1063616871833801,0.8181204795837402
-0.0323546417057514,0.6462551951408386,0.0471066571772098,-0.8352685570716858,0.0321291051805019,-0.0648255571722984,0.0,0.0,0.3489217758178711,0.1037122011184692
-0.0317790992558002,0.6275929808616638,0.0602162405848503,-0.8293730020523071,0.0294945016503334,-0.0526922941207885,0.0,0.0,0.6252018213272095,-0.3475757837295532
-0.0312828049063682,0.6091521382331848,0.0527287311851978,-0.8195392489433289,0.0264347363263368,-0.0611953362822532,0.0,0.0,0.2871017456054687,0.0872141122817993
-0.0307013504207134,0.5911754965782166,0.060934443026781,-0.7989155650138855,0.0236893985420465,-0.0549069941043853,0.0,0.0,0.5300133228302002,-0.4697204828262329
-0.0299784652888774,0.5736703276634216,0.0745316594839096,-0.7779733538627625,0.0214771497994661,-0.0442449115216732,0.0,0.0,0.3965239524841308,-0.5416269302368164
-0.0292165763676166,0.5567455887794495,0.077265053987503,-0.7521981596946716,0.0204087998718023,-0.0213670469820499,0.0,0.0,0.018135666847229,-0.3573930263519287
-0.0284832958132028,0.5400758385658264,0.0747560933232307,-0.740859866142273,0.0189994648098945,-0.0281866788864135,0.0,0.0,-0.020546555519104,-0.6733052730560303
-0.0277705192565917,0.5229290127754211,0.0716216713190078,-0.76207435131073,0.0186600163578987,-0.0067889764904975,0.0,0.0,0.011966586112976,0.002631664276123
-0.0270990375429391,0.5059551000595093,0.0679644346237182,-0.7543866038322449,0.0178495850414037,-0.0162086151540279,0.0,0.0,0.6555385589599609,-0.5422915816307068
-0.0263192169368267,0.4892897307872772,0.0775747150182724,-0.7406913042068481,0.0182519126683473,0.0080463653430342,0.0,0.0,0.2027416229248047,-0.1849958300590515
-0.0255024917423725,0.4728241860866546,0.0814320892095565,-0.7318052649497986,0.0184872597455978,0.0047070132568478,0.0,0.0,0.7699979543685913,-0.7200949788093567
-0.0247138030827045,0.4565262198448181,0.0774414241313934,-0.7243711948394775,0.0199005901813507,0.0282663963735103,0.0,0.0,0.4899275302886963,-0.3767277002334595
-0.0240196231752634,0.4405544996261596,0.0688124746084213,-0.7098633646965027,0.0204957034438848,0.0119023192673921,0.0,0.0,0.7751026153564453,-0.2322281599044799
-0.0232936851680278,0.4254926443099975,0.0722123458981514,-0.6694228649139404,0.0208695642650127,0.0074771801009774,0.0,0.0,0.0989327430725097,-0.5908294320106506
-0.0225300788879394,0.4102460145950317,0.0750507712364196,-0.6776459217071533,0.0221585854887962,0.0257804598659276,0.0,0.0,0.0608061552047729,-0.4914722442626953
-0.0217340476810932,0.3953521251678467,0.0786010771989822,-0.661965012550354,0.0231512244790792,0.0198526158928871,0.0,0.0,0.2514376640319824,-0.6284570097923279
-0.0210477821528911,0.3805189132690429,0.0668910294771194,-0.6592825651168823,0.024860156700015,0.0341787151992321,0.0,0.0,0.7020041942596436,-0.5200910568237305
-999.0,0.3662587404251098,0.0533232018351554,-0.6338211894035339,0.026902412995696,0.0408451035618782,0.0,0.0,0.4832069873809814,-0.1841955184936523
-0.0199005119502544,0.3523676097393036,0.0575940422713756,-0.6174162030220032,0.0286309961229562,0.034571673721075,0.0,0.0,0.5784726142883301,0.0055963993072509
-0.0194263458251953,0.3392111957073211,0.0467098280787467,-0.5847466588020325,0.0293294489383697,0.0139691056683659,0.0,0.0,0.5619344711303711,0.3656375408172607
-0.0188719742000103,0.3264063894748688,0.0548861250281333,-0.5691127181053162,0.0298702232539653,0.0108155291527509,0.0,0.0,0.5079277753829956,0.0408887863159179
-0.0183324813842773,0.3136655390262604,0.0540537126362323,-0.5662608742713928,0.0297724157571792,-0.0019560796208679,0.0,0.0,0.7134921550750732,-0.3514674305915832
-0.0177059173583984,0.3009633123874664,0.0629414543509483,-0.5645376443862915,0.029488394036889,-0.0056803994812071,0.0,0.0,0.4634624719619751,-0.175847053527832
-0.0170897487550973,0.2882407009601593,0.0625659599900245,-0.5654302835464478,0.028547178953886,-0.0188241023570299,0.0,0.0,0.5189769268035889,-0.6836642026901245
-0.0165307037532329,0.2761451005935669,0.056044578552246,-0.5375789403915405,0.0284062791615724,-0.0028179956134408,0.0,0.0,0.7046196460723877,-0.5591690540313721
-0.0159252174198627,0.2648490667343139,0.0598891153931617,-0.5020591616630554,0.0290555953979492,0.012986360117793,0.0,0.0,-0.1674020290374755,-0.721451997756958
-0.0153614999726414,0.2530873119831085,0.0545714423060417,-0.5227776765823364,0.0308385230600833,0.0356584750115871,0.0,0.0,0.5270808935165405,-0.1382810473442077
-0.0149005893617868,0.2413091957569122,0.0454294867813587,-0.5234874486923218,0.0314885340631008,0.0130004826933145,0.0,0.0,0.8743746280670166,-0.4324909448623657
-0.0143961906433105,0.2304078489542007,0.0501668453216552,-0.4845123887062073,0.0317595489323139,0.0054203933104872,0.0,0.0,0.6744508743286133,-0.2307345867156982
-0.0139869693666696,0.2199060320854187,0.0417334511876106,-0.4667293727397918,0.0309546384960412,-0.0160980839282274,0.0,0.0,0.3567976951599121,-0.7285778522491455
-0.0136771202087402,0.2097669243812561,0.031030872836709,-0.450628250837326,0.0309118330478668,-0.0008560516871511,0.0,0.0,0.7049739360809326,-0.3803820610046386
-0.0133760450407862,0.2002391368150711,0.0308311730623245,-0.4234422445297241,0.0301927458494901,-0.0143816145136952,0.0,0.0,0.6664674282073975,-0.8830311298370361
-0.013038826175034,0.1911227107048034,0.0331515446305274,-0.4051876962184906,0.0307551976293325,0.011248892173171,0.0,0.0,0.6939231157302856,-0.780871570110321
-0.0127217294648289,0.1820531189441681,0.0301658809185028,-0.4031241536140442,0.0322881117463111,0.0306583698838949,0.0,0.0,0.7539042234420776,-0.586308479309082
-0.0123334880918264,0.1731530576944351,0.0364627912640571,-0.3956130743026733,0.0346218235790729,0.046674121171236,0.0,0.0,0.7036972045898438,-0.6414902210235596
-0.0118268011137843,0.1646715551614761,0.0472754016518592,-0.3770395815372467,0.0379733517765998,0.0670305863022804,0.0,0.0,0.5321950912475586,-0.6469331383705139
-0.0112185478210449,0.1562685072422027,0.0564872249960899,-0.3735828697681427,0.042258471250534,0.0857022553682327,0.0,0.0,0.4448442459106445,-0.5791832208633423
-0.0106639862060546,0.1483812481164932,0.0506354756653308,-0.3506876826286316,0.0470234751701355,0.0953000858426094,0.0,0.0,0.428648829460144,-0.5556832551956177
-0.0101299285888671,0.1410101801156997,0.0480643585324287,-0.3277801275253296,0.0522957369685173,0.1054453998804092,0.0,0.0,-0.177201509475708,0.5691044330596924
-0.0095165250822901,0.1331755518913269,0.0580695942044258,-0.3483242988586426,0.0555319003760814,0.0647233799099922,0.0,0.0,0.527268648147583,-0.9512402415275574
-0.00886373501271,0.1253153830766677,0.0606534406542778,-0.3495188951492309,0.0601043179631233,0.0914481878280639,0.0,0.0,0.6933495998382568,-0.9061083197593688
-0.0083486558869481,0.1177523434162139,0.0458385497331619,-0.336373507976532,0.0657122284173965,0.1121584400534629,0.0,0.0,0.1484793424606323,0.5217540264129639
-0.0077424049377441,0.1106336191296577,0.0565610453486442,-0.316570907831192,0.0697260126471519,0.0802755802869796,0.0,0.0,0.1920697689056396,-0.902642548084259
-0.0072306632064282,0.1036494374275207,0.0460057742893695,-0.3106563687324524,0.0748458728194236,0.1023972779512405,0.0,0.0,0.052402377128601,-0.4067464470863342
-0.006810856051743,0.0969442725181579,0.0378695465624332,-0.2982203662395477,0.0789135619997978,0.0813536047935485,0.0,0.0,0.0624635219573974,-0.1786908507347107
-0.006345844361931,0.0904464572668075,0.0428321436047554,-0.2889887988567352,0.0825525000691413,0.0727785974740982,0.0,0.0,0.2099677324295044,-0.0289660096168518
-0.0059403418563306,0.0842948257923126,0.0377533808350563,-0.273561030626297,0.0853205099701881,0.0553600899875164,0.0,0.0,0.2728359699249267,0.2661943435668945
-0.0056227683089673,0.0785268619656562,0.0299546364694833,-0.2564599514007568,0.0871025919914245,0.0356415100395679,0.0,0.0,0.4601520299911499,0.0308473110198974
-0.0053407670930027,0.0729430764913559,0.0272014327347278,-0.2482246607542038,0.088090680539608,0.019761960953474,0.0,0.0,0.1665301322937011,0.6901135444641113
-0.0051098824478685,0.0675189346075058,0.0242997482419013,-0.2410034090280532,0.0868955627083778,-0.0239025000482797,0.0,0.0,0.0831902027130127,0.7489738464355469
-0.0049382210709154,0.062128696590662,0.0206655282527208,-0.2393654882907867,0.0834312885999679,-0.0692852213978767,0.0,0.0,0.1383846998214721,-0.6318803429603577
-0.0047518732026219,0.0570159777998924,0.0214360803365707,-0.2270787358283996,0.0806466937065124,-0.0556918494403362,0.0,0.0,0.1069319248199462,-0.38218754529953
-0.0045204162597656,0.0518074855208396,0.0264760255813598,-0.2313142120838165,0.0773580819368362,-0.0657722204923629,0.0,0.0,0.3105274438858032,-0.565659761428833
-0.0042308806441724,0.0470474585890769,0.0315764173865318,-0.2114234268665313,0.0747617185115814,-0.0519273467361927,0.0,0.0,-0.0008837580680847,-0.2973474264144897
-0.0039173127152025,0.0418171510100364,0.034678615629673,-0.2322969436645507,0.0714720264077186,-0.0657939538359642,0.0,0.0,0.4251687526702881,-0.8219592571258545
-0.0035597800742834,0.0372367240488529,0.0379512012004852,-0.2034705132246017,0.0693054273724556,-0.0433321818709373,0.0,0.0,-0.2757058143615722,-0.4402904510498047
-0.0031784058082848,0.0321860164403915,0.0410253182053566,-0.2243442088365554,0.066447414457798,-0.057160310447216,0.0,0.0,0.1964561939239502,-0.8525182008743286
-0.0028862953186035,0.0275512319058179,0.0310779362916946,-0.2059091925621032,0.064590536057949,-0.0371374636888504,0.0,0.0,0.3405454158782959,-0.506957471370697
-0.0025991438888013,0.0234083980321884,0.0301417950540781,-0.1840643882751464,0.0631793737411499,-0.0282230339944362,0.0,0.0,-0.1905257105827331,0.3371378183364868
-0.0022887228988111,0.0187953561544418,0.0331634953618049,-0.2049382179975509,0.0610818415880203,-0.0419507399201393,0.0,0.0,0.6226851940155029,-0.2427059412002563
-0.0021121979225426,0.0146103240549564,0.021030206233263,-0.1858680248260498,0.0577443465590477,-0.0667499229311943,0.0,0.0,0.6177654266357422,-0.692008376121521
-0.0021335601340979,0.0106915095821022,0.0008258892339654,-0.1740577816963195,0.05481493845582,-0.0585881881415843,0.0,0.0,0.6110622882843018,0.4355993270874023
-0.0021833418868482,0.0071241711266338,-0.0012284559197723,-0.1584133952856063,0.0511095225811004,-0.0741082653403282,0.0,0.0,0.3486678600311279,0.1131387948989868
-0.0022117614280432,0.0037409043870866,0.0014938574749976,-0.1502271294593811,0.0468264743685722,-0.085660882294178,0.0,0.0,0.7005724906921387,0.1676822900772094
-0.0021893500816076,0.0010944581590592,0.023716140538454,-0.1171057149767875,0.0255342703312635,-0.4259353578090668,0.0,1.0,0.6401818990707397,0.1567234992980957
-0.0020882606040686,-0.0009945535566657,0.0312037710100412,-0.0926245376467704,0.0046871127560734,-0.4169683456420898,0.0,1.0,0.39815354347229,0.0048689842224121
-0.0019693374633789,-0.0025235556531697,0.0329072549939155,-0.0680238381028175,-0.0160623732954263,-0.414989709854126,1.0,1.0,0.5570468902587891,-0.7319503426551819
-0.0017957687377929,-0.0036984349135309,0.0271993037313222,-0.0526065938174724,-0.0246829204261302,-0.1710248291492462,1.0,0.0,0.11916184425354,-0.2881906032562256
