x_pos,y_pos,x_vel,y_vel,angle,ang_vel,leg_1,leg_2,main_booster,lat_booster
-0.0014988898765295,1.4033689498901367,-0.1517558991909027,-0.3356155455112457,0.0016708665061742,0.0329527743160724,0.0,0.0,-0.1998245120048523,0.9724152088165284
-0.0028888701926916,1.395580530166626,-0.1384569406509399,-0.3461521565914154,0.0011306911474093,-0.0108035570010542,0.0,0.0,-0.6031560897827148,0.3003402948379516
-0.0042516710236668,1.3875359296798706,-0.1356621086597442,-0.3575404286384582,0.0005146104376763,-0.012322780676186,0.0,0.0,0.3014311790466308,0.1292121410369873
-0.0056804656051099,1.3798257112503052,-0.1417246162891388,-0.342673510313034,-0.0006237613852135,-0.0227694287896156,0.0,0.0,0.2295575141906738,-0.152767539024353
-0.0069838524796068,1.3725876808166504,-0.1295813024044037,-0.3216932415962219,-0.0013690767809748,-0.0149078695103526,0.0,0.0,-0.7480147480964661,0.5136191844940186
-0.0082077980041503,1.3650928735733032,-0.1203033477067947,-0.3331004977226257,-0.0034244500566273,-0.0411113128066062,0.0,0.0,-0.0640316009521484,0.3091847896575928
-0.0094008445739746,1.3573427200317385,-0.1171688437461853,-0.3444628715515136,-0.0055356966331601,-0.0422290675342083,0.0,0.0,-0.1139812469482421,0.0538520812988281
-0.0105624198913574,1.349336862564087,-0.1139670461416244,-0.3558277189731598,-0.0076984227634966,-0.0432584472000598,0.0,0.0,-0.163199245929718,0.7098822593688965
-0.0116369249299168,1.3410823345184326,-0.1038263589143753,-0.3668857216835022,-0.0112843932583928,-0.0717261955142021,0.0,0.0,-0.2857822179794311,0.5099062919616699
-0.012638377957046,1.3325749635696411,-0.095466248691082,-0.3781485557556152,-0.0159181244671344,-0.0926829800009727,0.0,0.0,-0.6770204305648804,-0.5378315448760986
-0.0136427879333496,1.3238133192062378,-0.0966418609023094,-0.3894500136375427,-0.0196716990321874,-0.075078509747982,0.0,0.0,-0.6059039235115051,0.2443991899490356
-0.0146131515502929,1.3147962093353271,-0.0932169556617736,-0.4008164703845978,-0.0234534665942192,-0.075642392039299,0.0,0.0,-0.5126042366027832,-0.1477293968200683
-0.015549087896943,1.3055235147476196,-0.089748129248619,-0.4121828973293304,-0.02725644223392,-0.0760665088891983,0.0,0.0,-0.8086293935775757,-0.0023161172866821
-0.016450023278594,1.2959953546524048,-0.0862397700548172,-0.4235495328903198,-0.0310745555907487,-0.0763692110776901,0.0,0.0,-0.8079168200492859,0.0451475381851196
-0.017315674573183,1.286211609840393,-0.0826952904462814,-0.434916228055954,-0.0349014848470687,-0.0765453875064849,0.0,0.0,-0.7870983481407166,0.0053317546844482
-0.0181454662233591,1.276172399520874,-0.0791179165244102,-0.4462830126285553,-0.0387308560311794,-0.0765942633152008,0.0,0.0,-0.7657461762428284,-0.4941147565841675
-0.0189392082393169,1.2658777236938477,-0.07551059871912,-0.4576498568058014,-0.0425562970340251,-0.0765157490968704,0.0,0.0,-0.547964334487915,-0.6507534980773926
-0.0197360031306743,1.255324363708496,-0.0768101960420608,-0.4691226184368133,-0.0453854240477085,-0.0565873570740222,0.0,0.0,-0.983748972415924,-0.6977992653846741
-0.0205419547855854,1.2445249557495115,-0.0789281204342842,-0.4800209403038025,-0.0470347106456756,-0.0329889617860317,0.0,0.0,-0.9742424488067628,-0.7197454571723938
-0.021375274285674,1.2334741353988647,-0.0833334326744079,-0.4911488890647888,-0.0470403656363487,-0.000113064670586,0.0,0.0,-0.9501876831054688,-0.3277852535247803
-0.0221714973449707,1.2221674919128418,-0.0796422511339187,-0.5025143027305603,-0.0470181517302989,0.0004446824605111,0.0,0.0,-0.7860576510429382,-0.7812117338180542
-0.0229907985776662,1.210604906082153,-0.0835345685482025,-0.5138381719589233,-0.0454392358660697,0.031581200659275,0.0,0.0,-0.7541412711143494,0.2817054986953735
-0.0237726215273141,1.198786973953247,-0.0798125192523002,-0.5252036452293396,-0.0438210517168045,0.0323667153716087,0.0,0.0,-0.8836384415626526,-0.1018558144569397
-0.024516487494111,1.1867129802703855,-0.0760746896266937,-0.5365692973136902,-0.0421569906175136,0.0332842394709587,0.0,0.0,-0.722728431224823,-0.1612398624420166
-0.0252223964780569,1.1743834018707275,-0.0723231583833694,-0.5479349493980408,-0.0404419191181659,0.0343043021857738,0.0,0.0,-0.8070009350776672,-0.3515162467956543
-0.0258906371891498,1.1617765426635742,-0.0686166062951088,,-0.0386704206466674,0.0354302302002906,0.0,0.0,-0.4283934235572815,0.0904668569564819
-0.0265204422175884,1.148914098739624,-0.0648362338542938,-0.571617066860199,-0.0368370078504085,0.0366681106388568,0.0,0.0,-0.7476910352706909,0.3508172035217285
-0.0271116252988576,1.135796070098877,-0.06104551628232,-0.5829805731773376,-0.0349365696310997,0.0380086377263069,0.0,0.0,-0.623541533946991,0.0493414402008056
-0.0276641845703125,1.122422218322754,-0.0572454631328582,-0.5943440794944763,-0.0329642072319984,0.0394472628831863,0.0,0.0,-0.7806181907653809,0.2775282859802246
-0.0281778331845998,1.108792781829834,-0.0534369945526123,-0.605707585811615,-0.0309152361005544,0.0409794896841049,0.0,0.0,-0.926095485687256,-0.1915992498397827
-0.0286523811519145,1.0949077606201172,-0.049620971083641,-0.6170712113380432,-0.0287852231413126,0.0426004454493522,0.0,0.0,-0.7990351915359497,-0.0032102465629577
-0.0290879253298044,1.080767035484314,-0.045798186212778,-0.628434956073761,-0.0265699476003646,0.044305570423603,0.0,0.0,-0.8741527199745178,-0.3158118724822998
-0.0294842720031738,1.0663706064224243,-0.0419693738222122,-0.6397985219955444,-0.0242654383182525,0.0460900999605655,0.0,0.0,-0.9188966751098632,0.2520468235015869
-0.0298414230346679,1.0517185926437378,-0.0381352230906486,-0.6511622667312622,-0.0218679625540971,0.0479495599865913,0.0,0.0,-0.893363356590271,0.2885286808013916
-0.0301590915769338,1.036811113357544,-0.034296378493309,-0.66252601146698,-0.0193739961832761,0.0498794242739677,0.0,0.0,-0.8983635306358337,0.0088449716567993
-0.0304372794926166,1.021647810935974,-0.0304534547030925,-0.6738898158073425,-0.0167802385985851,0.0518753305077552,0.0,0.0,-0.8440872430801392,0.277992844581604
-0.0306760780513286,1.0062289237976074,-0.0266070179641246,-0.6852537393569946,-0.0140835884958505,0.0539331063628196,0.0,0.0,-0.6514914035797119,0.5656583309173584
-0.0308276172727346,0.990557849407196,-0.0167821869254112,-0.6964802145957947,-0.0124769583344459,0.0321324281394481,0.0,0.0,-0.716849148273468,0.6102950572967529
-0.030894374474883,0.974636971950531,-0.0072609656490385,-0.7075896859169006,-0.0118959425017237,0.0116203567013144,0.0,0.0,-0.7061911225318909,0.2263792753219604
-0.0309213642030954,0.95846027135849,-0.0034071684349328,-0.7189531326293945,-0.0112039260566234,0.0138402860611677,0.0,0.0,-0.6216608881950378,0.1351982355117797
-0.0309087745845317,0.942027986049652,0.0004480856005102,-0.7303164601325989,-0.0103985769674181,0.0161070264875888,0.0,0.0,-0.596499502658844,-0.5372148752212524
-0.0308901779353618,0.9253395199775696,6.287200085353106e-05,-0.7417045831680298,-0.0086284475401043,0.0354027226567268,0.0,0.0,-0.450658917427063,0.7198538780212402
-0.0307657234370708,0.90838623046875,0.012215849943459,-0.753469705581665,-0.0084034772589802,0.0044995071366429,0.0,0.0,-0.1751846075057983,-0.1907911300659179
-0.0306015014648437,0.8911774754524231,0.0160726718604564,-0.7648330926895142,-0.0080590937286615,0.006887802388519,0.0,0.0,-0.5824029445648193,0.5365102291107178
-0.0303579326719045,0.8737062215805054,0.0248933359980583,-0.7765058875083923,-0.0085886185988783,-0.0105906827375292,0.0,0.0,-0.1512028574943542,0.0787153244018554
-0.0300745964050292,0.8559791445732117,0.028748920187354,-0.7878692746162415,-0.0089953923597931,-0.0081353243440389,0.0,0.0,0.0384106636047363,0.5648247003555298
-0.0296612735837698,0.8384134769439697,0.0426858142018318,-0.7807043194770813,-0.0103376451879739,-0.0268450081348419,0.0,0.0,-0.4210748672485351,-0.5717812180519104
-0.0292618758976459,0.8205991983413696,0.0398060195147991,-0.791748583316803,-0.0102048385888338,0.0026563392020761,0.0,0.0,-0.6065966486930847,0.4673025608062744
-0.0288226120173931,0.8025290966033936,0.0436562672257423,-0.8031119108200073,-0.009945098310709,0.0051948856562376,0.0,0.0,-0.1775997877120971,0.3354775905609131
-0.0283436775207519,0.7842034101486206,0.0475037768483161,-0.8144752383232117,-0.0095572443678975,0.0077571556903421,0.0,0.0,-0.3149542808532715,0.264947772026062
-0.0278249736875295,0.7656219005584717,0.0513480380177497,-0.8258386254310608,-0.0090401610359549,0.0103414310142397,0.0,0.0,-0.3680320978164673,0.5111062526702881
-0.0272299759089946,0.7467876672744751,0.0597803592681884,-0.8370780944824219,-0.0093119656667113,-0.0054363743402063,0.0,0.0,-0.0179560184478759,0.0007880926132202
-0.0265952106565237,0.7276977896690369,0.0636165291070938,-0.8484414219856262,-0.0094526121392846,-0.0028128258418291,0.0,0.0,-0.0546216368675231,0.0302513837814331
-0.0259208679199218,0.7083520889282227,0.0674477964639663,-0.8598048090934753,-0.0094611942768096,-0.0001718182320473,0.0,0.0,0.1988333463668823,0.4565368890762329
-0.0250954627990722,0.689280092716217,0.0819144994020462,-0.8476479053497314,-0.0088367704302072,0.0124885188415646,0.0,0.0,-0.6705186367034912,-0.1640496850013733
-0.0242303851991891,0.6699521541595459,0.0857341066002845,-0.8590113520622253,-0.0080787222832441,0.0151607599109411,0.0,0.0,0.0055539608001708,0.0557291507720947
-0.0232646949589252,0.6510955691337585,0.0953943282365799,-0.8380665183067322,-0.0069216820411384,0.0231409259140491,0.0,0.0,-0.0001109838485717,-0.1075124144554138
-0.0222596172243356,0.63198322057724,0.099199540913105,-0.8494300246238708,-0.0056296698749065,0.0258401818573474,0.0,0.0,-0.2443141937255859,-0.3353567123413086
-0.0212151519954204,0.6126154065132141,0.1029964312911033,-0.8607936501502991,-0.004202099982649,0.0285514947026968,0.0,0.0,0.7129080295562744,-0.6314420104026794
-0.0202632900327444,0.5942201614379883,0.0925419479608535,-0.817559003829956,-0.0015892181545495,0.0522579327225685,0.0,0.0,0.15860116481781,-0.3512088060379028
-0.019235897809267,0.5759588479995728,0.0997835844755172,-0.811613917350769,0.0013264083536341,0.0583122000098228,0.0,0.0,0.1231392621994018,-0.1595622301101684
-0.0182382576167583,0.5581570267677307,0.0969911813735961,-0.7911946177482605,0.0040638213977217,0.0547483153641223,0.0,0.0,0.182204008102417,-0.6091369390487671
-0.0171530731022357,0.540653645992279,0.1042132005095481,-0.7779463529586792,0.0083105154335498,0.0849339887499809,0.0,0.0,-0.4464966058731079,-0.0128451585769653
-0.0160290710628032,0.5228948593139648,0.1079547181725502,-0.7893114686012268,0.0126952650025486,0.0876948684453964,0.0,0.0,0.3019033670425415,-0.3152158260345459
-0.0148643497377634,0.5053545236587524,0.1118693724274635,-0.7796149849891663,0.0172469783574342,0.0910341590642929,0.0,0.0,0.5818877220153809,-0.0801808834075927
-0.0137892719358205,0.4884044528007507,0.1033110246062278,-0.7533896565437317,0.0213892199099063,0.0828448161482811,0.0,0.0,0.1667053699493408,-0.1408804059028625
-0.0126735689118504,0.472105860710144,0.107159711420536,-0.724453330039978,0.0257408022880554,0.0870317444205284,0.0,0.0,0.0584681034088134,0.0069894790649414
-0.0114719392731785,0.4558347761631012,0.1153651028871536,-0.7232462763786316,0.030475215986371,0.0946884304285049,0.0,0.0,0.1334093809127807,0.0367157459259033
-0.0102316858246922,0.4401874244213104,0.1190052255988121,-0.6955509781837463,0.0354353189468383,0.0992019921541214,0.0,0.0,-0.0559263825416564,0.3575265407562256
-0.00895357131958,0.4242846965789795,0.1226394176483154,-0.7069169282913208,0.0405356436967849,0.1020066365599632,0.0,0.0,-0.0164215564727783,-0.1823910474777221
-0.0076380730606615,0.4081268012523651,0.1262498944997787,-0.7182830572128296,0.0457765236496925,0.1048176139593124,0.0,0.0,0.8216845989227295,-0.1361982822418213
-0.0062827109359204,0.3927442133426666,0.129926398396492,-0.6838506460189819,0.0513151511549949,0.1107723861932754,0.0,0.0,0.4220092296600342,0.4671570062637329
-0.005038452334702,0.378186821937561,0.1192028298974037,-0.6471825838088989,0.0564820170402526,0.1033374518156051,0.0,0.0,0.0596616268157959,-0.0425965189933776
-0.0037313462235033,0.3639329969882965,0.1251244693994522,-0.633726954460144,0.062008362263441,0.1105266436934471,0.0,0.0,-0.1994000077247619,0.2024165391921997
-0.002387809799984,0.3494239747524261,0.1286181062459945,-0.6450937986373901,0.0676764324307441,0.1133615374565124,0.0,0.0,0.4554688930511474,0.4557931423187256
-0.0009678840870037,0.3350944519042969,0.1358375251293182,-0.6371555328369141,0.0737636685371398,0.1217447072267532,0.0,0.0,0.5395872592926025,0.6625664234161377
0.0004848480166401,0.3209787607192993,0.1403773576021194,-0.6276177763938904,0.0786085426807403,0.0968978255987167,0.0,0.0,0.458709716796875,-0.0767363905906677
0.0019104003440588,0.3076541125774383,0.1375559568405151,-0.592476487159729,0.083561860024929,0.0990664884448051,0.0,0.0,0.2807900905609131,-0.038316786289215
0.0033798217773437,0.29502734541893,0.1415060609579086,-0.5614998936653137,0.0889451131224632,0.1076649874448776,0.0,0.0,0.0243053436279296,0.351884126663208
0.0047692297957837,0.2828933000564575,0.1336855888366699,-0.5396105647087097,0.0941497087478637,0.104092076420784,0.0,0.0,-0.3869664669036865,-0.0510918498039245
0.0061923027969896,0.2705041468143463,0.1369174718856811,-0.5509774088859558,0.0994978249073028,0.106962539255619,0.0,0.0,0.411006212234497,-0.1634118556976318
0.0076157571747899,0.2588728070259094,0.136656567454338,-0.517341136932373,0.1051491647958755,0.1130266934633255,0.0,0.0,-0.2094932794570922,0.3740619421005249
0.0090718269348144,0.2469864040613174,0.1397713720798492,-0.5287085771560669,0.1109446510672569,0.1159096360206604,0.0,0.0,0.0960426330566406,0.1917824745178222
0.0104739191010594,0.2355092614889145,0.134398803114891,-0.5105381608009338,0.1167163550853729,0.1154342517256736,0.0,0.0,0.2712488174438476,-0.3459969162940979
0.0118354801088571,0.2245770841836929,0.1302431970834732,-0.4863472282886505,0.1225902736186981,0.1174785122275352,0.0,0.0,0.5695401430130005,0.5380401611328125
0.0132904052734375,0.2142369151115417,0.1402977257966995,-0.4599970579147339,0.1277627795934677,0.1034502387046814,0.0,0.0,0.7645039558410645,-0.5331337451934814
0.0147139551118016,0.2041776329278946,0.1358586251735687,-0.447649210691452,0.1342230588197708,0.1292056739330291,0.0,0.0,0.5059292316436768,-0.18853360414505
0.0162009242922067,0.1944260448217392,0.1416750699281692,-0.4340512156486511,0.1412203311920166,0.1399456709623336,0.0,0.0,0.5111002922058105,-0.8356909155845642
0.0177261345088481,0.1852132678031921,0.1434661448001861,-0.4103418886661529,0.1502487510442733,0.1805685460567474,0.0,0.0,0.1033405065536499,-0.4063566923141479
0.0193307884037494,0.1761576980352401,0.1508511304855346,-0.4034672379493713,0.1598543673753738,0.1921127736568451,0.0,0.0,0.1166311502456665,0.0350315570831298
0.0208766944706439,0.1675990223884582,0.1448613405227661,-0.3814599812030792,0.1695892214775085,0.1946970075368881,0.0,0.0,-0.1856003999710083,-0.4268534183502197
0.022447396069765,0.1587862819433212,0.1472048908472061,-0.3928333222866058,0.1794714033603668,0.1976435929536819,0.0,0.0,-0.4380828142166137,-0.0275354981422424
0.0240415576845407,0.1497194916009903,0.1494350284337997,-0.4042070806026459,0.1895013004541397,0.2005977630615234,0.0,0.0,0.1732264757156372,0.0522667169570922
0.0256848335266113,0.1407605558633804,0.1538843959569931,-0.3995463252067566,0.2000105679035186,0.2101853340864181,0.0,0.0,-0.1091557741165161,-0.049914002418518
0.0273492820560932,0.1315477639436721,0.1558709889650344,-0.4109214246273041,0.2106682956218719,0.2131541669368744,0.0,0.0,0.0777792930603027,-0.2912934422492981
0.0289697647094726,0.1229241490364074,0.151105910539627,-0.3848697245121002,0.2217302024364471,0.2212382853031158,0.0,0.0,0.1765923500061035,-0.2646025419235229
0.0305034630000591,0.1146345436573028,0.1423711776733398,-0.3701181709766388,0.2328643947839737,0.2226838320493698,0.0,0.0,-0.133113145828247,0.230928897857666
0.0320541374385356,0.1060913205146789,0.1439526975154876,-0.3814946711063385,0.2441480010747909,0.2256720960140228,0.0,0.0,0.445233941078186,0.2543928623199463
0.0335466377437114,0.0982108414173126,0.1376772820949554,-0.3522116243839264,0.2559334635734558,0.2357096970081329,0.0,0.0,0.3591477870941162,0.6626193523406982
0.0348995216190815,0.0909783914685249,0.1250037252902984,-0.3232715725898742,0.2664399445056915,0.2101294696331024,0.0,0.0,0.1831916570663452,0.7813870906829834
0.036116886883974,0.0842710137367248,0.1129358559846878,-0.2997332513332367,0.2754522264003753,0.1802458763122558,0.0,0.0,-0.3621358871459961,0.8919543027877808
0.0374107360839843,0.0773339569568634,0.1221438199281692,-0.3096934556961059,0.282883733510971,0.1486307084560394,0.0,0.0,0.544945240020752,0.6548104286193848
0.038492202758789,0.0709247663617134,0.102308377623558,-0.285993367433548,0.2888886332511902,0.1200981736183166,0.0,0.0,0.2783825397491455,0.4377648830413818
0.0393545143306255,0.0647939518094062,0.0807862356305122,-0.2735727429389953,0.2945050597190857,0.1123282685875892,0.0,0.0,0.580809473991394,0.793480634689331
0.0401901230216026,0.0594758838415145,0.0793545246124267,-0.2372130751609802,0.2988386750221252,0.0866717100143432,0.0,0.0,-0.2428322434425354,0.4585156440734863
0.0410304069519043,0.0539029687643051,0.0796918272972107,-0.2485817372798919,0.3033218681812286,0.0896638855338096,0.0,0.0,0.1874458789825439,0.0073071718215942
0.0418095588684082,0.0489069782197475,0.0729744881391525,-0.223084419965744,0.3084364831447601,0.1022921428084373,0.0,0.0,0.4104773998260498,0.318645715713501
0.0423705093562603,0.0445942729711532,0.0511065199971199,-0.1927467435598373,0.3136093020439148,0.103455901145935,0.0,0.0,0.1512709856033325,0.5431140661239624
0.0428911224007606,0.0409527644515037,0.0478313341736793,-0.1627666056156158,0.3180135190486908,0.0880841612815857,0.0,0.0,0.0992522239685058,0.5407755374908447
0.0433834083378315,0.0376522876322269,0.0458185486495494,-0.1474419981241226,0.3215563297271728,0.0708562359213829,0.0,0.0,-0.2295164465904235,0.3930542469024658
0.0438724532723426,0.0340968929231166,0.0453629530966281,-0.1588103473186493,0.3252448141574859,0.0737695842981338,0.0,0.0,0.3620474338531494,0.4046062231063843
0.0441579818725585,0.0322349406778812,0.0412598028779029,-0.0800586491823196,0.3117962479591369,-0.269324779510498,0.0,1.0,0.8677265644073486,0.8677237033843994
0.044372271746397,0.0315781943500041,0.0486802905797958,-0.0236141942441463,0.2835840284824371,-0.5643430948257446,0.0,1.0,0.4053304195404053,0.0974849462509155
0.0443656928837299,0.0313629731535911,0.026001876220107,-0.0046233143657445,0.2562657594680786,-0.5463656783103943,0.0,1.0,-0.3646090030670166,0.1454020738601684
0.0443573966622352,0.0309015605598688,0.0260276086628437,-0.0160476192831993,0.2289489060640335,-0.5463376045227051,0.0,0.0,-0.998898983001709,-0.2034755945205688
0.044341467320919,0.0301946029067039,0.0252948757261037,-0.0274751614779233,0.201776310801506,-0.5434526205062866,0.0,0.0,-0.9974491596221924,-0.3796563744544983
0.0443167686462402,0.0292418096214532,0.0244155190885067,-0.0389021076261997,0.1747461259365081,-0.5406039953231812,0.0,0.0,-0.9963064193725586,-0.2610136270523071
0.0442818626761436,0.0280433278530836,0.0233939867466688,-0.0503284223377704,0.1478562951087951,-0.5377970933914185,0.0,0.0,-0.9897922277450562,-0.1298065781593322
0.0442358031868934,0.0265987254679203,0.0222350433468818,-0.0617540553212165,0.1211044266819953,-0.5350378155708313,0.0,0.0,-0.962569773197174,-0.4114003181457519
0.0441772453486919,0.024908147752285,0.0209436956793069,-0.0731789842247963,0.0944878235459327,-0.5323323607444763,0.0,0.0,-0.8871769309043884,-0.2166142463684082
0.044105052947998,0.0229713059961795,0.0195251312106847,-0.0846031829714775,0.0680034607648849,-0.5296875238418579,0.0,0.0,-0.7728309631347656,-0.6410050392150879
