x_pos,y_pos,x_vel,y_vel,angle,ang_vel,leg_1,leg_2,main_booster,lat_booster
-0.0015995025169104,1.4032106399536133,-0.1619558036327362,-0.3426429629325866,0.0017991462955251,0.0354925617575645,0.0,0.0,-0.7969645057450163,0.8436047924306245
-0.0032032013405114,1.395106554031372,-0.1602889746427536,-0.360179454088211,0.0017184553435072,-0.0016135640908032,0.0,0.0,0.6375196594317418,0.6445028587880026
-0.0046891211532056,1.387184739112854,-0.1475571095943451,-0.3520851135253906,0.0006948372465558,-0.0204741321504116,0.0,0.0,-0.5971498379247329,0.7912471955907601
-0.0062006949447095,1.378846287727356,-0.1488194316625595,-0.3705979883670807,-0.0016072288854047,-0.046045534312725,0.0,0.0,0.7086541831066251,-0.8053669553619538
-0.0077027319930493,1.371108055114746,-0.1497624516487121,-0.3439223170280456,-0.0020382341463118,-0.0086211208254098,0.0,0.0,-0.4882748371932377,0.6978675402671912
-0.0092123029753565,1.3629547357559204,-0.1487833559513092,-0.3623790144920349,-0.0041865580715239,-0.0429704301059246,0.0,0.0,0.3807581602170182,0.7640177865831206
-0.0107553480193018,1.3551113605499268,-0.150551825761795,-0.3486082255840301,-0.0078997518867254,-0.0742708891630172,0.0,0.0,0.6914556845206055,-0.7322040557228556
-0.0122577669098973,1.3478485345840454,-0.1483022570610046,-0.3228046000003814,-0.0098120486363768,-0.038249485194683,0.0,0.0,0.738434200022106,-0.6759778149781748
-0.0138923646882176,1.3415008783340454,-0.1628167629241943,-0.2821241915225982,-0.0104394853115081,-0.0125498203560709,0.0,0.0,-0.7694067432731366,-0.7895917120202068
-0.0156624801456928,1.334745168685913,-0.177950844168663,-0.3002501130104065,-0.0095191560685634,0.0184082426130771,0.0,0.0,0.4283942928851882,0.959300740977708
-0.0173398964107036,1.3283450603485107,-0.1668095141649246,-0.2844583392143249,-0.0104367630556225,-0.0183535981923341,0.0,0.0,-0.4805260646722906,0.7333690618565614
-0.0190251357853412,1.321528434753418,-0.1659353673458099,-0.3029805123806,-0.0129949422553181,-0.051168568432331,0.0,0.0,0.4513024333158273,0.8742617348894126
-0.0205758102238178,1.3152202367782593,-0.1508837789297104,-0.2803971469402313,-0.0171360597014427,-0.0828300565481185,0.0,0.0,0.254201535072585,-0.5477837969651354
-0.0221790317445993,1.3088973760604858,-0.1573337167501449,-0.2810564637184143,-0.0200840309262275,-0.0589645616710186,0.0,0.0,0.8400566290182527,0.6931770701751938
-0.0236096382141113,1.3035380840301514,-0.1390896737575531,-0.2382457703351974,-0.0240044649690389,-0.0784162729978561,0.0,0.0,0.4965158425239613,-0.9556208569506524
-0.0250659938901662,1.2981561422348022,-0.1437037289142608,-0.2392297834157943,-0.0259219277650117,-0.0383525677025318,0.0,0.0,-0.2788468180341914,-0.996356851115735
-0.0266519542783498,1.292374610900879,-0.1581791043281555,-0.2569736540317535,-0.0263286270201206,-0.00813446380198,0.0,0.0,-0.711402624883146,0.68323965363728
-0.0282394401729106,1.2861706018447876,-0.1566272377967834,-0.2757696509361267,-0.028427354991436,-0.0419784858822822,0.0,0.0,0.4337582468715049,0.8547474362868781
-0.0297114364802837,1.2805984020233154,-0.1434733122587204,-0.2477193027734756,-0.0321143753826618,-0.0737472772598266,0.0,0.0,-0.1753115854505009,0.6306534396620187
-0.0312063209712505,1.2746102809906006,-0.1446548998355865,-0.2662512063980102,-0.0368993878364563,-0.0957085117697715,0.0,0.0,-0.5698770852200867,0.7690446588342696
-0.0326923355460166,1.2682104110717771,-0.1418826878070831,-0.2846198976039886,-0.0435475967824459,-0.132976084947586,0.0,0.0,0.0125086284160353,-0.6346803341598641
-0.0342720970511436,1.2618026733398438,-0.1525388658046722,-0.2849563658237457,-0.0489370562136173,-0.1077989712357521,0.0,0.0,0.0643256097825377,-0.692923237152264
-0.0358565337955951,1.2555028200149536,-0.1544650495052337,-0.2801260650157928,-0.0528693422675132,-0.078652523458004,0.0,0.0,-0.5068128222172414,-0.7833184816494547
-0.0375567451119422,1.2487850189208984,-0.1674268841743469,-0.2986679673194885,-0.0554378107190132,-0.0513741672039032,0.0,0.0,0.1372825417581309,0.5026989754787927
-0.0393588058650493,1.2423239946365356,-0.1763754338026046,-0.2873044312000274,-0.0592353120446205,-0.0759567692875862,0.0,0.0,-0.182066932331341,-0.6045223393613406
-0.0412783622741699,1.235436201095581,-0.1896236836910247,-0.3062173128128052,-0.0615484341979026,-0.0462622418999671,0.0,0.0,-0.7769019383596492,-0.6087636867894666
-0.0433012954890728,1.2281428575515747,-0.2011595517396927,-0.3241938054561615,-0.0626685619354248,-0.0224026180803775,0.0,0.0,0.2310922193758968,-0.9581143588807656
-0.0455281250178813,1.2213841676712036,-0.2234362065792083,-0.300355315208435,-0.0619281567633152,0.0148081704974174,0.0,0.0,0.9976652408699104,-0.6587707606404101
-0.0479690544307231,1.2156399488449097,-0.2457019835710525,-0.2552361190319061,-0.0603335760533809,0.0318914428353309,0.0,0.0,-0.7421861519917483,-0.8455149636054519
-0.0505283363163471,1.2094850540161133,-0.2592849433422088,-0.2734192907810211,-0.0570110268890857,0.0664510279893875,0.0,0.0,-0.8442651672640229,0.9605042535000304
-0.0530554763972759,1.2029205560684204,-0.2540710568428039,-0.2917039096355438,-0.0556706823408603,0.0268067754805088,0.0,0.0,-0.7152684330940247,-0.1205515265464782
-0.0556264892220497,1.1959424018859863,-0.2584466934204101,-0.3100948929786682,-0.0543441288173198,0.0265312138944864,0.0,0.0,-0.8122501969337463,-0.1021605730056762
-0.0582386031746864,1.188550353050232,-0.2625353932380676,-0.3284858763217926,-0.0530318133533,0.0262461900711059,0.0,0.0,-0.859725832939148,0.9709513187408448
-0.0608203895390033,1.1807301044464111,-0.2577423453330993,-0.3475729525089264,-0.0534636676311492,-0.0086368769407272,0.0,0.0,-0.4621871709823608,0.7352235317230225
-0.0633771866559982,1.1724932193756104,-0.2537134289741516,-0.3661629259586334,-0.0554131753742694,-0.0389903113245964,0.0,0.0,-0.6348345279693604,0.6132984161376953
-0.0659153908491134,1.1638429164886477,-0.2505586743354797,-0.3845817148685455,-0.0586350560188293,-0.0644376203417778,0.0,0.0,-0.0092750787734985,0.383880615234375
-0.0684815421700477,1.154779076576233,-0.2533324360847473,-0.402973473072052,-0.0618733316659927,-0.064765341579914,0.0,0.0,-0.6624165773391724,0.8102362155914307
-0.0710034370422363,1.1453015804290771,-0.2471755445003509,-0.4214411377906799,-0.0668419748544693,-0.0993726998567581,0.0,0.0,-0.6275667548179626,0.8915576934814453
-0.0734795555472374,1.1354138851165771,-0.2409019023180008,-0.4397632479667663,-0.0734847784042358,-0.1328560411930084,0.0,0.0,-0.0484282374382019,0.9066753387451172
-0.0758973136544227,1.1251060962677002,-0.2331310957670211,-0.4585680067539215,-0.0820355713367462,-0.1710159629583358,0.0,0.0,-0.6862789392471313,0.7206671237945557
-0.0782802551984787,1.1143862009048462,-0.2284651100635528,-0.4770175516605377,-0.0917841419577598,-0.1949718594551086,0.0,0.0,-0.3119395971298218,0.9237165451049804
-0.0805841460824012,1.1032397747039795,-0.2182986438274383,-0.4961842596530914,-0.1037705913186073,-0.239728644490242,0.0,0.0,-0.0609508752822876,0.6057276725769043
-0.0828372985124588,1.091666340827942,-0.2118113934993744,-0.5153656005859375,-0.117181546986103,-0.2682190835475921,0.0,0.0,-0.2912401556968689,0.5285861492156982
-0.0850420966744422,1.0796723365783691,-0.205747053027153,-0.534295916557312,-0.1318412721157074,-0.2931943535804748,0.0,0.0,0.2123985290527343,0.977697253227234
-0.0871733650565147,1.0675692558288574,-0.1964345276355743,-0.5394777059555054,-0.1484853029251098,-0.3328810334205627,0.0,0.0,-0.1394333839416504,0.5269718170166016
-0.0892523750662803,1.055040955543518,-0.1900904476642608,-0.5586835145950317,-0.1662861853837967,-0.3560172021389007,0.0,0.0,-0.7193243503570557,0.1559647321701049
-0.09131870418787,1.042103290557861,-0.188857764005661,-0.5771008133888245,-0.1841065138578415,-0.3564062714576721,0.0,0.0,0.4260222911834717,-0.2228579521179199
-0.0933319106698036,1.0298439264297483,-0.1831383258104324,-0.547222912311554,-0.2023948729038238,-0.3657673001289367,0.0,0.0,0.2666733264923095,-0.7570196986198425
-0.0953730568289756,1.0181220769882202,-0.1873629987239837,-0.5233601927757263,-0.2193114012479782,-0.3383302092552185,0.0,0.0,0.0271013975143432,-0.7705814242362976
-0.0973958000540733,1.0064754486083984,-0.1870680600404739,-0.5199648141860962,-0.2347030490636825,-0.3078328967094421,0.0,0.0,-0.429646372795105,-0.781813383102417
-0.0994360893964767,0.9944340586662292,-0.1900536119937896,-0.5374673008918762,-0.2489116191864013,-0.2841715216636657,0.0,0.0,0.2672336101531982,-0.8594544529914856
-0.101419448852539,0.9828518033027648,-0.1860582679510116,-0.5168905258178711,-0.2614343762397766,-0.2504550814628601,0.0,0.0,0.386346697807312,0.2095482349395752
-0.1031829863786697,0.9713627696037292,-0.1645058244466781,-0.512776255607605,-0.2735493183135986,-0.2422980517148971,0.0,0.0,0.0130554437637329,-0.9190137982368468
-0.1048420891165733,0.960204780101776,-0.1559186726808548,-0.4978186786174774,-0.2838098406791687,-0.205210655927658,0.0,0.0,-0.8687282800674438,-0.6204620599746704
-0.106496050953865,0.948647439479828,-0.1563266068696975,-0.5154522061347961,-0.2931392788887024,-0.1865890771150589,0.0,0.0,-0.9142078757286072,-0.8903628587722778
-0.1081846207380294,0.9367086291313172,-0.1618386805057525,-0.5320447683334351,-0.3003891706466675,-0.144998013973236,0.0,0.0,0.6846715211868286,-0.8671258091926575
-0.1095481887459755,0.9255117774009703,-0.1312023997306823,-0.4987173080444336,-0.3057106435298919,-0.1064299345016479,0.0,0.0,-0.3550312519073486,-0.7927539944648743
-0.1109078377485275,0.9139261841773988,-0.1320282518863678,-0.5157559514045715,-0.3097951412200928,-0.0816901996731758,0.0,0.0,0.2275552749633789,-0.7270487546920776
-0.1120229735970497,0.9028053879737854,-0.1090758442878723,-0.4947793781757355,-0.3123267292976379,-0.0506315603852272,0.0,0.0,-0.0966006517410278,-0.7260156869888306
-0.1131445914506912,0.8913065195083618,-0.1113242730498313,-0.5112382173538208,-0.3131924569606781,-0.0173146817833185,0.0,0.0,-0.3596056699752807,-0.8581473231315613
-0.1142710670828819,0.8794155120849609,-0.1133396252989769,-0.528342068195343,-0.3124718070030212,0.0144128771498799,0.0,0.0,0.2659074068069458,-0.5879461765289307
-0.1152986511588096,0.8679409623146057,-0.1044597998261451,-0.5096117258071899,-0.3107103407382965,0.035230029374361,0.0,0.0,0.5623009204864502,-0.7871648073196411
-0.1160535812377929,0.8567184805870056,-0.0789454504847526,-0.4980469644069671,-0.3071390986442566,0.0714247673749923,0.0,0.0,-0.1442260146141052,-0.4641015529632568
-0.1167477592825889,0.8450822234153748,-0.0728644058108329,-0.5164387822151184,-0.3035698235034942,0.0713855177164077,0.0,0.0,-0.4406145811080932,-0.4385210275650024
-0.1173795685172081,0.8330323100090027,-0.0666356161236763,-0.5348305106163025,-0.3000011444091797,0.0713736712932586,0.0,0.0,0.0228420495986938,-0.8830898404121399
-0.1179926842451095,0.8211649656295776,-0.0665301829576492,-0.5263742208480835,-0.2946197986602783,0.1076275259256362,0.0,0.0,-0.2455179095268249,-0.1460305452346801
-0.1185408607125282,0.8088841438293457,-0.0600415170192718,-0.5447672605514526,-0.289236307144165,0.1076699718832969,0.0,0.0,-0.6397190093994141,-0.3380933403968811
-0.1190229430794715,0.7961899638175964,-0.053438514471054,-0.563160240650177,-0.2838494181632995,0.1077378615736961,0.0,0.0,-0.8323538303375244,-0.3516854047775268
-0.1194376945495605,0.7830824255943298,-0.0467307567596435,-0.5815532207489014,-0.2784578800201416,0.1078306213021278,0.0,0.0,-0.8016942143440247,-0.6704265475273132
-0.1198436766862869,0.7695838809013367,-0.0473848059773445,-0.5986601114273071,-0.2714910507202148,0.1393366158008575,0.0,0.0,-0.2416423559188842,0.4280334711074829
-0.1201805099844932,0.7556719779968262,-0.0404940992593765,-0.6170547008514404,-0.2645173370838165,0.1394748836755752,0.0,0.0,-0.5996781587600708,-0.2446973919868469
-0.120447352528572,0.7413470149040222,-0.0335231758654117,-0.635449230670929,-0.2575356662273407,0.1396342515945434,0.0,0.0,-0.7966083884239197,-0.1135743856430053
-0.1206436157226562,0.7266086935997009,-0.0264789406210184,-0.6538437604904175,-0.2505449652671814,0.139813631772995,0.0,0.0,-0.8089583516120911,0.1671192646026611
-0.1207685470581054,0.7114574313163757,-0.0193677358329296,-0.672238290309906,-0.2435443550348281,0.1400118619203567,0.0,0.0,-0.8276267051696777,0.1371839046478271
-0.1208215728402137,0.6958927512168884,-0.0121953776106238,-0.6906328201293945,-0.2365329563617706,0.1402279436588287,0.0,0.0,-0.8066499829292297,-0.2000758051872253
-0.1208020225167274,0.6799151301383972,-0.0049671912565827,-0.7090273499488831,-0.2295099198818206,0.1404607445001602,0.0,0.0,-0.2804466485977173,-0.1166736483573913
-0.120709516108036,0.6635241508483887,0.0023119498509913,-0.7274218797683716,-0.222474455833435,0.1407093107700348,0.0,0.0,-0.4922548532485962,0.1003961563110351
-0.1205433830618858,0.6467199325561523,0.0096375811845064,-0.7458165287971497,-0.2154258340597152,0.1409723907709121,0.0,0.0,-0.6148653030395508,0.1049526929855346
-0.1203033477067947,0.6295025944709778,0.017005618661642,-0.7642112374305725,-0.2083633840084076,0.1412490308284759,0.0,0.0,0.6844559907913208,-0.3694837093353271
-0.119928553700447,0.613130509853363,0.0309837125241756,-0.726749062538147,-0.2018157392740249,0.130952775478363,0.0,0.0,0.1582825183868408,-0.5635667443275452
-0.1195752173662185,0.5967242121696472,0.0278715528547763,-0.7281655073165894,-0.1943008601665496,0.1502977311611175,0.0,0.0,0.7037489414215088,-0.3694943189620971
-0.1189485564827919,0.5810927152633667,0.0549785271286964,-0.6937478184700012,-0.186578020453453,0.1544567793607711,0.0,0.0,0.1299251317977905,0.0557560920715332
-0.1182416900992393,0.5656474828720093,0.0632934421300888,-0.6855419278144836,-0.1791596859693527,0.1483671218156814,0.0,0.0,0.0586272478103637,-0.3498903512954712
-0.1174164786934852,0.5504395961761475,0.0752699375152587,-0.6750481724739075,-0.1718872636556625,0.1454484760761261,0.0,0.0,-0.4039489030838012,-0.2627326250076294
-0.1165153533220291,0.5348185896873474,0.0828239172697067,-0.6934431195259094,-0.1645978540182113,0.1457884460687637,0.0,0.0,0.5172483921051025,-0.6427667140960693
-0.1154147163033485,0.5195662975311279,0.1013020053505897,-0.6769319772720337,-0.15581975877285,0.1755618304014206,0.0,0.0,-0.2429218292236328,-0.4899393320083618
-0.1142376884818077,0.5039011836051941,0.1088973060250282,-0.6953288912773132,-0.147023931145668,0.1759163439273834,0.0,0.0,0.4750099182128906,-0.2392020225524902
-0.1128496155142784,0.488338440656662,0.1295868307352066,-0.6907902956008911,-0.1378269642591476,0.1839390099048614,0.0,0.0,0.3602967262268066,-0.5441945195198059
-0.1112324744462966,0.4730434119701385,0.1510679125785827,-0.6788302659988403,-0.1272296458482742,0.2119467258453369,0.0,0.0,-0.0278640389442443,-0.3925977945327759
-0.1095386520028114,0.4573359489440918,0.1587114632129669,-0.6972302794456482,-0.1166137233376503,0.2123184949159622,0.0,0.0,0.0595196485519409,-0.0722461342811584
-0.1077154129743576,0.4419347047805786,0.1716312021017074,-0.6837024688720703,-0.1059958264231681,0.212358146905899,0.0,0.0,0.2572317123413086,-0.1595568656921386
-0.105730727314949,0.4269782900810241,0.1876402050256729,-0.6639943718910217,-0.0952499955892562,0.2149166613817215,0.0,0.0,-0.0469332933425903,-0.5497949719429016
-0.1037031188607215,0.4116167426109314,0.1910212486982345,-0.6820287704467773,-0.0836149454116821,0.2327009737491607,0.0,0.0,-0.0258532166481018,-0.1654096245765686
-0.101598359644413,0.3958431482315063,0.1987088620662689,-0.7004307508468628,-0.0719604343175888,0.2330901622772216,0.0,0.0,0.496906042098999,-0.6647332310676575
-0.0994876846671104,0.3803575038909912,0.1980301439762115,-0.6876758337020874,-0.0590678974986076,0.2578508555889129,0.0,0.0,0.5627651214599609,0.3267621994018554
-0.0971715897321701,0.3656752109527588,0.2181701958179474,-0.6520682573318481,-0.0457852818071842,0.2656523287296295,0.0,0.0,-0.0079529881477355,-0.2609642148017883
-0.0947781577706337,0.3505814671516418,0.2258780747652053,-0.6704737544059753,-0.0324827246367931,0.2660510838031769,0.0,0.0,0.7785971164703369,-0.2879616022109985
-0.0924133285880088,0.3363666832447052,0.2236129939556121,-0.6315397620201111,-0.0197797492146492,0.2540597021579742,0.0,0.0,0.3216962814331054,0.2698366641998291
-0.0898904800415039,0.3225754201412201,0.2390711009502411,-0.6128206849098206,-0.006734418682754,0.2609065175056457,0.0,0.0,0.3966010808944702,0.4749164581298828
-0.0873311981558799,0.3093243837356567,0.2429061383008957,-0.5889254808425903,0.0061219995841383,0.2571286261081695,0.0,0.0,0.3537847995758056,0.5661439895629883
-0.0847272872924804,0.296585738658905,0.2486401051282882,-0.5662520527839661,0.0177141185849905,0.2318424880504608,0.0,0.0,0.2192373275756836,-0.0738431215286254
-0.0820709243416786,0.2839856445789337,0.2539628148078918,-0.5601791739463806,0.0292421039193868,0.2305598706007003,0.0,0.0,0.4567484855651855,-0.3478927612304687
-0.0794554725289344,0.2717640697956085,0.2503352761268616,-0.5434354543685913,0.0403152331709861,0.2214625775814056,0.0,0.0,-0.0312284231185913,0.170796513557434
-0.0767625793814659,0.2591302990913391,0.258055716753006,-0.5618366003036499,0.0514094978570938,0.221884936094284,0.0,0.0,0.8163256645202637,-0.0982371568679809
-0.0739167183637619,0.2472770065069198,0.2728018462657928,-0.5272582769393921,0.063063658773899,0.2330828607082367,0.0,0.0,0.4106409549713135,-0.4701992273330688
-0.070961095392704,0.2354883104562759,0.2835155129432678,-0.5244896411895752,0.0749814584851265,0.2383563071489334,0.0,0.0,0.7054681777954102,-0.2297350168228149
-0.0678379982709884,0.2244827300310135,0.2995617985725403,-0.4898237287998199,0.0876134186983108,0.2526390850543976,0.0,0.0,0.6481813192367554,-0.3021672964096069
-0.0647281631827354,0.2142193168401718,0.2983298301696777,-0.4569416344165802,0.1001614555716514,0.2509606480598449,0.0,0.0,0.0760866403579711,-0.5898746252059937
-0.0615403167903423,0.2043905556201934,0.3047885298728943,-0.4378319680690765,0.1140561029314994,0.2778927385807037,0.0,0.0,0.2380068302154541,-0.4922618865966797
-0.058268167078495,0.1948076337575912,0.3129547238349914,-0.4270586371421814,0.1282371431589126,0.283621221780777,0.0,0.0,0.0553349256515502,-0.2882013320922851
-0.0549903884530067,0.1855885535478592,0.3135375082492828,-0.4110198318958282,0.1424190700054168,0.2836385071277618,0.0,0.0,-0.1641403436660766,-0.5341573357582092
-0.051673986017704,0.1759552061557769,0.3164485096931457,-0.4296721220016479,0.1575812250375747,0.3032431602478027,0.0,0.0,0.1452412605285644,-0.1811208128929138
-0.0482756607234478,0.1663950979709625,0.3243868350982666,-0.4266000390052795,0.1730242818593979,0.3088608980178833,0.0,0.0,0.272477388381958,-0.0109202861785888
-0.0449758544564247,0.1571036428213119,0.3149999678134918,-0.4147672355175018,0.1880543529987335,0.3006016314029693,0.0,0.0,-0.1397914290428161,0.2697298526763916
-0.0415997505187988,0.1474014073610305,0.3226422667503357,-0.4331770241260528,0.203107476234436,0.3010624051094055,0.0,0.0,0.5097496509552002,-0.2597231864929199
-0.038270853459835,0.1380392163991928,0.3180433511734009,-0.4182019531726837,0.2180928289890289,0.2997071146965027,0.0,0.0,0.2040365934371948,-0.265795350074768
-0.0349316596984863,0.1288418173789978,0.3190056681632995,-0.4110475480556488,0.2331892400979995,0.3019283711910248,0.0,0.0,0.1411582231521606,-0.2088508605957031
-0.0314864143729209,0.1196274608373642,0.3292260468006134,-0.4120222926139831,0.2487266808748245,0.3107489943504333,0.0,0.0,0.7337689399719238,-0.5408250093460083
-0.028078556060791,0.1110728606581687,0.3241847455501556,-0.3831027746200561,0.2656749784946441,0.3389661312103271,0.0,0.0,0.660189151763916,-0.0965741276741027
-0.0247840881347656,0.1032915189862251,0.3127759993076324,-0.3489547371864319,0.2827640771865845,0.3417818248271942,0.0,0.0,0.6665239334106445,-0.0216928124427795
