x_pos,y_pos,x_vel,y_vel,angle,ang_vel,leg_1,leg_2,main_booster,lat_booster
-0.0016068458789959,1.4029080867767334,-0.1627014130353927,-0.3560912311077118,0.0018119850428774,0.0357467755675315,0.0,0.0,-0.284633994102478,0.4361704587936401
-0.0032953261397778,1.394202709197998,-0.1706173717975616,-0.3869042098522186,0.003559224307537,0.0349485501646995,0.0,0.0,0.7943780422210693,0.4855921268463135
-0.0049196244217455,1.3854395151138306,-0.1648789346218109,-0.3894838094711303,0.0059799076989293,0.0484182015061378,0.0,0.0,0.4616529941558838,0.9743547439575196
-0.0066672326065599,1.3766191005706787,-0.1751182824373245,-0.3920162320137024,0.0063213920220732,0.0068306922912597,0.0,0.0,0.7707207202911377,0.8957295417785645
-0.0082697868347167,1.3681355714797974,-0.1590676605701446,-0.3770408928394317,0.0051462701521813,-0.0235046129673719,0.0,0.0,0.3655993938446045,0.8205604553222656
-0.0097533222287893,1.3596093654632568,-0.1456598192453384,-0.378941923379898,0.0024882820434868,-0.0531649962067604,0.0,0.0,-0.3063946366310119,0.7158057689666748
-0.0112507818266749,1.3503669500350952,-0.1456445902585983,-0.4107730984687805,-0.0015685711987316,-0.0811444669961929,0.0,0.0,0.624884843826294,0.5564615726470947
-0.0126105304807424,1.3413640260696411,-0.1311545073986053,-0.4001423418521881,-0.0063375886529684,-0.0953892469406127,0.0,0.0,0.213811993598938,0.1193312406539917
-0.014036750420928,1.3325670957565308,-0.1377142667770385,-0.3910030424594879,-0.0111905233934521,-0.0970675870776176,0.0,0.0,-0.0959448218345642,0.1521209478378296
-0.0155207635834813,1.3230540752410889,-0.1434501409530639,-0.4228494465351105,-0.0160882510244846,-0.097963348031044,0.0,0.0,0.5115729570388794,0.7793282270431519
-0.0169009212404489,1.3136377334594729,-0.1316055953502655,-0.4185838401317596,-0.0224252808839082,-0.1267524510622024,0.0,0.0,-0.0358110666275024,0.2556154727935791
-0.0183308608829975,1.303505539894104,-0.1365339756011963,-0.4504345059394836,-0.0288133807480335,-0.1277739256620407,0.0,0.0,-0.2230480313301086,0.9185391664505004
-0.0197182651609182,1.2926583290100098,-0.1299779713153839,-0.482279360294342,-0.0374712012708187,-0.1731722801923751,0.0,0.0,0.3124452829360962,0.8676712512969971
-0.0210050586611032,1.281503677368164,-0.1181971281766891,-0.4960595965385437,-0.047846995294094,-0.2075350284576416,0.0,0.0,-0.5032967925071716,-0.0813439488410949
-0.0223280899226665,1.2696338891983032,-0.121762990951538,-0.5279127955436707,-0.0582844205200672,-0.2087674885988235,0.0,0.0,-0.4437717795372009,-0.1293569803237915
-0.0236824993044137,1.2570492029190063,-0.1248444467782974,-0.5597626566886902,-0.0687876567244529,-0.2100840061903,0.0,0.0,-0.153550386428833,-0.6714990735054016
-0.0251038558781147,1.2437615394592283,-0.1325092911720276,-0.5910319089889526,-0.0783290416002273,-0.190844789147377,0.0,0.0,-0.1923723220825195,-0.2199644446372985
-0.0265465732663869,1.229758620262146,-0.134585365653038,-0.6228815317153931,-0.0879441499710083,-0.1923190802335739,0.0,0.0,0.9033932685852052,-0.9425739645957948
-0.0278745647519826,1.216424584388733,-0.1251491457223892,-0.5930870175361633,-0.0955366492271423,-0.1518635004758834,0.0,0.0,0.569913387298584,-0.8905336260795593
-0.0293181426823139,1.2031996250152588,-0.1382904946804046,-0.5881725549697876,-0.1015598848462104,-0.120475634932518,0.0,0.0,-0.3278175592422485,-0.8089298009872437
-0.0308173187077045,1.1892722845077517,-0.1450519114732742,-0.6193303465843201,-0.106396347284317,-0.096737802028656,0.0,0.0,0.0798844099044799,-0.8181015849113464
-0.0323422439396381,1.1750645637512207,-0.149181991815567,-0.6316930055618286,-0.1096901148557663,-0.0658809691667556,0.0,0.0,0.6580884456634521,-0.4541620016098022
-0.0336734764277935,1.1609339714050293,-0.1303190439939499,-0.6282361745834351,-0.1124719902873039,-0.055642407387495,0.0,0.0,0.3278398513793945,-0.8125778436660767
-0.0349681861698627,1.1464520692825315,-0.1282752603292465,-0.6437297463417053,-0.1136617138981819,-0.0237967781722545,0.0,0.0,0.42779541015625,-0.7005175352096558
-0.0363749489188194,1.1321173906326294,-0.1405420452356338,-0.637111485004425,-0.1137943565845489,-0.0026531484909355,0.0,0.0,0.0611428022384643,-0.0152167677879333
-0.0378052704036235,1.1177349090576172,-0.142358511686325,-0.6392744183540344,-0.1144647672772407,-0.0134080480784177,0.0,0.0,-0.4169473648071289,-0.5819252729415894
-0.0392560958862304,1.1026475429534912,-0.145467922091484,-0.6705169677734375,-0.1140882670879364,0.007530104368925,0.0,0.0,0.1735919713973999,-0.2826189994812011
-0.0407031066715717,1.0877336263656616,-0.1445371359586715,-0.6628568172454834,-0.1142526790499687,-0.0032883021049201,0.0,0.0,0.5214416980743408,0.8570828437805176
-0.042101003229618,1.0731849670410156,-0.1375978291034698,-0.6467759609222412,-0.1164241731166839,-0.043430034071207,0.0,0.0,0.2837316989898681,-0.9306358098983764
-0.0435085296630859,1.058497190475464,-0.1403152644634246,-0.652824342250824,-0.1168678849935531,-0.008874082006514,0.0,0.0,0.6171138286590576,0.2123769521713256
-0.0447587966918945,1.0443246364593506,-0.124539628624916,-0.6299314498901367,-0.1173465549945831,-0.0095733487978577,0.0,0.0,0.1232361793518066,-0.913244128227234
-0.0460614189505577,1.0298980474472046,-0.1314859241247177,-0.6410881280899048,-0.1161360889673233,0.0242094583809375,0.0,0.0,0.1653355360031128,0.1985070705413818
-0.0473059639334678,1.015607833862305,-0.1252782642841339,-0.6350587010383606,-0.1153190433979034,0.0163409449160099,0.0,0.0,-0.8431717753410339,-0.0793196558952331
-0.0484964363276958,1.0006014108657837,-0.1197457164525985,-0.6668990254402161,-0.1146278604865074,0.0138238100335001,0.0,0.0,-0.8496291041374207,-0.2595747113227844
-0.0496294982731342,0.9848788380622864,-0.1138688325881958,-0.6987393498420715,-0.1140641719102859,0.011273912154138,0.0,0.0,0.5582973957061768,0.2537479400634765
-0.0506034865975379,0.9695002436637878,-0.0979219675064086,-0.6834539771080017,-0.1135500743985176,0.0102817695587873,0.0,0.0,-0.4155467748641968,-0.6622926592826843
-0.0515683181583881,0.9534114599227904,-0.0982614755630493,-0.7149257659912109,-0.1117884665727615,0.0352322831749916,0.0,0.0,-0.6073205471038818,-0.33556067943573
-0.0524666793644428,0.9366065263748168,-0.0914719626307487,-0.7467663288116455,-0.1101579442620277,0.0326102264225482,0.0,0.0,0.435007095336914,0.2147958278656005
-0.0532492622733116,0.9201821088790894,-0.0796066001057624,-0.72987300157547,-0.108817458152771,0.0268098711967468,0.0,0.0,0.0035589933395385,0.2674663066864013
-0.0539029128849506,0.9035893082618712,-0.066665880382061,-0.7373616099357605,-0.1075300872325897,0.0257476828992366,0.0,0.0,-0.1076720356941223,-0.1232231259346008
-0.0544825568795204,0.8862804174423218,-0.0591325163841247,-0.7692019939422607,-0.1063755899667739,0.0230900030583143,0.0,0.0,-0.2029883861541748,-0.5211783051490784
-0.0550188049674034,0.8682595491409302,-0.0554847940802574,-0.8008032441139221,-0.1045282557606697,0.0369469225406646,0.0,0.0,0.2000167369842529,-0.6266689300537109
-0.0554247871041297,0.8498507142066956,-0.0437103435397148,-0.8179517984390259,-0.1014421507716178,0.0617221109569072,0.0,0.0,0.424124002456665,-0.2271816730499267
-0.0556195266544818,0.8313928246498108,-0.0228496138006448,-0.8201218843460083,-0.0980932116508483,0.0669787228107452,0.0,0.0,-0.2034639120101928,0.6482663154602051
-0.0556855201721191,0.8122043609619141,-0.0086261304095387,-0.8526949286460876,-0.0960848778486251,0.0401662811636924,0.0,0.0,0.5541107654571533,-0.1754252910614013
-0.0555952079594135,0.7927626967430115,0.0069467746652662,-0.8639405369758606,-0.0940089523792266,0.0415183193981647,0.0,0.0,0.1097370386123657,0.0743950605392456
-0.0553510673344135,0.7730473875999451,0.0222550518810749,-0.8761021494865417,-0.0918752253055572,0.0426744893193244,0.0,0.0,-0.1233007907867431,0.7956912517547607
-0.0549694076180458,0.7526174187660217,0.0374415963888168,-0.9079574346542358,-0.0911595448851585,0.0143135618418455,0.0,0.0,-0.0636464357376098,-0.511376142501831
-0.0545494072139263,0.7314823269844055,0.0401560105383396,-0.939221739768982,-0.0893289223313331,0.0366125889122486,0.0,0.0,0.4904478788375854,0.1575485467910766
-0.0540189743041992,0.7103192210197449,0.0514098778367042,-0.940485417842865,-0.0877157896757125,0.032262772321701,0.0,0.0,0.2334864139556884,-0.0645519495010376
-0.0532550811767578,0.6890629529953003,0.0743903964757919,-0.9446080327033995,-0.08573529869318,0.039609707891941,0.0,0.0,0.452129602432251,-0.1232050657272338
-0.052395723760128,0.6680645942687988,0.0843027904629707,-0.9331640601158142,-0.0841157734394073,0.0323903039097785,0.0,0.0,0.3399672508239746,-0.7675849199295044
-0.0513761527836322,0.646880030632019,0.0987743362784385,-0.941364586353302,-0.0809613838791847,0.0630877763032913,0.0,0.0,0.788499116897583,-0.8104172945022583
-0.0502542480826377,0.6262850761413574,0.1074920669198036,-0.915080428123474,-0.076307289302349,0.0930819362401962,0.0,0.0,0.5631316900253296,-0.8523268103599548
-0.0489144325256347,0.6056507229804993,0.1274562031030655,-0.9167595505714417,-0.0698472112417221,0.1292016953229904,0.0,0.0,0.8008127212524414,-0.3223664164543152
-0.0475489608943462,0.5850801467895508,0.1306221038103103,-0.9139843583106996,-0.0639900788664817,0.1171424612402916,0.0,0.0,0.8265457153320312,-0.7405821084976196
-0.0459781661629676,0.5651144981384277,0.1495276838541031,-0.8870612978935242,-0.056526094675064,0.1492797434329986,0.0,0.0,0.7392497062683105,-0.7101911306381226
-0.0441704764962196,0.5454908609390259,0.1715524941682815,-0.8718364238739014,-0.0474178530275821,0.1821648776531219,0.0,0.0,0.8161430358886719,-0.6917263865470886
-0.0421900749206543,0.5265130400657654,0.1873325407505035,-0.8431538939476013,-0.0368390977382659,0.2115751951932907,0.0,0.0,0.2782799005508423,-0.5300331115722656
-0.0401973724365234,0.5077422261238098,0.1877491772174835,-0.8340094685554504,-0.025458987802267,0.2276021689176559,0.0,0.0,0.9292566776275636,-0.8325260877609253
-0.0380979552865028,0.4888984858989715,0.1967186629772186,-0.8373300433158875,-0.0124005451798439,0.2611688077449798,0.0,0.0,0.8059866428375244,0.2118231058120727
-0.0360018722712993,0.4704924523830414,0.1970090121030807,-0.8179846405982971,4.018849358544685e-05,0.248814508318901,0.0,0.0,0.9116990566253662,-0.2994908094406128
-0.0336657539010047,0.4522698819637298,0.2204502522945404,-0.809941291809082,0.0130332931876182,0.2598621249198913,0.0,0.0,0.8389613628387451,-0.5821361541748047
-0.0312590599060058,0.4343572854995727,0.2263611257076263,-0.7963023781776428,0.0271532200276851,0.2823988497257232,0.0,0.0,0.8100556135177612,0.119059681892395
-0.0287580490112304,0.4163897037506103,0.235867828130722,-0.7988760471343994,0.0412080511450767,0.2810964584350586,0.0,0.0,0.8906018733978271,0.2462782859802246
-0.0263284686952829,0.3987131118774414,0.2295001298189163,-0.7860517501831055,0.0545048750936985,0.2659367322921753,0.0,0.0,0.9880313873291016,0.1486690044403076
-0.0238309856504201,0.3818669021129608,0.2362821400165558,-0.7492643594741821,0.0678206011652946,0.2663144469261169,0.0,0.0,0.969482421875,0.1441024541854858
-0.0211611744016408,0.3648382425308227,0.253176599740982,-0.757508397102356,0.0814904645085334,0.2733969688415527,0.0,0.0,0.9904534816741944,0.2708802223205566
-0.0184439662843942,0.3486373424530029,0.2578701376914978,-0.7208549976348877,0.0952144935727119,0.2744809091091156,0.0,0.0,0.9763104915618896,0.2722371816635132
-0.0157938953489065,0.3325516581535339,0.2517911195755005,-0.7158108353614807,0.1083234846591949,0.2621799111366272,0.0,0.0,0.948458194732666,0.0649189949035644
-0.0132390977814793,0.316924899816513,0.2428949177265167,-0.6954814195632935,0.1208393573760986,0.2503169476985931,0.0,0.0,0.990211009979248,0.0646930932998657
-0.0106387138366699,0.3017067611217499,0.2473731487989425,-0.6774328351020813,0.1334365308284759,0.2519434094429016,0.0,0.0,0.9972164630889891,0.5838638544082642
-0.0081941606476902,0.2872743904590606,0.2335579842329025,-0.6424512267112732,0.1443052589893341,0.217374175786972,0.0,0.0,0.8442848920822144,0.1359182596206665
-0.0056617734953761,0.2731016874313354,0.2420473545789718,-0.6310203671455383,0.1554674506187439,0.2232443839311599,0.0,0.0,0.9766678810119628,0.4960122108459472
-0.0031425475608557,0.2588980495929718,0.2410297393798828,-0.632447361946106,0.1663591861724853,0.2178347110748291,0.0,0.0,0.9441280364990234,0.492874264717102
-0.0005084991571493,0.2445651888847351,0.2522452175617218,-0.6383038759231567,0.1775391697883606,0.2235999554395675,0.0,0.0,0.9959619045257568,0.102202296257019
0.0021147727966308,0.2301126569509506,0.2514495551586151,-0.6436721682548523,0.1884626597166061,0.218469351530075,0.0,0.0,0.9987668991088868,0.8318138122558594
0.0047102929092943,0.2163816094398498,0.2504605948925018,-0.6114526987075806,0.1976099163293838,0.1829452067613601,0.0,0.0,0.9925129413604736,-0.3959628343582153
0.0073066712357103,0.2034105807542801,0.2501896023750305,-0.5777798295021057,0.2071275264024734,0.1903521716594696,0.0,0.0,0.9771105051040648,0.5286855697631836
0.0097022056579589,0.1911339312791824,0.2316744774580001,-0.5467494130134583,0.2150807380676269,0.1590641736984253,0.0,0.0,0.8751933574676514,0.3056464195251465
0.0119732860475778,0.1786455065011978,0.219981700181961,-0.5560982823371887,0.2222821116447448,0.1440272629261016,0.0,0.0,0.9189785718917848,0.2155728340148925
0.0141866682097315,0.1667999327182769,0.2140932977199554,-0.527577817440033,0.2296293377876281,0.1469443142414093,0.0,0.0,0.9383856058120728,0.552257776260376
0.0162651054561138,0.155196413397789,0.2021178007125854,-0.5166155695915222,0.2354314178228378,0.1160420998930931,0.0,0.0,0.7564632892608643,-0.383003830909729
0.018217658624053,0.1439074575901031,0.1898756772279739,-0.5026034712791443,0.2408962100744247,0.1092957109212875,0.0,0.0,0.8488302230834961,-0.3109464645385742
0.0200693123042583,0.1330374330282211,0.1799201965332031,-0.483984500169754,0.2462327629327774,0.1067314893007278,0.0,0.0,0.8745100498199463,-0.1952322125434875
0.0219546314328908,0.1224476397037506,0.182908296585083,-0.4716117680072784,0.2519620656967163,0.1145859137177467,0.0,0.0,0.9779741764068604,-0.1948981881141662
0.0238636974245309,0.1117475628852844,0.1852216869592666,-0.4765441119670868,0.2577590942382812,0.1159399524331092,0.0,0.0,0.9235858917236328,-0.7861726880073547
0.0258061401546001,0.1010271608829498,0.186822310090065,-0.4777843058109283,0.2653437256813049,0.1516924500465393,0.0,0.0,0.9684202671051024,-0.3360633850097656
0.0278372764587402,0.0906447246670723,0.1949659883975982,-0.4629348516464233,0.2736780047416687,0.166685864329338,0.0,0.0,0.9535858631134032,-0.6404231786727905
0.0299620628356933,0.0802667960524559,0.2027023285627365,-0.4631052017211914,0.2837170362472534,0.2007802426815033,0.0,0.0,0.8897796869277954,-0.4940412640571594
0.0319372192025184,0.070408284664154,0.1878581941127777,-0.4400676488876343,0.2936671078205108,0.1990016996860504,0.0,0.0,0.9649221897125244,-0.431713342666626
0.0337834358215332,0.061145719140768,0.1748707294464111,-0.4136665463447571,0.3037295043468475,0.2012478411197662,0.0,0.0,0.9643769264221193,0.2655763626098633
0.0356301292777061,0.0523696057498455,0.1743489503860473,-0.3922419250011444,0.3144198656082153,0.2138074189424514,0.0,0.0,0.9568110704421996,0.2659960985183716
0.0375667586922645,0.0434854142367839,0.182909220457077,-0.3972288370132446,0.3256067335605621,0.2237372100353241,0.0,0.0,0.996757745742798,0.3559508323669433
0.0393418297171592,0.0347302518784999,0.1671337187290191,-0.3914919793605804,0.336444616317749,0.2167576551437378,0.0,0.0,0.9970064163208008,-0.0555729866027832
0.0410024635493755,0.0279707293957471,0.1721651256084442,-0.2989811599254608,0.3302331864833832,-0.1239917501807212,0.0,1.0,0.9996826648712158,0.8906593322753906
0.042368222028017,0.0223198514431715,0.1618556678295135,-0.245678037405014,0.3036753833293915,-0.5315586924552917,0.0,1.0,0.9993630647659302,-0.6243958473205566
0.043125819414854,0.0180211644619703,0.1189436316490173,-0.1826689392328262,0.2592432498931885,-0.8886731863021851,0.0,1.0,0.9909532070159912,-0.955249011516571
0.0436335578560829,0.0147274108603596,0.1035840958356857,-0.1379731297492981,0.2055762857198715,-1.0734246969223022,0.0,1.0,0.974334478378296,-0.915888249874115
0.0438012108206748,0.0120995612815022,0.0701822489500045,-0.1102750152349472,0.1518998593091964,-1.0736225843429563,0.0,1.0,0.960572361946106,-0.9443657994270324
0.0436800941824913,0.0100373364984989,0.0384218841791152,-0.0872867554426193,0.1015560775995254,-1.00691819190979,0.0,1.0,0.7967400550842285,-0.8728286027908325
0.0434045791625976,0.0080816121771931,0.0215281173586845,-0.0843162387609481,0.0529302507638931,-0.9725565910339355,0.0,0.0,-0.5182211995124817,-0.9822763800621032
0.0431309714913368,0.0054337359033524,0.0195280853658914,-0.116686925292015,0.0065869763493537,-0.9269036054611206,0.0,0.0,0.3687072992324829,-0.9988260865211488
0.0427258498966693,0.0027438735123723,0.0045246193185448,-0.119960218667984,-0.0378999821841716,-0.8897765874862671,0.0,0.0,0.7585190534591675,-0.9946338534355164
0.0425670631229877,0.0012524223420768,0.0075911758467555,-0.0670729503035545,-0.0610213279724121,-0.4623327255249023,1.0,0.0,0.5280896425247192,-0.4031369090080261
0.0426054000854492,0.0002326464600628,0.0078133158385753,-0.0454996228218078,-0.0649015456438064,-0.0775438696146011,1.0,0.0,0.047881007194519,0.0509278774261474
0.0428760536015033,-0.0001805567735573,0.0133023876696825,-0.017833687365055,-0.0512416772544384,0.2732668220996856,1.0,0.0,-0.9029511213302612,0.2315797805786132
0.0432113632559776,-0.0009115838911384,0.0086767533794045,-0.0318275764584541,-0.0266372673213481,0.4921666979789734,1.0,0.0,-0.4589109420776367,0.5061991214752197
0.0436302199959754,-0.0021721506491303,0.0126439705491065,-0.055768571794033,0.002272566081956,0.578250527381897,1.0,1.0,0.7074223756790161,0.5485391616821289
0.0440216064453125,-0.0027914547827094,0.023818451911211,-0.0277537032961845,0.0168618839234113,0.2911182045936584,1.0,1.0,-0.038583755493164,0.9469108581542968
0.0443169586360454,-0.0034091139677911,0.0299657229334115,-0.0274601317942142,0.016452919691801,-0.0081605250015854,1.0,1.0,-0.5534496903419495,-0.1825162172317505
0.0445263870060443,-0.0037824774626642,0.0269816257059574,-0.0165492463856935,0.0105367144569754,-0.1182770580053329,1.0,1.0,-0.3332890272140503,-0.3996399641036987
0.0446319580078125,-0.0037825845647603,0.0168085433542728,1.2823236829717644e-05,0.0043908865191042,-0.1228860020637512,1.0,1.0,-0.703586995601654,-0.5145650506019592
0.0446888916194438,-0.00347595452331,0.0090822018682956,0.0136405192315578,0.0010153212351724,-0.0675456523895263,1.0,1.0,-0.944166898727417,-0.2422628402709961
0.0447659492492675,-0.0028872275725007,0.0094476211816072,0.0261579100042581,-0.0007097625639289,-0.0345014408230781,1.0,1.0,-0.9020234942436218,-0.3367325067520141
0.044863510876894,-0.0020308517850935,0.0097927069291472,0.0380612052977085,-0.0007479670457541,-0.0007642417331226,1.0,1.0,-0.4786657094955444,-0.0507428646087646
0.0449698455631732,-0.0009607577230781,0.0099416077136993,0.0475591495633125,-5.864676131750457e-05,0.0137844430282711,1.0,1.0,-0.849055290222168,-0.1447969675064087
0.0450747497379779,-0.0006366753368638,0.0098879439756274,0.0144036589190363,0.0005386223783716,0.0119451349601149,1.0,1.0,-0.7688302993774414,-0.1702542304992675
0.0451376922428607,-0.0006393933435902,0.0062916250899434,-0.0001221049897139,0.0005370841245166,-2.959035373351071e-05,1.0,1.0,-0.9306667447090148,0.1268497705459594
0.0451470389962196,-0.0006416821270249,0.0009488733485341,-0.0001034960514516,0.0005234160344116,-0.0002658291778061,1.0,1.0,-0.8215612769126892,0.0292170047760009
0.045132827013731,-0.0006417536642402,-0.0014390568248927,-2.3162306206359062e-06,0.0005450256867334,0.0004205294535495,1.0,1.0,-0.780584990978241,0.0854195356369018
