x_pos,y_pos,x_vel,y_vel,angle,ang_vel,leg_1,leg_2,main_booster,lat_booster
-0.0015023231972008,1.403254508972168,-0.1519834697246551,-0.3406930863857269,0.00156927597709,0.0309408400207757,0.0,0.0,-0.0883521922591816,0.561244675962182
-0.0029354095458984,1.3952394723892212,-0.1434389352798462,-0.356223315000534,0.0017084858845919,0.0027850032784044,0.0,0.0,-0.2040822773139137,-0.9658787219351708
-0.0044056894257664,1.3868467807769775,-0.1484986692667007,-0.373009592294693,0.0031545204110443,0.0289233140647411,0.0,0.0,-0.5984983643250719,0.6941555280036044
-0.0058103562332689,1.378082036972046,-0.1406397223472595,-0.3895447552204132,0.0033202026970684,0.0033142745960503,0.0,0.0,0.0712022416570035,0.5527473502687326
-0.0070580481551587,1.3695839643478394,-0.1238297000527381,-0.377691239118576,0.0023871001321822,-0.0186637695878744,0.0,0.0,0.4900263368805719,-0.6214035859386309
-0.0081989290192723,1.361449956893921,-0.114522635936737,-0.3615137338638305,0.002828056924045,0.0088199498131871,0.0,0.0,-0.0856138432295852,0.9305895996472846
-0.0092470170930027,1.3529462814331057,-0.1032952219247818,-0.3779432475566864,0.0013314960524439,-0.0299339797347784,0.0,0.0,0.6064471877813375,-0.5691518969318106
-0.0101619716733694,1.3450181484222412,-0.0913826450705528,-0.35236257314682,0.0012187469983473,-0.0022551568690687,0.0,0.0,0.5755165833802138,-0.8187716303596172
-0.0111327171325683,1.337925672531128,-0.0984319522976875,-0.3152241706848144,0.0025516392197459,0.0266603790223598,0.0,0.0,-0.4074941432655365,-0.9308191641828234
-0.0121545791625976,1.3304685354232788,-0.1052495092153549,-0.3314307332038879,0.0055842157453298,0.0606569722294807,0.0,0.0,-0.2394870982195589,0.977007485006657
-0.0130659099668264,1.322643160820007,-0.091820128262043,-0.3477976620197296,0.0062633417546749,0.013583667576313,0.0,0.0,-0.9320741047689396,-0.642744268493399
-0.0139991762116551,1.3144460916519165,-0.0950272530317306,-0.364323079586029,0.0079350909218192,0.0334382355213165,0.0,0.0,-0.8792960535142023,0.5596813682679097
-0.0148561475798487,1.305882453918457,-0.085896149277687,-0.3806032836437225,0.0081301219761371,0.003901005256921,0.0,0.0,-0.1894329197032878,0.6220988342916395
-0.015635585412383,1.2969437837600708,-0.076625108718872,-0.3972672820091247,0.0068324729800224,-0.0259555969387292,0.0,0.0,-0.6388900933368109,0.6167149581931308
-0.0163318626582622,1.287642240524292,-0.0666825026273727,-0.4133920967578888,0.0039147129282355,-0.0583605878055095,0.0,0.0,0.2548905249935518,-0.8594452467740044
-0.0169781688600778,1.2782994508743286,-0.0633779019117355,-0.4152292609214782,0.002681684680283,-0.0246626827865839,0.0,0.0,-0.2180059220176693,0.5842920188433618
-0.0175445564091205,1.2685939073562622,-0.053855113685131,-0.431360512971878,-7.145197014324367e-05,-0.0550678744912147,0.0,0.0,0.3022521167690155,-0.661424304092058
-0.018015194684267,1.258955717086792,-0.0457387305796146,-0.4283640086650848,-0.001379836932756,-0.0261698402464389,0.0,0.0,0.4436254529719321,0.5132016314106049
-0.0183294303715229,1.2500040531158447,-0.0292330179363489,-0.3978462219238281,-0.0035516263451427,-0.0434397347271442,0.0,0.0,-0.7528294712359032,0.7070470881731108
-0.0185717586427927,1.2406820058822632,-0.0207439009100198,-0.4143262505531311,-0.0070058028213679,-0.0690897107124328,0.0,0.0,-0.3846194801964697,0.9873296367109626
-0.0186959262937307,1.2309967279434204,-0.0064569204114377,-0.4305009841918945,-0.0128927044570446,-0.1177484989166259,0.0,0.0,-0.7601926325835955,-0.5531832046231432
-0.0188390724360942,1.2209393978118896,-0.0094105452299118,-0.4470399022102356,-0.0177476443350315,-0.0971073135733604,0.0,0.0,-0.0905913839230863,-0.9438086926254904
-0.019016932696104,1.21051287651062,-0.0143334064632654,-0.4634563326835632,-0.0211681891232728,-0.068416878581047,0.0,0.0,-0.2532393706638718,-0.8327922653750879
-0.0192294120788574,1.1997087001800537,-0.0192330218851566,-0.4802098572254181,-0.023151995614171,-0.0396795533597469,0.0,0.0,0.3703093989878903,0.6144021585829378
-0.0194860454648733,1.1893398761749268,-0.0221487022936344,-0.4608989655971527,-0.0266307704150676,-0.0695817619562149,0.0,0.0,-0.7170339532298353,0.7056039477048011
-0.0196765903383493,1.178581714630127,-0.0144574623554945,-0.4782277643680572,-0.0311762169003486,-0.090908408164978,0.0,0.0,0.4904687702033703,0.5748558997342721
-0.0197733882814645,1.168437957763672,-0.0039349272847175,-0.4509674310684204,-0.0368487052619457,-0.1134499683976173,0.0,0.0,-0.221815380756386,0.5735530199381822
-0.0198102947324514,1.157928705215454,0.0029332940466701,-0.467256098985672,-0.0433948226273059,-0.1309219747781753,0.0,0.0,-0.3614788302662222,-0.6572045214671942
-0.0198861118406057,1.1470593214035034,-0.0025896402075886,-0.4832300245761871,-0.0483183823525905,-0.0984713733196258,0.0,0.0,0.2284526244945022,0.9093932361186844
-0.0198662765324115,1.1363563537597656,0.0087597081437706,-0.4759164154529571,-0.0550183691084384,-0.1339994221925735,0.0,0.0,0.9186610633228895,0.8456527335916433
-0.0196768753230571,1.1267589330673218,0.0273028817027807,-0.426882654428482,-0.0632962957024574,-0.1655588895082473,0.0,0.0,-0.9735251069068908,-0.9421873092651368
-0.0195472724735736,1.1167947053909302,0.0191175006330013,-0.4431275129318237,-0.0693905502557754,-0.1218850016593933,0.0,0.0,-0.9486476182937622,-0.9683912396430968
-0.0194796565920114,1.1064790487289429,0.0106273330748081,-0.4586625695228576,-0.0732107833027839,-0.0764048770070076,0.0,0.0,-0.8544903993606567,-0.8702394366264343
-0.0194636341184377,1.0957939624786377,0.0034291346091777,-0.4749888181686401,-0.0750252529978752,-0.0362892039120197,0.0,0.0,-0.8885914087295532,-0.74837327003479
-0.0194804184138774,1.0847468376159668,-0.0014085303992033,-0.4909990429878235,-0.0752855166792869,-0.0052055669948458,0.0,0.0,-0.8871139287948608,-0.7858299016952515
-0.0195322036743164,1.073342204093933,-0.0065669142641127,-0.5067989230155945,-0.0739107131958007,0.0274959113448858,0.0,0.0,-0.9414560794830322,-0.1699258089065551
-0.0195591934025287,1.0615676641464231,-0.0042158584110438,-0.5232393145561218,-0.0724080726504325,0.0300527364015579,0.0,0.0,-0.8832352161407471,0.2045040130615234
-0.0195612907409667,1.0494232177734375,-0.0018723781686276,-0.5396796464920044,-0.0707656890153884,0.032847736030817,0.0,0.0,-0.9078456163406372,-0.0581859946250915
-0.0195384975522756,1.036908507347107,0.0004629110335372,-0.556119978427887,-0.0689718052744865,0.0358779057860374,0.0,0.0,-0.7794092297554016,-0.2410663962364196
-0.0194909088313579,1.0240238904953003,0.0027893434744328,-0.5725603103637695,-0.0670148134231567,0.0391396656632423,0.0,0.0,-0.9145349860191344,0.1370528936386108
-0.0194183345884084,1.010769248008728,0.0051061976701021,-0.5890007019042969,-0.0648833662271499,0.042629025876522,0.0,0.0,-0.956264853477478,-0.0505955219268798
-0.0193207748234272,0.9971446394920348,0.0074126878753304,-0.605441153049469,-0.0625662878155708,0.0463413447141647,0.0,0.0,-0.9930514693260192,-0.2110350728034973
-0.0191982276737689,0.9831497669219972,0.0097079630941152,-0.6218816041946411,-0.0600527040660381,0.0502716898918151,0.0,0.0,-0.9651615023612976,0.4274752140045166
-0.0190508849918842,0.9687851667404176,0.0119910929352045,-0.6383221745491028,-0.0573319643735885,0.0544146709144115,0.0,0.0,-0.9656192064285278,-0.0388380289077758
-0.0188785549253225,0.954050600528717,0.0142610566690564,-0.654762864112854,-0.0543937422335147,0.0587645359337329,0.0,0.0,-0.9504314661026,-0.5489243865013123
-0.0187216755002737,0.9389436841011048,0.0114693278446793,-0.671269416809082,-0.050220038741827,0.0834741741418838,0.0,0.0,-0.9528736472129822,0.5978724956512451
-0.0184880252927541,0.9234597086906432,0.0202285591512918,-0.6880749464035034,-0.0471198819577693,0.0620030984282493,0.0,0.0,-0.8807194828987122,0.0602134466171264
-0.018229579553008,0.9076055884361268,0.0224519539624452,-0.704515814781189,-0.0437730439007282,0.0669366344809532,0.0,0.0,-0.7677996754646301,0.210639476776123
-0.0179466251283884,0.8913817405700684,0.0246570743620395,-0.7209568619728088,-0.0401704460382461,0.0720517188310623,0.0,0.0,-0.8121033310890198,0.6280784606933594
-0.0175911895930767,0.8747832179069519,0.0328502282500267,-0.7376396656036377,-0.0375092402100563,0.0532242357730865,0.0,0.0,-0.7317519187927246,0.3377931118011474
-0.0172113422304391,0.8578147888183594,0.0350139066576957,-0.7540804147720337,-0.0345751158893108,0.0586824044585228,0.0,0.0,-0.8418039679527283,0.2457174062728881
-0.0168072693049907,0.8404764533042908,0.0371540710330009,-0.7705212831497192,-0.0313600227236747,0.0643019527196884,0.0,0.0,-0.8259105086326599,0.1682264804840088
-0.0163790695369243,0.8227682709693909,0.0392686389386653,-0.7869624495506287,-0.0278562251478433,0.0700761601328849,0.0,0.0,-0.7620344161987305,0.7556579113006592
-0.0158668514341115,0.8046944737434387,0.0489087738096714,-0.8032341599464417,-0.0255665834993124,0.0457926541566848,0.0,0.0,-0.7118216753005981,0.8790285587310791
-0.0152441980317235,0.7862441539764404,0.0618442483246326,-0.8200076818466187,-0.0251549612730741,0.0082325432449579,0.0,0.0,-0.7748619914054871,-0.8026662468910217
-0.0146718975156545,0.7674230933189392,0.0546301193535327,-0.8364521861076355,-0.0225840415805578,0.0514181368052959,0.0,0.0,-0.0525876879692077,0.6793959140777588
-0.0140142440795898,0.7482361793518066,0.064424529671669,-0.8527328968048096,-0.0212583988904953,0.0265127811580896,0.0,0.0,-0.311886191368103,0.4122364521026611
-0.0133337974548339,0.7286792397499084,0.0663729384541511,-0.8691734075546265,-0.019610196352005,0.0329639911651611,0.0,0.0,-0.3599759340286255,0.3816101551055908
-0.0126309394836425,0.7087523341178894,0.068278893828392,-0.8856141567230225,-0.0176335908472538,0.0395324043929576,0.0,0.0,0.5144921541213989,0.1031548976898193
-0.0119632724672555,0.6895377039909363,0.0647577494382858,-0.853962779045105,-0.0156459212303161,0.0397534891963005,0.0,0.0,-0.0197522640228271,0.171649694442749
-0.0112740518525242,0.6699530482292175,0.0665675923228263,-0.8704036474227905,-0.0133189307525753,0.0465397723019123,0.0,0.0,0.5559983253479004,0.1942783594131469
-0.010649299249053,0.6509911417961121,0.0602045878767967,-0.8427278995513916,-0.0110844457522034,0.0446896366775035,0.0,0.0,-0.2241055965423584,-0.0622845888137817
-0.0100041385740041,0.6316595077514648,0.0619017668068409,-0.859169065952301,-0.0085007781162858,0.0516734197735786,0.0,0.0,0.2103575468063354,0.1141090393066406
-0.0093178749084472,0.6126311421394348,0.0655644834041595,-0.8456844091415405,-0.0054834680631756,0.0603462047874927,0.0,0.0,0.5630273818969727,0.1679466962814331
-0.0086029050871729,0.5938019752502441,0.0680449828505516,-0.8368468880653381,-0.0020737720187753,0.0681938305497169,0.0,0.0,0.3851339817047119,0.1016514301300048
-0.0079721454530954,0.5753465294837952,0.0597500205039978,-0.8202415108680725,0.0012181416386738,0.0658380687236785,0.0,0.0,0.0807011127471923,0.4608440399169922
-0.0073100090958178,0.5573609471321106,0.0624369159340858,-0.7993623614311218,0.004941246472299,0.0744621008634567,0.0,0.0,-0.172569990158081,0.3509498834609985
-0.0066308020614087,0.5390058159828186,0.0637681931257247,-0.815804660320282,0.0090344063937664,0.0818632617592811,0.0,0.0,0.6325629949569702,0.2222204208374023
-0.0059164045378565,0.5215466618537903,0.0667971074581146,-0.7759965062141418,0.0136248031631112,0.0918079167604446,0.0,0.0,0.6176126003265381,0.0293601751327514
-0.005284977145493,0.5044112205505371,0.0585338100790977,-0.7616246342658997,0.0181660838425159,0.0908255279064178,0.0,0.0,0.2184444665908813,0.7668488025665283
-0.0046647069975733,0.4876578748226166,0.0586720407009124,-0.7446395754814148,0.0214817710220813,0.066313661634922,0.0,0.0,0.605884313583374,0.0512114763259887
-0.0040142061188817,0.4714430272579193,0.0611683242022991,-0.7207220196723938,0.025319367647171,0.0767519026994705,0.0,0.0,-0.3888092637062073,-0.3870450258255005
-0.0033513070084154,0.4548585414886474,0.0620032250881195,-0.7371651530265808,0.029543561860919,0.0844841450452804,0.0,0.0,0.2903991937637329,-0.1610133647918701
-0.0026332854758948,0.4385833740234375,0.0668611153960228,-0.7234450578689575,0.0344227664172649,0.0975838229060173,0.0,0.0,0.4723579883575439,0.0978064537048339
-0.0019473076099529,0.4224598109722137,0.0634034648537635,-0.7167329788208008,0.039555225521326,0.1026492118835449,0.0,0.0,0.8235819339752197,-0.1513726711273193
-0.0011917114024981,0.4065091013908386,0.069615788757801,-0.7090876698493958,0.045429803431034,0.1174913793802261,0.0,0.0,0.8035938739776611,0.4549360275268554
-0.0004797935544047,0.390742152929306,0.0650064200162887,-0.7009550929069519,0.0515422262251377,0.1222481727600097,0.0,0.0,0.7454119920730591,0.7761226892471313
0.0002467155572958,0.3758721351623535,0.0676462948322296,-0.661066472530365,0.0564892254769802,0.0989398956298828,0.0,0.0,0.6210390329360962,0.5321191549301147
0.0010589599842205,0.3618476092815399,0.0766614153981208,-0.623492419719696,0.0610007047653198,0.0902296677231788,0.0,0.0,0.2501837015151977,0.6150393486022949
0.0017918586963787,0.3483816981315613,0.0697212666273117,-0.5986344218254089,0.064526155591011,0.0705092400312423,0.0,0.0,-0.2611355185508728,0.5964908599853516
0.0025645256973803,0.3345437943935394,0.0742304474115371,-0.6151517033576965,0.0675270706415176,0.0600186698138713,0.0,0.0,0.6390163898468018,0.5252315998077393
0.0033694268204271,0.3215232789516449,0.0779918506741523,-0.5788036584854126,0.0700045302510261,0.049549177289009,0.0,0.0,0.1679013967514038,0.0501444339752197
0.0040744780562818,0.3087345063686371,0.0679224953055381,-0.5685102939605713,0.0725607797503471,0.0511250272393226,0.0,0.0,0.5143179893493652,0.6833047866821289
0.0047320364974439,0.2965085506439209,0.0642417818307876,-0.5434508919715881,0.07405886054039,0.0299615263938903,0.0,0.0,0.6941394805908203,-0.0746808052062988
0.0053217886015772,0.2849843502044678,0.0571103692054748,-0.5122800469398499,0.0759136527776718,0.0370959006249904,0.0,0.0,-0.1017593145370483,0.7156960964202881
0.0059726713225245,0.2730982303619385,0.0644408538937568,-0.5283068418502808,0.0765515714883804,0.0127581777051091,0.0,0.0,0.0312708616256713,-0.7822406888008118
0.0065583228133618,0.2611494064331054,0.0559161528944969,-0.5311979651451111,0.0791729018092155,0.0524265058338642,0.0,0.0,0.7872829437255859,0.7947261333465576
0.0072763441130518,0.2494970858097076,0.0701099932193756,-0.5179678201675415,0.0808508023619651,0.0335581302642822,0.0,0.0,0.8634257316589355,0.2629674673080444
0.0081009864807128,0.2384585440158844,0.0795623213052749,-0.4907620251178741,0.0837149396538734,0.0572829954326152,0.0,0.0,0.5189272165298462,-0.8074241280555725
0.0089664459228515,0.2275965362787246,0.0813849866390228,-0.4830553829669952,0.0888295993208885,0.1022931784391403,0.0,0.0,0.699648380279541,-0.1455194950103759
0.0097486497834324,0.2175193578004837,0.0726682096719741,-0.4482129514217376,0.0943377465009689,0.1101630553603172,0.0,0.0,0.808692216873169,-0.2371610403060913
0.0104766841977834,0.2083181738853454,0.066663272678852,-0.4093410074710846,0.1004237607121467,0.1217201575636863,0.0,0.0,0.7669148445129395,0.0477337837219238
0.0112550733610987,0.199832946062088,0.0706602707505226,-0.3776188194751739,0.1075477078557014,0.1424790173768997,0.0,0.0,0.3242754936218261,0.6725696325302124
0.0121365543454885,0.1913852095603943,0.0817523896694183,-0.3759281039237976,0.1139044463634491,0.1271346360445022,0.0,0.0,0.1719864606857299,0.5553598403930664
0.0129677774384617,0.1831059753894806,0.0774933323264122,-0.368407666683197,0.1195005998015403,0.1119230017066001,0.0,0.0,0.6912813186645508,-0.1782487630844116
0.0137669565156102,0.1757888346910476,0.0734591260552406,-0.3257371485233307,0.1259203851222992,0.1283960044384002,0.0,0.0,0.7162907123565674,0.1893160343170166
0.0144542697817087,0.1689783185720443,0.0619744658470153,-0.3032755553722381,0.1326511204242706,0.1346147954463958,0.0,0.0,0.330959677696228,0.2672598361968994
0.0149434087797999,0.1627321988344192,0.0421990118920803,-0.2782186865806579,0.139341115951538,0.1337998807430267,0.0,0.0,0.175310730934143,0.8943068981170654
0.0154899600893259,0.1568890661001205,0.0492902174592018,-0.2602066099643707,0.1446922719478607,0.1070227771997451,0.0,0.0,0.0575702190399169,-0.2828056812286377
0.0159182548522949,0.1513826698064804,0.037198681384325,-0.2452858090400695,0.1503074467182159,0.1123037338256836,0.0,0.0,0.2860373258590698,-0.1718325614929199
0.0161798484623432,0.1463575661182403,0.0204212293028831,-0.2239275425672531,0.1560468822717666,0.1147888153791427,0.0,0.0,-0.0927960276603698,0.559457540512085
0.0164675712585449,0.1409719139337539,0.0236770883202552,-0.2399067431688308,0.1611355692148208,0.101773701608181,0.0,0.0,0.0149574279785156,0.6709415912628174
0.0166508667171001,0.1357581913471222,0.014239190146327,-0.2321703284978866,0.1652301549911499,0.0818916633725166,0.0,0.0,0.1221529245376586,0.6368675231933594
0.016695499420166,0.1306846737861633,0.0013747654156759,-0.2258362621068954,0.1683160662651062,0.0617183223366737,0.0,0.0,-0.1531093120574951,0.2985118627548218
0.0167228691279888,0.1252422928810119,-0.0007592687034048,-0.2422839701175689,0.171821117401123,0.0701008290052414,0.0,0.0,0.3067251443862915,0.7806962728500366
0.0167984962463378,0.1198855265974998,0.0051394449546933,-0.2383604943752288,0.1742489039897918,0.0485559366643428,0.0,0.0,0.5070369243621826,0.7306115627288818
0.016935920342803,0.1152465194463729,0.0121078863739967,-0.2063689082860946,0.1758847683668136,0.0327174440026283,0.0,0.0,0.2019622325897216,0.5977511405944824
0.0169841758906841,0.1110848784446716,0.0040173139423131,-0.1850596368312835,0.1767029762268066,0.0163644440472126,0.0,0.0,-0.5908535718917847,-0.2372996807098388
0.0170142166316509,0.1065542325377464,0.0017771584680303,-0.2015068233013153,0.1779348105192184,0.0246366541832685,0.0,0.0,-0.3390744924545288,0.0071072578430175
0.0170257575809955,0.1016547307372093,-0.0004839405883103,-0.217954084277153,0.1795784384012222,0.0328722968697547,0.0,0.0,-0.1889219284057617,0.9003080129623413
0.0170866008847951,0.0964139774441719,0.005822024308145,-0.232955053448677,0.1798421889543533,0.0052749952301383,0.0,0.0,0.6077299118041992,0.1067278385162353
0.0170495025813579,0.0919511392712593,-0.004645945969969,-0.198461428284645,0.1807865500450134,0.0188871677964925,0.0,0.0,0.123012900352478,0.5193358659744263
0.017037296667695,0.0876040309667587,-0.0016429768875241,-0.1932571679353714,0.1812100112438202,0.0084692807868123,0.0,0.0,-0.0633264780044555,-0.1550166010856628
0.0170059204101562,0.0828879922628402,-0.0039708008989691,-0.2097043246030807,0.1820357888936996,0.0165155157446861,0.0,0.0,-0.0202040672302246,0.587954044342041
0.0169911384582519,0.0778113231062889,-0.0017742419149726,-0.2256644517183303,0.1823339462280273,0.0059628137387335,0.0,0.0,0.6026053428649902,0.5389770269393921
0.0168774612247943,0.0731775388121604,-0.0109188389033079,-0.2058908939361572,0.1818892508745193,-0.0088937627151608,0.0,0.0,0.5378201007843018,0.2477095127105713
0.0166781432926654,0.0689138248562812,-0.0199966710060834,-0.1895034611225128,0.1819488704204559,0.001192103838548,0.0,0.0,-0.1172913908958435,0.6931865215301514
0.0165251735597848,0.0642930567264556,-0.014054630883038,-0.2052164524793625,0.1807092577219009,-0.0247921682894229,0.0,0.0,0.3541438579559326,0.9508333206176758
0.0164154060184955,0.060179553925991,-0.0082738837227225,-0.1824963837862014,0.1780052036046981,-0.054080955684185,0.0,0.0,-0.1771408915519714,0.9326155185699464
0.0163600929081439,0.055726371705532,-0.0012727477587759,-0.1974128931760788,0.1737274527549743,-0.0855549946427345,0.0,0.0,0.4383386373519897,0.9181640148162842
0.0163722988218069,0.0513309091329574,0.0068887979723513,-0.1947031915187835,0.1680523604154586,-0.1135018616914749,0.0,0.0,0.5213773250579834,0.7560901641845703
