x_pos,y_pos,x_vel,y_vel,angle,ang_vel,leg_1,leg_2,main_booster,lat_booster
-0.0014602660667151,1.402969241142273,-0.1479230523109436,-0.353376567363739,0.0016941560897976,0.033413790166378,0.0,0.0,-0.3824354410171509,0.7379128932952881
-0.0027936934493482,1.3943825960159302,-0.133373275399208,-0.3816261291503906,0.0017243834445253,0.0006052125827409,0.0,0.0,0.005385398864746,0.7469086647033691
-0.0039101601578295,1.3855040073394775,-0.1102065443992614,-0.3946080803871155,0.0003043765027541,-0.0284026321023702,0.0,0.0,-0.0971301198005676,-0.3684648871421814
-0.0049617765471339,1.3759697675704956,-0.1036899462342262,-0.423740804195404,-0.0011528172763064,-0.0291466210037469,0.0,0.0,-0.422634482383728,-0.027876079082489
-0.0059483526274561,1.365780234336853,-0.0971456989645958,-0.4528661370277405,-0.0026482054963707,-0.0299102570861578,0.0,0.0,-0.4005816578865051,-0.3442456722259521
-0.0068696974776685,1.3549355268478394,-0.0905757173895835,-0.4819916784763336,-0.0041819820180535,-0.0306785218417644,0.0,0.0,-0.6315516233444214,-0.8542808890342712
-0.0077952384017407,1.3434360027313232,-0.0927319154143333,-0.51109379529953,-0.0040002767927944,0.0036342802923172,0.0,0.0,0.0181663036346435,-0.2682467699050903
-0.0085613252595067,1.331878423690796,-0.0771963000297546,-0.5136628746986389,-0.0034200907684862,0.0116045074537396,0.0,0.0,-0.7462530732154846,-0.0120040774345397
-0.0092616081237792,1.319665551185608,-0.0705678015947341,-0.5427935123443604,-0.0028798303101211,0.0108062801882624,0.0,0.0,-0.0691246390342712,-0.8587978482246399
-0.0099635124206542,1.3068031072616575,-0.0724177882075309,-0.571662962436676,-0.0006761103868484,0.0440784282982349,0.0,0.0,-0.6903591156005859,-0.9240675568580629
-0.0106616020202636,1.2932860851287842,-0.073589488863945,-0.6007570624351501,0.0030554528348147,0.0746383816003799,0.0,0.0,-0.7842005491256714,-0.3209429383277893
-0.0112935062497854,1.279114007949829,-0.0669215023517608,-0.6298845410346985,0.0067454273812472,0.0738061219453811,0.0,0.0,-0.0649337768554687,-0.4741772413253784
-0.0118591310456395,1.2642866373062134,-0.060240089893341,-0.659011721611023,0.0103942593559622,0.0729830116033554,0.0,0.0,-0.2304193973541259,-0.456214427947998
-0.0123581886291503,1.248804211616516,-0.0535468235611915,-0.688139021396637,0.0140013787895441,0.0721486210823059,0.0,0.0,-0.5102190971374512,0.0276019573211669
-0.012790584936738,1.2326666116714478,-0.0468434058129787,-0.7172663807868958,0.017566630616784,0.071311630308628,0.0,0.0,-0.638804018497467,-0.2555112242698669
-0.0131563190370798,1.2158737182617188,-0.0401310361921787,-0.7463939189910889,0.0210900362581014,0.0704741552472114,0.0,0.0,-0.2583338022232055,0.0682440996170044
-0.0134552000090479,1.1984257698059082,-0.0334110558032989,-0.7755213975906372,0.0245714206248521,0.0696341171860694,0.0,0.0,0.1311404705047607,-0.1444080471992492
-0.0135960578918457,1.180710792541504,-0.0180265642702579,-0.7873998284339905,0.0284679550677537,0.0779377892613411,0.0,0.0,-0.6267638206481934,0.5492351055145264
-0.0136198047548532,1.1623479127883911,-0.004989605396986,-0.8161806464195251,0.0310549419373273,0.0517443493008613,0.0,0.0,-0.1056437492370605,-0.1906335949897766
-0.0135765075683593,1.1433298587799072,0.0017479105154052,-0.8453065156936646,0.0336007066071033,0.0509200915694236,0.0,0.0,0.2835876941680908,0.1321527957916259
-0.0133869173005223,1.124537229537964,0.0159660950303077,-0.8352998495101929,0.0365667641162872,0.0593265295028686,0.0,0.0,0.1581951379776001,0.3229513168334961
-0.013133430853486,1.1055545806884766,0.0223546512424945,-0.8437492251396179,0.0395287796854972,0.0592456459999084,0.0,0.0,0.0788695812225341,0.5250892639160156
-0.0126917837187647,1.0864570140838623,0.042090605944395,-0.8488423824310303,0.0415745116770267,0.0409184955060482,0.0,0.0,0.4374780654907226,0.2262420654296875
-0.0121336933225393,1.0671148300170898,0.0534912459552288,-0.8597206473350525,0.0438611023128032,0.0457356385886669,0.0,0.0,0.3316322565078735,0.4319372177124023
-0.0116457939147949,1.0478869676589966,0.0470531620085239,-0.8546181917190552,0.0455751717090606,0.03428490832448,0.0,0.0,0.289333701133728,0.2614620923995971
-0.0112290382385253,1.0287981033325195,0.0405207462608814,-0.84843510389328,0.046722438186407,0.0229452438652515,0.0,0.0,0.6586883068084717,0.6831028461456299
-0.010721206665039,1.0101548433303833,0.0510202571749687,-0.8285771012306213,0.0464785695075988,-0.004877152852714,0.0,0.0,0.402146577835083,-0.0105243325233459
-0.0102899549528956,0.991898238658905,0.0439345464110374,-0.8113850355148315,0.0456821545958519,-0.0159283764660358,0.0,0.0,0.6216883659362793,-0.0184404850006103
-0.0099544525146484,0.9741166830062866,0.0349860601127147,-0.7902458906173706,0.0442543774843215,-0.0285553373396396,0.0,0.0,0.155181884765625,-0.2111598849296569
-0.0095821376889944,0.9561898112297058,0.0387878939509391,-0.7967060208320618,0.0427206233143806,-0.0306750424206256,0.0,0.0,0.3954566717147827,-0.1228597164154052
-0.0091579435393214,0.9386801719665528,0.0439367666840553,-0.7781578302383423,0.0412226654589176,-0.0299593452364206,0.0,0.0,0.0737336874008178,0.0445587635040283
-0.0087295528501272,0.9209391474723816,0.0446312725543975,-0.788443386554718,0.0394542999565601,-0.0353672578930854,0.0,0.0,-0.1392905712127685,-0.088632047176361
-0.0082347868010401,0.9025428891181946,0.0512985996901989,-0.8175680637359619,0.0376502238214015,-0.0360813550651073,0.0,0.0,0.6996932029724121,0.0568385124206543
-0.0077534676529467,0.88404381275177,0.0503071025013923,-0.8221300840377808,0.0355078987777233,-0.042846743017435,0.0,0.0,0.541435718536377,-0.2294718623161316
-0.007211685180664,0.8657674193382263,0.0563086085021495,-0.8122320771217346,0.0334016494452953,-0.0421247258782386,0.0,0.0,0.0788233280181884,-0.391506552696228
-0.0066088675521314,0.847576916217804,0.0624025277793407,-0.8084246516227722,0.0313170962035656,-0.0416911356151104,0.0,0.0,-0.0369554162025451,-0.2690873742103576
-0.0059404373168945,0.8287310600280762,0.0689898505806922,-0.8375493884086609,0.0292001422494649,-0.0423390977084636,0.0,0.0,-0.0159053206443786,-0.7183623313903809
-0.0052599906921386,0.8092331886291504,0.0688618943095207,-0.8665586709976196,0.0283894855529069,-0.0162131190299987,0.0,0.0,0.2039071321487426,0.7490806579589844
-0.0045053483918309,0.7900101542472839,0.0778563246130943,-0.8543166518211365,0.0260220039635896,-0.0473494157195091,0.0,0.0,0.2174853086471557,-0.6115615367889404
-0.0037229538429528,0.7708032131195068,0.0793923884630203,-0.8536197543144226,0.024880189448595,-0.0228361971676349,0.0,0.0,-0.2606135606765747,0.477412462234497
-0.0028762817382812,0.7509409785270691,0.0858609825372695,-0.8827442526817322,0.0237094704061746,-0.0234143771231174,0.0,0.0,0.229579210281372,0.0369098186492919
-0.0018828392494469,0.7310109734535217,0.1001226902008056,-0.8857640027999878,0.0229356158524751,-0.0154771339148283,0.0,0.0,0.2131739854812622,-0.5758474469184875
-0.0007978439098224,0.7107657790184021,0.1079999953508377,-0.8997922539710999,0.0234256442636251,0.0098007963970303,0.0,0.0,0.5820409059524536,-0.7426295280456543
0.0003845214960165,0.690624475479126,0.1160680055618286,-0.8952018022537231,0.0255628060549497,0.0427433513104915,0.0,0.0,0.5544073581695557,-0.3685215711593628
0.0015843391884118,0.6702421307563782,0.1180150955915451,-0.9059232473373412,0.0274978205561637,0.0387004613876342,0.0,0.0,0.9079581499099731,-0.8222465515136719
0.002828788710758,0.6497743725776672,0.120732270181179,-0.9097496271133424,0.0311654135584831,0.0733518302440643,0.0,0.0,0.90593421459198,-0.4553136825561523
0.0041892053559422,0.6294277906417847,0.1320198476314544,-0.9043832421302797,0.0351352207362651,0.0793962478637695,0.0,0.0,0.939678430557251,-0.6868029832839966
0.0053797722794115,0.6098905801773071,0.1140357255935669,-0.8684461712837219,0.0400924235582351,0.0991441756486892,0.0,0.0,0.6930757761001587,-0.3595956563949585
0.006462478544563,0.590900719165802,0.1039095371961593,-0.8441172242164612,0.0443993657827377,0.0861389115452766,0.0,0.0,0.8886687755584717,0.1291656494140625
0.0075548170134425,0.5721254944801331,0.1050099581480026,-0.8345859050750732,0.0485741086304187,0.0834948644042015,0.0,0.0,0.9744884967803956,0.1415786743164062
0.0088440896943211,0.5537302494049072,0.1239214986562728,-0.8177385926246643,0.0535226352512836,0.0989704728126525,0.0,0.0,0.7546985149383545,0.1155171394348144
0.0100884437561035,0.535847008228302,0.1197327002882957,-0.7949854731559753,0.0581701025366783,0.0929494053125381,0.0,0.0,0.3385190963745117,0.2186883687973022
0.0114572523161768,0.5178558826446533,0.1317873150110244,-0.7998130321502686,0.0632102489471435,0.1008027791976928,0.0,0.0,0.6134729385375977,-0.4529703855514526
0.0128359794616699,0.500376284122467,0.1327826231718063,-0.7770957946777344,0.0682489201426506,0.1007731556892395,0.0,0.0,0.8209128379821777,0.1201957464218139
0.0143968584015965,0.4830627143383026,0.1502414047718048,-0.7697687149047852,0.074032537639141,0.1156722530722618,0.0,0.0,0.6612581014633179,0.410111665725708
0.0158805847167968,0.4657923579216003,0.1429900228977203,-0.7678472995758057,0.0793582051992416,0.1065134182572364,0.0,0.0,0.6780091524124146,-0.1823822855949401
0.0174477584660053,0.449088841676712,0.1509020030498504,-0.7426980137825012,0.0851133614778518,0.1151029020547866,0.0,0.0,0.8278706073760986,0.5141446590423584
0.0192042347043752,0.4328734874725342,0.1704150438308715,-0.7209867238998413,0.0903041213750839,0.1038151532411575,0.0,0.0,0.5360140800476074,-0.3616616725921631
0.021010398864746,0.4171562492847442,0.1750688552856445,-0.6988921761512756,0.0958066806197166,0.1100513786077499,0.0,0.0,0.0292870998382568,-0.3518227338790893
0.0227703098207712,0.4015081822872162,0.170681744813919,-0.6958203911781311,0.1010816395282745,0.1054990515112876,0.0,0.0,0.2367221117019653,-0.2792755961418152
0.0245866775512695,0.3856246471405029,0.1761393845081329,-0.7063156366348267,0.1065271943807601,0.1089111790060997,0.0,0.0,0.8342510461807251,-0.454490065574646
0.0262537002563476,0.3702298998832702,0.1617419570684433,-0.6845723390579224,0.1114526614546775,0.0985092446208,0.0,0.0,0.8759250640869141,-0.189493715763092
0.0280370712280273,0.3550789952278137,0.1727257519960403,-0.6738019585609436,0.1170233041048049,0.111413262784481,0.0,0.0,0.7104606628417969,-0.7432619333267212
0.029754351824522,0.340214192867279,0.1645898520946502,-0.6612347960472107,0.1241297200322151,0.142127975821495,0.0,0.0,0.8406004905700684,0.5460094213485718
0.031506635248661,0.3253651261329651,0.1691541373729705,-0.660476803779602,0.1301737278699875,0.1208797246217727,0.0,0.0,0.9329767227172852,0.1718652248382568
0.0330609306693077,0.3108613789081573,0.1500327438116073,-0.6450897455215454,0.1355493664741516,0.1075125187635421,0.0,0.0,0.878798246383667,-0.1787652969360351
0.0345407500863075,0.2971541583538055,0.1424727141857147,-0.6097208261489868,0.1410413682460785,0.1098398193717002,0.0,0.0,0.6596465110778809,0.3610559701919555
0.0360910408198833,0.283245712518692,0.1491366326808929,-0.6187207698822021,0.1469202041625976,0.117576740682125,0.0,0.0,0.9399935007095336,0.3189029693603515
0.0375533103942871,0.2701769173145294,0.140184223651886,-0.581444501876831,0.1529532223939895,0.1206599324941635,0.0,0.0,0.6394808292388916,0.3413878679275512
0.0388759598135948,0.2571282982826233,0.1266600042581558,-0.5805262327194214,0.1585636436939239,0.112208105623722,0.0,0.0,0.7859551906585693,0.3973469734191894
0.0400064475834369,0.2444854378700256,0.1078797131776809,-0.562463641166687,0.1637263149023056,0.1032533049583435,0.0,0.0,0.8653385639190674,0.8705151081085205
0.0411458015441894,0.2322552055120468,0.110439158976078,-0.5439534783363342,0.1672299653291702,0.0700727552175521,0.0,0.0,0.876579761505127,0.808677077293396
0.0420445427298545,0.2207736372947693,0.0883128196001052,-0.510470449924469,0.1687936782836914,0.0312741436064243,0.0,0.0,0.9821443557739258,0.6170880794525146
0.0429791435599327,0.2096971869468689,0.0928609818220138,-0.4923522770404815,0.1693959236145019,0.0120447259396314,0.0,0.0,0.9937654733657836,-0.0806168913841247
0.043801974505186,0.1986531317234039,0.0818582773208618,-0.4908990859985351,0.1698300242424011,0.0086818840354681,0.0,0.0,0.9906423091888428,-0.6142160296440125
0.0446022041141986,0.1875363439321518,0.0780983045697212,-0.4943026304244995,0.1717609316110611,0.0386181995272636,0.0,0.0,0.9941372871398926,0.1051225662231445
0.0452957153320312,0.1763600409030914,0.0675802901387214,-0.4969309270381927,0.1735398173332214,0.0355778075754642,0.0,0.0,0.991202473640442,0.6009324789047241
0.0458571426570415,0.1659557968378067,0.0555709302425384,-0.4624762535095215,0.1741075366735458,0.0113543905317783,0.0,0.0,0.9930355548858644,-0.6096141338348389
0.0462949760258197,0.1563704311847686,0.0416987836360931,-0.4262630343437195,0.1762062460184097,0.0419734641909599,0.0,0.0,0.9758195877075196,-0.3259360790252685
0.0464197173714637,0.1475381702184677,0.010966058820486,-0.392727643251419,0.1777147948741912,0.0301708336919546,0.0,0.0,0.9788010120391846,0.8346970081329346
0.0463604927062988,0.1386004835367202,-0.0054365224204957,-0.3971719443798065,0.1772305965423584,-0.0096840914338827,0.0,0.0,0.9892616271972656,0.9400190114974976
0.0462416633963584,0.1304550766944885,-0.0096544474363327,-0.3617548942565918,0.1749893873929977,-0.0448238104581832,0.0,0.0,0.9467935562133788,0.8957661390304565
0.0459250435233116,0.1226404011249542,-0.0274206213653087,-0.3468257188796997,0.1707388460636139,-0.0850108414888382,0.0,0.0,0.816636323928833,0.8811265230178833
0.0454609878361225,0.1152769178152084,-0.0403169766068458,-0.3265748023986816,0.1646404713392257,-0.1219675987958908,0.0,0.0,0.3496372699737549,0.98038649559021
0.0449413284659385,0.1081255078315734,-0.0439238995313644,-0.31697478890419,0.1566092669963836,-0.1606240570545196,0.0,0.0,0.7282313108444214,0.982721209526062
0.0444751754403114,0.1012638434767723,-0.0367847084999084,-0.3039546310901642,0.1467895656824112,-0.1963939070701599,0.0,0.0,0.5398901700973511,0.9677472114562988
-999.0,0.0942349508404731,-0.0326776392757892,-0.311286449432373,0.1351082473993301,-0.233626052737236,0.0,0.0,0.2018952369689941,0.1360268592834472
0.0435794815421104,0.0870015025138855,-0.0338112004101276,-0.3204952776432037,0.1237830892205238,-0.2265027463436126,0.0,0.0,0.5155379772186279,0.2094820737838745
0.0431589111685752,0.0799191072583198,-0.0313393250107765,-0.313916951417923,0.1131273731589317,-0.2131143808364868,0.0,0.0,0.3944377899169922,0.2315263748168945
0.0427772514522075,0.0726990327239036,-0.0280313193798065,-0.3201574385166168,0.1030619740486145,-0.2013080567121505,0.0,0.0,0.6656420230865479,-0.2723590135574341
0.042269229888916,0.0659542381763458,-0.0406769439578056,-0.2991021871566772,0.0930169969797134,-0.2008994072675705,0.0,0.0,0.7705278396606445,-0.0887489318847656
0.041673757135868,0.0597742162644863,-0.0496132262051105,-0.2740799486637115,0.0831729471683502,-0.1968808025121688,0.0,0.0,0.4515712261199951,-0.1894700527191162
0.0410916320979595,0.0538298711180686,-0.0488291755318641,-0.2636976540088653,0.0738831534981727,-0.1857959628105163,0.0,0.0,0.614854097366333,-0.6141076683998108
0.0404953956604003,0.0477086417376995,-0.0517794415354728,-0.2716900706291199,0.0661176219582557,-0.1553101539611816,0.0,0.0,0.9198832511901855,-0.4472596645355224
0.039748478680849,0.0418125726282596,-0.0666093677282333,-0.2617112994194031,0.0581183396279811,-0.1599855870008468,0.0,0.0,0.8476314544677734,0.3396388292312622
0.0389876365661621,0.0367151610553264,-0.0684852451086044,-0.2262755036354065,0.050605658441782,-0.1502535343170166,0.0,0.0,0.7661991119384766,-0.4230683445930481
0.0381173118948936,0.0318728797137737,-0.0793686658143997,-0.2149750590324401,0.0430264696478843,-0.1515836268663406,0.0,0.0,0.8420625925064087,0.0856990814208984
0.0370149612426757,0.02769635617733,-0.1019699200987815,-0.1854078918695449,0.0348541401326656,-0.1634465903043747,0.0,0.0,0.7219078540802002,0.0583423376083374
0.035921286791563,0.0239605046808719,-0.1015686765313148,-0.1658787131309509,0.027149835601449,-0.1540859341621399,0.0,0.0,0.6494700908660889,0.424656867980957
0.0346960052847862,0.0206911414861679,-0.1145208925008773,-0.1451814770698547,0.0192463044077157,-0.1580704897642135,0.0,0.0,0.3247997760772705,0.6319704055786133
0.0333770737051963,0.0176718328148126,-0.1225291937589645,-0.1340996474027633,0.0099989073351025,-0.1849479973316192,0.0,0.0,0.2653614282608032,0.3925614356994629
0.0319752693176269,0.0145701263099908,-0.1307661235332489,-0.1378183960914611,0.0007103518000803,-0.185771107673645,0.0,0.0,0.1245585680007934,0.6090435981750488
0.0304718967527151,0.0114290090277791,-0.1396209895610809,-0.1396338641643524,-0.0098757874220609,-0.211722657084465,0.0,0.0,0.3461275100708008,0.5814628601074219
0.028822898864746,0.0082743028178811,-0.1527736037969589,-0.1403293460607528,-0.0218509808182716,-0.2395038604736328,0.0,0.0,0.345625638961792,0.2603148221969604
0.0272104255855083,0.0053411102853715,-0.1495698243379593,-0.1305752247571945,-0.0333824269473552,-0.2306290119886398,0.0,0.0,0.1645585298538208,-0.1193819642066955
0.0255866050720214,0.0021420216653496,-0.1509512960910797,-0.1424732208251953,-0.044670145958662,-0.2257544994354248,1.0,0.0,0.6751585006713867,0.7892676591873169
0.0243578907102346,-0.0001840972836362,-0.1223964914679527,-0.10357116907835,-0.0444058589637279,0.0062188664451241,1.0,0.0,0.7026435136795044,0.7717568874359131
0.0233847610652446,-0.0015529894735664,-0.1108242720365524,-0.060496550053358,-0.0310347732156515,0.2674551010131836,1.0,0.0,0.3512419462203979,0.9395045042037964
0.0227575302124023,-0.0022525095846503,-0.0841689184308052,-0.0307939164340496,-0.0098266610875725,0.4242007136344909,1.0,0.0,-0.2262765169143676,0.6638391017913818
0.0221872329711914,-0.0027036212850362,-0.0665013268589973,-0.0200213324278593,-0.0004691913782153,0.1871655285358429,1.0,1.0,0.1574646234512329,0.9963940382003784
0.0216862671077251,-0.0020199441350996,-0.0487181916832923,0.030380068346858,-0.001826497609727,-0.0271287895739078,1.0,1.0,-0.9714328050613404,0.862338662147522
0.0213130954653024,-0.0011230134405195,-0.0318258590996265,0.0398526526987552,-0.0072249793447554,-0.107927955687046,1.0,1.0,-0.9857190251350404,0.1181138753890991
0.0210631377995014,-0.0005035304930061,-0.0297687649726867,0.0275487769395113,-0.0025140221696347,0.0942267626523971,1.0,1.0,-0.6955245137214661,0.9220530986785888
0.0208483692258596,-0.000469126709504,-0.021744567900896,0.0015299598453566,-0.0022468178067356,0.005346099846065,1.0,1.0,-0.7702904939651489,0.8485285043716431
0.020754337310791,-0.0004729175707325,-0.0094085093587636,-0.0001688245538389,-0.0022428869269788,7.855363946873695e-05,1.0,1.0,-0.7355280518531799,-0.1056927442550659
0.0207223892211914,-0.0004731321241706,-0.0031964243389666,-1.0680730156309435e-05,-0.0022427032236009,4.987022748537129e-06,1.0,1.0,-0.6304879188537598,-0.0149224996566772
0.020732020959258,-0.0004730606160592,0.000986787257716,1.549367652842193e-06,-0.0022578921634703,-0.000294862431474,1.0,1.0,-0.5692959427833557,0.0196452140808105
0.0207484252750873,-0.0004730606160592,0.0016907056560739,1.0007955779656186e-06,-0.0022838709410279,-0.0005049900501035,1.0,1.0,-0.8107020258903503,-0.3168684244155884
0.0207561496645212,-0.0004730606160592,0.00078226684127,4.123897667795973e-07,-0.002295899670571,-0.0002336580946575,1.0,1.0,-0.8501490950584412,-0.1569250226020813
0.0207557678222656,-0.0004730606160592,-4.121144229429774e-05,-2.263736043062181e-08,-0.0022953238803893,1.2316895663389005e-05,1.0,1.0,-0.930403470993042,-0.3246660232543945
0.020753001794219,-0.0004730606160592,-0.0002824810799211,-1.5128419761367698e-07,-0.0022910132538527,8.433415496256202e-05,1.0,1.0,-0.3565490245819092,0.0719575881958007
