x_pos,y_pos,x_vel,y_vel,angle,ang_vel,leg_1,leg_2,main_booster,lat_booster
-0.0015789031749591,1.403461456298828,-0.1593874841928482,-0.3315002024173736,0.0013321604346856,0.0262459460645914,0.0,0.0,0.7538369274291392,0.9761554200824044
-0.0030788420699536,1.3965927362442017,-0.1489557921886444,-0.3052745163440704,0.0003069172962568,-0.0205060504376888,0.0,0.0,0.0393923623571925,-0.0103239783770348
-0.0045560835860669,1.3899415731430054,-0.1465811431407928,-0.2956076860427856,-0.0008215320995077,-0.0225710254162549,0.0,0.0,-0.0780186825244584,0.7054230586623225
-0.0060525895096361,1.383124828338623,-0.1468464285135269,-0.3029665350914001,-0.0035918811336159,-0.0554123111069202,0.0,0.0,0.2486777528918873,0.4468552552167401
-0.0075159072875976,1.3768839836120603,-0.1434604823589325,-0.2773800790309906,-0.0064287846907973,-0.0567429475486278,0.0,0.0,-0.4919053445052617,0.0969276089214673
-0.0090474132448434,1.370480179786682,-0.1497367471456527,-0.2846365869045257,-0.009812026284635,-0.0676712021231651,0.0,0.0,-0.690246774916907,0.9046754481084952
-0.0105808256193995,1.363912582397461,-0.1476055532693863,-0.2919407188892364,-0.0154755832627415,-0.1132814884185791,0.0,0.0,0.19382143858175,0.433026692506489
-0.0120710376650094,1.3578813076019287,-0.1432417333126068,-0.2681365609169006,-0.0211899206042289,-0.1142974644899368,0.0,0.0,0.9870106133680404,0.2033425003561603
-0.0136281969025731,1.3531968593597412,-0.1492916643619537,-0.2082946598529815,-0.0275491271167993,-0.1271959990262985,0.0,0.0,0.0717857519800011,-0.9918716843689244
-0.0153264049440622,1.3490660190582275,-0.1647926270961761,-0.183698758482933,-0.0325250476598739,-0.0995271950960159,0.0,0.0,0.5636296561649863,-0.1025202233325996
-0.017001723870635,1.3456120491027832,-0.1622921824455261,-0.1536314487457275,-0.0377055220305919,-0.1036191210150718,0.0,0.0,0.311503824959527,0.6763747392403356
-0.018623923882842,1.3426164388656616,-0.1551271378993988,-0.1333371996879577,-0.0447158515453338,-0.1402192264795303,0.0,0.0,-0.9775933462782492,0.9578888244792496
-0.0202334411442279,1.3394575119018557,-0.1509365886449813,-0.140720784664154,-0.0546381846070289,-0.1984650194644928,0.0,0.0,0.9297422904667552,0.6221801369975293
-0.0217658039182424,1.3367420434951782,-0.1416033804416656,-0.1211518570780754,-0.0661643221974372,-0.2305439263582229,0.0,0.0,0.719877395100972,0.4203926914954293
-0.0231762882322073,1.3351354598999023,-0.1294990479946136,-0.0719493702054023,-0.0776113271713256,-0.2289610207080841,0.0,0.0,0.8667334459617408,-0.6083428453392784
-0.0245590209960937,1.333853244781494,-0.1277007907629013,-0.0575695112347602,-0.0881063044071197,-0.2099187672138214,0.0,0.0,-0.2418878724103041,-0.5018533320889683
-0.0260550491511821,1.3324198722839355,-0.1391901671886444,-0.0643487870693206,-0.0984513312578201,-0.2069189548492431,0.0,0.0,0.5982814148842046,0.4625276931034747
-0.0274622924625873,1.3313465118408203,-0.1303424537181854,-0.048423945903778,-0.1087748408317565,-0.2064887732267379,0.0,0.0,-0.4279530865171992,-0.9867396115770652
-0.0290186889469623,1.330131769180298,-0.1462794840335846,-0.0546887442469596,-0.1180744692683219,-0.1860093772411346,0.0,0.0,-0.9355272305863636,-0.6906292969027896
-0.0307217594236135,1.3287665843963623,-0.1619054228067398,-0.0613566040992736,-0.1264447271823883,-0.167420357465744,0.0,0.0,0.3070208765734221,0.4622287371788436
-0.0323357582092285,1.3281062841415403,-0.1528376638889312,-0.0300907008349895,-0.1349778771400451,-0.1706787645816803,0.0,0.0,-0.6739335164218416,-0.2964114091498451
-0.0340362563729286,1.327284812927246,-0.1608667075634002,-0.0373625382781028,-0.1441468298435211,-0.1833953112363815,0.0,0.0,0.3412096992687006,0.5761279149505893
-0.0356012359261512,1.3269236087799072,-0.1457824856042862,-0.0171267036348581,-0.1548628360033035,-0.2143395692110061,0.0,0.0,-0.5323967479810867,0.0967254942144951
-0.0372535698115825,1.326401948928833,-0.1538976728916168,-0.0244023837149143,-0.1662177890539169,-0.2271191775798797,0.0,0.0,0.8266985041957373,0.0129075672540055
-0.0390306487679481,1.3268122673034668,-0.1650368869304657,0.0167637635022401,-0.178941324353218,-0.2544933557510376,0.0,0.0,0.1401836174924351,0.8185780695088756
-0.0408623702824115,1.32777738571167,-0.1681477129459381,0.0410168506205081,-0.1940140426158905,-0.3014542460441589,0.0,0.0,0.1625090024194699,0.2022074135735319
-0.0426812171936035,1.3293358087539673,-0.1662967056035995,0.0671445652842521,-0.209719717502594,-0.3141138851642608,0.0,0.0,0.2421226860069092,0.0148252263046875
-0.0445556640625,1.3316775560379028,-0.1708255261182785,0.1016232296824455,-0.2265270203351974,-0.3361463844776153,0.0,0.0,0.5205506307662378,-0.7923573710663615
-0.0465492233633995,1.3349759578704834,-0.1835190057754516,0.1440833956003189,-0.2425908595323562,-0.3212763667106628,0.0,0.0,0.379648141666812,0.4833346301202923
-0.0485510826110839,1.3387160301208496,-0.1837038099765777,0.1634180545806884,-0.2593860924243927,-0.3359051048755646,0.0,0.0,-0.2151911126009591,0.2265496559603818
-0.0506422035396099,1.3422991037368774,-0.1920725852251052,0.1561330705881118,-0.276833027601242,-0.3489389717578888,0.0,0.0,-0.8248264789581299,-0.9955019354820251
-0.0529093742370605,1.3457558155059814,-0.2113112509250641,0.1506316214799881,-0.292659044265747,-0.3165201544761657,0.0,0.0,-0.9713364243507384,-0.9513174891471864
-0.0553458221256732,1.349100112915039,-0.2298399955034256,0.1457949131727218,-0.3069319725036621,-0.2854583263397217,0.0,0.0,-0.9303823113441468,-0.9676581025123596
-0.0579545982182025,1.35231614112854,-0.2485767900943756,0.1402826458215713,-0.3196901679039001,-0.2551640570163727,0.0,0.0,-0.9056034684181212,-0.8939772844314575
-0.0607180595397949,1.3554075956344604,-0.2651831209659576,0.1348936259746551,-0.331327885389328,-0.232754498720169,0.0,0.0,-0.6499404311180115,-0.8344636559486389
-0.0636307746171951,1.3583773374557495,-0.281106024980545,0.129623681306839,-0.3419616222381592,-0.2126746475696563,0.0,0.0,-0.8142234086990356,-0.5686558485031128
-0.0666787177324295,1.3612093925476074,-0.2951923012733459,0.1235444247722625,-0.3520415127277374,-0.2015974819660186,0.0,0.0,-0.8822391629219055,-0.7805050611495972
-0.0698699951171875,1.363917589187622,-0.310352474451065,0.1181903406977653,-0.3612732887268066,-0.1846356689929962,0.0,0.0,-0.4819250106811523,-0.8015534281730652
-0.0732125267386436,1.3665105104446411,-0.3265690505504608,0.1132861822843551,-0.3693993985652923,-0.1625219732522964,0.0,0.0,-0.8611209392547607,-0.4269488453865051
-0.0766461342573165,1.368944525718689,-0.3350644111633301,0.1060129776597023,-0.3781850337982178,-0.175712913274765,0.0,0.0,-0.7727541923522949,-0.5496197938919067
-0.0802166908979415,1.371251940727234,-0.3494313061237335,0.1005129069089889,-0.3862917125225067,-0.1621334254741668,0.0,0.0,-0.7897902131080627,-0.8025975823402405
-0.083925150334835,1.3734270334243774,-0.3638615906238556,0.0947569161653518,-0.3937442898750305,-0.1490519344806671,0.0,0.0,-0.7751396894454956,0.0010813474655151
-0.087724782526493,1.3754432201385498,-0.3723773956298828,0.0874832868576049,-0.4018571972846985,-0.1622578650712967,0.0,0.0,-0.6233378052711487,-0.1787348985671997
-0.0916154831647872,1.37730073928833,-0.3808986842632293,0.0802084654569625,-0.4106304347515106,-0.1754653602838516,0.0,0.0,-0.4659823179244995,-0.9043427109718324
-0.0956695526838302,1.3790347576141355,-0.3985065519809723,0.0750485435128212,-0.4180777370929718,-0.1489453911781311,0.0,0.0,-0.6920563578605652,-0.9234979748725892
-0.099878691136837,1.380642294883728,-0.4150370657444,0.0696859583258628,-0.424427717924118,-0.1269995421171188,0.0,0.0,-0.6469923853874207,-0.6691669821739197
-0.1042229682207107,1.382116436958313,-0.4291140437126159,0.0639046654105186,-0.4301932752132416,-0.115311823785305,0.0,0.0,-0.2295379638671875,-0.4901329278945923
-0.1086585074663162,1.3834314346313477,-0.4376444220542907,0.0566309876739978,-0.4366186857223511,-0.1285084635019302,0.0,0.0,-0.8131696581840515,-0.179368793964386
-0.1131851226091384,1.3845878839492798,-0.4461756646633148,0.0493563972413539,-0.4437035620212555,-0.1416975706815719,0.0,0.0,-0.5141626000404358,-0.418457567691803
-0.1178029030561447,1.3855856657028198,-0.454706996679306,0.0420808009803295,-0.451447457075119,-0.154877632856369,0.0,0.0,-0.5360334515571594,-0.9060769081115724
-0.122560404241085,1.3864600658416748,-0.4694195389747619,0.0367901697754859,-0.4584085345268249,-0.1392208188772201,0.0,0.0,-0.600521445274353,-0.9061095118522644
-0.1274768859148025,1.387232542037964,-0.486621081829071,0.0326670594513416,-0.4639423787593841,-0.1106771230697631,0.0,0.0,-0.4161500930786133,-0.8380618691444397
-0.1325338333845138,1.3878779411315918,-0.5013823509216309,0.0272407066076993,-0.4687038362026214,-0.0952293574810028,0.0,0.0,-0.6691693067550659,-0.2409817576408386
-0.1376816779375076,1.3883644342422483,-0.5099016427993774,0.0199660826474428,-0.4741214513778686,-0.1083522588014602,0.0,0.0,-0.3993126153945923,-0.2673929929733276
-0.1429204940795898,1.3886924982070925,-0.5184163451194763,0.0126907378435134,-0.4801941812038421,-0.1214547008275985,0.0,0.0,-0.3433473706245422,-0.0724263787269592
-0.1482501029968261,1.388861894607544,-0.5269255638122559,0.0054145874455571,-0.4869209229946136,-0.134534552693367,0.0,0.0,-0.5748980045318604,-0.6313223838806152
-0.1537053138017654,1.388906955718994,-0.539929986000061,1.845316546678077e-05,-0.4931709766387939,-0.1250008642673492,0.0,0.0,0.2878148555755615,-0.5964303016662598
-0.1589382141828537,1.389439344406128,-0.5184534788131714,0.0219142995774745,-0.4986027181148529,-0.1086347475647926,0.0,0.0,0.2537134885787964,-0.0897409915924072
-0.1639130562543869,1.3905954360961914,-0.4923128187656402,0.0494954772293567,-0.5044219493865967,-0.1163844838738441,0.0,0.0,-0.4170337915420532,-0.3288025856018066
-0.168978214263916,1.391593098640442,-0.5007871985435486,0.0422186516225338,-0.5108892321586609,-0.1293456405401229,0.0,0.0,-0.2127609848976135,-0.6320090889930725
-0.1741745918989181,1.3924607038497925,-0.5144450068473816,0.0366026274859905,-0.5167884826660156,-0.1179855912923812,0.0,0.0,0.2815029621124267,-0.210755705833435
-0.1792598664760589,1.393937110900879,-0.5024563074111938,0.0633015632629394,-0.5236915946006775,-0.1380622088909149,0.0,0.0,-0.8832311034202576,-0.1466411352157592
-0.1844348013401031,1.3952553272247314,-0.5108920931816101,0.0560231134295463,-0.5312365293502808,-0.150898665189743,0.0,0.0,-0.8208215832710266,-0.3546245098114013
-0.1896992623805999,1.3964154720306396,-0.5193122625350952,0.0487437583506107,-0.5394208431243896,-0.1636858284473419,0.0,0.0,-0.2439203858375549,-0.6307206153869629
-0.1950962096452713,1.3974510431289673,-0.5331871509552002,0.0434054285287857,-0.5469249486923218,-0.1500822007656097,0.0,0.0,-0.4809802770614624,-0.0837090611457824
-0.2005822211503982,1.39832866191864,-0.5415695309638977,0.0361256785690784,-0.5550627708435059,-0.162756934762001,0.0,0.0,-0.1879132390022277,-0.6456738114356995
-0.2061953991651535,1.3990929126739502,-0.5549315214157104,0.0313060544431209,-0.5624898076057434,-0.1485410183668136,0.0,0.0,0.0267567634582519,-0.4544347524642944
-0.2117567956447601,1.3998889923095703,-0.5494617223739624,0.0325467661023139,-0.5703079104423523,-0.1563620418310165,0.0,0.0,0.1083012819290161,-0.7456079125404358
-0.2171254158020019,1.4012874364852903,-0.531051754951477,0.0596528276801109,-0.5771258473396301,-0.1363584846258163,0.0,0.0,0.1716854572296142,-0.2363497614860534
-0.2224545031785965,1.4030044078826904,-0.5263455510139465,0.0734420046210289,-0.5848714709281921,-0.1549126207828521,0.0,0.0,-0.5439358949661255,-0.0507705211639404
-0.2278708517551422,1.404563546180725,-0.5345945954322815,0.0661612898111343,-0.5932315587997437,-0.1672016382217407,0.0,0.0,-0.1627407670021057,-0.3183462023735046
-0.233374074101448,1.4059650897979736,-0.5428091287612915,0.0588797740638256,-0.6022011637687683,-0.1793921589851379,0.0,0.0,-0.2232332825660705,-0.7783234119415283
-0.2390207797288894,1.407278060913086,-0.5584060549736023,0.0554674081504344,-0.6097219586372375,-0.1504163444042205,0.0,0.0,0.2309279441833496,-0.4517405033111572
-0.2444622069597244,1.4089152812957764,-0.5376220941543579,0.0697088241577148,-0.6175879240036011,-0.1573192179203033,0.0,0.0,-0.5967754125595093,-0.2839072942733764
-0.2499889433383941,1.4103949069976809,-0.5457086563110352,0.0624277628958225,-0.6260459423065186,-0.1691606342792511,0.0,0.0,-0.2268055081367492,-0.7275947332382202
-0.255644142627716,1.411754488945007,-0.5592494606971741,0.0573773942887783,-0.6337023973464966,-0.1531294584274292,0.0,0.0,0.2745550870895386,-0.703762412071228
-0.2612972855567932,1.4133394956588743,-0.5598117709159851,0.0677391588687896,-0.6404520869255066,-0.1349938809871673,0.0,0.0,-0.4445008039474487,-0.8141734004020691
-0.2670822143554687,1.4148296117782593,-0.5740247964859009,0.063995324075222,-0.6459622979164124,-0.1102041825652122,0.0,0.0,0.0563186407089233,-0.6763139367103577
-0.2726286351680755,1.4167863130569458,-0.5509710907936096,0.0851073265075683,-0.6505072712898254,-0.0908992663025856,0.0,0.0,-0.7280360460281372,-0.0977237224578857
-0.2782570719718933,1.4185845851898191,-0.5587456822395325,0.0778298527002334,-0.6556039452552795,-0.1019332036375999,0.0,0.0,0.5164921283721924,-0.3699855804443359
-0.2838754653930664,1.4206945896148682,-0.5568773746490479,0.091219313442707,-0.6617915034294128,-0.1237514168024063,0.0,0.0,-0.7086359262466431,-0.1319918632507324
-0.2895739078521728,1.422646403312683,-0.5644845962524414,0.0839413553476333,-0.6685097813606262,-0.1343661248683929,0.0,0.0,-0.1993501782417297,0.107426643371582
-0.2953512668609619,1.4244396686553955,-0.5719960927963257,0.0766633301973342,-0.6757472157478333,-0.1447485387325287,0.0,0.0,-0.193839430809021,-0.3660900592803955
-0.3012064099311828,1.426074743270874,-0.5794030427932739,0.069385252892971,-0.6834913492202759,-0.1548825055360794,0.0,0.0,-0.3272913694381714,-0.6609386801719666
-0.3071769177913666,1.4276033639907837,-0.5917578935623169,0.0650489032268524,-0.6902410984039307,-0.1349955201148986,0.0,0.0,-0.7092174887657166,-0.7320376634597778
-0.3132597506046295,1.4290196895599363,-0.6037250757217407,0.06042255833745,-0.6960914731025696,-0.1170080676674842,0.0,0.0,0.2405785322189331,-0.2790288925170898
-0.3192377984523773,1.4305559396743774,-0.5929704904556274,0.0655708238482475,-0.7023236751556396,-0.1246442571282386,0.0,0.0,-0.182163119316101,-0.4246988296508789
-0.3252879083156585,1.4319335222244265,-0.5998520851135254,0.0582959838211536,-0.7090039849281311,-0.1336061656475067,0.0,0.0,-0.2487543821334839,-0.4213593006134033
-0.3314082026481628,1.4331520795822144,-0.6065730452537537,0.0510215200483799,-0.716115415096283,-0.1422283351421356,0.0,0.0,0.0241811275482177,-0.7861422300338745
-0.33740895986557,1.4344446659088137,-0.595657467842102,0.0548679754137992,-0.7219127416610718,-0.1159467473626136,0.0,0.0,-0.0654953718185424,-0.5811492204666138
-0.3435081541538238,1.4356257915496826,-0.6062129139900208,0.0503110066056251,-0.7267955541610718,-0.0976546555757522,0.0,0.0,-0.3425866365432739,-0.8392381072044373
-0.3497145175933838,1.4367132186889648,-0.6180084943771362,0.0467646792531013,-0.7302731871604919,-0.0695527642965316,0.0,0.0,-0.351493239402771,-0.461772084236145
-0.3559827804565429,1.43764066696167,-0.623939573764801,0.0394960716366767,-0.7341042757034302,-0.0766223520040512,0.0,0.0,-0.1643853783607483,-0.6384570598602295
-0.3623439371585846,1.4384444952011108,-0.6338635683059692,0.0343703031539917,-0.7370967268943787,-0.0598492100834846,0.0,0.0,-0.8183557391166687,-0.7793498039245605
-0.3688110709190368,1.4391523599624634,-0.6456530094146729,0.0308121070265769,-0.7385158538818359,-0.0283828414976596,0.0,0.0,-0.2975943088531494,-0.7689526081085205
-0.3753654956817627,1.4397575855255127,-0.6552795767784119,0.0268046557903289,-0.7387322783470154,-0.004328180104494,0.0,0.0,-0.2563583850860595,-0.4643044471740722
-0.3819707036018371,1.440202236175537,-0.6601621508598328,0.0195418167859315,-0.7392099499702454,-0.0095532787963747,0.0,0.0,-0.3056166172027588,0.0700575113296508
-0.3886234164237976,1.4404858350753784,-0.6647394895553589,0.0122803663834929,-0.739923894405365,-0.0142786549404263,0.0,0.0,-0.0673833489418029,-0.7096388936042786
-0.3953531682491302,1.4406582117080688,-0.6732990741729736,0.0078557394444942,-0.739489734172821,0.0086828954517841,0.0,0.0,-0.0734782218933105,-0.4947080016136169
-0.4021234512329101,1.440669059753418,-0.677214503288269,0.0005972083308734,-0.7392401695251465,0.0049908021464943,0.0,0.0,0.3164501190185547,-0.4943664669990539
-0.4085772037506103,1.441246509552002,-0.6452178955078125,0.0255557000637054,-0.7394536137580872,-0.0042689079418778,0.0,0.0,0.0166966915130615,-0.4753203988075256
-0.4148686528205871,1.4420166015625,-0.6288331747055054,0.0340493395924568,-0.7398691177368164,-0.0083099585026502,0.0,0.0,-0.0288301110267639,-0.4189288020133972
-0.4211889207363128,1.4426250457763672,-0.6316373348236084,0.0267953481525182,-0.740388810634613,-0.0103943021968007,0.0,0.0,-0.0088736414909362,-0.449495792388916
-0.4275338053703308,1.4430707693099976,-0.6340439915657043,0.0195428784936666,-0.7409855723381042,-0.0119357528164982,0.0,0.0,0.3579695224761963,-0.5575430393218994
-0.4334607124328613,1.4439576864242554,-0.5932756066322327,0.0397772789001464,-0.7401998043060303,0.0157155562192201,0.0,0.0,0.1765183210372924,-0.3404979705810547
-0.4391941130161285,1.4449286460876465,-0.5740602612495422,0.0435886271297931,-0.7392348051071167,0.0192998796701431,0.0,0.0,0.4876421689987182,-0.5244008302688599
-0.4444003999233246,1.4463999271392822,-0.5224807262420654,0.0665067359805107,-0.7367676496505737,0.0493429191410541,0.0,0.0,0.3160326480865478,-0.6616382002830505
-0.4492484927177429,1.448470115661621,-0.4877803921699524,0.0938046425580978,-0.7328155636787415,0.0790418460965156,0.0,0.0,0.1518123149871826,-0.1432793140411377
-0.4536265432834625,1.4509413242340088,-0.4411768019199371,0.1118494942784309,-0.7283466458320618,0.0893782526254654,0.0,0.0,0.2425968647003173,0.0687041282653808
-0.4576694965362549,1.4536798000335691,-0.4079436659812927,0.1238656044006347,-0.7235299944877625,0.0963326767086982,0.0,0.0,-0.3207135796546936,0.3234224319458008
-0.4617058336734772,1.456254243850708,-0.4073823392391205,0.116622008383274,-0.7186059951782227,0.0984797179698944,0.0,0.0,-0.019644558429718,0.4043607711791992
-0.4657312035560608,1.458664894104004,-0.4063971936702728,0.109379656612873,-0.7135502696037292,0.1011146903038024,0.0,0.0,-0.1613314151763916,0.0669693946838378
-0.4697411656379699,1.4609113931655884,-0.4049951434135437,0.1021384820342063,-0.7083390951156616,0.1042234152555465,0.0,0.0,-0.2145873308181762,0.1312097311019897
-0.4737314283847809,0.0,-0.4031853079795837,0.0948983803391456,-0.702949583530426,0.1077906116843223,0.0,0.0,-0.0435683131217956,-0.182607889175415
-0.4776979088783264,1.4649111032485962,-0.4009784758090973,0.0876593068242073,-0.697359561920166,0.1118002906441688,0.0,0.0,-0.0121592283248901,0.2003461122512817
-0.4816365242004394,1.4666640758514404,-0.3983868956565857,0.0804211422801017,-0.6915477514266968,0.1162356734275817,0.0,0.0,-0.2624164819717407,0.1601324081420898
-0.4855434894561767,1.468252182006836,-0.3954244256019592,0.0731838196516037,-0.6854937672615051,0.1210795640945434,0.0,0.0,-0.2180817127227783,0.3554797172546386
-0.4894149303436279,1.4696755409240725,-0.3921059072017669,0.0659472495317459,-0.6791780591011047,0.1263144761323928,0.0,0.0,-0.1224709749221801,0.2494492530822754
-0.4932473301887512,1.4709339141845703,-0.3884470462799072,0.0587113238871097,-0.6725819110870361,0.1319227069616317,0.0,0.0,-0.4809731245040893,0.6587408781051636
-0.4969930052757263,1.4719821214675903,-0.3788590133190155,0.0488592125475406,-0.6671810746192932,0.1080170050263404,0.0,0.0,-0.2216660976409912,0.3066235780715942
