x_pos,y_pos,x_vel,y_vel,angle,ang_vel,leg_1,leg_2,main_booster,lat_booster
-0.0015283584361895,1.4031193256378174,-0.1549043357372284,-0.3467026352882385,0.0018460860010236,0.0364223569631576,0.0,0.0,-0.1837936043739318,0.9307785034179688
-0.0029808997642248,1.3948322534561155,-0.145119696855545,-0.3683162629604339,0.0017172729130834,-0.0025760428979992,0.0,0.0,-0.3813339471817016,0.2860422134399414
-0.004435253329575,1.3860394954681396,-0.145373523235321,-0.3907918334007263,0.0016584182158112,-0.0011774891754612,0.0,0.0,0.3194718360900879,0.942597270011902
-0.0059263231232762,1.3773367404937744,-0.1471433192491531,-0.3867838084697723,-0.0002846409915946,-0.0388647504150867,0.0,0.0,-0.0183581113815307,0.7241065502166748
-0.0073472978547215,1.3681312799453735,-0.1384408771991729,-0.4091420769691467,-0.0038960634265094,-0.0722354501485824,0.0,0.0,0.2823104858398437,0.8058581352233887
-0.0085798259824514,1.3590508699417114,-0.1182049289345741,-0.4035937488079071,-0.0088863307610154,-0.0998146682977676,0.0,0.0,-0.2678689956665039,0.3516048192977905
-0.0098085403442382,1.3494656085968018,-0.1178973913192749,-0.4260525703430176,-0.0138076385483145,-0.0984350889921188,0.0,0.0,0.0695223808288574,0.6183052062988281
-0.0108689311891794,1.340002179145813,-0.1000566482543945,-0.420660138130188,-0.0197272337973117,-0.1184028536081314,0.0,0.0,-0.100705862045288,-0.1993347406387329
-0.0119231222197413,1.3300338983535769,-0.0994932502508163,-0.4431200623512268,-0.0255784839391708,-0.1170357838273048,0.0,0.0,-0.0872240662574768,-0.5927135348320007
-0.0130163189023733,1.3195664882659912,-0.1046658158302307,-0.4653080701828003,-0.0301861781626939,-0.0921621695160865,0.0,0.0,0.5517175197601318,0.4525775909423828
-0.0140031818300485,1.3094273805618286,-0.0944766625761985,-0.4507115483283996,-0.034343734383583,-0.0831588208675384,0.0,0.0,-0.2200202941894531,-0.1633599996566772
-0.0149801252409815,1.2987834215164185,-0.0935684591531753,-0.4731718003749847,-0.0384352654218673,-0.0818379893898963,0.0,0.0,-0.1831303834915161,-0.7551521062850952
-0.0159928314387798,1.2876408100128174,-0.0983931198716163,-0.4953007698059082,-0.0412865467369556,-0.057030688971281,0.0,0.0,-0.645676851272583,-0.4432107210159302
-0.0169937126338481,1.2759932279586792,-0.0972761511802673,-0.5177537202835083,-0.0440737009048461,-0.0557478554546833,0.0,0.0,0.5538382530212402,-0.1201466917991638
-0.0178151130676269,1.2649935483932495,-0.0800166428089141,-0.4889384508132934,-0.0461716130375862,-0.0419619865715503,0.0,0.0,-0.7267497181892395,-0.6154060959815979
-0.0186627395451068,1.2534840106964111,-0.0837090611457824,-0.511568009853363,-0.0472084805369377,-0.0207396876066923,0.0,0.0,-0.7847738862037659,0.4092508554458618
-0.0194956772029399,1.241469383239746,-0.0823109745979309,-0.5340155959129333,-0.0481831654906272,-0.0194955226033926,0.0,0.0,-0.8149818181991577,0.1057277917861938
-0.0203131679445505,1.2289495468139648,-0.0808266773819923,-0.5564667582511902,-0.0490959696471691,-0.0182577539235353,0.0,0.0,-0.8558313846588135,-0.6002959609031677
-0.0211539268493652,1.215933084487915,-0.0842256844043731,-0.5785045027732849,-0.0489464476704597,0.0029904865659773,0.0,0.0,-0.2714847326278686,-0.3586983680725097
-0.021977711468935,1.202411413192749,-0.0825852453708648,-0.6009571552276611,-0.0487372763454914,0.0041837710887193,0.0,0.0,-0.6682738065719604,-0.6655654311180115
-0.0228249542415142,1.1883924007415771,-0.0860509425401687,-0.6230247616767883,-0.0474249683320522,0.026248475536704,0.0,0.0,-0.5258374214172363,-0.1755902767181396
-0.0236538890749216,1.173868179321289,-0.0842715203762054,-0.6454771757125854,-0.0460546724498271,0.0274083465337753,0.0,0.0,-0.4851813912391662,-0.7766810655593872
-0.0245118141174316,1.1588410139083862,-0.0884687080979347,-0.6677921414375305,-0.0434151552617549,0.0527950748801231,0.0,0.0,0.0816681385040283,-0.5135574340820312
-0.0253317840397357,1.143608808517456,-0.0858423337340354,-0.6768817901611328,-0.0396051406860351,0.0762072131037712,0.0,0.0,0.0301328897476196,0.1172636747360229
-0.0262042041867971,1.1284781694412231,-0.0907333567738533,-0.6723820567131042,-0.0361502766609191,0.0691033452749252,0.0,0.0,-0.1227792501449585,0.5297577381134033
-0.0270245559513568,1.1128220558166504,-0.0847855359315872,-0.6957608461380005,-0.0334380790591239,0.0542441084980964,0.0,0.0,-0.3033009767532348,0.4624596834182739
-0.0278238300234079,1.0966609716415403,-0.0827198922634124,-0.7182118892669678,-0.030671102926135,0.0553396455943584,0.0,0.0,0.098374605178833,0.5125188827514648
-0.0286394115537405,1.0808252096176147,-0.0832086950540542,-0.7037777304649353,-0.0290495958179235,0.0324302613735199,0.0,0.0,-0.3777828216552734,-0.1826483011245727
-0.0294331554323434,1.0644843578338623,-0.0810582935810089,-0.7262284159660339,-0.027374668046832,0.0334984734654426,0.0,0.0,-0.0458515882492065,0.2866573333740234
-0.0302042961120605,1.0476384162902832,-0.0788712948560714,-0.7486790418624878,-0.0256470423191785,0.0345524661242961,0.0,0.0,0.8143184185028076,-0.3563873767852783
-0.0309083946049213,1.0316805839538574,-0.0723064839839935,-0.7092006802558899,-0.0237724427133798,0.0374921113252639,0.0,0.0,0.3395960330963135,-0.0142434835433959
-0.0316441543400287,1.0157527923583984,-0.0752224251627922,-0.7078739404678345,-0.0221384093165397,0.0326803624629974,0.0,0.0,-0.034135103225708,-0.1955662965774536
-0.0323565490543842,0.9993199706077576,-0.0729479044675827,-0.7303245663642883,-0.020453942939639,0.0336893796920776,0.0,0.0,0.128852367401123,-0.5734205842018127
-0.0331341736018657,0.9827492237091064,-0.0805993229150772,-0.7364385724067688,-0.0176606345921754,0.0558664016425609,0.0,0.0,0.4627938270568847,0.0679783821105957
-0.0338640213012695,0.9665060639381408,-0.0759293735027313,-0.7218889594078064,-0.0147518990561366,0.0581745728850364,0.0,0.0,-0.0541023612022399,-0.1509990692138672
-0.0345700271427631,0.949757754802704,-0.0735993236303329,-0.7443400621414185,-0.0117952357977628,0.0591333396732807,0.0,0.0,-0.3144009709358215,0.2613257169723511
-0.0352521911263465,0.9325045347213744,-0.0712575763463974,-0.7667912244796753,-0.0087915435433387,0.0600738637149333,0.0,0.0,0.7265112400054932,0.2749602794647217
-0.0358634963631629,0.9159387946128844,-0.0644141137599945,-0.7362356185913086,-0.0055577997118234,0.0646749064326286,0.0,0.0,-0.6750938892364502,0.3836785554885864
-0.0364508628845214,0.898868203163147,-0.0620588175952434,-0.7586870193481445,-0.0022789891809225,0.0655763298273086,0.0,0.0,-0.5110918283462524,0.773618221282959
-0.0369501113891601,0.8812933564186096,-0.0516590662300586,-0.7811068892478943,-0.0005667431396432,0.0342448018491268,0.0,0.0,0.3809438943862915,0.5778764486312866
-0.0374766364693641,0.8641944527626038,-0.0530495755374431,-0.7599521279335022,-0.0001698866399237,0.0079370252788066,0.0,0.0,0.5108338594436646,-0.4010138511657715
-0.0378662124276161,0.8473083972930908,-0.0399303026497364,-0.750488817691803,0.0007907795952633,0.0192133244127035,0.0,0.0,-0.2151183485984802,0.3028181791305542
-0.0382319465279579,0.8299172520637512,-0.0375857688486576,-0.7729394435882568,0.0017919656820595,0.0200237389653921,0.0,0.0,-0.2095019817352295,0.3805973529815674
-0.0385738387703895,0.8120209574699402,-0.0352515168488025,-0.7953900694847107,0.0028323703445494,0.0208081491291522,0.0,0.0,0.8300985097885132,0.3005729913711548
-0.0389382354915142,0.7941086888313293,-0.0373131372034549,-0.7961012125015259,0.0037023543845862,0.0173995271325111,0.0,0.0,0.0527539253234863,0.3603761196136474
-0.0392505638301372,0.7760109901428223,-0.032296098768711,-0.804349958896637,0.0047441353090107,0.0208356119692325,0.0,0.0,-0.477472186088562,0.1579951047897339
-0.0395398139953613,0.7574082016944885,-0.0300100799649953,-0.8268006443977356,0.0058207912370562,0.0215330049395561,0.0,0.0,0.8330085277557373,0.5294303894042969
-0.0399020202457904,0.7396924495697021,-0.0358928553760051,-0.7873584628105164,0.0054973289370536,-0.0064694071188569,0.0,0.0,0.2185615301132202,0.0248553752899169
-0.0403425209224224,0.7223429083824158,-0.0432975403964519,-0.7710897326469421,0.0047527072019875,-0.0148925352841615,0.0,0.0,-0.2355433702468872,-0.0224608182907104
-0.040760613977909,0.7044882774353027,-0.0410847887396812,-0.7935402989387512,0.0040378258563578,-0.0142975868657231,0.0,0.0,0.3930963277816772,-0.2243741750717163
-0.0410376563668251,0.6868515014648438,-0.0275661014020442,-0.7838591933250427,0.0039102798327803,-0.0025509546976536,0.0,0.0,0.187341570854187,-0.4304847717285156
-0.0413362495601177,0.6695032715797424,-0.0295648071914911,-0.7710240483283997,0.0036171192768961,-0.0058630490675568,0.0,0.0,-0.1470240950584411,-0.2195172309875488
-0.0416133888065815,0.651650071144104,-0.0274489670991897,-0.7934747338294983,0.0033477188553661,-0.0053879139013588,0.0,0.0,0.2563503980636596,-0.0160307884216308
-0.0418692603707313,0.63420170545578,-0.0253398176282644,-0.7754852771759033,0.0031110956333577,-0.004732321947813,0.0,0.0,0.643195390701294,0.7709566354751587
-0.0418815612792968,0.6169737577438354,0.000225176801905,-0.765687108039856,0.0016668164171278,-0.0288854148238897,0.0,0.0,0.6524205207824707,0.0815407037734985
-0.0419701561331748,0.5999472737312317,-0.0069640390574932,-0.756729245185852,-0.000202723647817,-0.0373906940221786,0.0,0.0,0.4919935464859009,-0.431633710861206
-0.0419539436697959,0.5834954380989075,0.003098118584603,-0.7311986088752747,-0.0016652221092954,-0.0292497910559177,0.0,0.0,0.0600103139877319,0.6278777122497559
-0.0417682640254497,0.5671895742416382,0.0211810655891895,-0.7247056365013123,-0.0042411088943481,-0.0515177734196186,0.0,0.0,0.5075678825378418,-0.7762859463691711
-0.0415462478995323,0.5515135526657104,0.0231093298643827,-0.6967151761054993,-0.0051404302939772,-0.0179862566292285,0.0,0.0,-0.419277548789978,-0.4086664915084839
-0.0413061156868934,0.5353323817253113,0.0249163061380386,-0.7191656827926636,-0.0060334745794534,-0.0178610440343618,0.0,0.0,0.2206703424453735,-0.2902963161468506
-0.0410089492797851,0.5190561413764954,0.0304418317973613,-0.7233908772468567,-0.0067481817677617,-0.0142941009253263,0.0,0.0,-0.0361437797546386,-0.4011749625205993
-999.0,0.5022748112678528,0.0321419201791286,-0.7458415627479553,-0.0074624367989599,-0.0142850112169981,0.0,0.0,0.7660560607910156,-0.1405394077301025
-0.0402279868721962,0.4858161509037018,0.0467840656638145,-0.7315000295639038,-0.0075685610063374,-0.0021221514325588,0.0,0.0,0.2860429286956787,-0.1824678182601928
-0.0397234931588172,0.4695677757263183,0.0504813678562641,-0.7221518754959106,-0.0075954287312924,-0.0005376365152187,0.0,0.0,0.7276613712310791,-0.3194435834884643
-0.0391923896968364,0.4534429013729095,0.0531076118350029,-0.7166621088981628,-0.0075932056643068,4.45810983364936e-05,0.0,0.0,0.3107897043228149,-0.3606528639793396
-0.038741398602724,0.4375172853469848,0.045570258051157,-0.7078053951263428,-0.0080571798607707,-0.0092794680967926,0.0,0.0,0.8121013641357422,-0.3686226606369018
-0.0382452979683876,0.4224942922592163,0.0499780401587486,-0.6676921248435974,-0.0084272567182779,-0.0074014640413224,0.0,0.0,0.5150816440582275,-0.0525660514831543
-0.0376585014164447,0.4073674082756042,0.0587204508483409,-0.6723046898841858,-0.0084672532975673,-0.0008000619709491,0.0,0.0,0.4425194263458252,-0.732486367225647
-0.0370845794677734,0.3928623795509338,0.0559386909008026,-0.6446624994277954,-0.0070279603824019,0.0287859886884689,0.0,0.0,-0.3497622013092041,-0.6370971202850342
-0.0365570075809955,0.3778500258922577,0.0498344823718071,-0.6672024130821228,-0.0041482537053525,0.0575942024588584,0.0,0.0,0.8803935050964355,0.0840779542922973
-0.036119557917118,0.3634893298149109,0.0413404516875743,-0.6382484436035156,-0.0017795207677409,0.0473747663199901,0.0,0.0,0.9097789525985718,0.5484747886657715
-0.0355892181396484,0.3497034311294555,0.051663476973772,-0.6127041578292847,-0.0004231698694638,0.0271268542855978,0.0,0.0,0.7826409339904785,0.177367091178894
-0.0351876243948936,0.33677938580513,0.0394680835306644,-0.5744014978408813,0.0002567237534094,0.013597953133285,0.0,0.0,0.3309054374694824,0.4993230104446411
-0.0347178466618061,0.3240481317043304,0.0460433550179004,-0.565838098526001,0.0011741146445274,0.0183478854596614,0.0,0.0,0.2107375860214233,-0.0838764905929565
-0.0342648513615131,0.31124147772789,0.0445315763354301,-0.5691835880279541,0.0019381468882784,0.0152804348617792,0.0,0.0,0.3773725032806396,0.2974843978881836
-0.0337480530142784,0.298336386680603,0.0506917126476764,-0.5735601782798767,0.002922658342868,0.0196901019662618,0.0,0.0,0.8144910335540771,-0.4771409630775451
-0.0332599654793739,0.2854852676391601,0.0480164177715778,-0.5711650252342224,0.0037022668402642,0.0155921112746,0.0,0.0,0.8146350383758545,-0.3230431675910949
-0.032777976244688,0.2734356224536896,0.0474934615194797,-0.5355374813079834,0.0043924846686422,0.0138042392209172,0.0,0.0,0.7558243274688721,-0.3311344385147095
-0.0322092995047569,0.2621819972991943,0.0558287128806114,-0.5001667737960815,0.005427015479654,0.0206904672086238,0.0,0.0,0.2056177854537964,-0.5131173729896545
-0.0317689888179302,0.2513219118118286,0.04219476506114,-0.4826765954494476,0.0072416369803249,0.0362923294305801,0.0,0.0,0.2487901449203491,0.6092145442962646
-0.0313861854374408,0.2403253614902496,0.0379181392490863,-0.488738477230072,0.0075992867350578,0.0071530691348016,0.0,0.0,0.4759342670440674,-0.0394374132156372
-0.0309691429138183,0.2298832684755325,0.0412263646721839,-0.4640935063362121,0.0080680828541517,0.0093759344890713,0.0,0.0,0.3416306972503662,0.2835694551467895
-0.0306353569030761,0.2196360975503921,0.0333516411483287,-0.4554308354854584,0.0080988472327589,0.00061507942155,0.0,0.0,0.0857464075088501,-0.0738282799720764
-0.0303388591855764,0.2095514833927154,0.0298389978706836,-0.44820436835289,0.0079037835821509,-0.0039010676555335,0.0,0.0,0.5106496810913086,-0.4319860935211181
-0.0300568584352731,0.1999207139015197,0.0285118110477924,-0.4280359447002411,0.0075973547063767,-0.0061287060379981,0.0,0.0,0.427457332611084,-0.427090585231781
-0.0297023765742778,0.1905395537614822,0.0354704372584819,-0.4169389605522156,0.0075771384872496,-0.0004043212975375,0.0,0.0,0.4917649030685425,-0.3945711851119995
-0.029328441247344,0.1811171323060989,0.0373762473464012,-0.4187746047973633,0.0075922152027487,0.0003015346010215,0.0,0.0,0.7354354858398438,-0.1584103107452392
-0.0288605690002441,0.171825036406517,0.0463860221207141,-0.4129824638366699,0.0079930406063795,0.008016524836421,0.0,0.0,0.6354413032531738,-0.7395613193511963
-0.0282965656369924,0.1628767549991607,0.0542549900710582,-0.3977135717868805,0.0101126721128821,0.0423926785588264,0.0,0.0,0.3448555469512939,-0.930724561214447
-0.0276802070438861,0.1538987904787063,0.0575827173888683,-0.3990553319454193,0.0141124902293086,0.0799965783953666,0.0,0.0,0.5929440259933472,-0.877597451210022
-0.0271515846252441,0.145507127046585,0.0471227541565895,-0.3730257153511047,0.0197799317538738,0.1133487075567245,0.0,0.0,0.0921814441680908,0.1033134460449218
-0.02661476098001,0.1373633742332458,0.0479141399264335,-0.3620291650295257,0.0254726819694042,0.1138550639152526,0.0,0.0,0.063905119895935,-0.2262619733810424
-0.0260116569697856,0.1293622404336929,0.0542483143508434,-0.3557240664958954,0.0314662866294384,0.119871899485588,0.0,0.0,0.1796903610229492,-0.5279032588005066
-0.0253817550837993,0.1212020963430404,0.0557667985558509,-0.3628401458263397,0.0385968424379825,0.1426112502813339,0.0,0.0,0.3871042728424072,-0.3624294996261596
-0.0248161312192678,0.1131757125258445,0.049615029245615,-0.35692098736763,0.0454516150057315,0.1370956003665924,0.0,0.0,0.3362643718719482,0.7658823728561401
-0.0241493228822946,0.1057088673114776,0.0612611584365367,-0.3320343196392059,0.0508111305534839,0.1071903109550476,0.0,0.0,0.2023490667343139,0.6815356016159058
-0.0234731677919626,0.0983599722385406,0.0636633038520813,-0.3267549276351928,0.0547155141830444,0.0780876949429512,0.0,0.0,0.353143572807312,-0.4769991636276245
-0.0229392051696777,0.091473639011383,0.0499898381531238,-0.3061893284320831,0.0580748878419399,0.0671874433755874,0.0,0.0,0.2463085651397705,0.6524248123168945
-0.0223166458308696,0.0848845541477203,0.0601295344531536,-0.292929083108902,0.060176994651556,0.0420421846210956,0.0,0.0,0.1960701942443847,-0.1843221783638
-0.02177095413208,0.07860017567873,0.0527043715119361,-0.2793823778629303,0.0620253197848796,0.0369660295546054,0.0,0.0,0.07497239112854,-0.3852390050888061
-0.0213149078190326,0.0725350230932235,0.04406663402915,-0.2696267068386078,0.0635496526956558,0.0304867215454578,0.0,0.0,0.0299354791641235,-0.1062965989112854
-0.0208999626338481,0.0664279535412788,0.0400999896228313,-0.2714857459068298,0.0649268329143524,0.0275436453521251,0.0,0.0,0.0183907747268676,-0.6122453808784485
-0.0206447597593069,0.0603585802018642,0.0230710227042436,-0.2698572874069214,0.0673502683639526,0.0484688654541969,0.0,0.0,0.069846510887146,0.9890066385269164
-0.0204571727663278,0.0542854890227317,0.0183259360492229,-0.2699334323406219,0.0677702352404594,0.0083994539454579,0.0,0.0,0.3692539930343628,0.972931146621704
-0.020138930529356,0.0486223809421062,0.0333815217018127,-0.2516238987445831,0.0662405118346214,-0.0305947959423065,0.0,0.0,0.3015248775482178,0.0253013372421264
-0.0197980888187885,0.0428939685225486,0.0354743376374244,-0.2545351386070251,0.0648574009537696,-0.0276618562638759,0.0,0.0,0.3758552074432373,-0.4938308000564575
-0.0193846710026264,0.0376231782138347,0.0422609895467758,-0.234220802783966,0.0639558807015419,-0.0180307663977146,0.0,0.0,0.1826401948928833,0.51829993724823
-0.0189905166625976,0.0326851941645145,0.0414871647953987,-0.2193777412176132,0.0619073994457721,-0.0409698039293289,0.0,0.0,0.1279224157333374,-0.3551660776138305
-0.0185419078916311,0.0281245801597833,0.0465566143393516,-0.2026280760765075,0.0602316372096538,-0.033515028655529,0.0,0.0,-0.2688462734222412,-0.6285622715950012
-0.0181432720273733,0.023054776713252,0.0405287444591522,-0.2252946943044662,0.0595702566206455,-0.0132275121286511,0.0,0.0,0.6151160001754761,-0.1497235894203186
-0.0178057663142681,0.0186744071543216,0.0345286019146442,-0.1946537792682647,0.0587977282702922,-0.0154503909870982,0.0,0.0,0.3884910345077514,0.728729248046875
-0.0173995979130268,0.0147964330390095,0.0428492799401283,-0.1722669303417205,0.0565842203795909,-0.044270135462284,0.0,0.0,0.0219682455062866,0.3177454471588135
-0.0169661529362201,0.0108423568308353,0.0454334542155265,-0.1756616085767746,0.0545221455395221,-0.041241779923439,0.0,0.0,0.5578244924545288,-0.7180119156837463
-0.016754150390625,0.0072424747049808,0.0221740286797285,-0.1599588543176651,0.0535659231245517,-0.0191244725137949,0.0,0.0,0.586487889289856,0.6624748706817627
-0.0166563037782907,0.0038696145638823,0.012454455718398,-0.1498142927885055,0.0509226359426975,-0.0528656728565692,0.0,0.0,0.5817015171051025,0.8204562664031982
-0.0166302677243948,0.0013951158616691,0.0227085407823324,-0.1094408929347992,0.0309548173099756,-0.3994797170162201,0.0,1.0,0.4716891050338745,0.1935904026031494
-0.0166651718318462,-0.0004507088742684,0.027657177299261,-0.0818174183368682,-0.0002452511689625,-0.6245686411857605,0.0,1.0,0.5728340148925781,-0.0699326992034912
-0.0165619850158691,-0.0023081565741449,0.0402497313916683,-0.0828190147876739,-0.0297913774847984,-0.5909222960472107,1.0,1.0,0.4126898050308227,-0.9131683111190796
-0.0163686759769916,-0.0033083343878388,0.0357776470482349,-0.0452045015990734,-0.0444466397166252,-0.2910764813423157,1.0,0.0,-0.0162823796272277,-0.4461255073547363
-0.0160517692565917,-0.0042197490110993,0.0290278978645801,-0.0404420308768749,-0.041758581995964,0.0538286864757537,1.0,0.0,-0.479749858379364,0.0642807483673095
-0.015640640631318,-0.0051108859479427,0.0231350883841514,-0.039208959788084,-0.0239668432623147,0.3558773100376129,1.0,1.0,0.4285964965820312,0.7829265594482422
