x_pos,y_pos,x_vel,y_vel,angle,ang_vel,leg_1,leg_2,main_booster,lat_booster
-0.0014513969654217,1.4031691551208496,-0.146941602230072,-0.3444838523864746,0.0016053313156589,0.0316550806164741,0.0,0.0,-0.3158327341079712,0.4477357864379883
-0.0028323172591626,1.3949861526489258,-0.1395504772663116,-0.363689512014389,0.003052374580875,0.0289443526417017,0.0,0.0,-0.2007694840431213,0.5263941287994385
-0.0040936470031738,1.3863438367843628,-0.1262021362781524,-0.3841035068035126,0.003111730562523,0.0011876658536493,0.0,0.0,0.0958622694015502,0.7194123268127441
-0.0053227422758936,1.3777408599853516,-0.1213081628084182,-0.3823543787002563,0.0015361114637926,-0.0315154865384101,0.0,0.0,-0.0633105039596557,0.5779937505722046
-0.0064313886687159,1.3686846494674685,-0.1077600866556167,-0.4025045037269592,-0.0015391561901196,-0.0615110211074352,0.0,0.0,0.1362607479095459,-0.4433989524841308
-0.0073819160461425,1.3597333431243896,-0.0922899842262268,-0.3978440165519714,-0.0042733447626233,-0.0546883270144462,0.0,0.0,-0.2429449558258056,-0.1086413264274597
-0.008271312341094,1.3503265380859375,-0.0860697776079177,-0.4180825352668762,-0.0071165170520544,-0.0568689182400703,0.0,0.0,-0.6942736506462097,0.1903539896011352
-0.0091016767546534,1.3404649496078491,-0.0800598412752151,-0.4383148849010467,-0.0100657800212502,-0.0589906089007854,0.0,0.0,-0.4144780039787292,-0.2536325454711914
-0.0098752025514841,1.330148220062256,-0.0742642432451248,-0.4585481882095337,-0.013118996284902,-0.061069868505001,0.0,0.0,-0.4695050716400146,-0.7889522314071655
-0.010656070895493,1.3193823099136353,-0.0764878466725349,-0.4784955084323883,-0.01470847427845,-0.0317922458052635,0.0,0.0,-0.6455589532852173,0.3384966850280761
-0.0113845821470022,1.308161377906799,-0.0711350366473198,-0.4987292885780334,-0.0163977369666099,-0.0337885096669197,0.0,0.0,-0.3767640590667724,-0.7535672783851624
-0.0121150966733694,1.2964849472045898,-0.0725831910967826,-0.5189602971076965,-0.0168645400553941,-0.0093371672555804,0.0,0.0,-0.4236212968826294,-0.3609699010848999
-0.0127976415678858,1.284353256225586,-0.0676818490028381,-0.539193868637085,-0.0174255017191171,-0.0112202335149049,0.0,0.0,-0.1346722245216369,-0.7008807063102722
-0.0134832384064793,1.2717610597610474,-0.0691536590456962,-0.5596466064453125,-0.0168462693691253,0.0115858102217316,0.0,0.0,-0.3994982242584228,-0.7750111818313599
-0.014172077178955,1.2587227821350098,-0.0705758705735206,-0.579456627368927,-0.0151767563074827,0.033393420279026,0.0,0.0,-0.68772953748703,-0.7816619277000427
-0.0148703576996922,1.245221495628357,-0.0727035850286483,-0.6000359058380127,-0.0123231010511517,0.0570781640708446,0.0,0.0,-0.3085639476776123,0.0708731412887573
-0.0155294416472315,1.2312649488449097,-0.0687234625220298,-0.6202698349952698,-0.0095502724871039,0.0554617270827293,0.0,0.0,-0.6112588047981262,-0.6718536019325256
-0.0161925312131643,1.2168482542037964,-0.0700570344924926,-0.6407257318496704,-0.0058356001973152,0.0743003264069557,0.0,0.0,-0.7210671305656433,-0.253520131111145
-0.0168210975825786,1.2019764184951782,-0.0665353015065193,-0.6609604358673096,-0.0021941123995929,0.0728359967470169,0.0,0.0,-0.5488823056221008,-0.6428398489952087
-0.0174750331789255,1.1866494417190552,-0.0704635605216026,-0.6811984181404114,0.0028264380525797,0.100419744849205,0.0,0.0,-0.3140802383422851,0.4147744178771972
-0.0180988311767578,1.170867681503296,-0.0673962756991386,-0.7014340162277222,0.0077819759026169,0.0991197079420089,0.0,0.0,-0.443225622177124,0.7001476287841797
-0.0186384208500385,1.1546273231506348,-0.0574697069823741,-0.7218092083930969,0.0112599115818738,0.0695649310946464,0.0,0.0,-0.4905052185058594,0.5120805501937866
-0.0191029552370309,1.137932062149048,-0.0486639365553855,-0.742029070854187,0.0134465536102652,0.043736632913351,0.0,0.0,0.428107738494873,0.2669343948364258
-0.0194869991391897,1.121187686920166,-0.0408531054854393,-0.7442242503166199,0.0158639401197433,0.0483520664274692,0.0,0.0,0.0085347890853881,0.5595271587371826
-0.0199086181819438,1.1045774221420288,-0.0432923510670661,-0.738247275352478,0.0169837549328804,0.0223983265459537,0.0,0.0,-0.2893223762512207,0.2297344207763672
-0.0203103069216012,1.087490439414978,-0.0412679426372051,-0.7594355344772339,0.0180647112429142,0.0216190721839666,0.0,0.0,-0.0219571590423584,-0.1436253190040588
-0.0206944458186626,1.0699481964111328,-0.0394698604941368,-0.7796671986579895,0.0191117655485868,0.0209411326795816,0.0,0.0,0.4221343994140625,0.0464470386505126
-0.0211888309568166,1.0530129671096802,-0.0499464720487594,-0.7526842951774597,0.0196100622415542,0.0099661033600568,0.0,0.0,-0.0887384414672851,-0.6814852356910706
-0.0217350963503122,1.0356261730194092,-0.0567808933556079,-0.7727735042572021,0.0217340886592865,0.0424804016947746,0.0,0.0,0.6198446750640869,0.4329105615615845
-0.0223004333674907,1.018500566482544,-0.0585652999579906,-0.7611714601516724,0.0237456783652305,0.0402316525578498,0.0,0.0,-0.3447796702384949,0.1922669410705566
-0.0228554718196392,1.0009196996688845,-0.0575329847633838,-0.7814034223556519,0.0257457345724105,0.0400011539459228,0.0,0.0,-0.0477243661880493,0.6738197803497314
-0.0233555790036916,0.9828815460205078,-0.0508462488651275,-0.8017100095748901,0.026573272421956,0.0165505092591047,0.0,0.0,0.9012703895568848,0.6863524913787842
-0.0239215847104787,0.9657760858535768,-0.0557953231036663,-0.7602329254150391,0.0257825125008821,-0.015815520659089,0.0,0.0,0.7125644683837891,-0.7563498616218567
-0.0246240608394145,0.9487640261650084,-0.0708234086632728,-0.7561048269271851,0.0263556819409132,0.0114634158089756,0.0,0.0,0.7801992893218994,-0.6502262949943542
-0.0253729820251464,0.9323101043701172,-0.0768501386046409,-0.7313167452812195,0.0282790996134281,0.0384685434401035,0.0,0.0,-0.4713255167007446,0.7631235122680664
-0.0260576251894235,0.915409505367279,-0.0688431411981582,-0.7511475086212158,0.0286548528820276,0.0075150341726839,0.0,0.0,0.5639437437057495,-0.1654328107833862
-0.026778507977724,0.8986988067626953,-0.0723718255758285,-0.742702841758728,0.028937766328454,0.0056583136320114,0.0,0.0,-0.2012248635292053,0.0396953821182251
-0.0274996757507324,0.8815329670906067,-0.0724355354905128,-0.7629346251487732,0.0292480997741222,0.0062066721729934,0.0,0.0,0.6070129871368408,-0.1271745562553405
-0.0282847397029399,0.8651391863822937,-0.078667864203453,-0.7286215424537659,0.0294140148907899,0.0033182527404278,0.0,0.0,-0.2796489000320434,-0.1887680292129516
-0.0290724746882915,0.8482900261878967,-0.0789794325828552,-0.7488533854484558,0.0296176522970199,0.0040727285668253,0.0,0.0,0.0048551559448242,-0.2149823307991027
-0.0299429893493652,0.8316929340362549,-0.0869914591312408,-0.7376497387886047,0.0295635405927896,-0.0010825273348018,0.0,0.0,-0.4620059728622436,-0.058940052986145
-0.0308182723820209,0.8146407008171082,-0.087519958615303,-0.7578814625740051,0.0295568034052848,-0.0001346546632703,0.0,0.0,0.2038027048110962,0.2766804695129394
-0.0316351875662803,0.7974788546562195,-0.0820751711726188,-0.762752890586853,0.0299294982105493,0.0074539333581924,0.0,0.0,0.2977230548858642,0.4056103229522705
-0.0323931686580181,0.7804879546165466,-0.0766002759337425,-0.7551671862602234,0.0307192802429199,0.015795636922121,0.0,0.0,-0.6375280022621155,0.3255143165588379
-0.0331584922969341,0.7630418539047241,-0.0773950219154357,-0.7753990292549133,0.0315695591270923,0.0170055907219648,0.0,0.0,0.7890486717224121,0.81789231300354
-0.0338236801326274,0.7456804513931274,-0.0659100860357284,-0.7716067433357239,0.030964383855462,-0.0121033573523163,0.0,0.0,0.0528513193130493,0.6925177574157715
-0.0344070419669151,0.7282915711402893,-0.0564423575997352,-0.7727974653244019,0.0290906485170125,-0.037474475800991,0.0,0.0,-0.5251609683036804,-0.0675358772277832
-0.0349996574223041,0.7104474902153015,-0.0574316456913948,-0.7930295467376709,0.0272886548191308,-0.0360400639474391,0.0,0.0,0.1503114700317382,0.4448913335800171
-0.0357090942561626,0.6929675340652466,-0.0687666982412338,-0.7768518924713135,0.0251343622803688,-0.0430860742926597,0.0,0.0,0.2322189807891845,-0.7270685434341431
-0.0365134254097938,0.6755964159965515,-0.0797690451145172,-0.7720451951026917,0.0244821552187204,-0.0130441589280962,0.0,0.0,0.5510650873184204,0.8958451747894287
-0.037118624895811,0.6585817337036133,-0.0583483688533306,-0.7561681270599365,0.0223277378827333,-0.0430883802473545,0.0,0.0,-0.4263315200805664,0.8143806457519531
-0.0376763343811035,0.6411194801330566,-0.0521821752190589,-0.7760499715805054,0.0187916941940784,-0.0707210004329681,0.0,0.0,0.2065383195877075,0.2083783149719238
-0.0381709113717079,0.6236914396286011,-0.0463379248976707,-0.7745469212532043,0.0157110448926687,-0.0616128742694854,0.0,0.0,0.0322242975234985,0.6231787204742432
-0.0386324897408485,0.6065626740455627,-0.0418793857097625,-0.7612354159355164,0.0114817442372441,-0.0845860242843627,0.0,0.0,0.4337117671966553,0.1828477382659912
-0.0389803871512413,0.5896159410476685,-0.0312066935002803,-0.7531688809394836,0.0079409899190068,-0.0708151012659072,0.0,0.0,0.1142135858535766,-0.1568336486816406
-0.039405919611454,0.572689950466156,-0.0387611500918865,-0.7522494196891785,0.0041944007389247,-0.0749316364526748,0.0,0.0,0.391666054725647,0.3709990978240967
-0.0397657379508018,0.5563165545463562,-0.0326402895152568,-0.7277054190635681,0.0009081402677111,-0.065725490450859,0.0,0.0,0.414299726486206,-0.0078381299972534
-0.0400179848074913,0.5403541326522827,-0.0225581210106611,-0.709441065788269,-0.0017362023936584,-0.052886925637722,0.0,0.0,0.5246565341949463,-0.2521785497665405
-0.0402100570499897,0.5250760316848755,-0.0169512704014778,-0.679027259349823,-0.0039648064412176,-0.044571828097105,0.0,0.0,-0.3565388321876526,0.3768385648727417
-0.040411852300167,0.5093428492546082,-0.01801623031497,-0.6992592215538025,-0.006095428019762,-0.042612612247467,0.0,0.0,0.3177093267440796,0.7695987224578857
-0.040514089167118,0.4935899972915649,-0.0066778152249753,-0.7001476883888245,-0.0095988707616925,-0.0700687542557716,0.0,0.0,0.1038322448730468,-0.4529221057891845
-0.0406875610351562,0.4780858755111694,-0.013585777953267,-0.6890981197357178,-0.0133123705163598,-0.0742700397968292,0.0,0.0,0.4284131526947021,0.4493205547332763
-0.0407564155757427,0.4627952873706817,-0.0037298221141099,-0.6796143651008606,-0.0164313036948442,-0.0623786561191082,0.0,0.0,0.4759266376495361,0.2228693962097168
-0.0408028587698936,0.4478702545166015,-0.0016775699332356,-0.663368821144104,-0.0193516630679368,-0.0584072172641754,0.0,0.0,0.6145899295806885,0.3618636131286621
-0.0408407226204872,0.4330774247646332,-0.0009763681446202,-0.6574990749359131,-0.0221350230276584,-0.0556669756770134,0.0,0.0,0.898672342300415,0.0360674858093261
-0.0410120002925396,0.4188527762889862,-0.0137386042624711,-0.6322610974311829,-0.025474440306425,-0.0667886510491371,0.0,0.0,-0.0090765357017517,-0.461243212223053
-0.0411885268986225,0.4041730165481567,-0.0143681969493627,-0.652493417263031,-0.028711587190628,-0.0647428259253501,0.0,0.0,0.7228281497955322,0.1086935997009277
-0.0412749275565147,0.3894916772842407,-0.0058784065768122,-0.6525595784187317,-0.0314503461122512,-0.0547750294208526,0.0,0.0,0.9528694152832032,-0.2220112681388855
-0.0413012504577636,0.3758665323257446,-0.0001067236080416,-0.6056171655654907,-0.0339388027787208,-0.049769103527069,0.0,0.0,0.4981272220611572,-0.2129713892936706
-0.0414006225764751,0.3624340295791626,-0.0071274442598223,-0.5970661044120789,-0.0367195829749107,-0.0556155741214752,0.0,0.0,0.0291469097137451,0.4197868108749389
-0.0415431037545204,0.3491817712783813,-0.0112711554393172,-0.5890642404556274,-0.0396626740694046,-0.058861881494522,0.0,0.0,0.7207772731781006,-0.4012067317962646
-0.0416281707584857,0.3364440202713012,-0.0057827262207865,-0.5661970376968384,-0.0423554852604866,-0.0538560450077056,0.0,0.0,0.7837693691253662,-0.791332483291626
-0.0418884269893169,0.3246400654315948,-0.0246895123273134,-0.5246587991714478,-0.043677482753992,-0.0264400448650121,0.0,0.0,-0.5687088966369629,0.6812617778778076
-0.0420862212777137,0.3123769462108612,-0.0170083474367856,-0.5451112389564514,-0.0464188568294048,-0.0548276081681251,0.0,0.0,0.8397729396820068,-0.8635677695274353
-0.0423704162240028,0.3003120720386505,-0.02740497328341,-0.5362491607666016,-0.0474197305738925,-0.0200176257640123,0.0,0.0,0.6176285743713379,0.6362545490264893
-0.04251279681921,0.2882534265518188,-0.0122044123709201,-0.5360074639320374,-0.0494222529232502,-0.0400504767894744,0.0,0.0,0.3222378492355346,-0.6388778686523438
-0.0427144058048725,0.276145875453949,-0.0194772649556398,-0.5381346940994263,-0.0501050315797328,-0.0136555898934602,0.0,0.0,0.7470695972442627,0.2795048952102661
-0.0428757667541503,0.2648403346538543,-0.0154996570199728,-0.5024899244308472,-0.0507294125854969,-0.0124876406043767,0.0,0.0,0.7672998905181885,-0.1617552042007446
-0.0428986549377441,0.2543802261352539,-0.002166832331568,-0.4648962020874023,-0.0508591011166572,-0.0025937044993042,0.0,0.0,0.3111635446548462,-0.478141188621521
-0.0429676063358783,0.2444433718919754,-0.0064485394395887,-0.4416523575782776,-0.0513027757406234,-0.0088736396282911,0.0,0.0,0.1581058502197265,0.14869225025177
-0.0431038849055767,0.2344060540199279,-0.0128503087908029,-0.4461296796798706,-0.0520687736570835,-0.0153197543695569,0.0,0.0,0.0694764852523803,-0.3100963830947876
-0.0431745536625385,0.2246779352426529,-0.0065131075680255,-0.4323793649673462,-0.0526175275444984,-0.0109750535339117,0.0,0.0,-0.0129254460334777,0.2290087938308715
-0.0432309135794639,0.2144946157932281,-0.0051781306974589,-0.4526105523109436,-0.0530706271529197,-0.0090622548013925,0.0,0.0,-0.2193573713302612,-0.4336048364639282
-0.0432714447379112,0.2038559764623642,-0.003693114966154,-0.4728417694568634,-0.0534289628267288,-0.0071663884446024,0.0,0.0,0.2825318574905395,-0.5505187511444092
-0.0433192253112793,0.1935821920633316,-0.0055967229418456,-0.4565811157226562,-0.052618496119976,0.0162091385573148,0.0,0.0,0.570796012878418,-0.2816269397735595
-0.0432362556457519,0.1836752444505691,0.0069943005219101,-0.4402633011341095,-0.0513315051794052,0.0257396884262561,0.0,0.0,-0.3009190559387207,0.0362426042556762
-0.0431329719722271,0.1733130514621734,0.0089359832927584,-0.4604946672916412,-0.0499524064362049,0.0275817699730396,0.0,0.0,-0.1218586564064025,0.1889005899429321
-0.0430077537894248,0.1624956727027893,0.0110309431329369,-0.4807260632514953,-0.0484821610152721,0.0294051077216863,0.0,0.0,0.8789273500442505,0.0740854740142822
-0.0426605232059955,0.1521839052438736,0.0323583148419857,-0.4582280218601227,-0.0461476780474185,0.0466896407306194,0.0,0.0,0.6030488014221191,-0.8114595413208008
-0.042185116559267,0.1419782042503357,0.0431999936699867,-0.4534578919410705,-0.0418585501611232,0.085782416164875,0.0,0.0,0.5173699855804443,-0.4554464221000671
-0.0416595451533794,0.1323518604040146,0.0481469333171844,-0.4277183413505554,-0.0375052504241466,0.0870663002133369,0.0,0.0,0.6735566854476929,-0.7923966646194458
-0.0411052703857421,0.1234300434589386,0.0492768585681915,-0.3963827788829803,-0.031423632055521,0.1216323524713516,0.0,0.0,0.4970293045043945,-0.6946269273757935
-0.0404332168400287,0.1149592697620391,0.0593200549483299,-0.3763359189033508,-0.023637568578124,0.1557210832834243,0.0,0.0,0.1241453886032104,-0.4444825649261474
-0.0396563522517681,0.1063646897673606,0.0693866834044456,-0.3818720281124115,-0.015448797494173,0.1637755185365677,0.0,0.0,0.5705187320709229,-0.8178553581237793
-0.038960076868534,0.098042331635952,0.0596931688487529,-0.3698049783706665,-0.005638615693897,0.1962034255266189,0.0,0.0,0.691960334777832,0.8211722373962402
-0.0380640998482704,0.0905998051166534,0.0810514539480209,-0.3307698965072632,0.0027934685349464,0.1686417013406753,0.0,0.0,-0.1592580080032348,-0.6633599400520325
-0.0371875762939453,0.082702599465847,0.0776432007551193,-0.3510306179523468,0.0126780588179826,0.1976915299892425,0.0,0.0,0.2717442512512207,0.4788737297058105
-0.0363780036568641,0.0752682313323021,0.0713115632534027,-0.3305277228355407,0.0222008880227804,0.1904565542936325,0.0,0.0,0.4067997932434082,0.903266429901123
-0.0353878960013389,0.0682805404067039,0.0910207480192184,-0.3107032179832458,0.0300904512405395,0.1577913463115692,0.0,0.0,0.7070181369781494,-0.7468539476394653
-0.0345017425715923,0.0620008073747158,0.0791784673929214,-0.2793115377426147,0.0394205264747142,0.1866012811660766,0.0,0.0,0.0738798379898071,0.7386119365692139
-0.0335976593196392,0.0560016743838787,0.0824163630604744,-0.2668613493442535,0.0473120287060737,0.1578300893306732,0.0,0.0,-0.0299494862556457,-0.8291861414909363
-0.0327200889587402,0.0495406948029994,0.0779535099864006,-0.2874914705753326,0.0569995865225791,0.1937511563301086,0.0,0.0,0.6385347843170166,0.9007744789123536
-0.0318918228149414,0.0435148105025291,0.0749571770429611,-0.2681371867656708,0.0647829473018646,0.1556673049926757,0.0,0.0,0.7610598802566528,0.4307800531387329
-0.0312157627195119,0.0378545634448528,0.0604176446795463,-0.2518932819366455,0.0719001963734626,0.1423450410366058,0.0,0.0,0.7521123886108398,0.0289121866226196
-0.0304371826350688,0.0328922607004642,0.0700658112764358,-0.2209412008523941,0.0796120688319206,0.1542376279830932,0.0,0.0,0.5756508111953735,0.8467895984649658
-0.0295080188661813,0.0280100684612989,0.0866505280137062,-0.2173337787389755,0.0858123153448104,0.1240051016211509,0.0,0.0,0.5522122383117676,0.2695759534835815
-0.0284573547542095,0.0237620212137699,0.0981016457080841,-0.1892173737287521,0.0927162915468216,0.1380797922611236,0.0,0.0,0.3052458763122558,0.1903063058853149
-0.0274332053959369,0.0199726670980453,0.0954600274562835,-0.1688628643751144,0.0996091738343238,0.1378577500581741,0.0,0.0,0.057948350906372,0.2039943933486938
-0.0263235084712505,0.0165591817349195,0.1035264134407043,-0.152223527431488,0.1069964170455932,0.1477449983358383,0.0,0.0,0.040706992149353,-0.0790592432022094
-0.0251550674438476,0.013243612833321,0.1091104000806808,-0.1479328721761703,0.1146768853068351,0.1536094099283218,0.0,0.0,0.0004857778549194,-0.3976442813873291
-0.024080753326416,0.0109728910028934,0.1184941902756691,-0.1001078635454177,0.1036953181028366,-0.2196124494075775,0.0,1.0,0.7738723754882812,0.080409288406372
-0.0232291221618652,0.0099870897829532,0.1121655106544494,-0.0421663708984851,0.0769114196300506,-0.5357065796852112,0.0,1.0,0.1998950242996215,-0.4339898824691772
-0.0223230365663766,0.0090296482667326,0.1161582097411155,-0.0414345189929008,0.0516353845596313,-0.5055210590362549,0.0,1.0,-0.1320489645004272,-0.3881230354309082
-0.0214172359555959,0.0076254941523075,0.1161637902259826,-0.0617200583219528,0.0263604670763015,-0.5054987668991089,0.0,0.0,-0.2375739216804504,-0.9473971724510192
-0.0205508228391408,0.0057677244767546,0.1098449081182479,-0.082317866384983,0.0034420725423842,-0.4583681225776672,0.0,0.0,0.0929632186889648,-0.9612582921981812
-0.0197266582399606,0.0040196035988628,0.1036278828978538,-0.0777832269668579,-0.01749406196177,-0.4187227189540863,0.0,0.0,0.0745046138763427,-0.9123575091362
-0.0188957210630178,0.0023414350580424,0.1023934334516525,-0.074919193983078,-0.0365488715469837,-0.3810958862304687,0.0,0.0,-0.0135738253593444,-0.9125997424125672
-0.0179774276912212,0.0009124970529228,0.0907215848565101,-0.0634988397359848,-0.0353952944278717,0.0231563560664653,1.0,0.0,0.254185676574707,-0.8382840752601624
-0.0169203765690326,0.000370547757484,0.0869874656200409,-0.0237621087580919,-0.0168499071151018,0.3709847331047058,1.0,0.0,-0.5053642988204956,-0.6837450861930847
-0.01593017578125,-0.0006392860668711,0.0798721089959144,-0.0447746142745018,0.0020525441505014,0.3780482411384582,1.0,0.0,0.0674264430999755,-0.703126847743988
-0.0151532171294093,-0.0011472606565803,0.0736302807927131,-0.0226046089082956,0.0059987092390656,0.0788353681564331,1.0,1.0,-0.5414437055587769,-0.9864484667778016
