x_pos,y_pos,x_vel,y_vel,angle,ang_vel,leg_1,leg_2,main_booster,lat_booster
-0.0014739036560058,1.4030258655548096,-0.1493027508258819,-0.3508502542972564,0.0017129887128248,0.0337867476046085,0.0,0.0,-0.5810844898223877,0.8906466960906982
-0.002819251967594,1.394552230834961,-0.1342571675777435,-0.3766042292118072,0.0014418237842619,-0.0054231258109211,0.0,0.0,0.2924666404724121,0.5994067192077637
-0.0039476393721997,1.385949730873108,-0.1115782037377357,-0.3823342323303222,0.0001947283599292,-0.0249442458152771,0.0,0.0,-0.3342669010162353,0.4807054996490478
-0.0050182342529296,1.3767485618591309,-0.1057654246687889,-0.4089414179325104,-0.0010851356200873,-0.0255995206534862,0.0,0.0,-0.7780245542526245,0.5882570743560791
-0.0059725763276219,1.366950750350952,-0.0926774889230728,-0.43546262383461,-0.0038125179708003,-0.0545529909431934,0.0,0.0,0.1912790536880493,-0.2278391718864441
-0.0067642210051417,1.357141375541687,-0.0768429785966873,-0.4359797835350036,-0.0061031924560666,-0.045817594975233,0.0,0.0,-0.4498853683471679,-0.6459295153617859
-0.007544326595962,1.346733808517456,-0.0769889801740646,-0.4625577926635742,-0.0071072992868721,-0.0200838837772607,0.0,0.0,-0.8056558966636658,-0.8265345692634583
-0.0083071710541844,1.3357309103012085,-0.076471097767353,-0.4890193343162536,-0.0069219311699271,0.0037075751461088,0.0,0.0,-0.5520649552345276,-0.5495608448982239
-0.009046172723174,1.3241358995437622,-0.0751695558428764,-0.5153282880783081,-0.005670512560755,0.0250304583460092,0.0,0.0,-0.7550961375236511,-0.7655321359634399
-0.0097761154174804,1.3119478225708008,-0.0757397562265396,-0.5416874289512634,-0.0029470867011696,0.0544733107089996,0.0,0.0,-0.3601185083389282,-0.5798566937446594
-0.0104741100221872,1.2991619110107422,-0.0734961777925491,-0.5682599544525146,0.0007119564106687,0.0731875225901603,0.0,0.0,-0.3005650043487549,-0.6655413508415222
-0.0111458776518702,1.285776138305664,-0.0720039159059524,-0.5949247479438782,0.0054843015968799,0.0954554677009582,0.0,0.0,-0.3303529024124145,-0.3957149982452392
-0.0117438314482569,1.2717924118041992,-0.0645683407783508,-0.6215265393257141,0.0102030159905552,0.0943828672170639,0.0,0.0,-0.5923076868057251,-0.5833882093429565
-0.012307452969253,1.2572044134140017,-0.0621116571128368,-0.6484046578407288,0.0158911645412445,0.1137731671333313,0.0,0.0,-0.7745107412338257,0.5312261581420898
-0.0127431871369481,1.2420250177383425,-0.0479511618614196,-0.6746942400932312,0.0202206335961818,0.0865973755717277,0.0,0.0,-0.8753418326377869,-0.0087226629257202
-0.0131016727536916,1.2262474298477173,-0.0401569381356239,-0.7012958526611328,0.0244914218783378,0.0854232013225555,0.0,0.0,-0.8363374471664429,0.5885264873504639
-0.0133246425539255,1.209880232810974,-0.0251136906445026,-0.7274759411811829,0.0272647403180599,0.0554713532328605,0.0,0.0,-0.663490891456604,-0.1599569320678711
-0.013468456454575,1.1929147243499756,-0.0171183161437511,-0.7540766596794128,0.0299754291772842,0.0542188584804534,0.0,0.0,-0.3172328472137451,0.2868040800094604
-0.0135319707915186,1.1753506660461426,-0.0090356953442096,-0.7806774377822876,0.0326206497848033,0.0529089570045471,0.0,0.0,-0.3059185743331909,0.0739552974700927
-0.0135146137326955,1.1571884155273438,-0.0008718498866073,-0.8072780966758728,0.0351987890899181,0.0515676364302635,0.0,0.0,-0.6646979451179504,-0.0599918365478515
-0.0134155275300145,1.1384273767471311,0.0073669655248522,-0.8338788151741028,0.0377079062163829,0.0501870401203632,0.0,0.0,0.1142793893814086,0.3476029634475708
-0.0132374763488769,1.1195156574249268,0.0153032522648572,-0.8405802249908447,0.040182951837778,0.0495057627558708,0.0,0.0,0.4577049016952514,0.7161803245544434
-0.0128124235197901,1.1007356643676758,0.0412846319377422,-0.8347040414810181,0.0413872860372066,0.0240888856351375,0.0,0.0,0.1529394388198852,-0.2918410301208496
-0.0122640607878565,1.0816864967346191,0.0534610524773597,-0.8466687798500061,0.0427439026534557,0.0271345488727092,0.0,0.0,0.0685569047927856,-0.1761050224304199
-0.0117411613464355,1.0626567602157593,0.0514229424297809,-0.8457927107810974,0.0435981787741184,0.0170873217284679,0.0,0.0,0.4328432083129883,-0.453758955001831
-0.0112859727814793,1.043913722038269,0.0453283414244651,-0.8330267667770386,0.0437902770936489,0.0038418124895542,0.0,0.0,-0.2393353581428527,0.0440092086791992
-0.0107457162812352,1.024572253227234,0.0539155416190624,-0.8596245646476746,0.0439035929739475,0.0022663548588752,0.0,0.0,0.5929546356201172,0.2951446771621704
-0.0102807041257619,1.0058164596557615,0.0470568835735321,-0.8335761427879333,0.0433541871607303,-0.0109881032258272,0.0,0.0,0.4764341115951538,-0.3674670457839966
-0.0098763462156057,0.98749178647995,0.0416219010949134,-0.8143905401229858,0.0421844832599163,-0.0233941972255706,0.0,0.0,-0.1529704332351684,-0.2484933137893676
-0.0093857767060399,0.9685688614845276,0.0503252930939197,-0.8409885168075562,0.040932971984148,-0.0250301398336887,0.0,0.0,0.444557785987854,-0.2781254649162292
-0.008822632022202,0.9501577615737916,0.0575923211872577,-0.8182344436645508,0.0396743714809417,-0.0251721497625112,0.0,0.0,0.4668200016021728,-0.6114143133163452
-0.0083115575835108,0.9317204356193542,0.0513974353671073,-0.8194279074668884,0.0393864884972572,-0.0057576010003685,0.0,0.0,-0.0726138353347778,0.2238239049911499
-0.0077135087922215,0.9126847982406616,0.0601905658841133,-0.846025824546814,0.0390140749514102,-0.0074485084041953,0.0,0.0,0.3840692043304443,0.2578191757202148
-0.0070931436493992,0.8935002088546753,0.0627449005842208,-0.8526278138160706,0.0383092164993286,-0.0140973832458257,0.0,0.0,0.3648195266723633,0.6824142932891846
-0.0063364030793309,0.8744991421699524,0.077833391726017,-0.8444343209266663,0.0361858457326889,-0.0424674674868583,0.0,0.0,0.3468950986862182,-0.6820471882820129
-0.0055518150329589,0.8558270931243896,0.0793027430772781,-0.8298497796058655,0.0353590846061706,-0.0165353808552026,0.0,0.0,-0.2623854875564575,0.5465264320373535
-0.0046378136612474,0.8365559577941895,0.093376912176609,-0.8564496636390686,0.0334051474928855,-0.0390788950026035,0.0,0.0,-0.0612398386001586,0.0527139902114868
-0.0036357878707349,0.8166864514350891,0.102274402976036,-0.883047878742218,0.0313627421855926,-0.0408481135964393,0.0,0.0,-0.4199393987655639,-0.6641671061515808
-0.0026016235351562,0.7962231040000916,0.1041498929262161,-0.909465193748474,0.0306376665830612,-0.0145016284659504,0.0,0.0,0.331438660621643,-0.2820580601692199
-0.0014713287819176,0.7758967280387878,0.1137471571564674,-0.9033755660057068,0.0299280993640422,-0.0141914095729589,0.0,0.0,-0.2523722648620605,0.0328360795974731
-0.0002525329473428,0.7549720406532288,0.1226860433816909,-0.9299734234809875,0.0291280876845121,-0.0160001423209905,0.0,0.0,0.8340251445770264,-0.8608340620994568
0.0011207580100744,0.7343217730522156,0.1362096965312957,-0.9178104996681212,0.0302322246134281,0.0220828764140605,0.0,0.0,-0.3100668787956238,-0.9083704352378844
0.0025226592551916,0.7130603194236755,0.1376281082630157,-0.9450071454048156,0.0327610932290554,0.0505774691700935,0.0,0.0,0.9070994853973388,-0.91404527425766
0.004047489259392,0.6921160817146301,0.1479455381631851,-0.9309571385383606,0.0372465103864669,0.0897082462906837,0.0,0.0,0.4401698112487793,-0.9296163320541382
0.005537986755371,0.6709413528442383,0.1427706778049469,-0.9412726163864136,0.0434508919715881,0.1240876764059066,0.0,0.0,0.8591320514678955,-0.6108361482620239
0.0071082115173339,0.6497263312339783,0.149462342262268,-0.9431254863739014,0.0509248301386833,0.1494784653186798,0.0,0.0,0.9958865642547609,-0.3383376598358154
0.0088134761899709,0.6287279725074768,0.1627161651849746,-0.93354469537735,0.0586460791528224,0.1544249206781387,0.0,0.0,0.9975088834762572,-0.8696708679199219
0.0103310588747262,0.6086318492889404,0.1426037102937698,-0.8935496211051941,0.0676966607570648,0.1810112595558166,0.0,0.0,0.7787189483642578,0.7584472894668579
0.0117839816957712,0.5892047882080078,0.1381030231714248,-0.8637669682502747,0.0748130455613136,0.1423278301954269,0.0,0.0,0.9791096448898317,0.0725499391555786
0.0132550243288278,0.5700883865356445,0.1401332318782806,-0.8499826788902283,0.0817174762487411,0.1380889415740966,0.0,0.0,0.958930253982544,0.6535598039627075
0.0149930957704782,0.5514146685600281,0.1677676141262054,-0.8302835822105408,0.0877017006278038,0.1196843609213829,0.0,0.0,0.6533448696136475,-0.0514478683471679
0.01669817045331,0.5332369208335876,0.1648323684930801,-0.8082444071769714,0.0933240726590156,0.1124476641416549,0.0,0.0,0.7244826555252075,-0.0373870134353637
0.0185625068843364,0.5151699781417847,0.180326908826828,-0.8033673167228699,0.099378801882267,0.1210945397615432,0.0,0.0,0.8931523561477661,-0.2101658582687378
0.0204287525266408,0.4978697896003723,0.1805936396121978,-0.7693079113960266,0.1053547039628028,0.1195181235671043,0.0,0.0,0.3988733291625976,-0.5578718185424805
0.0224328991025686,0.4806000888347626,0.1930616199970245,-0.7680808901786804,0.1126563549041748,0.1460330188274383,0.0,0.0,0.389293909072876,-0.2848744392395019
0.0244013778865337,0.4633094072341919,0.1899736821651458,-0.7690082788467407,0.1194902211427688,0.1366772204637527,0.0,0.0,0.8539907932281494,-0.2872276306152344
0.0264567378908395,0.4467717111110687,0.198267713189125,-0.7356106638908386,0.1267158687114715,0.1445129811763763,0.0,0.0,0.7806544303894043,0.0660078525543212
0.0286562927067279,0.4307458996772766,0.2121070921421051,-0.7129455208778381,0.1345332115888595,0.156347170472145,0.0,0.0,0.4894229173660278,0.2345532178878784
0.0309115406125783,0.4152392148971557,0.2174667567014694,-0.6899372935295105,0.1425657421350479,0.1606505811214447,0.0,0.0,0.2830919027328491,-0.5854295492172241
0.0330578796565532,0.4000221490859985,0.2056262195110321,-0.6771973371505737,0.1515439003705978,0.1795628368854522,0.0,0.0,0.7095975875854492,0.2460479736328125
0.0352867133915424,0.3847877979278564,0.2137608975172042,-0.6780391931533813,0.160670593380928,0.1825340092182159,0.0,0.0,0.094386339187622,0.6603091955184937
0.0375063903629779,0.3696415424346924,0.2143517285585403,-0.6740081310272217,0.1682897359132766,0.1523827612400055,0.0,0.0,0.7316381931304932,-0.0815388560295105
0.0398508086800575,0.3547315299510956,0.2263350039720535,-0.663604736328125,0.1764113008975982,0.1624316722154617,0.0,0.0,0.8401707410812378,-0.6082214117050171
0.0421433448791503,0.3402276337146759,0.2199730426073074,-0.6457458734512329,0.1857290118932724,0.1863539814949035,0.0,0.0,0.9547268152236938,-0.0359156131744384
0.0444450378417968,0.325827956199646,0.2209426909685135,-0.6411666870117188,0.1949933022260666,0.1852860152721405,0.0,0.0,0.6712679862976074,0.3226377964019775
0.0465952865779399,0.3116739988327026,0.2064878940582275,-0.6302095055580139,0.2035823166370391,0.1717802137136459,0.0,0.0,0.9237838983535768,-0.0960947275161743
0.0486556068062782,0.2983937561511993,0.1974896341562271,-0.5914278626441956,0.2121911197900772,0.1721763014793396,0.0,0.0,0.5678884983062744,0.3015928268432617
0.0508204475045204,0.2849474549293518,0.2076898068189621,-0.5989004969596863,0.2210647016763687,0.1774716824293136,0.0,0.0,0.7780230045318604,0.4404268264770508
0.0528985969722271,0.272257536649704,0.1990094780921936,-0.5653393864631653,0.2299775183200836,0.1782566159963607,0.0,0.0,0.7072343826293945,0.1567521095275879
0.0548566803336143,0.2596510052680969,0.1875595599412918,-0.561599612236023,0.2383455038070678,0.1673599928617477,0.0,0.0,0.8121764659881592,0.7579668760299683
0.0566760078072547,0.247514322400093,0.1755370497703552,-0.5404565334320068,0.244853988289833,0.1301694363355636,0.0,0.0,0.7404894828796387,0.8618327379226685
0.0585225112736225,0.2357729077339172,0.1799941509962082,-0.5226271152496338,0.2495872974395752,0.0946663096547126,0.0,0.0,0.2463850975036621,0.0944569110870361
0.0602025017142295,0.2243228703737259,0.1638868451118469,-0.5095913410186768,0.2537771761417389,0.0837977826595306,0.0,0.0,0.7442352771759033,0.5994610786437988
0.0619404800236225,0.2132087349891662,0.1707635372877121,-0.4944900870323181,0.2568725943565368,0.0619084723293781,0.0,0.0,0.936981439590454,0.4036638736724853
0.0636078864336013,0.2021460831165313,0.1639759987592697,-0.492159903049469,0.2596921622753143,0.0563911311328411,0.0,0.0,0.9414918422698976,0.666404128074646
0.0653957352042198,0.191085010766983,0.1772172152996063,-0.4918815791606903,0.2612946033477783,0.0320496931672096,0.0,0.0,0.9540739059448242,-0.8388107419013977
0.0670609474182128,0.1799574941396713,0.163461834192276,-0.4951053559780121,0.2644262611865997,0.0626333132386207,0.0,0.0,0.7426795959472656,0.3322330713272095
-999.0,0.1694392263889312,0.1491024047136306,-0.4680094420909881,0.2674256861209869,0.0599886961281299,0.0,0.0,0.9616777896881104,0.4798378944396972
0.0700189620256424,0.1597613245248794,0.1404880285263061,-0.4307309091091156,0.2707740664482116,0.0669667273759841,0.0,0.0,0.9766976833343506,0.5882570743560791
0.0711815804243087,0.1508651077747345,0.1146407723426818,-0.3956901133060455,0.2724359631538391,0.0332381390035152,0.0,0.0,0.9632972478866576,0.6642122268676758
0.0722108855843544,0.1418866515159607,0.1031183376908302,-0.3990064859390259,0.2722469866275787,-0.0037796278484165,0.0,0.0,0.9228754043579102,0.6900554895401001
0.0731717124581337,0.1336870342493057,0.0975998491048812,-0.3641478717327118,0.2706888020038605,-0.031163427978754,0.0,0.0,0.9864466190338136,0.3514223098754883
0.0739079490303993,0.125839963555336,0.0757748633623123,-0.3483627140522003,0.2684796154499054,-0.0441838130354881,0.0,0.0,0.7230520248413086,0.2241311073303222
0.0744780525565147,0.1183937862515449,0.0595191642642021,-0.3304833471775055,0.2659194767475128,-0.0512025281786918,0.0,0.0,0.9888445138931274,-0.4232262372970581
0.0748885124921798,0.1115615963935852,0.043696328997612,-0.3031737506389618,0.2632073163986206,-0.054243229329586,0.0,0.0,0.9562917947769164,0.077743649482727
0.075293444097042,0.1051688492298126,0.0427580773830413,-0.283717542886734,0.2608884871006012,-0.0463759563863277,0.0,0.0,0.9733457565307616,0.9331436157226562
0.0757682770490646,0.0988017171621322,0.0516155734658241,-0.2822536528110504,0.2566633820533752,-0.084502026438713,0.0,0.0,0.9800944328308104,0.9136176109313964
0.0763804465532302,0.0926038846373558,0.0670245215296745,-0.2744554281234741,0.2507445514202118,-0.118376649916172,0.0,0.0,0.780360221862793,-0.1493655443191528
0.0770626068115234,0.0867609605193138,0.0733820647001266,-0.2588130533695221,0.2454790472984314,-0.1053101643919944,0.0,0.0,0.786605715751648,-0.9354457855224608
0.0778005570173263,0.0809673890471458,0.076935276389122,-0.2569698095321655,0.2422904223203659,-0.063772864639759,0.0,0.0,0.8380522727966309,-0.9771825671195984
0.0783202201128006,0.0757689774036407,0.0532550886273384,-0.230830118060112,0.2409811615943908,-0.026185106486082,0.0,0.0,0.5550072193145752,0.5495553016662598
0.078804112970829,0.0710426419973373,0.0507717244327068,-0.2096698880195617,0.2385620772838592,-0.0483814030885696,0.0,0.0,0.7929285764694214,-0.8985456824302673
0.0792534798383712,0.0668041110038757,0.0453570038080215,-0.1883125752210617,0.2381309270858764,-0.0086230617016553,0.0,0.0,0.0095152854919433,0.4400304555892944
0.0797734260559082,0.0622793994843959,0.0521993823349475,-0.2010630816221237,0.2379145622253418,-0.0043273181654512,0.0,0.0,0.6503525972366333,-0.6674925088882446
0.0801218971610069,0.0578569024801254,0.0339292101562023,-0.1967034488916397,0.2388534545898437,0.0187782477587461,0.0,0.0,0.267450213432312,-0.1079292297363281
0.0804288834333419,0.0538235045969486,0.0295356307178735,-0.1794504821300506,0.2400275319814682,0.0234813131392002,0.0,0.0,-0.1838916540145874,0.0764236450195312
0.0807844176888465,0.0491915084421634,0.0344625785946846,-0.2060474604368209,0.2411392629146576,0.0222346894443035,0.0,0.0,0.0164946317672729,0.3512163162231445
0.0809940323233604,0.0446462742984294,0.0202724374830722,-0.2021204531192779,0.2418374866247177,0.0139646623283624,0.0,0.0,0.2982901334762573,0.5150575637817383
0.081225112080574,0.0403448678553104,0.0233342032879591,-0.1911339610815048,0.241603672504425,-0.0046762311831116,0.0,0.0,0.5911667346954346,0.2623438835144043
0.0812710747122764,0.0364787690341472,0.0051122801378369,-0.1717413961887359,0.2410785257816314,-0.0105025973170995,0.0,0.0,0.2348654270172119,0.4309225082397461
0.0811572074890136,0.0328072160482406,-0.0105373077094554,-0.1630436331033706,0.2402180731296539,-0.0172091331332921,0.0,0.0,0.5318863391876221,0.7102714776992798
0.0809933692216873,0.0292184203863143,-0.0140339480713009,-0.1591206043958664,0.2378329634666443,-0.0477026216685771,0.0,0.0,0.6580530405044556,0.3635711669921875
0.0805990248918533,0.0258695930242538,-0.0365170314908027,-0.1483663469552993,0.2348645031452179,-0.0593691356480121,0.0,0.0,0.4926152229309082,0.9304054975509644
0.0799667388200759,0.0234437324106693,-0.0404003411531448,-0.1043642535805702,0.2117031067609787,-0.4632925987243652,0.0,1.0,0.8201806545257568,0.5894608497619629
0.0793336853384971,0.0216446500271558,-0.0394593738019466,-0.0767183154821395,0.1876767873764038,-0.4805262982845306,0.0,1.0,0.530017614364624,0.5464065074920654
0.0787389725446701,0.0197831243276596,-0.0345655232667923,-0.0797746405005455,0.1627091765403747,-0.4993520677089691,0.0,1.0,0.5315520763397217,0.2252140045166015
0.0781615227460861,0.0184106212109327,-0.0333589389920234,-0.0585132464766502,0.1383647620677948,-0.4868884980678558,0.0,0.0,-0.923840582370758,0.3267650604248047
0.0775998085737228,0.0164474584162235,-0.031678706407547,-0.085160031914711,0.1139875873923301,-0.4875438213348388,0.0,0.0,-0.8189147114753723,-0.1916314959526062
0.0770490616559982,0.0138935660943388,-0.0304715130478143,-0.1118072196841239,0.0895819514989852,-0.4881128668785095,0.0,0.0,-0.5878441333770752,-0.1502789258956909
0.0765049010515213,0.0107491584494709,-0.029744554311037,-0.1384547650814056,0.0651523247361183,-0.4885928630828857,0.0,0.0,0.4927788972854614,-0.5922242999076843
0.0758605003356933,0.0081187700852751,-0.0408861972391605,-0.116047590970993,0.0418648086488246,-0.4657506346702575,0.0,0.0,-0.1363951563835144,-0.6236944794654846
0.0751687064766883,0.0048994040116667,-0.0467095971107482,-0.1426025778055191,0.019677260890603,-0.4437509477138519,0.0,0.0,0.524446964263916,-0.7983826398849487
0.0744808167219162,0.0017188048223033,-0.0480445697903633,-0.1412181854248047,-0.0008011316531337,-0.4095679819583893,0.0,0.0,0.6272587776184082,-0.869016170501709
0.0735780745744705,-0.0011398935457691,-0.0710667446255683,-0.127173826098442,-0.0197635609656572,-0.3792486488819122,1.0,0.0,0.9003431797027588,0.2886357307434082
0.0726257339119911,-0.0032432817388325,-0.0881120786070823,-0.0937774181365966,-0.0260093249380588,-0.1239087209105491,1.0,0.0,0.5850929021835327,0.3107912540435791
0.0718872100114822,-0.0046383524313569,-0.0853931084275245,-0.0618457868695259,-0.0145955346524715,0.2283070087432861,1.0,0.0,0.189338207244873,0.7364635467529297
0.071334458887577,-0.004933931864798,-0.0638303682208061,-0.0131255267187953,-0.0062947468832135,0.1658301800489425,1.0,1.0,-0.2719010710716247,0.9981409311294556
0.0709642395377159,-0.0047416351735591,-0.0417736507952213,0.0084424447268247,-0.0020572049543261,0.0841755345463752,1.0,1.0,-0.6069867014884949,0.9531233310699464
0.0707164779305458,-0.0040900018066167,-0.0251169316470623,0.0289659854024648,-0.0017066581640392,0.0070268437266349,1.0,1.0,-0.9248186945915222,0.5273553133010864
0.0705020874738693,-0.0030658268369734,-0.0199000239372253,0.0455164089798927,-0.0032166382297873,-0.0301997661590576,1.0,1.0,-0.5941760540008545,0.2927178144454956
0.0702952370047569,-0.0017688178922981,-0.0197751615196466,0.0576440952718257,-0.0041144140996038,-0.0179564543068408,1.0,1.0,-0.9773756861686708,0.3708657026290893
0.0701993927359581,-0.0006721162935718,-0.0179078821092844,0.0487422570586204,0.0040940819308161,0.1641627848148346,1.0,1.0,-0.9216259121894836,0.9510606527328492
