x_pos,y_pos,x_vel,y_vel,angle,ang_vel,leg_1,leg_2,main_booster,lat_booster
-0.0015698432689532,1.4033244848251345,-0.1585378050804138,-0.3375812172889709,0.0013883609790354,0.0273590441793203,0.0,0.0,-0.7211901655388364,0.8242701757307669
-0.0031159401405602,1.3954482078552246,-0.1537903845310211,-0.3500542044639587,0.0005752936704084,-0.0162622481584548,0.0,0.0,-0.0199979870635151,0.931501440338926
-0.0046188356354832,1.387264847755432,-0.146822303533554,-0.3637047708034515,-0.0028633987531065,-0.068780317902565,0.0,0.0,0.1053320843669471,0.9946439407940688
-0.0061840056441724,1.3792800903320312,-0.1506862938404083,-0.3548994064331054,-0.0086197238415479,-0.1151370555162429,0.0,0.0,0.0307776456295145,0.6530686254074841
-0.0076486589387059,1.371606469154358,-0.1391078382730484,-0.3411121666431427,-0.015893880277872,-0.145496666431427,0.0,0.0,-0.9606211623418746,0.9835384461365408
-0.0090641025453805,1.3636300563812256,-0.1314520537853241,-0.3546389639377594,-0.0258709471672773,-0.1995600163936615,0.0,0.0,-0.8031730815867355,0.8441415982086363
-0.0104610444977879,1.3553531169891355,-0.1276864111423492,-0.3681127727031708,-0.0377465449273586,-0.2375337779521942,0.0,0.0,0.5578276250306449,-0.8293243886976145
-0.0117883682250976,1.3476897478103638,-0.1223898977041244,-0.3408890962600708,-0.047980673611164,-0.2047019004821777,0.0,0.0,-0.4247035814729543,0.6513194389767164
-0.0131102558225393,1.3397313356399536,-0.1203375086188316,-0.3541232645511627,-0.059722039848566,-0.2348487079143524,0.0,0.0,-0.4719091859213076,-0.995973252596832
-0.0145551683381199,1.3314881324768066,-0.1344196647405624,-0.36679407954216,-0.069699615240097,-0.1995697617530822,0.0,0.0,0.8172336792739201,0.9263509316505204
-0.015821361914277,1.3239071369171145,-0.1146951541304588,-0.3375240862369537,-0.0815188288688659,-0.2364058494567871,0.0,0.0,-0.4587620506894863,0.7522655429826346
-0.0170659068971872,1.3160189390182495,-0.1107010692358017,-0.3513951897621155,-0.0951680019497871,-0.2730084061622619,0.0,0.0,-0.7641637128703447,-0.7248166900518325
-0.0183987617492675,1.3078434467315674,-0.1205529943108558,-0.3642187118530273,-0.1078191846609115,-0.2530469000339508,0.0,0.0,0.186219413071454,0.6316650795942452
-0.0196438785642385,1.2997277975082395,-0.1105186492204666,-0.3617618978023529,-0.1217436715960502,-0.2785153388977051,0.0,0.0,-0.8676279367377586,0.8731336827113763
-0.0208473205566406,1.291308879852295,-0.1041498333215713,-0.3755784332752228,-0.1378825306892395,-0.322806566953659,0.0,0.0,0.8635295584651417,-0.7684101141636184
-0.021975040435791,1.283066987991333,-0.0984088703989982,-0.3676964938640594,-0.1522324830293655,-0.2870252728462219,0.0,0.0,-0.6175909946392923,0.8935012730005918
-0.0230588912963867,1.2745187282562256,-0.0918544232845306,-0.3816923499107361,-0.168781578540802,-0.3310122191905975,0.0,0.0,0.2917562148016768,-0.6359177059457388
-0.0240644458681345,1.2660832405090332,-0.0855691507458686,-0.3766804039478302,-0.1838187575340271,-0.3007709383964538,0.0,0.0,-0.2999003484309468,0.8369314814341323
-0.0250356681644916,1.2573375701904297,-0.0803054273128509,-0.3908645510673523,-0.200746551156044,-0.3385865092277527,0.0,0.0,0.6686026966652252,-0.7064510005346696
-0.0260762218385934,1.2491782903671265,-0.088594913482666,-0.3648058772087097,-0.2163619697093963,-0.3123369216918945,0.0,0.0,0.1267270005684151,0.672880485000925
-0.0268994327634573,1.2414292097091677,-0.0658256113529205,-0.3469089865684509,-0.2330912053585052,-0.3346151411533355,0.0,0.0,0.5204976117290612,0.6568281285763422
-0.0276082046329975,1.2339521646499634,-0.053315095603466,-0.3351974785327911,-0.2509730160236358,-0.3576677441596985,0.0,0.0,-0.9714944742252108,0.6821589278496236
-0.0282941814512014,1.2261534929275513,-0.0496612787246704,-0.3499628603458404,-0.2703486979007721,-0.3875489830970764,0.0,0.0,-0.9349776504900308,-0.7949160076047194
-0.0290751457214355,1.2180721759796145,-0.0608394965529441,-0.3624626100063324,-0.2880957722663879,-0.3549728989601135,0.0,0.0,-0.2961600012118628,-0.9586169652917372
-0.0299850460141897,1.2097355127334597,-0.076373279094696,-0.3734806180000305,-0.3031911253929138,-0.3019341230392456,0.0,0.0,-0.4146602848267977,-0.8920534281353247
-0.0310214050114154,1.2011231184005735,-0.0915180519223213,-0.3853497505187988,-0.3157536089420318,-0.2512496411800384,0.0,0.0,0.5640405775516923,0.9448796960627952
-0.0318083763122558,1.1931616067886353,-0.0650708228349685,-0.356880635023117,-0.3299302756786346,-0.2835334837436676,0.0,0.0,0.3530524847892613,0.7144440855843732
-0.0324738509953022,1.1858983039855957,-0.0517424643039703,-0.3262730836868286,-0.3454061150550842,-0.3095164895057678,0.0,0.0,0.2966634099722613,0.7861420841781757
-0.0330216400325298,1.1792283058166504,-0.0387745276093483,-0.3003820478916168,-0.3622505664825439,-0.3368897438049316,0.0,0.0,-0.3069312719098704,0.7850785111885081
-0.033553123474121,1.1722257137298584,-0.036134548485279,-0.3156238198280334,-0.380268782377243,-0.3603640496730804,0.0,0.0,-0.3032471279706876,0.734366434647287
-0.0340654365718364,1.1649000644683838,-0.0332700163125991,-0.3304853439331054,-0.399424284696579,-0.3831101357936859,0.0,0.0,-0.5766783430731219,-0.6337103488790727
-0.0346682555973529,1.1573058366775513,-0.0442396961152553,-0.3421360552310943,-0.4166664481163025,-0.3448432087898254,0.0,0.0,0.5456754378988782,-0.6645034262663599
-0.0351282134652137,1.1505296230316162,-0.0316285826265811,-0.3054856657981872,-0.432227611541748,-0.3112233579158783,0.0,0.0,-0.5046427966999969,-0.7229659645674187
-0.035684585571289,1.143486738204956,-0.0433245711028575,-0.3168619573116302,-0.4456489384174347,-0.2684265673160553,0.0,0.0,0.5193022423775489,-0.7476254912628268
-0.0360671989619731,1.1369521617889404,-0.0279368124902248,-0.2937584519386291,-0.4569741487503052,-0.2265041321516037,0.0,0.0,0.2465690524208703,0.7666940400726827
-0.036165714263916,1.130839467048645,0.001368474913761,-0.2754020690917969,-0.4693513810634613,-0.2475447356700897,0.0,0.0,0.046322221316629,-0.746541404006605
-0.0362411513924598,1.1248600482940674,0.0017233215039595,-0.2689156532287597,-0.4796304106712341,-0.205580860376358,0.0,0.0,-0.308088579840182,-0.6993446494976302
-0.0363970771431922,1.1186186075210571,-0.0081243049353361,-0.2800140082836151,-0.4879592359066009,-0.1665762364864349,0.0,0.0,0.9282866043822012,0.6476434763148264
-0.0361249931156635,1.1133829355239868,0.0354458093643188,-0.2356455475091934,-0.49717977643013,-0.1844115704298019,0.0,0.0,-0.1850575968768297,0.8755769834188618
-0.0358257293701171,1.1077940464019775,0.0392999872565269,-0.2518118023872375,-0.5077311992645264,-0.2110297232866287,0.0,0.0,0.4446539509713525,-0.8415156574825103
-0.0353780761361122,1.1029256582260132,0.052073560655117,-0.2191071659326553,-0.5159950256347656,-0.1652757227420807,0.0,0.0,-0.954457938671112,-0.970360517501831
-0.0350191108882427,1.0977965593338013,0.0411818362772464,-0.2299762815237045,-0.5219996571540833,-0.1200923174619674,0.0,0.0,-0.9808019399642944,-0.9990054965019226
-0.0347558967769146,1.0924028158187866,0.0294756982475519,-0.2409373223781585,-0.5256028771400452,-0.0720642656087875,0.0,0.0,-0.9248874187469482,-0.9988574385643004
-0.0345849022269248,1.08675217628479,0.0181435905396938,-0.2515432834625244,-0.5267845392227173,-0.0236328020691871,0.0,0.0,-0.8125243186950684,-0.996055006980896
-0.0345243439078331,1.080849528312683,0.0045527527108788,-0.2617541849613189,-0.5250617861747742,0.0344546400010585,0.0,0.0,-0.9239519238471984,-0.9994582533836364
-0.0345637314021587,1.0746880769729614,-0.0077525251545012,-0.2723789513111114,-0.5207191705703735,0.0868525952100753,0.0,0.0,-0.9595680832862854,-0.9971218705177308
-0.0346992500126361,1.068269968032837,-0.0196488760411739,-0.2829352617263794,-0.5137983560562134,0.1384165585041046,0.0,0.0,-0.910086154937744,-0.9968554377555848
-0.0349446311593055,1.0616254806518557,-0.0334919691085815,-0.2919692695140838,-0.5036609768867493,0.2027479112148285,0.0,0.0,-0.977360725402832,-0.9522873163223268
-0.0352986343204975,1.05475115776062,-0.0472511015832424,-0.3012309968471527,-0.4903514087200165,0.2661907374858856,0.0,0.0,-0.9632441401481628,-0.9200246334075928
-0.0357504859566688,1.0476253032684326,-0.0595524609088897,-0.3116758465766907,-0.4743269979953766,0.3204883933067322,0.0,0.0,-0.990650236606598,-0.7923575639724731
-0.036274529993534,1.0402308702468872,-0.0687159225344657,-0.3231772184371948,-0.4563150703907013,0.3602382838726043,0.0,0.0,-0.9606221318244934,-0.7532473206520081
-0.0368844978511333,1.0325838327407837,-0.0797009095549583,-0.3338924944400787,-0.4358426630496979,0.4094489216804504,0.0,0.0,-0.965670883655548,-0.4747353792190552
-0.0375229828059673,1.0246379375457764,-0.0834127366542816,-0.3472271263599396,-0.4146361649036407,0.4241304993629455,0.0,0.0,-0.9752679467201232,-0.3369722366333008
-0.0381892211735248,1.0163938999176023,-0.0870615541934967,-0.3605653643608093,-0.3926898837089538,0.4389258027076721,0.0,0.0,-0.9770917296409608,-0.0544870495796203
-0.0388824455440044,1.0078520774841309,-0.0906423777341842,-0.3739075362682342,-0.3699986934661865,0.453824520111084,0.0,0.0,-0.9382844567298888,0.095908522605896
-0.0396016128361225,0.999013602733612,-0.0941499397158622,-0.3872538208961487,-0.3465578258037567,0.4688171446323395,0.0,0.0,-0.9774459600448608,0.4113087654113769
-0.0403459556400775,0.9898788928985596,-0.0975787341594696,-0.4006043970584869,-0.3223630487918854,0.4838947355747223,0.0,0.0,-0.9182084798812866,-0.298524260520935
-0.041114617139101,0.9804486632347108,-0.100922979414463,-0.4139595329761505,-0.2974106073379516,0.4990487098693847,0.0,0.0,-0.9787718057632446,0.3250781297683716
-0.0419064536690712,0.9707238078117372,-0.1041767373681068,-0.4273194670677185,-0.2716970443725586,0.5142710208892822,0.0,0.0,-0.984786093235016,-0.1012046933174133
-0.0427206046879291,0.9607049226760864,-0.1073337569832801,-0.4406843781471252,-0.2452193349599838,0.5295541286468506,0.0,0.0,-0.9971365332603456,-0.0987628102302551
-0.0435559265315532,0.9503929018974304,-0.110387697815895,-0.4540545344352722,-0.2179748117923736,0.5448907613754272,0.0,0.0,-0.9972118735313416,0.328407883644104
-0.0444114692509174,0.9397891163825988,-0.1133320480585098,-0.467430055141449,-0.1899610757827758,0.5602743029594421,0.0,0.0,-0.9997251629829408,0.7939081192016602
-0.0452121719717979,0.928869605064392,-0.1068535596132278,-0.4820949137210846,-0.1630980819463729,0.5372604131698608,0.0,0.0,-0.9999936819076538,0.6334520578384399
-0.0459795966744422,0.91764634847641,-0.1030955761671066,-0.4961391985416412,-0.1367794424295425,0.5263727903366089,0.0,0.0,-0.9998595118522644,0.996497392654419
-0.0466855987906456,0.9061068892478944,-0.0958033949136734,-0.51075279712677,-0.1117068380117416,0.5014520883560181,0.0,0.0,-0.9968876838684082,0.7905590534210205
-0.0473580360412597,0.8942663669586182,-0.0920375436544418,-0.5245704650878906,-0.0871108472347259,0.4919200837612152,0.0,0.0,-0.9994401335716248,0.9930710792541504
-0.0479632392525672,0.8821337819099426,-0.084089808166027,-0.538023829460144,-0.063783198595047,0.4665532112121582,0.0,0.0,-0.999284029006958,0.99129319190979
-0.0484932884573936,0.869687020778656,-0.0751228630542755,-0.5523946285247803,-0.0419223345816135,0.4372178614139557,0.0,0.0,-0.9968999028205872,0.9913904666900636
-0.0489529594779014,0.8569521903991699,-0.0668061226606369,-0.5655386447906494,-0.0213415883481502,0.4116150736808777,0.0,0.0,-0.998348832130432,0.9988856315612792
-0.0493563637137413,0.843916118144989,-0.0602803640067577,-0.5792144536972046,-0.0016577240312471,0.3936773240566253,0.0,0.0,-0.9956700205802916,0.9922761917114258
-0.0497020706534385,0.8305888772010803,-0.0536020025610923,-0.5924007892608643,0.0171336941421031,0.3758285045623779,0.0,0.0,-0.9947844743728638,0.9988662004470824
-0.049971867352724,0.8169704079627991,-0.0446871146559715,-0.6055579781532288,0.0346170328557491,0.3496669232845306,0.0,0.0,-0.98837411403656,0.9970251321792604
-0.0501855835318565,0.8030707240104675,-0.0382719337940216,-0.6182396411895752,0.0513199009001255,0.3340573906898498,0.0,0.0,-0.9736870527267456,0.9984674453735352
-0.0503144264221191,0.7888815999031067,-0.0283268298953771,-0.6312149167060852,0.0665731951594352,0.3050659298896789,0.0,0.0,-0.741300106048584,0.9889684915542604
-0.0503715500235557,0.7743961215019226,-0.0200329385697841,-0.6444990634918213,0.0807491317391395,0.2835189700126648,0.0,0.0,-0.913227379322052,0.9976541996002196
-0.0503410324454307,0.7596140503883362,-0.0098009090870618,-0.6577246189117432,0.0934954509139061,0.2549265027046203,0.0,0.0,-0.3249765634536743,0.997694492340088
-0.0502339377999305,0.7445356249809265,-0.0010297326371073,-0.6709293127059937,0.1051393821835517,0.2328785955905914,0.0,0.0,-0.8753894567489624,0.9915742874145508
-0.0500474944710731,0.7291812300682068,0.0081051671877503,-0.6832008361816406,0.1156075671315193,0.2093637287616729,0.0,0.0,-0.4717594385147095,0.993201732635498
-0.0497685447335243,0.7135544419288635,0.0188467465341091,-0.6952491998672485,0.124603122472763,0.1799113154411316,0.0,0.0,-0.577846884727478,0.9948759078979492
-0.0494202598929405,0.6976518630981445,0.0266346223652362,-0.7074859142303467,0.1327539831399917,0.1630173474550247,0.0,0.0,0.856785774230957,0.9950205087661744
-0.0491948127746582,0.6819783449172974,0.0158182643353939,-0.6972209811210632,0.1394516825675964,0.1339538544416427,0.0,0.0,0.7059574127197266,0.9990415573120116
-0.0489489547908306,0.6672542095184326,0.0190478879958391,-0.6549326181411743,0.144981101155281,0.1105884164571762,0.0,0.0,-0.5769237875938416,0.9990795850753784
-0.0486262328922748,0.6522462964057922,0.0276230629533529,-0.6674823760986328,0.1496219336986541,0.0928165391087532,0.0,0.0,0.5404670238494873,0.9933321475982666
-0.0483646392822265,0.637886106967926,0.0227863807231187,-0.6385691165924072,0.1529898941516876,0.0673587769269943,0.0,0.0,0.1663841009140014,0.9992544651031494
-0.0480956062674522,0.6239805221557617,0.0247663669288158,-0.6182510256767273,0.1551268845796585,0.0427397973835468,0.0,0.0,-0.5277389883995056,0.9999539852142334
-0.0477206222712993,0.6097977757453918,0.0368893146514892,-0.6304112672805786,0.1557420790195465,0.0123038385063409,0.0,0.0,-0.7566751837730408,0.9989469051361084
-0.0472453124821186,0.5953261256217957,0.0482216216623783,-0.6431162357330322,0.1550526469945907,-0.0137890754267573,0.0,0.0,-0.3765779137611389,0.9729551076889038
-0.0466619506478309,0.5805696845054626,0.0605039186775684,-0.6556199789047241,0.1528864055871963,-0.0433249101042747,0.0,0.0,-0.5423324704170227,0.9987645149230956
-0.0459605231881141,0.5655370354652405,0.0740391388535499,-0.6677177548408508,0.1489983797073364,-0.0777603909373283,0.0,0.0,-0.2097936272621154,0.9468960762023926
-0.0451448448002338,0.5502198338508606,0.0870334804058075,-0.6802306771278381,0.1435448229312896,-0.1090708822011947,0.0,0.0,0.0624879598617553,0.7807979583740234
-0.0443182960152626,0.5353397727012634,0.0889297276735305,-0.6607435345649719,0.1372863799333572,-0.1251687109470367,0.0,0.0,0.4203305244445801,0.3819985389709472
-0.0435297973453998,0.5211361050605774,0.0842450633645057,-0.630787193775177,0.1319105327129364,-0.1075170487165451,0.0,0.0,-0.3054895401000976,0.6300499439239502
-0.0426559448242187,0.5066485404968262,0.0935555547475814,-0.643360435962677,0.125772163271904,-0.1227676421403884,0.0,0.0,0.5322151184082031,0.5844194889068604
-0.0416460037231445,0.4923349916934967,0.1073360666632652,-0.6356359124183655,0.1194622069597244,-0.126198872923851,0.0,0.0,0.6533018350601196,0.5085915327072144
-0.0406843200325965,0.4784779846668243,0.1029439717531204,-0.6153405904769897,0.1127365604043006,-0.1345130354166031,0.0,0.0,0.8361618518829346,-0.529441773891449
-0.0397439002990722,0.4657679796218872,0.0987007692456245,-0.5645471215248108,0.1081024557352066,-0.0926817581057548,0.0,0.0,0.1066970825195312,0.5810444355010986
-0.0387861244380474,0.4533323049545288,0.1008904203772544,-0.5523338317871094,0.1030308157205581,-0.101433016359806,0.0,0.0,0.4387036561965942,0.9034790992736816
-0.0379203781485557,0.4416320919990539,0.0928759947419166,-0.5195885896682739,0.0967717841267585,-0.1251805126667022,0.0,0.0,-0.4177813529968261,-0.9299984574317932
-0.0370858199894428,0.4296288192272186,0.0874262973666191,-0.5332282185554504,0.0928406715393066,-0.0786223635077476,0.0,0.0,-0.5917456150054932,0.7248938083648682
-0.0361668579280376,0.4173392951488495,0.0964491814374923,-0.5459264516830444,0.0883320495486259,-0.0901723057031631,0.0,0.0,-0.0544240474700927,0.7448766231536865
-0.0351641662418842,0.4047631025314331,0.105375051498413,-0.5586506128311157,0.083278939127922,-0.1010627150535583,0.0,0.0,0.6450090408325195,-0.6009054780006409
-0.0342423431575298,0.3926179111003876,0.0953915864229202,-0.5396105051040649,0.0800927877426147,-0.0637229233980178,0.0,0.0,0.2884074449539184,0.4794068336486816
-0.033414077013731,0.3808639645576477,0.0857368186116218,-0.5222412347793579,0.0772166550159454,-0.0575227364897728,0.0,0.0,-0.3703553676605224,-0.1654278039932251
-0.0325503349304199,0.3688110411167145,0.088539607822895,-0.5355755686759949,0.0750674232840538,-0.042984802275896,0.0,0.0,0.246951937675476,0.6239442825317383
-0.0315540321171283,0.3572894334793091,0.1021812930703163,-0.5119439363479614,0.072548471391201,-0.0503790974617004,0.0,0.0,-0.4712774753570556,-0.3381212949752807
-0.030521297827363,0.3454687595367431,0.1050980687141418,-0.5252777338027954,0.070747822523117,-0.0360131524503231,0.0,0.0,-0.1788997054100036,0.2625819444656372
-0.029451560229063,0.3333488702774048,0.1080661863088607,-0.5386112332344055,0.0696606710553169,-0.0217428375035524,0.0,0.0,-0.5879788994789124,-0.2016317844390869
-0.0283445362001657,0.3209296762943268,0.1110821515321731,-0.5519444346427917,0.0692817494273185,-0.0075783198699355,0.0,0.0,-0.6681755781173706,-0.6265261769294739
-0.0272378921508789,0.3082146644592285,0.1093735843896865,-0.5651741027832031,0.0705553889274597,0.0254729576408863,0.0,0.0,-0.3393979072570801,0.1113424301147461
-0.0260932929813861,0.2952003479003906,0.1124754101037979,-0.5785073041915894,0.0725254118442535,0.0394003055989742,0.0,0.0,0.2935457229614258,0.3216922283172607
-0.0249621383845806,0.2828426659107208,0.1104488223791122,-0.5493612885475159,0.0751590356230735,0.0526722073554992,0.0,0.0,0.2127516269683838,0.3651256561279297
-0.0237914081662893,0.2710556983947754,0.1135179549455642,-0.5240501761436462,0.0786809995770454,0.0704391002655029,0.0,0.0,-0.4401188492774963,0.2113187313079834
-0.0225817672908306,0.2589696645736694,0.1167265325784683,-0.5373846292495728,0.082877367734909,0.083927147090435,0.0,0.0,0.2355159521102905,0.4095685482025146
-0.0214624404907226,0.247264564037323,0.1074506267905235,-0.5204805731773376,0.0873164907097816,0.0887825265526771,0.0,0.0,0.3801606893539428,0.0597333908081054
-0.0204482078552246,0.2358891367912292,0.0967867970466613,-0.5058512091636658,0.0919160768389701,0.0919915065169334,0.0,0.0,0.4162769317626953,0.1006573438644409
-0.0194572452455759,0.2249342799186706,0.093892753124237,-0.4872139394283294,0.0970763489603996,0.1032054796814918,0.0,0.0,0.4471166133880615,0.6352887153625488
-0.0183971412479877,0.214387908577919,0.1013962030410766,-0.4690333306789398,0.1016560047864914,0.0915930122137069,0.0,0.0,0.7624629735946655,-0.1982619762420654
-0.0171977039426565,0.2041365653276443,0.1140515059232711,-0.4560288488864898,0.1075026914477348,0.1169336885213851,0.0,0.0,0.0443226099014282,0.581070065498352
-0.0158908851444721,0.1942522376775741,0.1252572834491729,-0.4397038519382477,0.1128961592912674,0.1078692525625228,0.0,0.0,0.6073348522186279,-0.6945423483848572
-0.0146613121032714,0.1852409392595291,0.1154835671186447,-0.4010835289955139,0.1203229278326034,0.1485350728034973,0.0,0.0,-0.1459678411483764,0.4025592803955078
