x_pos,y_pos,x_vel,y_vel,angle,ang_vel,leg_1,leg_2,main_booster,lat_booster
-0.0015486717456951,1.4032676219940186,-0.1569040417671203,-0.340108722448349,0.0018234566086903,0.0359739400446414,0.0,0.0,-0.4828282594680786,0.6010928153991699
-0.0030708312988281,1.395278811454773,-0.1527449488639831,-0.3550618886947632,0.0023476975038647,0.0104866046458482,0.0,0.0,0.1909148693084716,0.7744841575622559
-0.0044468878768384,1.387364387512207,-0.1367610991001129,-0.3517505824565887,0.001504325075075,-0.0168690178543329,0.0,0.0,-0.1833299398422241,0.5391809940338135
-0.0058122635819017,1.3790912628173828,-0.1348569840192794,-0.3676901459693908,-0.0001517495111329,-0.0331248566508293,0.0,0.0,-0.0845608711242675,0.1570494174957275
-0.0072000501677393,1.3704614639282229,-0.1371505558490753,-0.3835466504096985,-0.0017618061974644,-0.0322043038904666,0.0,0.0,-0.0138602256774902,0.5993971824645996
-0.0085516925901174,1.3614740371704102,-0.1321086287498474,-0.3994517922401428,-0.0047796624712646,-0.0603627450764179,0.0,0.0,0.2754683494567871,0.6823837757110596
-0.0098876953125,1.352798342704773,-0.1292018443346023,-0.3856049478054046,-0.0091297393664717,-0.0870096310973167,0.0,0.0,0.210362434387207,0.3300851583480835
-0.0111297611147165,1.344475507736206,-0.1203899160027504,-0.3699365258216858,-0.0129049615934491,-0.0755113437771797,0.0,0.0,-0.1457155346870422,0.5082504749298096
-0.0123515129089355,1.3358006477355957,-0.1174147352576255,-0.3855957388877868,-0.0176125019788742,-0.0941595509648323,0.0,0.0,-0.1170030832290649,-0.5210172533988953
-0.0136321065947413,1.3267736434936523,-0.1244112625718116,-0.4012477993965149,-0.0212292019277811,-0.0723401755094528,0.0,0.0,0.0554221868515014,0.3891264200210571
-0.0148664470762014,1.317957639694214,-0.1201037317514419,-0.3918696939945221,-0.0245276447385549,-0.0659750699996948,0.0,0.0,0.0349940061569213,0.5389688014984131
-0.0160166732966899,1.309276819229126,-0.1107516512274742,-0.3858937621116638,-0.0287511423230171,-0.0844775438308715,0.0,0.0,-0.6107560992240906,0.3715951442718506
-0.0171813014894723,1.300239086151123,-0.1122555285692215,-0.4017553627490997,-0.0329139605164527,-0.0832638368010521,0.0,0.0,-0.6214118003845215,0.1022344827651977
-0.0183589942753314,1.2908449172973633,-0.1136315613985061,-0.4176138639450073,-0.037015825510025,-0.0820445641875267,0.0,0.0,-0.7555570006370544,0.3007619380950928
-0.0195485111325979,1.281094312667847,-0.1148730665445327,-0.4334727823734283,-0.0410558246076107,-0.0808071345090866,0.0,0.0,-0.8723304867744446,0.6363375186920166
-0.0206893924623727,1.270975947380066,-0.1085553765296936,-0.449868381023407,-0.0465271510183811,-0.1094364747405052,0.0,0.0,-0.7032256722450256,0.3215787410736084
-0.0218389518558979,1.2605010271072388,-0.1095049753785133,-0.4657291769981384,-0.0519347824156284,-0.1081622242927551,0.0,0.0,-0.7807800769805908,-0.1600723266601562
-0.0229959487915039,1.2496696710586548,-0.1103032380342483,-0.4815902411937713,-0.0572793632745742,-0.106901429593563,0.0,0.0,-0.5955755114555359,-0.3895471692085266
-0.0241586677730083,1.238481879234314,-0.1109450682997703,-0.4974511861801147,-0.062560498714447,-0.1056321114301681,0.0,0.0,0.7904093265533447,-0.6677130460739136
-0.0254342071712017,1.2278690338134766,-0.1233935132622718,-0.4718568921089172,-0.0666817650198936,-0.08243278414011,0.0,0.0,-0.8758912682533264,0.1092772483825683
-0.0267123226076364,1.2168995141983032,-0.1237164586782455,-0.487724244594574,-0.0707401037216186,-0.0811739116907119,0.0,0.0,-0.0102328658103942,-0.5267969965934753
-0.0280323028564453,1.2055747509002686,-0.1289971470832824,-0.5034716725349426,-0.073708526790142,-0.0593735948204994,0.0,0.0,0.6352400779724121,0.7104556560516357
-0.0291155818849802,1.194676637649536,-0.1042709499597549,-0.4845669567584991,-0.0777363702654838,-0.0805643051862716,0.0,0.0,-0.6331297755241394,0.5306466817855835
-0.0301501266658306,1.183410406112671,-0.0982672423124313,-0.5009992718696594,-0.0828823521733284,-0.1029287576675415,0.0,0.0,-0.5124409794807434,-0.857360303401947
-0.0312640182673931,1.1718003749847412,-0.1083916574716568,-0.5161718726158142,-0.0858548656105995,-0.0594557896256446,0.0,0.0,-0.5345314741134644,-0.4361975193023681
-0.0323735252022743,1.159812092781067,-0.1080129593610763,-0.5329816937446594,-0.0887673050165176,-0.0582485273480415,0.0,0.0,0.1403926610946655,-0.7405471801757812
-0.0334864631295204,1.1482281684875488,-0.1099130362272262,-0.5149195790290833,-0.0901398137211799,-0.0274499244987964,0.0,0.0,-0.7663927674293518,-0.7346210479736328
-0.0346608161926269,1.1363046169281006,-0.1178983077406883,-0.5299054980278015,-0.0896687880158424,0.0094203539192676,0.0,0.0,0.2403144836425781,-0.0044833421707153
-0.0358702652156353,1.124906301498413,-0.1210262179374694,-0.5065924525260925,-0.0895920842885971,0.0015339183155447,0.0,0.0,-0.7583009600639343,0.4372246265411377
-0.0370680801570415,1.113150954246521,-0.1199158877134323,-0.5224485993385315,-0.0894570648670196,0.002700520446524,0.0,0.0,-0.8195217251777649,-0.3298687934875488
-0.038252830505371,1.101038932800293,-0.1186641007661819,-0.5383047461509705,-0.0892642736434936,0.0038557250518351,0.0,0.0,-0.0769003629684448,-0.0863891243934631
-0.0394229888916015,1.0885698795318604,-0.1172770261764526,-0.554161012172699,-0.0890142992138862,0.0049994364380836,0.0,0.0,-0.6452038884162903,0.3112663030624389
-0.040577508509159,1.0757440328598022,-0.1157612353563308,-0.5700172185897827,-0.0887076929211616,0.0061322203837335,0.0,0.0,-0.620455801486969,0.794858455657959
-0.0416595451533794,1.062546730041504,-0.107135996222496,-0.5866098999977112,-0.0897635295987129,-0.0211169458925724,0.0,0.0,-0.392026424407959,-0.4250385165214538
-0.0427233688533306,1.04899263381958,-0.1053831800818443,-0.6024662256240845,-0.0907637998461723,-0.020005103200674,0.0,0.0,-0.4197686314582824,-0.4385664463043213
-0.0437681190669536,1.0350816249847412,-0.103522203862667,-0.6183225512504578,-0.0917089581489563,-0.0189030654728412,0.0,0.0,-0.6251456141471863,-0.5312281847000122
-0.0448366180062294,1.0208171606063845,-0.1070581674575805,-0.6339631676673889,-0.0914955586194992,0.0042678201571106,0.0,0.0,-0.9602352976799012,-0.6782574653625488
-0.0459336265921592,1.0062079429626465,-0.11125248670578,-0.6492040157318115,-0.0899600535631179,0.0307101067155599,0.0,0.0,-0.6021465063095093,-0.2694827914237976
-0.0470087043941021,0.9912418723106384,-0.1091077476739883,-0.6650604009628296,-0.0883707851171493,0.0317852944135665,0.0,0.0,-0.6040459275245667,-0.5279049873352051
-0.0481005683541297,0.9759251475334167,-0.1118538156151771,-0.6805931329727173,-0.0857254192233085,0.0529069900512695,0.0,0.0,-0.5865620970726013,0.2099219560623169
-0.04916887357831,0.9602515697479248,-0.1095518469810485,-0.6964499950408936,-0.0830271169543266,0.0539663806557655,0.0,0.0,-0.4212478399276733,0.192880630493164
-0.0502128601074218,0.944221258163452,-0.1071800142526626,-0.712306797504425,-0.080276183784008,0.055018525570631,0.0,0.0,-0.7624766230583191,0.6078970432281494
-0.0511767379939556,0.9278207421302797,-0.097791701555252,-0.7288362383842468,-0.0788811892271041,0.0278997905552387,0.0,0.0,0.0203807353973388,0.1417014598846435
-0.0520281791687011,0.911544382572174,-0.0868958011269569,-0.7233017683029175,-0.0771506056189537,0.0346114672720432,0.0,0.0,-0.2246642708778381,-0.0930950045585632
-0.0528536811470985,0.8949111104011536,-0.0843457505106926,-0.7391583323478699,-0.0753683894872665,0.0356442518532276,0.0,0.0,0.3198221921920776,0.414175271987915
-0.0535958297550678,0.878316342830658,-0.0762466713786125,-0.7374449968338013,-0.0733650773763656,0.0400662012398242,0.0,0.0,-0.0563923120498657,-0.0136703252792358
-0.0543111786246299,0.8613649010658264,-0.0736007541418075,-0.753301739692688,-0.0713106989860534,0.0410875529050827,0.0,0.0,0.3467710018157959,0.3431577682495117
-0.0550419799983501,0.8450832366943359,-0.074778527021408,-0.7235475182533264,-0.0696293711662292,0.0336265489459037,0.0,0.0,-0.1568459272384643,0.5254114866256714
-0.0557123199105262,0.8284459710121155,-0.0679726004600524,,-0.0687120407819747,0.0183466542512178,0.0,0.0,-0.120145559310913,0.0811661481857299
-0.0563547126948833,0.8114519119262695,-0.0652110502123832,-0.7552435398101807,-0.0677444040775299,0.0193525571376085,0.0,0.0,0.40886390209198,-0.0872814059257507
-0.0568135268986225,0.7948175072669983,-0.0474870055913925,-0.7392362952232361,-0.0661608949303627,0.0316702239215374,0.0,0.0,-0.4320369958877563,-0.3599284291267395
-0.0572436340153217,0.7778263092041016,-0.0446639582514762,-0.7550928592681885,-0.0645275712013244,0.0326664820313453,0.0,0.0,0.0403072834014892,0.0163918733596801
-0.0575580596923828,0.7608906626701355,-0.0334605947136879,-0.7526080012321472,-0.0625262334942817,0.0400263927876949,0.0,0.0,-0.1820676326751709,0.3498063087463379
-0.0578431114554405,0.7435983419418335,-0.0305862538516521,-0.7684646844863892,-0.0604755841195583,0.0410131737589836,0.0,0.0,-0.2589612603187561,-0.0302876830101013
-0.0580987930297851,0.725949227809906,-0.0276895575225353,-0.7843213677406311,-0.0583758279681205,0.0419952496886253,0.0,0.0,-0.3160315752029419,0.4174762964248657
-0.0583248138427734,0.7079433798789978,-0.0247724689543247,-0.8001781105995178,-0.0562271960079669,0.0429725423455238,0.0,0.0,-0.0414138436317443,0.1111184358596801
-0.0585209839046001,0.6895807981491089,-0.021836768835783,-0.8160349130630493,-0.0540299415588378,0.0439450219273567,0.0,0.0,-0.0971055030822753,-0.1991349458694458
-0.05868711322546,0.6708614230155945,-0.0188840981572866,-0.8318917155265808,-0.0517843104898929,0.0449125543236732,0.0,0.0,0.8062858581542969,0.817520260810852
-0.0586218833923339,0.6531302332878113,0.0056641860865056,-0.7880285382270813,-0.0509398803114891,0.0168885663151741,0.0,0.0,-0.0570899844169616,-0.2693740725517273
-0.0585263259708881,0.635042130947113,0.0086464677006006,-0.8038850426673889,-0.0500475876033306,0.0178458578884601,0.0,0.0,0.2269644737243652,-0.0075277686119079
-0.0583486557006835,0.6170063614845276,0.016637522727251,-0.8015510439872742,-0.0489318445324897,0.0223151948302984,0.0,0.0,0.4669065475463867,-0.4603646993637085
-0.05819883197546,0.5995534062385559,0.0142166446894407,-0.7756614685058594,-0.0481806360185146,0.0150240762159228,0.0,0.0,0.4578611850738525,-0.4555374383926391
-0.0578875541687011,0.5824195146560669,0.029809582978487,-0.7614628672599792,-0.0468782596290111,0.0260475389659404,0.0,0.0,-0.3631694316864013,-0.0306434631347656
-0.0575455650687217,0.5649288892745972,0.0328367501497268,-0.7773193717002869,-0.045529156923294,0.0269820448011159,0.0,0.0,0.2373249530792236,-0.3026319146156311
-0.0571532249450683,0.5475308299064636,0.0377977937459945,-0.7731999158859253,-0.0441065691411495,0.0284517761319875,0.0,0.0,0.5925869941711426,-0.1209042072296142
-0.0568240173161029,0.530637800693512,0.0319927223026752,-0.7507779598236084,-0.0431899577379226,0.0183326546102762,0.0,0.0,0.29853355884552,-0.4433581829071045
-0.0564178451895713,0.5143947601318359,0.0395570695400238,-0.7218800187110901,-0.0421496033668518,0.0208071619272232,0.0,0.0,0.2378941774368286,-0.4877063035964966
-0.055910013616085,0.4981195628643036,0.0493957661092281,-0.7233063578605652,-0.0407794006168842,0.0274039916694164,0.0,0.0,0.5033121109008789,-0.5785809755325317
-0.055358313024044,0.4826596677303314,0.0525067560374736,-0.6870378851890564,-0.0381502471864223,0.0525833293795585,0.0,0.0,-0.1747280955314636,-0.6246509552001953
-0.0548326484858989,0.4668437242507934,0.0484022200107574,-0.7028337121009827,-0.0340401604771614,0.0822015777230262,0.0,0.0,0.1914641857147216,-0.3987826108932495
-0.0543253906071186,0.4514064788818359,0.0468308441340923,-0.686012864112854,-0.0301923658698797,0.0769560486078262,0.0,0.0,0.5432016849517822,-0.5526145696640015
-0.05378208309412,0.4364859759807586,0.049200564622879,-0.6630381345748901,-0.0251249894499778,0.1013476103544235,0.0,0.0,0.5348384380340576,-0.2655757665634155
-0.0533074364066123,0.4223899841308594,0.0428522750735282,-0.6264174580574036,-0.0205681435763835,0.0911368280649185,0.0,0.0,-0.2517274618148803,0.6996409893035889
-0.0527393333613872,0.4079355299472809,0.0537300817668437,-0.6423826813697815,-0.0175299663096666,0.060763694345951,0.0,0.0,0.071002721786499,-0.0679136514663696
-0.0521574020385742,0.393505185842514,0.0551796481013298,-0.6413165926933289,-0.014550881460309,0.0595816746354103,0.0,0.0,0.1248871088027954,0.4559106826782226
-0.0514945015311241,0.379049152135849,0.0630046874284744,-0.6424630284309387,-0.0113162267953157,0.0646933615207672,0.0,0.0,0.1840608119964599,0.6038525104522705
-0.0507749542593956,0.3645949065685272,0.0698904246091842,-0.6423981785774231,-0.0092836217954754,0.0406521931290626,0.0,0.0,0.7030372619628906,-0.3728111982345581
-0.0500250831246376,0.3510104119777679,0.0729231759905815,-0.6037436127662659,-0.0072508030571043,0.0406565107405185,0.0,0.0,0.6346536874771118,-0.5000070929527283
-0.0491931922733783,0.338284432888031,0.0798512399196624,-0.5655863881111145,-0.0039500053972005,0.0660159140825271,0.0,0.0,-0.0766711235046386,-0.3025000095367431
-0.0483298301696777,0.3252018392086029,0.0829463154077529,-0.5814439058303833,-0.0006105424254201,0.0667892768979072,0.0,0.0,0.2789700031280517,-0.2538778781890869
-0.0475351326167583,0.3121473491191864,0.0765113905072212,-0.5802034139633179,0.0023034301120787,0.0582796558737754,0.0,0.0,0.3420354127883911,0.3673112392425537
-0.0466778762638568,0.299699455499649,0.0825845748186111,-0.5532478094100952,0.0054060355760157,0.0620520487427711,0.0,0.0,0.3155481815338135,0.3088550567626953
-0.045872401446104,0.2875816822052002,0.0777433738112449,-0.5385826826095581,0.0081715304404497,0.055310022085905,0.0,0.0,0.0387459993362426,0.1197031736373901
-0.0450735092163085,0.2757459878921509,0.0772061645984649,-0.5260478258132935,0.0108127910643816,0.0528253987431526,0.0,0.0,0.4284956455230713,0.501010537147522
-0.0442214980721473,0.2644634544849396,0.0835363790392875,-0.5014580488204956,0.0124638155102729,0.0330202169716358,0.0,0.0,-0.2360354661941528,-0.3429610729217529
-0.0433381088078022,0.2528242468833923,0.0866285935044288,-0.5173149108886719,0.0141480192542076,0.0336843393743038,0.0,0.0,0.333056092262268,0.0584323406219482
-0.0424082763493061,0.2412429004907608,0.0911518856883049,-0.5147435069084167,0.0159528162330389,0.0360957756638526,0.0,0.0,0.4491593837738037,-0.6931095123291016
-0.0414179787039756,0.2298304140567779,0.09561687707901,-0.5072634220123291,0.0193312708288431,0.0675688907504081,0.0,0.0,0.481097936630249,-0.5259907245635986
-0.0403059013187885,0.2188318520784378,0.1063382849097251,-0.4888939261436462,0.024140041321516,0.0961753204464912,0.0,0.0,0.2842508554458618,-0.0558443069458007
-0.0390617363154888,0.2079405933618545,0.1190074831247329,-0.4841541349887848,0.0294785872101783,0.1067707985639572,0.0,0.0,0.283697247505188,-0.7106053829193115
-0.0378649719059467,0.1975707411766052,0.1128195524215698,-0.4610332250595093,0.0362499915063381,0.1354282945394516,0.0,0.0,-0.0387523770332336,-0.8322256207466125
-0.0366998687386512,0.18684783577919,0.1080464124679565,-0.4768027365207672,0.044616762548685,0.1673353463411331,0.0,0.0,0.5758111476898193,-0.424210250377655
-0.0354134552180767,0.1767305433750152,0.1195928230881691,-0.449953943490982,0.0535574033856391,0.1788127720355987,0.0,0.0,0.1900744438171386,-0.1015435457229614
-0.0340362563729286,0.1666155457496643,0.1283158510923385,-0.4499165415763855,0.0628570169210434,0.1859923899173736,0.0,0.0,0.5406622886657715,-0.4587186574935913
-0.0327070243656635,0.1568512320518493,0.1237343698740005,-0.4343799352645874,0.0719513669610023,0.1818864941596985,0.0,0.0,0.2072021961212158,-0.1261011362075805
-0.0313307754695415,0.1476811468601226,0.1281388700008392,-0.4080410897731781,0.0813515707850456,0.1880041360855102,0.0,0.0,0.0635254383087158,-0.5229160189628601
-0.0300113670527935,0.1386961787939071,0.1214110627770423,-0.3999392092227936,0.0917825400829315,0.2086194455623626,0.0,0.0,-0.2275242209434509,-0.5597209930419922
-0.0287150386720895,0.12935371696949,0.117743469774723,-0.4159885048866272,0.1035742834210395,0.2358350753784179,0.0,0.0,0.3058822154998779,0.6915794610977173
-0.0273149497807025,0.1205030754208564,0.1293931156396865,-0.3941327929496765,0.1141192391514778,0.2108991593122482,0.0,0.0,0.4361248016357422,-0.6576264500617981
-0.0260616298764944,0.1122563183307647,0.1134865060448646,-0.3674693405628204,0.1258888095617294,0.2353914082050323,0.0,0.0,-0.2746306657791137,-0.0469367504119873
-0.0247783660888671,0.1036546528339386,0.1165020689368248,-0.3833375573158264,0.1376696527004242,0.2356168776750564,0.0,0.0,0.5667861700057983,0.5091904401779175
-0.0235148426145315,0.0954009592533111,0.1156181842088699,-0.3678571879863739,0.1483760625123977,0.2141282856464386,0.0,0.0,0.7588261365890503,0.3325778245925903
-0.0224390029907226,0.0877141803503036,0.0974408686161041,-0.3426761925220489,0.1585156172513961,0.202790766954422,0.0,0.0,0.5373169183731079,0.5007250308990479
-0.0215189941227436,0.0803664326667785,0.0832463949918747,-0.3275196850299835,0.167262002825737,0.1749278604984283,0.0,0.0,0.621121883392334,0.8331692218780518
-0.0205085761845111,0.0737559646368026,0.0937840715050697,-0.2946344912052154,0.1745276153087616,0.145312488079071,0.0,0.0,0.1110322475433349,0.5944615602493286
-0.0194195751100778,0.0671749711036682,0.1027653664350509,-0.2932237684726715,0.1806764155626297,0.1229761093854904,0.0,0.0,0.3138184547424316,0.4554152488708496
-0.0182969085872173,0.0611639581620693,0.1056142821907997,-0.2679782211780548,0.1873589754104614,0.133650928735733,0.0,0.0,0.0533201694488525,-0.3412970304489136
-0.017251681536436,0.0555219501256942,0.0979499518871307,-0.2516044974327087,0.1939723044633865,0.1322667896747589,0.0,0.0,0.4817917346954345,0.2595456838607788
-0.0161995887756347,0.0506887547671794,0.0980445966124534,-0.2157617062330246,0.2011739462614059,0.1440328657627105,0.0,0.0,-0.2320791482925415,-0.0593714714050293
-0.0151190757751464,0.045499499887228,0.1009193658828735,-0.2316224724054336,0.2083700746297836,0.1439227312803268,0.0,0.0,0.4493666887283325,0.0342806577682495
-0.0141645427793264,0.041003331542015,0.0883662849664688,-0.2008476853370666,0.2155295610427856,0.1431894451379776,0.0,0.0,-0.2704647779464721,-0.2497879862785339
-0.0131818773224949,0.0361509658396244,0.0911926478147506,-0.2167083472013473,0.2226798236370086,0.1430052816867828,0.0,0.0,0.2638044357299804,-0.1313850879669189
-0.0121888164430856,0.0314760543406009,0.0919771343469619,-0.2088999599218368,0.2301041632890701,0.1484869718551635,0.0,0.0,0.6924159526824951,-0.0502843856811523
-0.0114347459748387,0.0273271426558494,0.0686745792627334,-0.1854638010263443,0.2369361072778701,0.1366387903690338,0.0,0.0,0.2602806091308594,-0.071096658706665
-0.010840892791748,0.0233600474894046,0.0531234741210937,-0.1773375421762466,0.2433005720376968,0.1272893846035003,0.0,1.0,0.9696292877197266,0.9526247978210448
-0.0104218479245901,0.0209431983530521,0.0543117895722389,-0.1059863343834877,0.2292818427085876,-0.282412588596344,0.0,1.0,0.7591487169265747,0.1873300075531005
-0.0102087017148733,0.0196074582636356,0.0495798774063587,-0.0552570223808288,0.2006014287471771,-0.5737460255622864,0.0,1.0,0.1480801105499267,-0.0489506125450134
-0.0099958423525094,0.0186047405004501,0.0560619533061981,-0.0402522906661033,0.1655755788087844,-0.7006350755691528,0.0,1.0,0.2110821008682251,0.168285846710205
-0.009764957241714,0.0179814677685499,0.0561297535896301,-0.0243528857827186,0.1325812637805938,-0.6598865985870361,0.0,1.0,0.1414066553115844,-0.5263274312019348
-0.0096318246796727,0.0178444236516952,0.0454113259911537,-0.0035475671757012,0.100674070417881,-0.6381440758705139,0.0,0.0,-0.9920433759689332,-0.5587008595466614
-0.0095114707946777,0.0173515416681766,0.0432319901883602,-0.0200966335833072,0.0697509571909904,-0.6184626817703247,0.0,0.0,-0.9621104598045348,-0.7953316569328308
