x_pos,y_pos,x_vel,y_vel,angle,ang_vel,leg_1,leg_2,main_booster,lat_booster
-0.0014775276649743,1.4033429622650146,-0.1495235860347747,-0.3367630243301391,0.0015882111620157,0.0313157327473163,0.0,0.0,-0.3001127289739382,-0.9827207611851736
-0.0029794692527502,1.3955024480819702,-0.1534030735492706,-0.3484700918197632,0.004761844407767,0.0634795948863029,0.0,0.0,0.2111433859630627,0.1636668495446687
-0.0043388367630541,1.3878250122070312,-0.1394682228565216,-0.3412329256534576,0.0082574598491191,0.0699189454317092,0.0,0.0,-0.5310597861533992,-0.7326525759620102
-0.005721092224121,1.379862904548645,-0.1433774679899215,-0.3539073765277862,0.0133450254797935,0.1017604023218154,0.0,0.0,0.0835333750744056,0.92981498761301
-0.0068901060149073,1.3722673654556274,-0.1200516372919082,-0.3376104533672333,0.0164642389863729,0.0623902902007103,0.0,0.0,0.0929928545561151,-0.3594403226413717
-0.0079286573454737,1.364931344985962,-0.1073027029633522,-0.3260835707187652,0.0198830273002386,0.0683818534016609,0.0,0.0,-0.2711538045521744,-0.5315485927450544
-0.0089651104062795,1.357312798500061,-0.1080729216337204,-0.3386709094047546,0.0242615286260843,0.0875782221555709,0.0,0.0,-0.6531412890450206,0.9861875642250456
-0.009859561920166,1.3494192361831665,-0.0912870392203331,-0.3508584797382355,0.0260761175304651,0.0362953469157218,0.0,0.0,0.3184911130196142,0.2935455875410948
-0.0107360836118459,1.342245101928711,-0.0893217548727989,-0.318880558013916,0.0277245063334703,0.0329708792269229,0.0,0.0,-0.786897258522901,0.9496143220187842
-0.0114933010190725,1.3347982168197632,-0.0753731578588485,-0.3309651017189026,0.0273761637508869,-0.0069671161472797,0.0,0.0,0.1090440382360775,-0.1470919401024605
-0.0121591566130518,1.3276705741882324,-0.0663936138153076,-0.3167793452739715,0.0271922312676906,-0.0036788876168429,0.0,0.0,-0.483855681043746,-0.4795169814637874
-0.0127807613462209,1.3202612400054932,-0.0618673637509346,-0.3292967081069946,0.0269025787711143,-0.0057934252545237,0.0,0.0,0.0086296878703939,-0.4208296840277444
-0.0132904052734375,1.3132139444351196,-0.0509544126689434,-0.3132123351097107,0.0268898773938417,-0.0002540813875384,0.0,0.0,-0.6957558700585547,0.317702795981544
-0.0137565610930323,1.3058850765228271,-0.0465077720582485,-0.3257302641868591,0.0267839916050434,-0.0021181129850447,0.0,0.0,0.5013722866461101,0.3774562582681637
-0.0140713695436716,1.299402952194214,-0.031902939081192,-0.2880957424640655,0.0271958354860544,0.008237793110311,0.0,0.0,0.0645756632491283,0.1542187160240153
-0.0142781259492039,1.2929292917251587,-0.0213410574942827,-0.2877300977706909,0.0278598330914974,0.0132811367511749,0.0,0.0,0.524273343650187,-0.3379932207968565
-0.0143373487517237,1.2873629331588743,-0.0071244379505515,-0.2474200129508972,0.0290481932461261,0.0237694438546895,0.0,0.0,0.6762620208557173,-0.53734151630312
-0.0142535213381052,1.2820850610733032,0.0057349349372088,-0.2346229553222656,0.0316635705530643,0.0523124262690544,0.0,0.0,-0.0829494379829378,-0.9928490734511694
-0.014194393530488,1.2765320539474487,0.0016637088265269,-0.2468942999839782,0.035873107612133,0.0841980725526809,0.0,0.0,0.8491290153167284,0.7693202479444803
-0.0141546251252293,1.2716450691223145,0.0015349390450865,-0.2172669917345047,0.0382862538099288,0.0482673570513725,0.0,0.0,-0.8179224009978776,0.4206759681006188
-0.014074420556426,1.266476035118103,0.0056181820109486,-0.2297879755496978,0.0406583957374095,0.0474473983049392,0.0,0.0,-0.9598485627600644,0.1539930841669329
-0.013954353518784,1.2610259056091309,0.0096382424235343,-0.2422983199357986,0.0429959036409854,0.0467545166611671,0.0,0.0,-0.5537925750587052,-0.9484129568834084
-0.0138538358733057,1.255289077758789,0.0062237689271569,-0.2550818026065826,0.0467870160937309,0.0758291706442833,0.0,0.0,0.5021930653235425,0.0390806235692851
-0.0136644365265965,1.249700665473938,0.0148289902135729,-0.248506024479866,0.0508546605706214,0.0813599824905395,0.0,0.0,-0.5238677817453219,-0.6933326725064907
-0.0135047910735011,1.2438278198242188,0.0101424036547541,-0.2612272500991821,0.0566173642873764,0.1152643784880638,0.0,0.0,-0.0580360836229367,0.3269223908794653
-0.0133069036528468,1.23765230178833,0.0139600709080696,-0.2746943235397339,0.0623792000114917,0.1152370944619178,0.0,0.0,-0.450482169368863,0.9445824497702244
-0.0129973413422703,1.2312088012695312,0.0270337667316198,-0.2865541875362396,0.0662559047341346,0.0775342211127281,0.0,0.0,0.9447449618667428,-0.6288035496482687
-0.0129301073029637,1.2259230613708496,0.0019636659417301,-0.2351375222206115,0.070960059762001,0.0940832942724227,0.0,0.0,0.6246565459720601,0.310885535536388
-0.0130095481872558,1.2214821577072144,-0.0121171558275818,-0.1975754797458648,0.0750964432954788,0.0827278792858123,0.0,0.0,-0.1057443759327843,0.1869694433496115
-0.0130541799589991,1.2167600393295288,-0.0086828367784619,-0.2100880444049835,0.0792672857642173,0.0834168419241905,0.0,0.0,0.1796699572249436,0.0033118326526359
-0.0130995754152536,1.2126622200012207,-0.0088501218706369,-0.1823586076498031,0.0835428461432457,0.0855111554265022,0.0,0.0,-0.988442361354828,0.992001175880432
-0.0130433086305856,1.208285927772522,0.0029899384826421,-0.1946505755186081,0.0861503630876541,0.0521504655480384,0.0,0.0,-0.8482022285461426,0.9993689060211182
-0.0128873828798532,1.2036464214324951,0.0146370427682995,-0.2062556147575378,0.0870960727334022,0.0189141798764467,0.0,0.0,-0.8752344846725464,0.9988839626312256
-0.0126290321350097,1.198725700378418,0.0266004912555217,-0.2186545878648758,0.0863322615623474,-0.015276163816452,0.0,0.0,-0.8219916224479675,0.9955264329910278
-0.0122597692534327,1.1935362815856934,0.0396841466426849,-0.230490580201149,0.0836056098341941,-0.0545330122113227,0.0,0.0,-0.9411794543266296,0.9261844158172609
-0.0117859840393066,1.1880818605422974,0.0519709475338459,-0.2421677112579345,0.0790583416819572,-0.090945228934288,0.0,0.0,-0.9005029797554016,-0.5771572589874268
-0.0113306995481252,1.1823376417160034,0.0488086491823196,-0.255126804113388,0.0758011937141418,-0.0651428773999214,0.0,0.0,-0.9317269325256348,0.906574249267578
-0.0107721332460641,1.17632794380188,0.0610010512173175,-0.2668466866016388,0.0707190036773681,-0.1016437634825706,0.0,0.0,-0.9897396564483644,0.5036102533340454
-0.0101497648283839,1.1700468063354492,0.0682184919714927,-0.2788921892642975,0.0648013204336166,-0.1183538064360618,0.0,0.0,-0.9699704647064208,-0.8528280258178711
-0.0095657352358102,1.1634793281555176,0.0626375451683998,-0.2917069494724273,0.060611005872488,-0.0838065519928932,0.0,0.0,-0.8359823822975159,0.0566878318786621
-0.0089568141847848,1.1566306352615356,0.0650099366903305,-0.3042199313640594,0.0565363578498363,-0.0814928263425827,0.0,0.0,-0.9457616209983826,-0.0493568778038024
-0.0083241462707519,1.1495009660720823,0.0672764554619789,-0.3167328238487243,0.0525832287967205,-0.0790627747774124,0.0,0.0,-0.9608482718467712,-0.6699669361114502
-0.0077126501128077,1.1420789957046509,0.06389070302248,-0.3297699689865112,0.0498766377568244,-0.0541317388415336,0.0,0.0,-0.9620469808578492,-0.551662266254425
-0.0071156499907374,1.1343718767166138,0.061378289014101,-0.3424842953681946,0.0482192449271678,-0.0331477038562297,0.0,0.0,-0.9521703124046326,-0.366349458694458
-0.00649776449427,1.1263834238052368,0.0633234456181526,-0.3549960255622864,0.0466991513967514,-0.0304019451141357,0.0,0.0,-0.901435375213623,-0.6365869641304016
-0.0059063909575343,1.1181036233901978,0.0593487210571765,-0.3679776489734649,0.0464921183884143,-0.0041406573727726,0.0,0.0,-0.931071639060974,-0.6399094462394714
-0.0053415298461914,1.109536051750183,0.0553855374455452,-0.3808216154575348,0.0475763492286205,0.0216847341507673,0.0,0.0,-0.9488414525985718,0.2030477523803711
-0.004758930299431,1.1006869077682495,0.0570085234940052,-0.393333226442337,0.0488112978637218,0.024698918685317,0.0,0.0,-0.9440346956253052,0.1076040267944336
-0.0041595459915697,1.0915565490722656,0.0585249960422515,-0.4058449566364288,0.0502009354531765,0.0277927722781896,0.0,0.0,-0.9107794761657716,0.0338813066482543
-0.0035445212852209,1.0821446180343628,0.0599357597529888,-0.418356716632843,0.0517490170896053,0.0309617184102535,0.0,0.0,-0.9031811952590942,0.3693256378173828
-0.0029148100875318,1.07245135307312,0.0612418428063392,-0.430868536233902,0.0534590817987918,0.0342013835906982,0.0,0.0,-0.9149681329727172,-0.1706358194351196
-0.0022713660728186,1.0624767541885376,0.0624444894492626,-0.4433804452419281,0.0553344599902629,0.0375075787305831,0.0,0.0,-0.9168486595153807,0.1609374284744262
-0.0016152381431311,1.0522210597991943,0.0635451823472976,-0.4558924734592438,0.0573782883584499,0.040876317769289,0.0,0.0,-0.9279724359512328,0.2513402700424194
-0.000947380089201,1.0416836738586426,0.0645455569028854,-0.4684045910835266,0.0595934800803661,0.0443038418889045,0.0,0.0,-0.8579971194267273,0.5747020244598389
-0.0002120018034474,1.0308681726455688,0.0725621730089187,-0.4807301759719848,0.0605563260614872,0.0192569661885499,0.0,0.0,-0.7912428379058838,0.3132302761077881
0.0005331992870196,1.0197714567184448,0.0733677074313163,-0.4932421147823334,0.0616959035396575,0.022791389375925,0.0,0.0,-0.6933776140213013,0.1226598024368286
0.0012873649829998,1.0083932876586914,0.0740790888667106,-0.5057541131973267,0.0630146116018295,0.0263743735849857,0.0,0.0,-0.9349667429924012,0.6009154319763184
0.0021077156998217,0.9967416524887084,0.0820085778832435,-0.517849862575531,0.06304382532835,0.0005844619590789,0.0,0.0,-0.8573350310325623,0.2417681217193603
0.0029352188576012,0.984808623790741,0.0825390070676803,-0.5303617715835571,0.0632566139101982,0.0042555681429803,0.0,0.0,-0.8710755705833435,-0.066225528717041
0.0037690163590013,0.9725943207740784,0.0829829424619674,-0.542873740196228,0.0636549368500709,0.0079665156081318,0.0,0.0,-0.9567965269088744,0.1067068576812744
0.0046083452180027,0.960098683834076,0.0833432525396347,-0.5553857088088989,0.0642406791448593,0.0117148123681545,0.0,0.0,-0.8797470927238464,-0.4019817113876343
0.0054524419829249,0.947321593761444,0.0836228653788566,-0.5678977370262146,0.0650155767798423,0.0154979452490806,0.0,0.0,-0.9291397333145142,0.1473188400268554
0.0063004493713378,0.9342633485794068,0.083824910223484,-0.5804097056388855,0.0659812539815902,0.0193136446177959,0.0,0.0,-0.899121880531311,0.3335199356079101
0.0071516991592943,0.92092365026474,0.0839525535702705,-0.592921793460846,0.0671392381191253,0.0231597162783145,0.0,0.0,-0.9535622596740724,0.4888161420822143
0.0080054281279444,0.9073027968406676,0.0840090662240982,-0.6054338812828064,0.068490944802761,0.0270340703427791,0.0,0.0,-0.8497799038887024,0.5172314643859863
0.0088934898376464,0.8934041857719421,0.0880672931671142,-0.6177470088005066,0.0692194700241088,0.0145704615861177,0.0,0.0,-0.9204157590866088,-0.1302906274795532
0.0097827911376953,0.879224419593811,0.0879916995763778,-0.630259096622467,0.070144236087799,0.0184956938028335,0.0,0.0,-0.8119451403617859,0.3585350513458252
0.0106726642698049,0.8647632002830505,0.0878552496433258,-0.642771303653717,0.0712664127349853,0.0224435944110155,0.0,0.0,-0.6573007106781006,0.9543285369873048
0.0116407396271824,0.8500402569770813,0.0974863991141319,-0.6543237566947937,0.0705985575914383,-0.0133571373298764,0.0,0.0,0.0849026441574096,-0.539691150188446
0.0124756814911961,0.8354869484901428,0.0830018371343612,-0.6468377709388733,0.0710873380303382,0.0097756758332252,0.0,0.0,-0.8527655601501465,0.4967103004455566
0.0133096696808934,0.8206522464752197,0.0827042683959007,-0.6593498587608337,0.0717764422297477,0.0137818828225135,0.0,0.0,-0.5435460805892944,-0.5015645027160645
0.0141046522185206,0.8055331707000732,0.0776421278715133,-0.6720461249351501,0.0736140981316566,0.0367530398070812,0.0,0.0,-0.8490103483200073,0.7507572174072266
0.0149438856169581,0.7901464700698853,0.0830591320991516,-0.6838988065719604,0.0744761005043983,0.0172399505972862,0.0,0.0,-0.2806648015975952,0.5121886730194092
0.0158263202756643,0.7744836211204529,0.0883241444826126,-0.6961279511451721,0.0743961781263351,-0.0015983984339982,0.0,0.0,-0.1357998847961425,-0.3930634260177612
0.0167061798274517,0.7585394382476807,0.0878629088401794,-0.7086400985717773,0.0745194479823112,0.0024650611449033,0.0,0.0,-0.5695722103118896,0.5973048210144043
0.0176359172910451,0.7423134446144104,0.0939837843179702,-0.7211048007011414,0.0735242813825607,-0.0199031792581081,0.0,0.0,-0.2512037754058838,-0.2508430480957031
0.0185626037418842,0.7258061766624451,0.0934628546237945,-0.7336170077323914,0.0727333575487136,-0.0158187355846166,0.0,0.0,-0.3829224109649658,0.2734801769256592
0.0194857604801654,0.7090175747871399,0.0929175987839698,-0.7461292743682861,0.0721470788121223,-0.0117256138473749,0.0,0.0,-0.546356737613678,-0.4885521531105041
0.0204054825007915,0.6919476985931396,0.0923516824841499,-0.7586414813995361,0.0717658251523971,-0.0076249004341661,0.0,0.0,-0.8846797347068787,0.0537539720535278
0.0213213916867971,0.6745966076850891,0.0917687714099884,-0.7711536288261414,0.0715899318456649,-0.0035177157260477,0.0,0.0,-0.4597566723823547,-0.5302432775497437
0.0221829414367675,0.6569532752037048,0.0848184302449226,-0.7842133641242981,0.0729037597775459,0.0262763611972332,0.0,0.0,-0.3754101395606994,0.6005393266677856
0.0230906493961811,0.6390395164489746,0.0905326604843139,-0.7961790561676025,0.0731459707021713,0.0048444289714097,0.0,0.0,-0.3031066656112671,-0.6921592354774475
0.023930549621582,0.620837390422821,0.0819129571318626,-0.8090850114822388,0.0752044171094894,0.0411687642335891,0.0,0.0,0.3883614540100097,0.5786628723144531
0.0247191432863473,0.6032079458236694,0.0778383761644363,-0.7835819721221924,0.0762076526880264,0.0200648047029972,0.0,0.0,0.0610777139663696,-0.161260724067688
0.0254617687314748,0.5859680771827698,0.0730766505002975,-0.7662781476974487,0.0773815438151359,0.0234777070581913,0.0,0.0,-0.6531981229782104,0.9556058645248412
0.0262866020202636,0.5684570670127869,0.0832970663905143,-0.7782229781150818,0.0765826702117919,-0.0159773025661706,0.0,0.0,0.2516117095947265,-0.3690217137336731
0.0271056182682514,0.5510547757148743,0.082418642938137,-0.7734106183052063,0.0760730430483818,-0.010192790068686,0.0,0.0,0.0985156297683715,-0.816554844379425
0.0279078483581542,0.5337663888931274,0.0788472816348075,-0.7684412598609924,0.0774321034550666,0.0271814316511154,0.0,0.0,-0.1024872064590454,0.3455367088317871
0.0287063606083393,0.5161967873573303,0.0782712325453758,-0.7809536457061768,0.0789971277117729,0.0313004776835441,0.0,0.0,0.8137392997741699,-0.4385249614715576
0.0296196937561035,0.4990114867687225,0.088838905096054,-0.7639240622520447,0.0814758688211441,0.0495746657252311,0.0,0.0,0.4872288703918457,-0.2998054027557373
0.0304697044193744,0.4825554490089416,0.0823152884840965,-0.73152756690979,0.0841365084052085,0.0532128028571605,0.0,0.0,0.6481335163116455,0.1547213792800903
0.0312838554382324,0.4669532179832458,0.0783772766590118,-0.6936064958572388,0.0871451944112777,0.0601737089455127,0.0,0.0,-0.5531371831893921,0.6641234159469604
0.0321581847965717,0.4510805606842041,0.0858058929443359,-0.7055474519729614,0.088761068880558,0.0323171764612197,0.0,0.0,0.2416718006134033,-0.4518829584121704
0.033083725720644,0.4353033006191253,0.0903727561235427,-0.7013417482376099,0.090932123363018,0.0434210561215877,0.0,0.0,0.3455590009689331,0.5716195106506348
0.033968161791563,0.4198625683784485,0.0872932747006416,-0.6863250136375427,0.0920700803399086,0.0227591600269079,0.0,0.0,0.2041701078414917,-0.0870226025581359
0.0348544120788574,0.4050883948802948,0.0869827568531036,-0.6567315459251404,0.0936970710754394,0.03253985196352,0.0,0.0,-0.1623551249504089,-0.0976687669754028
0.0357391349971294,0.3900330364704132,0.0866358876228332,-0.6692442297935486,0.0955272242426872,0.0366027131676673,0.0,0.0,0.0850410461425781,0.2470463514328003
0.0364917740225791,0.375464916229248,0.0735951662063598,-0.6475810408592224,0.0971818566322326,0.0330927483737468,0.0,0.0,0.0032011270523071,0.4326120615005493
0.0372552871704101,0.361255943775177,0.074238047003746,-0.6316515803337097,0.0992829054594039,0.042020808905363,0.0,0.0,0.4334099292755127,0.7075135707855225
0.0379584319889545,0.3477431237697601,0.0695049986243248,-0.6006249189376831,0.1000832319259643,0.0160065274685621,0.0,0.0,0.237944483757019,0.6127634048461914
0.0385854728519916,0.3347877562046051,0.0630509927868843,-0.575769305229187,0.0997417718172073,-0.0068293223157525,0.0,0.0,0.3590790033340454,-0.6870337128639221
0.0390961654484272,0.3221489191055298,0.0498660504817962,-0.5618104934692383,0.1009324193000793,0.0238132663071155,0.0,0.0,0.0622459650039672,0.5229692459106445
0.0395277962088584,0.3098000288009643,0.0429612770676612,-0.5488519072532654,0.1011339426040649,0.0040302546694874,0.0,0.0,0.7354528903961182,0.4069825410842895
0.0397485718131065,0.2979670464992523,0.0224160458892583,-0.525888204574585,0.1008020937442779,-0.006637139711529,0.0,0.0,0.737602710723877,0.8141380548477173
0.0400816909968853,0.2870137691497803,0.0348585955798625,-0.4867072403430938,0.0992717966437339,-0.0306059755384922,0.0,0.0,-0.0941335558891296,-0.6216877102851868
0.0403743758797645,0.2757673561573028,0.0294913947582244,-0.4998266100883484,0.0990523248910904,-0.0043894439004361,0.0,0.0,0.4620006084442138,0.2311098575592041
0.0407318100333213,0.265266478061676,0.0351675599813461,-0.4667449593544006,0.0996211543679237,0.0113765690475702,0.0,0.0,0.2785146236419678,0.5812575817108154
0.0410599708557128,0.2553894519805908,0.0332499630749225,-0.4389503896236419,0.0991846993565559,-0.0087288534268736,0.0,0.0,0.2583495378494262,-0.1998575329780578
0.0414367690682411,0.2462187111377716,0.0374182797968387,-0.40760338306427,0.0994429066777229,0.0051641114987432,0.0,0.0,0.747583270072937,0.3864578008651733
0.0418386459350585,0.2376938611268997,0.0393563583493232,-0.3789354860782623,0.1002648994326591,0.0164398811757564,0.0,0.0,0.738845705986023,-0.0944160819053649
0.0421531684696674,0.2301692366600036,0.0304736793041229,-0.3344954252243042,0.1012406945228576,0.019515860825777,0.0,0.0,-0.1296606063842773,0.4556810855865478
0.0424746498465538,0.2223633676767349,0.0309773571789264,-0.3470080494880676,0.1024037450551986,0.0232610646635293,0.0,0.0,0.6310247182846069,0.5812228918075562
0.0428887382149696,0.2149689793586731,0.0409957952797412,-0.3286691904067993,0.1028072237968444,0.008069721981883,0.0,0.0,-0.1925953030586242,-0.5800003409385681
0.0432560928165912,0.2072858363389969,0.0347383618354797,-0.3416119515895843,0.1047853156924247,0.0395620241761207,0.0,0.0,0.808085560798645,-0.7123162746429443
0.0433658584952354,0.2001273483037948,0.007722295820713,-0.3183886408805847,0.108019083738327,0.0646753162145614,0.0,0.0,0.7523188591003418,0.9359631538391112
0.043469239026308,0.1935865432024002,0.0088099455460906,-0.2908098101615906,0.1095264554023742,0.0301473625004291,0.0,0.0,0.8050450086593628,0.774878978729248
0.0436109527945518,0.1876473575830459,0.0139709208160638,-0.2639817595481872,0.1097300797700882,0.0040726563893258,0.0,0.0,-0.1961486339569091,0.3159306049346924
0.0437637344002723,0.1814268380403518,0.0148943737149238,-0.2764943540096283,0.1101080551743507,0.0075595253147184,0.0,0.0,0.3422281742095947,0.0065845251083374
0.0439458861947059,0.1757663786411285,0.0172876957803964,-0.2516439259052276,0.1110239177942276,0.018317274749279,0.0,0.0,0.5955476760864258,-0.4992422461509704
0.0440780632197856,0.1709901243448257,0.0120161343365907,-0.2123717814683914,0.1122203469276428,0.0239287503063678,0.0,0.0,-0.1129257678985595,0.0580474138259887
0.0442233085632324,0.1659324765205383,0.0131505234166979,-0.2248844057321548,0.1135822236537933,0.027237668633461,0.0,0.0,0.194609522819519,0.250998854637146
0.0444020256400108,0.1612710058689117,0.01601567491889,-0.2073185443878173,0.1154343411326408,0.0370420254766941,0.0,0.0,0.0935825109481811,-0.5796535611152649
