x_pos,y_pos,x_vel,y_vel,angle,ang_vel,leg_1,leg_2,main_booster,lat_booster
-0.0015689849387854,1.403311252593994,-0.1595674753189087,-0.3381689190864563,0.002389021217823,0.0471723787486553,0.0,0.0,-0.3219175338745117,0.7137634754180908
-0.0031219483353197,1.395409345626831,-0.1566899120807647,-0.3512023389339447,0.0037691716570407,0.0276061799377203,0.0,0.0,0.086566686630249,0.8738267421722412
-0.0045477868989109,1.3875869512557983,-0.1428581178188324,-0.3476658463478088,0.0040410300716757,0.005437655840069,0.0,0.0,0.0114188194274902,0.8399097919464111
-0.0060372352600097,1.3799071311950684,-0.1481058299541473,-0.3413222134113312,0.0032076248899102,-0.0166698899120092,0.0,0.0,0.2619261741638183,0.5365146398544312
-0.007419872097671,1.3726637363433838,-0.1371777802705764,-0.3219286203384399,0.0021338306833058,-0.0214775707572698,0.0,0.0,-0.3081187605857849,0.2990652322769165
-0.0088426591828465,1.3651070594787598,-0.1417614072561264,-0.3358513414859772,0.001632934785448,-0.0100191002711653,0.0,0.0,-0.306540846824646,0.2124596834182739
-0.0103039741516113,1.3572372198104858,-0.1462084800004959,-0.3497674167156219,0.0017019726801663,0.0013810532400384,0.0,0.0,0.0270485877990722,0.9277265071868896
-0.0116192819550633,1.349660873413086,-0.1303037703037262,-0.3367302119731903,0.0004886023234575,-0.0242694932967424,0.0,0.0,-0.5059133172035217,0.1042323112487793
-0.0129702566191554,1.341771125793457,-0.1344399005174636,-0.3506537973880768,-0.0001607898157089,-0.0129891233518719,0.0,0.0,-0.4006974697113037,0.555030345916748
-0.0143115995451807,1.3335716724395752,-0.1329294443130493,-0.3644164800643921,-0.001349345780909,-0.0237737484276294,0.0,0.0,-0.4761348962783813,0.9505784511566162
-0.0155994417145848,1.3250597715377808,-0.125972718000412,,-0.0041352352127432,-0.0557229407131671,0.0,0.0,-0.3839837908744812,0.7500035762786865
-0.016851520165801,1.3162328004837036,-0.1212702542543411,-0.3923251330852508,-0.008030884899199,-0.0779201313853263,0.0,0.0,-0.3313251733779907,0.7036037445068359
-0.0180643089115619,1.307095646858215,-0.1161782890558242,-0.4061289429664612,-0.013077201321721,-0.1009352654218673,0.0,0.0,-0.3503849506378174,0.6090521812438965
-0.0192497260868549,1.297639012336731,-0.112617053091526,-0.4203596115112304,-0.0189298745244741,-0.1170641556382179,0.0,0.0,-0.3138633966445923,0.2752113342285156
-0.0204587932676076,1.2878694534301758,-0.1155321151018142,-0.4342801868915558,-0.0242489613592624,-0.1063915118575096,0.0,0.0,-0.5725429654121399,0.3888802528381347
-0.0216893199831247,1.2777869701385498,-0.1182045936584472,-0.4482001662254333,-0.0290419999510049,-0.0958695858716964,0.0,0.0,-0.0337574481964111,0.9069336652755736
-0.0228505134582519,1.2673981189727783,-0.1095723658800125,-0.4618641436100006,-0.0355269536375999,-0.1297107636928558,0.0,0.0,0.4353518486022949,0.1327103376388549
-0.0238928794860839,1.2571778297424316,-0.0987782999873161,-0.4543766975402832,-0.0409201718866825,-0.1078743711113929,0.0,0.0,-0.7240667939186096,-0.2691590189933777
-0.0249487869441509,1.2466442584991455,-0.1006490588188171,-0.4683004021644592,-0.0458128564059734,-0.0978624746203422,0.0,0.0,-0.833436131477356,-0.3827881217002868
-0.026015568524599,1.235797643661499,-0.102231964468956,-0.4822184145450592,-0.0502136312425136,-0.0880234763026237,0.0,0.0,-0.2162980437278747,-0.5122272968292236
-0.0271220207214355,1.2246438264846802,-0.1075046882033348,-0.4958372414112091,-0.0533301681280136,-0.0623362362384796,0.0,0.0,-0.8347445130348206,-0.1946797370910644
-0.0282337181270122,1.2131764888763428,-0.1084909886121749,-0.50975501537323,-0.0559776276350021,-0.0529539473354816,0.0,0.0,-0.0323069095611572,-0.8327057361602783
-0.0293992049992084,1.2013987302780151,-0.1156417280435562,-0.5234822034835815,-0.0568688735365867,-0.0178265236318111,0.0,0.0,-0.0968787670135498,-0.6242172718048096
-0.0306076053529977,1.1893045902252195,-0.121500551700592,-0.537499725818634,-0.0562207996845245,0.0129625499248504,0.0,0.0,-0.3161377906799316,0.61885666847229
-0.0317748077213764,1.1768953800201416,-0.1168575882911682,-0.5515165328979492,-0.0560846887528896,0.0027224202640354,0.0,0.0,-0.4193068742752075,-0.2685122489929199
-0.0329358093440532,1.1641510725021362,-0.1166649684309959,-0.566385805606842,-0.055534366518259,0.0110065583139657,0.0,0.0,0.0235302448272705,0.4847277402877807
-0.0340596213936805,1.1517674922943115,-0.1133471727371215,-0.5503517985343933,-0.0545756816864013,0.0191738791763782,0.0,0.0,-0.4726967811584472,0.0375579595565795
-0.0351704582571983,1.1390702724456787,-0.1124351173639297,-0.5642669200897217,-0.0532368198037147,0.0267770085483789,0.0,0.0,-0.7298396229743958,0.2593228816986084
-0.0362652763724327,1.126059889793396,-0.1112079992890358,-0.5781822204589844,-0.0515362545847892,0.034011535346508,0.0,0.0,-0.8967201113700867,0.1498017311096191
-0.0373413078486919,1.1127361059188845,-0.1096712201833725,-0.5920976996421814,-0.0494934543967247,0.0408559627830982,0.0,0.0,-0.6025723218917847,0.1482155323028564
-0.0383957847952842,1.099099040031433,-0.1078316792845726,-0.6060134172439575,-0.0471290685236454,0.047287818044424,0.0,0.0,-0.8897770643234253,0.5293450355529785
-0.0393894203007221,1.085142970085144,-0.1011350378394126,-0.6202104091644287,-0.0453825481235981,0.0349301844835281,0.0,0.0,-0.967518150806427,-0.465760588645935
-0.040356159210205,1.0708738565444946,-0.0987159013748169,-0.6341262459754944,-0.043359026312828,0.0404704064130783,0.0,0.0,-0.946610152721405,0.4666191339492798
-0.0412933342158794,1.0562913417816162,-0.0960222035646438,-0.6480423808097839,-0.0410824120044708,0.0455323196947574,0.0,0.0,-0.8635762333869934,0.0245610475540161
-0.0421986579895019,1.041395902633667,-0.0930652171373367,-0.6619586944580078,-0.0385776385664939,0.0500953570008277,0.0,0.0,-0.5373997688293457,0.9314932823181152
-0.0429937355220317,1.0261896848678589,-0.0803171917796135,-0.6758101582527161,-0.0377787202596664,0.015978367999196,0.0,0.0,-0.6465839147567749,-0.1760227680206298
-0.0437525734305381,1.010670185089111,-0.0768699422478675,-0.6897264122962952,-0.0368043817579746,0.0194869339466094,0.0,0.0,-0.1792593598365783,-0.0317054986953735
-0.0444731712341308,0.9948376417160034,-0.073196455836296,-0.703642725944519,-0.0356822349131107,0.0224429629743099,0.0,0.0,-0.2915319204330444,0.2203239202499389
-0.0451537147164344,0.9786919951438904,-0.0693095177412033,-0.7175592184066772,-0.0344406142830848,0.0248325355350971,0.0,0.0,0.4755511283874511,0.2203102111816406
-0.045748520642519,0.9630456566810608,-0.0609464235603809,-0.6953592896461487,-0.0329917259514331,0.0289775840938091,0.0,0.0,0.1322216987609863,-0.0551627278327941
-0.0463555343449115,0.9478896856307985,-0.0618795454502105,-0.6735689640045166,-0.0318201780319213,0.0234307199716568,0.0,0.0,0.0969073772430419,-0.3911237120628357
-0.0468246452510356,0.9329378008842468,-0.0485145859420299,-0.6644918322563171,-0.0302380993962287,0.0316418446600437,0.0,0.0,-0.49136483669281,0.2925926446914673
-0.0472475066781044,0.9176729917526244,-0.0438991524279117,-0.6784088611602783,-0.0286542791873216,0.0316765345633029,0.0,0.0,-0.4002890586853027,0.672417402267456
-0.0475611686706543,0.9020909667015076,-0.0313593558967113,-0.6925355792045593,-0.0286566298454999,-4.6919209125917405e-05,0.0,0.0,-0.5966078042984009,-0.1065916419029235
-0.0478262901306152,0.8861960172653198,-0.02645019069314,-0.7064524292945862,-0.0287167057394981,-0.00120156747289,0.0,0.0,-0.3788890242576599,0.173206090927124
-0.0480419173836708,0.8699877262115479,-0.0214101336896419,-0.7203693389892578,-0.0288638565689325,-0.0029430266004055,0.0,0.0,-0.2948614358901977,-0.7044569253921509
-0.0482571609318256,0.8534647822380066,-0.02254000864923,-0.7343366742134094,-0.0278682056814432,0.019913138821721,0.0,0.0,-0.3731040954589844,-0.0453566312789917
-0.0484212860465049,0.8366286158561707,-0.0172673612833023,-0.7482538819313049,-0.0270167849957942,0.0170283038169145,0.0,0.0,0.3165199756622314,0.5455479621887207
-0.048588179051876,0.8204289674758911,-0.0160354860126972,-0.7199975252151489,-0.0276719108223915,-0.0131023954600095,0.0,0.0,-0.6468877196311951,-0.685030996799469
-0.0487586036324501,0.8039166927337646,-0.0176071263849735,-0.7338727116584778,-0.0271154511719942,0.0111292358487844,0.0,0.0,-0.6680729985237122,0.0766347646713256
-0.0488758087158203,0.7870913147926331,-0.0120499711483716,-0.7477899789810181,-0.0267833247780799,0.0066424361430108,0.0,0.0,-0.2442615032196045,-0.7006988525390625
-0.0489997863769531,0.7699599266052246,-0.0140244411304593,-0.7613635659217834,-0.0251730773597955,0.0322050377726554,0.0,0.0,-0.233059823513031,0.5043740272521973
-0.0490222945809364,0.7525111436843872,-0.0024031731300055,-0.7755051255226135,-0.0250211916863918,0.0030375998467206,0.0,0.0,-0.0422666072845459,-0.0566874742507934
-0.048989962786436,0.7347491979598999,0.0033743933308869,-0.7894223928451538,-0.0251647904515266,-0.0028719236142933,0.0,0.0,-0.2789750099182129,-0.8120972514152527
-0.0489509589970111,0.716672956943512,0.0031420711893588,-0.8033739924430847,-0.0244101416319608,0.0150927333161234,0.0,0.0,0.1701771020889282,0.5005331039428711
-0.0488825812935829,0.698783278465271,0.0075812637805938,-0.7951107025146484,-0.0251436568796634,-0.0146700469776988,0.0,0.0,0.0084338188171386,-0.1267227530479431
-0.0486886985599994,0.6813079714775085,0.0202210862189531,-0.7766989469528198,-0.0259682033210992,-0.0164908710867166,0.0,0.0,-0.1612224578857422,-0.01192307472229
-0.0484387390315532,0.663519561290741,0.0262154247611761,-0.7906165719032288,-0.0271671805530786,-0.0239797607064247,0.0,0.0,-0.2486777305603027,-0.2823778986930847
-0.0481322295963764,0.6454183459281921,0.0322529412806034,-0.8045342564582825,-0.0287575051188468,-0.0318064913153648,0.0,0.0,-0.2203291654586792,-0.0923493504524231
-0.047769259661436,0.627004086971283,0.0383299142122268,-0.8184521198272705,-0.0307549573481082,-0.0399491861462593,0.0,0.0,0.3987445831298828,-0.5389345288276672
-0.047335434705019,0.6087419986724854,0.0446336418390274,-0.8116711974143982,-0.0319935567677021,-0.024772010743618,0.0,0.0,0.4829823970794678,-0.4557788372039795
-0.0469143874943256,0.591115415096283,0.044220995157957,-0.7834535241127014,-0.0340842008590698,-0.0418128855526447,0.0,0.0,0.245763897895813,-0.8217738270759583
-0.0463814735412597,0.5737562775611877,0.0541119389235973,-0.7715358138084412,-0.0348933860659599,-0.0161836817860603,0.0,0.0,0.1756982803344726,-0.6591482162475586
-0.045809268951416,0.5567407608032227,0.0571534857153892,-0.7562399506568909,-0.0348253399133682,0.001360967522487,0.0,0.0,-0.095668613910675,-0.4642201662063598
-0.0451794639229774,0.5394124388694763,0.0633821040391922,-0.7701579928398132,-0.0352284647524356,-0.0080624874681234,0.0,0.0,0.1350493431091308,-0.7144775986671448
-0.0446309074759483,0.5223883986473083,0.0544174388051033,-0.7566142678260803,-0.034792985767126,0.0087094204500317,0.0,0.0,0.0831363201141357,-0.6448565721511841
-0.0440400131046772,0.5059018731117249,0.0578304715454578,-0.7327048182487488,-0.0335452854633331,0.0249538235366344,0.0,0.0,0.2114015817642212,-0.6422641277313232
-0.0433679595589637,0.4894154667854309,0.0650532096624374,-0.7326815128326416,-0.0314161144196987,0.0425833389163017,0.0,0.0,0.4776303768157959,-0.6738452911376953
-0.042640496045351,0.4737700223922729,0.069694697856903,-0.6952924132347107,-0.0284016113728284,0.0602901056408882,0.0,0.0,-0.1713138818740844,-0.2607758045196533
-0.0418549552559852,0.4578117430210113,0.0760188549757003,-0.7092111706733704,-0.0259018149226903,0.0499957241117954,0.0,0.0,-0.024765133857727,-0.5685729384422302
-0.0410632118582725,0.4415450394153595,0.0758571699261665,-0.7229117155075073,-0.022620091214776,0.0656344592571258,0.0,0.0,0.5419633388519287,-0.103776216506958
-0.0401713363826274,0.425835520029068,0.0862600356340408,-0.6981580853462219,-0.0197333842515945,0.057734303176403,0.0,0.0,0.0257831811904907,-0.8021210432052612
-0.0393678657710552,0.4106132388114929,0.0763828381896019,-0.6764999628067017,-0.0158131718635559,0.0784039944410324,0.0,0.0,0.6063780784606934,-0.6628482341766357
-0.038471795618534,0.3959196805953979,0.0846768468618393,-0.6530024409294128,-0.01094401627779,0.0973831266164779,0.0,0.0,-0.3021650314331054,-0.0403288006782531
-0.0375173576176166,0.3809133768081665,0.0910594910383224,-0.6669216156005859,-0.0066184438765048,0.0865112394094467,0.0,0.0,0.0228810310363769,-0.0997731685638427
-0.0364611633121967,0.3658956587314605,0.1015972271561622,-0.6674411296844482,-0.0026461814995855,0.0794451907277107,0.0,0.0,0.2262846231460571,-0.5860379934310913
-0.0354181304574012,0.3509374558925628,0.0997023284435272,-0.6648085117340088,0.00189186015632,0.0907609686255455,0.0,0.0,0.6141345500946045,-0.6029155254364014
-0.034374713897705,0.3368341028690338,0.0991138219833374,-0.6268302202224731,0.0070516364648938,0.1031957268714904,0.0,0.0,0.3302938938140869,-0.2803391218185425
-0.0332130417227745,0.3234038949012756,0.1112061291933059,-0.5969305634498596,0.0119502088055014,0.0979712754487991,0.0,0.0,-0.1245956420898437,-0.3512853384017944
-0.0319928154349327,0.3096607625484466,0.1176216453313827,-0.6108487248420715,0.0162863917648792,0.0867238566279411,0.0,0.0,0.4015480279922485,-0.2399224638938903
-0.0308284759521484,0.2960232496261596,0.1131240352988243,-0.6061496734619141,0.019549585878849,0.0652638673782348,0.0,0.0,0.6317760944366455,0.052323579788208
-0.0295811649411916,0.2832447290420532,0.1218203455209732,-0.5679762959480286,0.0224292054772377,0.0575924217700958,0.0,0.0,0.3653669357299804,-0.4411818385124206
-0.0283696167171001,0.2708633542060852,0.1192012056708335,-0.5503122806549072,0.0243512112647295,0.0384402871131897,0.0,0.0,0.3291504383087158,-0.8380439877510071
-0.0272294990718364,0.2589858174324035,0.1110189408063888,-0.5279441475868225,0.0273149143904447,0.059274036437273,0.0,0.0,0.4261292219161987,-0.4446545839309692
-0.0260576251894235,0.2476996481418609,0.1148174181580543,-0.5016523599624634,0.0296565219759941,0.0468320064246654,0.0,0.0,-0.280832290649414,-0.6439249515533447
-0.0248707775026559,0.2360984236001968,0.1157811060547828,-0.5156709551811218,0.0325173698365688,0.0572170317173004,0.0,0.0,0.4747933149337768,-0.8534526824951172
-0.023678969591856,0.2246315032243728,0.1151153221726417,-0.5097332000732422,0.0365302264690399,0.0802571699023246,0.0,0.0,0.5936181545257568,-0.571394681930542
-0.0223917011171579,0.2134323269128799,0.1238635927438736,-0.4978695809841156,0.0413400530815124,0.0961965471506118,0.0,0.0,0.4742662906646728,-0.7046355605125427
-0.0209779739379882,0.2026890367269516,0.135407343506813,-0.4776533544063568,0.0472362488508224,0.1179235428571701,0.0,0.0,0.505110502243042,-0.8450878858566284
-0.019447136670351,0.1921701282262802,0.1458069682121276,-0.4677541851997375,0.0544318221509456,0.1439116299152374,0.0,0.0,0.4855455160140991,-0.7943704724311829
-0.0179633144289255,0.1823504567146301,0.1401005983352661,-0.4367547035217285,0.0626159757375717,0.1636832803487777,0.0,0.0,-0.0319606065750122,-0.5481227040290833
-0.0164624210447073,0.1722182780504226,0.1413496434688568,-0.4507049024105072,0.0712511017918586,0.1727025061845779,0.0,0.0,-0.0156179666519165,-0.6210522651672363
-0.0149424551054835,0.161771684885025,0.1428744792938232,-0.464753121137619,0.0802827179431915,0.1806323677301406,0.0,0.0,0.7191243171691895,-0.7957969307899475
-0.0133386608213186,0.1515184193849563,0.1500188112258911,-0.4562885463237762,0.0905375257134437,0.2050962001085281,0.0,0.0,0.6291351318359375,-0.6080960035324097
-0.011825943365693,0.1416870206594467,0.1404382884502411,-0.4376404881477356,0.1012859791517257,0.2149690836668014,0.0,0.0,0.6876053810119629,-0.4189062714576721
-0.0102582927793264,0.1328715682029724,0.1461258232593536,-0.3925534784793854,0.1118492484092712,0.2112652361392974,0.0,0.0,0.0464140176773071,-0.2196519374847412
-0.0086876871064305,0.1242783367633819,0.1470947414636612,-0.3826972246170044,0.1217589676380157,0.198194533586502,0.0,0.0,0.2132618427276611,-0.4784286022186279
-0.0072208405472338,0.1162253469228744,0.1377368569374084,-0.3586636781692505,0.13066066801548,0.1780344247817993,0.0,0.0,0.4608999490737915,-0.905584454536438
-0.0057614324614405,0.1087848246097564,0.135677233338356,-0.3316226601600647,0.1408783942461013,0.2043546140193939,0.0,0.0,-0.1355413794517517,-0.4244911074638366
-0.0042445184662938,0.1010313108563423,0.1420382112264633,-0.3455411493778229,0.1505111455917358,0.1926553398370742,0.0,0.0,-0.1825488209724426,-0.5802735090255737
-0.0027220726478844,0.0929572880268096,0.1418657004833221,-0.3599303066730499,0.1608771830797195,0.2073208093643188,0.0,0.0,0.3775457143783569,-0.8062081336975098
-0.0012945175403729,0.0851615741848945,0.1313998252153396,-0.3477440774440765,0.1722451895475387,0.2273602187633514,0.0,0.0,0.5734889507293701,-0.253616452217102
-1.735687328618951e-05,0.0778708308935165,0.1174727082252502,-0.3252530097961426,0.1825154423713684,0.2054049670696258,0.0,0.0,0.435161828994751,0.2311241626739502
0.001105785369873,0.0709023103117942,0.1032692417502403,-0.3108494877815246,0.1915979087352752,0.181649625301361,0.0,0.0,0.2890290021896362,0.7190775871276855
0.0023251534439623,0.0644926130771637,0.1148052215576171,-0.2858169972896576,0.1987798660993576,0.1436389237642288,0.0,0.0,0.5470303297042847,-0.1387880444526672
0.0035895346663892,0.0582939237356185,0.1196176782250404,-0.2764273881912231,0.205646127462387,0.1373254358768463,0.0,0.0,0.6137936115264893,-0.2921887040138244
0.0048970221541821,0.0529188476502895,0.1238680332899093,-0.2398649752140045,0.212587371468544,0.1388249695301056,0.0,0.0,-0.0422762036323547,-0.763074517250061
0.0061987875960767,0.0472161136567592,0.1223110407590866,-0.2546060979366302,0.2205381989479065,0.1590164452791214,0.0,0.0,0.4439512491226196,-0.3207139372825622
0.0075149536132812,0.0423334203660488,0.1237707734107971,-0.2182008922100067,0.2284878641366958,0.1589933335781097,0.0,0.0,-0.3421982526779175,-0.7908511757850647
0.0088339801877737,0.0371183492243289,0.1232555955648422,-0.2331446707248687,0.2372529357671737,0.1753016263246536,0.0,0.0,0.2049093246459961,-0.3341554403305053
0.0100633623078465,0.0324555970728397,0.1149119362235069,-0.208549290895462,0.2454186677932739,0.1633147895336151,0.0,0.0,0.2682446241378784,-0.6533360481262207
0.0112005230039358,0.0283641200512647,0.1048798412084579,-0.1833406835794448,0.2544080913066864,0.1797884404659271,0.0,0.0,-0.4240862131118774,-0.5725041627883911
0.0123186111450195,0.0248560048639774,0.1199645027518272,-0.1545089930295944,0.2461605072021484,-0.1648672968149185,0.0,1.0,0.9674665927886964,0.6595473289489746
0.0130472183227539,0.0228367671370506,0.1002870053052902,-0.0853987410664558,0.2183245122432708,-0.5567401051521301,0.0,1.0,0.825331449508667,-0.3228908181190491
0.0134541513398289,0.0217112395912408,0.0785541012883186,-0.0448712743818759,0.180163100361824,-0.7632501125335693,0.0,1.0,0.5014350414276123,-0.8286999464035034
0.0137167926877737,0.0209832526743412,0.0609504580497741,-0.0285152085125446,0.14545339345932,-0.6941940784454346,0.0,1.0,0.2768473625183105,-0.4756361246109009
0.0139379501342773,0.0205741263926029,0.0568943917751312,-0.0151527198031544,0.1108382046222686,-0.692304253578186,0.0,0.0,-0.9926298260688782,-0.7870818376541138
0.0141647337004542,0.0198513604700565,0.0569074749946594,-0.0299336314201354,0.0768880397081375,-0.6790041923522949,0.0,0.0,-0.9622578620910645,-0.7330572009086609
0.0143961906433105,0.0188275426626205,0.0568016842007637,-0.0441116280853748,0.0435949265956878,-0.6658627986907959,0.0,0.0,-0.7741997241973877,-0.7832785248756409
0.0146211627870798,0.0175081826746463,0.0552726201713085,-0.0580027364194393,0.011230600066483,-0.6472871899604797,0.0,0.0,0.0877403020858764,-0.9637093544006348
0.0148706436157226,0.0161858890205621,0.0563695505261421,-0.058826383203268,-0.019787523895502,-0.6203627586364746,0.0,0.0,0.3581469058990478,-0.9629757404327391
