x_pos,y_pos,x_vel,y_vel,angle,ang_vel,leg_1,leg_2,main_booster,lat_booster
-0.0015042305458337,1.4034640789031982,-0.153162807226181,-0.3313838839530945,0.002456058980897,0.0484995879232883,0.0,0.0,0.7821282468890001,-0.882638917612697
-0.0029992102645337,1.3966128826141355,-0.1545003950595855,-0.3045139610767364,0.0074118813499808,0.0991265103220939,0.0,0.0,0.7554097834857605,-0.5313975344384883
-0.0043713571503758,1.390242338180542,-0.1444493383169174,-0.2831880450248718,0.0145619921386241,0.143015369772911,0.0,0.0,-0.2438590742497328,0.8531532183500584
-0.0056747435592114,1.383710265159607,-0.136896938085556,-0.2903896272182464,0.0210538208484649,0.1298487484455108,0.0,0.0,-0.9183905620643708,0.5863934289639992
-0.0069085122086107,1.3770222663879397,-0.1292261034250259,-0.297344297170639,0.0268365051597356,0.1156644597649574,0.0,0.0,-0.9580894826477496,-0.6433313207116931
-0.0081690791994333,1.3701719045639038,-0.1336137056350708,-0.3046106100082397,0.0343030542135238,0.1493451744318008,0.0,0.0,0.1596561276729147,0.6676992766430005
-0.009398078545928,1.363771677017212,-0.129794031381607,-0.2846324145793915,0.0411207303404808,0.1363659799098968,0.0,0.0,0.5730939737035046,0.5979273318843277
-0.0104420660063624,1.3581490516662598,-0.1111901625990867,-0.2500928938388824,0.0478405766189098,0.1344093233346939,0.0,0.0,0.3981280242500165,0.8174792410305121
-0.011459064669907,1.353440523147583,-0.1075480356812477,-0.2094644904136657,0.0536246411502361,0.1156920790672302,0.0,0.0,0.5322909930001902,0.6979768263855562
-0.012451171875,1.3495901823043823,-0.1043600589036941,-0.1713231056928634,0.0587263070046901,0.1020425111055374,0.0,0.0,-0.1388725627845242,0.9727020870663996
-0.013349818997085,1.3455883264541626,-0.0935011282563209,-0.1780053824186325,0.0623273365199565,0.0720272213220596,0.0,0.0,-0.4108267976236248,-0.5906942656519711
-0.0142845157533884,1.3414219617843628,-0.0988565012812614,-0.1854078322649002,0.0676688030362129,0.1068390384316444,0.0,0.0,0.2652810686659188,-0.9812840607227163
-0.015212726779282,1.337906837463379,-0.1009335741400718,-0.1566086113452911,0.0757118687033653,0.16087606549263,0.0,0.0,0.492661154470805,0.7228475684693286
-0.0160365104675292,1.334720253944397,-0.089879535138607,-0.1420254707336425,0.0831555426120758,0.1488868743181228,0.0,0.0,-0.4172301024005531,-0.9696120435034196
-0.016917323693633,1.331377625465393,-0.0977756828069686,-0.1491322517395019,0.092778630554676,0.192479059100151,0.0,0.0,0.5093430509725372,0.5057881317527403
-0.0176753047853708,1.3282965421676636,-0.0854693949222564,-0.1375588029623031,0.102390632033348,0.1922573298215866,0.0,0.0,0.8810269097673593,-0.6189958168532148
-0.0184145923703908,1.3265362977981567,-0.0859892815351486,-0.0791040286421775,0.1143925413489341,0.24005988240242,0.0,0.0,-0.7052575527430194,-0.8859495669851719
-0.0192069057375192,1.324602127075195,-0.0933484211564064,-0.0871102139353752,0.1284490078687667,0.2811546623706817,0.0,0.0,0.6360854630577499,-0.7030395902688409
-0.020053768530488,1.323710322380066,-0.1011197417974472,-0.0411279834806919,0.1448326259851455,0.3277023732662201,0.0,0.0,-0.8189709453704705,-0.5682963499527469
-0.0209533683955669,1.3226518630981443,-0.1083226054906845,-0.0489309802651405,0.1632059514522552,0.3674996793270111,0.0,0.0,0.0098471191189775,0.5039090663808148
-0.0218064300715923,1.3221535682678225,-0.1034609675407409,-0.024247121065855,0.1814219653606414,0.3643530309200287,0.0,0.0,-0.4242026624360866,0.8441944140808917
-0.0225954055786132,1.3215137720108032,-0.095982477068901,-0.0306105706840753,0.1986187547445297,0.3439671397209167,0.0,0.0,0.6368797038421394,-0.6776119517169542
-0.0234094616025686,1.3215378522872925,-0.1007758378982544,-0.0016490349080413,0.2181834578514099,0.3913294672966003,0.0,0.0,-0.243430777687611,-0.640231487490404
-0.0242703445255756,1.3213870525360107,-0.1071927919983863,-0.0099598495289683,0.2395911216735839,0.4281913340091705,0.0,0.0,0.8234694119487576,-0.7481266864472869
-0.025528335943818,1.3220396041870115,-0.1485689580440521,0.025125591084361,0.2628341913223266,0.4649024605751037,0.0,0.0,-0.1080878021324414,-0.9016101452575456
-0.0268736835569143,1.3224914073944092,-0.1600826978683471,0.0152753051370382,0.2890381515026092,0.5240792036056519,0.0,0.0,-0.975375355377844,-0.738422918994169
-0.0282805450260639,1.3227746486663818,-0.16814985871315,0.0068825422786176,0.3174257278442383,0.5677513480186462,0.0,0.0,-0.0855023116605842,-0.8497952230630177
-0.0297724716365337,1.3228814601898191,-0.1790724098682403,-0.0020974988583475,0.3486090004444122,0.623665452003479,0.0,0.0,-0.8162288655794216,0.5215214481697255
-0.0312416069209575,0.0,-0.1763058602809906,-0.0082217836752533,0.3796428143978119,0.6206768751144409,0.0,0.0,-0.8773478965836368,0.8467406484306844
-0.0326565727591514,1.3227332830429075,-0.1696067154407501,-0.0135757951065897,0.4096872508525848,0.6008887887001038,0.0,0.0,0.4501409169029435,0.6289300996111641
-0.0343137755990028,1.3235256671905518,-0.1929326355457306,0.0270586218684911,0.4391427934169769,0.5891111493110657,0.0,0.0,-0.980416476726532,0.9996979236602784
-0.0359132774174213,1.3242099285125732,-0.1857804208993911,0.0220541544258594,0.4674780666828155,0.5667056441307068,0.0,0.0,-0.9486767053604126,0.9999825954437256
-0.0374608039855957,1.324800968170166,-0.1791978031396865,0.0177867077291011,0.4946740567684173,0.5439205169677734,0.0,0.0,-0.9377362132072448,0.9987871646881104
-0.0389486327767372,1.325285792350769,-0.1718341410160064,0.0130281280726194,0.5206812620162964,0.520143985748291,0.0,0.0,-0.960110366344452,0.9998724460601808
-0.0403719916939735,1.32568359375,-0.1637159287929535,0.0092862723395228,0.5451850295066833,0.4900755286216736,0.0,0.0,-0.9799434542655944,0.9966325759887696
-0.0417325012385845,1.3260005712509155,-0.1558405309915542,0.0058972015976905,0.5681613683700562,0.4595267176628113,0.0,0.0,-0.9294589757919312,0.995090126991272
-0.0430312156677246,1.3262227773666382,-0.1481975764036178,0.0019030051771551,0.5897756814956665,0.4322866797447204,0.0,0.0,-0.9697576761245728,0.9996721744537354
-0.0442652702331543,1.3263695240020752,-0.140123039484024,-0.0010863305069506,0.6097528338432312,0.3995432257652282,0.0,0.0,-0.8824997544288635,0.9997754096984864
-0.0454442985355854,1.3264360427856443,-0.1332557201385498,-0.0043215323239564,0.6283485889434814,0.3719152510166168,0.0,0.0,-0.970184087753296,0.998115301132202
-0.0465571396052837,1.326423168182373,-0.1251201033592224,-0.0073877675458788,0.6453253626823425,0.3395351767539978,0.0,0.0,-0.9058009386062622,0.997011661529541
-0.0476202964782714,1.3263214826583862,-0.1190482601523399,-0.0109987100586295,0.6611449122428894,0.3163924217224121,0.0,0.0,-0.8498797416687012,0.9949116706848145
-0.0486055389046669,1.32615065574646,-0.1095301881432533,-0.0133740790188312,0.6749844551086426,0.2767910361289978,0.0,0.0,-0.9775864481925964,0.9803099632263184
-0.049512006342411,1.3259005546569824,-0.1000963076949119,-0.0162069927901029,0.6869754791259766,0.2398204505443573,0.0,0.0,-0.9632478952407836,0.9690165519714355
-0.0503433234989643,1.325577974319458,-0.0910509973764419,-0.0186979230493307,0.697108268737793,0.2026557028293609,0.0,0.0,-0.9655690789222716,0.9325108528137208
-0.0511099807918071,1.325157642364502,-0.0835238769650459,-0.0225414875894784,0.7059557437896729,0.1769489198923111,0.0,0.0,-0.9966385960578918,0.9494690895080566
-0.0518025383353233,1.324652075767517,-0.0747921243309974,-0.0256384573876857,0.7131648063659668,0.1441826820373535,0.0,0.0,-0.9953345656394958,0.8184912204742432
-0.052428912371397,1.3240565061569214,-0.0670769959688186,-0.0290420558303594,0.7189784646034241,0.1162732020020484,0.0,0.0,-0.986525297164917,0.6599578857421875
-0.05301408842206,1.323352336883545,-0.0624642185866832,-0.0336232110857963,0.7241696715354919,0.1038245186209678,0.0,0.0,-0.9878320693969728,0.685537576675415
-0.0535562522709369,1.3225380182266235,-0.0576666593551635,-0.0382351316511631,0.7287311553955078,0.0912297293543815,0.0,0.0,-0.9476368427276612,0.6766884326934814
-0.0540432929992675,1.3216172456741333,-0.0514699816703796,-0.0425774231553077,0.7323991060256958,0.0733596011996269,0.0,0.0,-0.920493483543396,0.506080150604248
-0.0544758811593055,1.3205890655517578,-0.0453749038279056,-0.0469629019498825,0.735212504863739,0.0562682636082172,0.0,0.0,-0.9939458966255188,0.3489347696304321
-0.0548881515860557,1.3194053173065186,-0.0437311716377735,-0.0541247688233852,0.7385484576225281,0.0667185932397842,0.0,0.0,-0.92687726020813,0.6559875011444092
-0.0552324280142784,1.318123459815979,-0.036014012992382,-0.0579416677355766,0.7406697869300842,0.0424275062978267,0.0,0.0,-0.9844856262207032,0.1480493545532226
-0.0555525794625282,1.316685438156128,-0.033962182700634,-0.0651014372706413,0.7432773113250732,0.0521501488983631,0.0,0.0,-0.8793781399726868,0.2875728607177734
-0.0558466911315918,0.0,-0.0316982790827751,-0.072260282933712,0.7463507056236267,0.0614668652415275,0.0,0.0,-0.9558263421058656,0.7027202844619751
-0.0560778602957725,1.3133846521377563,-0.0247530527412891,-0.0768549740314483,0.7485546469688416,0.0440786704421043,0.0,0.0,-0.9888129830360411,0.5842123031616211
-0.056243322789669,1.3115785121917725,-0.0173658262938261,-0.0807831808924675,0.7496618628501892,0.0221438966691494,0.0,0.0,-0.9812657833099364,0.5671837329864502
-0.0563383102416992,0.0,-0.0094624366611242,-0.0847080871462822,0.7496040463447571,-0.0011560607235878,0.0,0.0,-0.9642143845558168,0.3411581516265869
-0.056399155408144,1.3076083660125732,-0.006309809628874,-0.0918611660599708,0.7499156594276428,0.0062322588637471,0.0,0.0,-0.7856000661849976,0.3896842002868652
-0.0564235672354698,1.3053873777389526,-0.0029266164638102,-0.0990126579999923,0.7505686283111572,0.0130596132948994,0.0,0.0,-0.9707849025726318,0.3691951036453247
-0.0564096458256244,1.3030086755752563,0.0006895448896102,-0.1061624959111213,0.7515333890914917,0.0192947667092084,0.0,0.0,-0.950486183166504,0.5514217615127563
-0.0563304908573627,1.3005104064941406,0.0077556632459163,-0.1111334264278411,0.7517468333244324,0.0042691137641668,0.0,0.0,-0.9817465543746948,0.4378013610839844
-0.0562086105346679,1.2978538274765017,0.0118428114801645,-0.1182795986533165,0.7522082924842834,0.0092297345399856,0.0,0.0,-0.817559540271759,0.5713976621627808
-0.056009005755186,1.29508638381958,0.020447090268135,-0.1227021366357803,0.7515556812286377,-0.0130520593374967,0.0,0.0,-0.973156213760376,0.3256845474243164
-0.055762480944395,1.2921597957611084,0.0250087827444076,-0.1298443675041198,0.7510818839073181,-0.0094754509627819,0.0,0.0,-0.8661436438560486,0.6496810913085938
-0.0554379448294639,1.289115309715271,0.0335489735007286,-0.1346334666013717,0.7495970726013184,-0.0296967327594757,0.0,0.0,-0.9596781134605408,0.6328184604644775
-0.0550288185477256,1.2859680652618408,0.0430291518568992,-0.1385653913021087,0.7467405796051025,-0.0571285262703895,0.0,0.0,-0.975103497505188,0.6980413198471069
-0.0545179359614849,1.2827173471450806,0.0544754043221473,-0.1423968374729156,0.7421963810920715,-0.0908840000629425,0.0,0.0,-0.906678020954132,0.1392183303833007
-0.0539519302546978,1.2793066501617432,0.0599822998046875,-0.1495316475629806,0.7376805543899536,-0.0903167948126792,0.0,0.0,-0.9769749641418456,0.2985900640487671
-0.0533287040889263,1.27573561668396,0.0657210797071456,-0.1566642671823501,0.7331539392471313,-0.0905306115746498,0.0,0.0,-0.9920855164527892,0.0213429927825927
-0.0526463501155376,1.2720037698745728,0.0716892704367637,-0.1637946963310241,0.7285775542259216,-0.0915276929736137,0.0,0.0,-0.9262570142745972,0.0144438743591308
-0.0519028678536415,1.268110990524292,0.0778839737176895,-0.1709230095148086,0.723912239074707,-0.093305729329586,0.0,0.0,-0.9783939719200134,-0.1635955572128296
-0.051096249371767,1.2640565633773804,0.0843018814921379,-0.1780492514371872,0.7191193699836731,-0.0958578288555145,0.0,0.0,-0.97822105884552,0.3597750663757324
-0.0502246841788291,1.259840726852417,0.090939275920391,-0.1851735115051269,0.7141607403755188,-0.0991728082299232,0.0,0.0,-0.9791018962860109,0.41951584815979
-0.0492863655090332,1.2554627656936646,0.0977921113371849,-0.1922958493232727,0.70899897813797,-0.1032353192567825,0.0,0.0,-0.9778491854667664,0.2007960081100464
-0.0482794754207134,1.2509227991104126,0.1048560291528701,-0.1994164288043975,0.7035976648330688,-0.1080263704061508,0.0,0.0,-0.9427574276924132,-0.3377158641815185
-0.0472022071480751,1.2462201118469238,0.1121263355016708,-0.2065353393554687,0.6979215145111084,-0.1135236024856567,0.0,0.0,-0.906818151473999,-0.0629563927650451
-0.0460527427494525,1.2413547039031982,0.1195980906486511,-0.2136527001857757,0.6919364333152771,-0.1197019070386886,0.0,0.0,-0.9348899126052856,0.2194225788116455
-0.0448295585811138,1.2363262176513672,0.1272661089897155,-0.2207686752080917,0.685609757900238,-0.1265337169170379,0.0,0.0,-0.9510822892189026,0.609574556350708
-0.0435040481388568,1.2311758995056152,0.1386899650096893,-0.2255875468254089,0.677808403968811,-0.15602707862854,0.0,0.0,-0.9241596460342408,0.5251238346099854
-0.0420743934810161,1.2258880138397217,0.150158554315567,-0.2311743050813675,0.6687089204788208,-0.1819900572299957,0.0,0.0,-0.9526706337928772,0.3599874973297119
-0.0405665412545204,1.2204370498657229,0.1583850681781768,-0.2382892817258834,0.6591787338256836,-0.1906041353940963,0.0,0.0,-0.9108389019966124,-0.0365670919418334
-0.0389788635075092,1.214822769165039,0.1667855381965637,-0.2454037368297577,0.64919114112854,-0.1997505277395248,0.0,0.0,-0.9583972096443176,0.1228818893432617
-0.0373100265860557,1.2090455293655396,0.1753541082143783,-0.2525178492069244,0.6387212872505188,-0.2093976289033889,0.0,0.0,-0.8522055149078369,-0.3551019430160522
-0.0355587005615234,1.2031049728393557,0.184084802865982,-0.259631872177124,0.6277455687522888,-0.219514325261116,0.0,0.0,-0.950187087059021,-0.4261779189109802
-0.0337236411869525,1.1970010995864868,0.1929715871810913,-0.2667459547519684,0.6162420511245728,-0.2300702631473541,0.0,0.0,-0.8132375478744507,-0.374775767326355
-0.0318036079406738,1.1907340288162231,0.2020084112882614,-0.2738603353500366,0.6041902899742126,-0.2410358637571334,0.0,0.0,-0.8508089780807495,-0.1364316940307617
-0.029797364026308,1.1843039989471436,0.2111893147230148,-0.2809752523899078,0.5915712118148804,-0.2523829340934753,0.0,0.0,-0.8697538375854492,-0.5817402601242065
-0.0277319904416799,1.1776821613311768,0.2168831825256347,-0.2897228896617889,0.579313337802887,-0.2451570779085159,0.0,0.0,-0.9129596948623656,-0.4988678097724914
-0.0255781169980764,1.1708972454071045,0.2263323068618774,-0.296837717294693,0.5664539933204651,-0.2571870982646942,0.0,0.0,-0.8220106363296509,-0.6366777420043945
-0.023378562182188,1.1639127731323242,0.2303473651409149,-0.3060667216777801,0.5543456673622131,-0.242166593670845,0.0,0.0,-0.5103883147239685,-0.3197280764579773
-0.0210883133113384,1.1567652225494385,0.2400400638580322,-0.3131812810897827,0.541606605052948,-0.254781424999237,0.0,0.0,-0.6337333917617798,-0.7556790113449097
-0.0187474247068166,1.1494207382202148,0.2446410208940506,-0.3222378492355346,0.5294950008392334,-0.2422318905591964,0.0,0.0,-0.5649545192718506,-0.4221989512443542
-0.0163139346987009,1.1419131755828855,0.2545539736747741,-0.3293525874614715,0.5167277455329895,-0.2553445696830749,0.0,0.0,-0.5382406711578369,-0.6116307377815247
-0.0138314245268702,1.1342027187347412,0.2588764727115631,-0.3387148082256317,0.5047043561935425,-0.240467220544815,0.0,0.0,0.1460394859313964,-0.5896589159965515
-0.0115295406430959,1.1271347999572754,0.2403093129396438,-0.3104508519172668,0.4933349788188934,-0.2273873835802078,0.0,0.0,-0.4209662675857544,-0.5035589337348938
-0.009168243035674,1.1198742389678955,0.2459332197904586,-0.3192141354084015,0.482381671667099,-0.2190664261579513,0.0,0.0,-0.2499454021453857,0.1218084096908569
-0.0067109107039868,1.1124505996704102,0.2562171816825866,-0.3263279497623443,0.4707337915897369,-0.2329578101634979,0.0,0.0,0.0813347101211547,-0.6128969788551331
-0.0043507576920092,1.105487823486328,0.2459677904844284,-0.3061167895793915,0.4597417414188385,-0.2198412418365478,0.0,0.0,0.0879315137863159,-0.6620081067085266
-0.0021959305740892,1.0989691019058228,0.2249098718166351,-0.2866368889808655,0.4493781924247741,-0.207271009683609,0.0,0.0,-0.1001099944114685,0.0284401178359985
5.683898780262098e-05,1.092287302017212,0.235415905714035,-0.2937508225440979,0.4382984936237335,-0.2215946614742279,0.0,0.0,0.0787174701690673,-0.1516774892807006
0.0022555352188646,1.08587384223938,0.2307873517274856,-0.2816770672798157,0.4264214038848877,-0.2375418841838836,0.0,0.0,-0.3242875337600708,-0.3326133489608764
0.0045531271025538,1.0792977809906006,0.2414182871580124,-0.2887944877147674,0.4138165414333343,-0.2520974278450012,0.0,0.0,-0.4160019159317016,-0.5211063027381897
0.0069037438370287,1.0725271701812744,0.2462077140808105,-0.2976973354816437,0.4018309414386749,-0.2397122383117675,0.0,0.0,0.4767928123474121,-0.5639966130256653
0.0091557502746582,1.066517949104309,0.2357892245054245,-0.2641183137893677,0.3905028402805328,-0.2265621125698089,0.0,0.0,0.0888351202011108,-0.0103982090950012
0.011452960781753,1.0607064962387085,0.240875169634819,-0.255267322063446,0.3786197900772095,-0.2376612722873687,0.0,0.0,-0.309137225151062,0.1225159168243408
0.0138506889343261,1.0547327995300293,0.2516936957836151,-0.2623870968818664,0.3659909069538116,-0.2525778412818908,0.0,0.0,0.2989530563354492,-0.1352654695510864
0.0161142349243164,1.0494422912597656,0.2391141206026077,-0.2319361567497253,0.3525293171405792,-0.2692318558692932,0.0,0.0,-0.1662281155586242,0.7799280881881714
0.0185477249324321,1.0440382957458496,0.2587908208370209,-0.2364756464958191,0.3363253176212311,-0.3240797519683838,0.0,0.0,0.6870627403259277,-0.8545238375663757
0.0209051128476858,1.0393211841583252,0.2501830756664276,-0.2063545286655426,0.3212524950504303,-0.3014566004276275,0.0,0.0,-0.3388102054595947,-0.8787422776222229
0.023295497521758,1.0344184637069702,0.2525501251220703,-0.214973047375679,0.3072264790534973,-0.2805201411247253,0.0,0.0,-0.4813640117645263,-0.6291252374649048
0.0257438663393259,1.0293394327163696,0.2580316066741943,-0.2229998856782913,0.2935857474803924,-0.2728144526481628,0.0,0.0,-0.0654131174087524,-0.1601870059967041
0.0282937996089458,1.024099588394165,0.2689934074878692,-0.2301281988620758,0.2791816294193268,-0.2880830466747284,0.0,0.0,0.1316512823104858,-0.945680856704712
0.0306617729365825,1.0192394256591797,0.2497224062681198,-0.2135920524597168,0.2659309208393097,-0.2650149166584015,0.0,0.0,0.6876425743103027,-0.8903324007987976
0.0327850356698036,1.0148918628692627,0.2245058119297027,-0.1910683214664459,0.2534956634044647,-0.2487058341503143,0.0,0.0,0.4526821374893188,-0.5391036868095398
0.0348248481750488,1.0110785961151123,0.2159337550401687,-0.167450338602066,0.241332858800888,-0.2432560920715332,0.0,0.0,0.5098391771316528,-0.6593210697174072
0.0368248000741004,1.007804036140442,0.2113763988018036,-0.1437110006809234,0.2297838479280471,-0.2309806644916534,0.0,0.0,0.2773103713989258,-0.1767934560775756
0.0389614105224609,1.0048089027404783,0.2253656685352325,-0.1313305497169494,0.2179300338029861,-0.2370767295360565,0.0,0.0,0.8827167749404907,-0.8940846920013428
0.0410809516906738,1.0028148889541626,0.2224667519330978,-0.0871152877807617,0.2073225229978561,-0.2121501266956329,0.0,0.0,0.8396782875061035,-0.6203247904777527
0.0430974960327148,1.0019779205322266,0.211635559797287,-0.0358310490846633,0.1972613334655761,-0.2012236565351486,0.0,0.0,0.4895151853561401,-0.9080121517181396
0.0451547615230083,1.001381516456604,0.2145960032939911,-0.0253506544977426,0.1883293092250824,-0.1786405146121978,0.0,0.0,0.5917141437530518,-0.4488042593002319
0.0472941398620605,1.0015267133712769,0.223165825009346,0.0075982869602739,0.1790593862533569,-0.1853985339403152,0.0,0.0,0.3975429534912109,-0.9692400097846984
