x_pos,y_pos,x_vel,y_vel,angle,ang_vel,leg_1,leg_2,main_booster,lat_booster
-0.0016037940513342,1.4034919738769531,-0.1625359952449798,-0.3301385641098022,0.0019326217006891,0.0381354875862598,0.0,0.0,-0.4654885530471802,0.9050238132476808
-0.0032147406600415,1.3959503173828125,-0.1611536890268325,-0.3351821303367615,0.0019831042736768,0.0010103128151968,0.0,0.0,0.1093244552612304,0.4672691822052002
-0.0048243524506688,1.388682842254639,-0.1615596711635589,-0.3229979574680328,0.0025767928455024,0.011875064112246,0.0,0.0,-0.5472341179847717,0.6059954166412354
-0.0064866067841649,1.3812810182571411,-0.1659718006849289,-0.3289723992347717,0.0023225708864629,-0.0050850161351263,0.0,0.0,-0.1280471086502075,0.764254093170166
-0.0081699369475245,1.3737493753433228,-0.1663303822278976,-0.3347383439540863,0.0003516318975016,-0.0394225940108299,0.0,0.0,0.1462898254394531,0.2638601064682007
-0.0098546985536813,1.3666505813598633,-0.1670644581317901,-0.3155032396316528,-0.0010429035173729,-0.0278932265937328,0.0,0.0,-0.3230723738670349,0.173785924911499
-0.0116386413574218,1.3594192266464231,-0.1771090924739837,-0.3213959038257599,-0.0023151312489062,-0.0254470016807317,0.0,0.0,-0.5326815843582153,0.2475135326385498
-0.0135241504758596,1.352055311203003,-0.1873922049999237,-0.3272823691368103,-0.003461790503934,-0.0229352004826068,0.0,0.0,-0.5171183943748474,0.4780821800231933
-0.0155134201049804,1.3445591926574707,-0.1978954374790191,-0.3331697285175323,-0.0044807544909417,-0.0203813277184963,0.0,0.0,-0.0846672654151916,0.5241615772247314
-0.0175672527402639,1.3369333744049072,-0.2034272849559784,-0.3389278650283813,-0.0064068660140037,-0.0385257117450237,0.0,0.0,-0.4923979043960571,0.8004698753356934
-0.0196563713252544,1.3291752338409424,-0.2052726745605468,-0.3448295593261719,-0.0100132105872035,-0.0721335858106613,0.0,0.0,-0.8705449104309082,-0.4229745864868164
-0.0218545906245708,1.3212846517562866,-0.2163261622190475,-0.3507183790206909,-0.0134846167638897,-0.0694342032074928,0.0,0.0,-0.6347962617874146,0.5924310684204102
-0.0241068843752145,1.313263773918152,-0.220409482717514,-0.3565368950366974,-0.0182482041418552,-0.0952802374958992,0.0,0.0,-0.7728456854820251,0.5218305587768555
-0.0264254566282033,1.3051044940948486,-0.2260113209486007,-0.3627127707004547,-0.0240264348685741,-0.1155752912163734,0.0,0.0,-0.8670718669891357,0.7779872417449951
-0.028781509026885,1.2968188524246216,-0.2279783934354782,-0.3683979213237762,-0.0315678417682647,-0.1508417278528213,0.0,0.0,-0.7562347054481506,0.7333449125289917
-0.0311838146299123,1.2883895635604858,-0.2310129702091217,-0.3748537898063659,-0.0406871773302555,-0.1824032515287399,0.0,0.0,-0.7409370541572571,0.6120240688323975
-0.0336421020328998,1.279832363128662,-0.2352512180805206,-0.3806337118148803,-0.0511536076664924,-0.2093479186296463,0.0,0.0,-0.6202330589294434,0.812609076499939
-0.0361377708613872,1.2711315155029297,-0.2371307909488678,-0.3871765732765198,-0.0634704530239105,-0.2463589012622833,0.0,0.0,-0.5093441605567932,0.2765039205551147
-0.0387506484985351,1.2622997760772705,-0.2490119040012359,-0.39307701587677,-0.0756387487053871,-0.2433880120515823,0.0,0.0,-0.7538037896156311,0.6280401945114136
-0.0414387695491313,1.2533326148986816,-0.2556033730506897,-0.3992627561092376,-0.0887400731444358,-0.2620502710342407,0.0,0.0,-0.4016693830490112,0.2733529806137085
-0.0442456230521202,1.2442348003387451,-0.2676432132720947,-0.4051656126976013,-0.1016899347305297,-0.2590204179286957,0.0,0.0,-0.6771482825279236,0.7471389770507812
-0.0471122749149799,1.2349936962127686,-0.2722673416137695,-0.4117664992809295,-0.1160067021846771,-0.2863613367080688,0.0,0.0,-0.712277352809906,-0.6527354121208191
-0.0501390472054481,1.225628137588501,-0.2894916236400604,-0.4173207283020019,-0.1291481256484985,-0.2628522217273712,0.0,0.0,-0.770858883857727,0.6736427545547485
-0.0532281883060932,1.2161136865615845,-0.2943904101848602,-0.4241956174373626,-0.1436398476362228,-0.2898605167865753,0.0,0.0,-0.8255808353424072,-0.5490888357162476
-0.0564912781119346,1.206481695175171,-0.3133265376091003,-0.4293934106826782,-0.1566171944141388,-0.2595702111721039,0.0,0.0,-0.6132082939147949,-0.4965522885322571
-0.0598783493041992,1.19669771194458,-0.3258855640888214,-0.4362395703792572,-0.1694391518831253,-0.2564391493797302,0.0,0.0,-0.8199051022529602,0.1746338605880737
-0.0633876770734787,1.1867830753326416,-0.3383016586303711,-0.4421372711658478,-0.1821057498455047,-0.2533318102359772,0.0,0.0,-0.498507022857666,-0.290995717048645
-0.0670198425650596,1.1767377853393557,-0.3507577776908874,-0.4480344653129577,-0.1946168690919876,-0.2502225637435913,0.0,0.0,-0.9255130290985109,-0.3791950941085815
-0.070775032043457,1.1665616035461426,-0.3632503151893616,-0.4539311826229095,-0.2069724798202514,-0.2471123039722442,0.0,0.0,-0.7987394332885742,0.444809079170227
-0.0746535286307334,1.156254529953003,-0.3757758736610412,-0.4598273336887359,-0.2191725820302963,-0.2440017759799957,0.0,0.0,-0.8721922636032104,-0.3814512491226196
-0.0786558166146278,1.1458165645599363,-0.3883314430713653,-0.4657230079174042,-0.2312171906232834,-0.2408917695283889,0.0,0.0,-0.8354458808898926,0.0207325220108032
-0.0827819854021072,1.1352473497390747,-0.400914192199707,-0.4716181755065918,-0.2431063801050186,-0.2377834767103195,0.0,0.0,-0.8488789796829224,0.632185697555542
-0.0869895964860916,1.124537467956543,-0.4081671237945556,-0.4781262278556824,-0.2559366524219513,-0.2566053569316864,0.0,0.0,-0.8031551837921143,-0.4138257503509521
-0.0913215652108192,1.113696813583374,-0.4207973480224609,-0.4840226471424103,-0.2686116993427276,-0.2535010278224945,0.0,0.0,-0.8239325881004333,0.0275572538375854
-0.0957780852913856,1.1027250289916992,-0.4334475100040436,-0.4899185299873352,-0.2811317145824432,-0.2504004836082458,0.0,0.0,-0.7695695757865906,0.0217341184616088
-0.1003594398498535,1.0916223526000977,-0.4461155533790588,-0.4958138763904571,-0.2934969365596771,-0.2473044097423553,0.0,0.0,-0.6104180812835693,-0.2156745195388794
-0.1050656288862228,1.0803885459899902,-0.4587993025779724,-0.5017086863517761,-0.3057076036930084,-0.2442133426666259,0.0,0.0,-0.6649967432022095,-0.1069167256355285
-0.1098968535661697,1.0690234899520874,-0.471497118473053,-0.5076029896736145,-0.3177639842033386,-0.241127923130989,0.0,0.0,-0.4769079089164734,0.3194590806961059
-0.1148532852530479,1.0575271844863892,-0.4842072427272796,-0.5134968161582947,-0.329666405916214,-0.23804871737957,0.0,0.0,-0.359261155128479,0.3384475708007812
-0.1199349388480186,1.0458996295928955,-0.4969280362129211,-0.5193902850151062,-0.3414152264595032,-0.2349762618541717,0.0,0.0,-0.6802324056625366,0.3118239641189575
-0.1251420080661773,1.0341404676437378,-0.5096578001976013,-0.5252832174301147,-0.3530107736587524,-0.2319111078977584,0.0,0.0,-0.7143762111663818,0.2023127079010009
-0.1304744780063629,1.0222499370574951,-0.5223952531814575,-0.5311757326126099,-0.3644534647464752,-0.2288538515567779,0.0,0.0,-0.7202860713005066,0.4514995813369751
-0.135932445526123,1.010227918624878,-0.5351387858390808,-0.5370676517486572,-0.3757437169551849,-0.2258049994707107,0.0,0.0,-0.6481161713600159,0.260591983795166
-0.1415160149335861,0.9980741739273072,-0.5478871464729309,-0.5429592132568359,-0.3868820071220398,-0.2227650880813598,0.0,0.0,-0.4812417030334472,0.0519542694091796
-0.1472252905368805,0.985788643360138,-0.5606388449668884,-0.5488503575325012,-0.3978687524795532,-0.219734713435173,0.0,0.0,-0.4223253726959228,0.4317346811294555
-0.1530601531267166,0.9733715057373048,-0.5733926296234131,-0.5547410845756531,-0.4087044596672058,-0.2167143821716308,0.0,0.0,-0.7281768321990967,-0.0092914104461669
-0.1590207070112228,0.9608225226402284,-0.586147129535675,-0.5606313943862915,-0.4193896949291229,-0.2137047052383422,0.0,0.0,-0.4659280776977539,0.20133638381958
-0.1651069670915603,0.9481415748596193,-0.598901093006134,-0.5665212869644165,-0.4299250245094299,-0.2107061892747879,0.0,0.0,-0.4094008207321167,0.713947057723999
-0.1712774336338043,0.9353073239326476,-0.6064485311508179,-0.5736936330795288,-0.4414602220058441,-0.2307040691375732,0.0,0.0,0.3733476400375366,0.480819821357727
-0.1774086952209472,0.922926127910614,-0.6026485562324524,-0.553622841835022,-0.4529281556606293,-0.2293582409620285,0.0,0.0,0.0166705846786499,0.6670358180999756
-0.1833741217851638,0.9107866287231444,-0.5850720405578613,-0.5433064103126526,-0.4655657112598419,-0.2527509033679962,0.0,0.0,-0.3551729917526245,0.1785258054733276
-0.1894649565219879,0.8985157012939453,-0.5978137254714966,-0.5491991639137268,-0.4780560135841369,-0.2498057633638382,0.0,0.0,0.1894949674606323,-0.0174368619918823
-0.195463940501213,0.8864852786064148,-0.589160680770874,-0.538446307182312,-0.4900358319282532,-0.2395962029695511,0.0,0.0,0.1263023614883422,0.3629202842712402
-0.2013303786516189,0.8750413060188293,-0.5761063694953918,-0.5124160647392273,-0.5018600225448608,-0.2364840507507324,0.0,0.0,0.0805054903030395,0.3449275493621826
-0.2070832252502441,0.8638143539428711,-0.565337598323822,-0.5026490688323975,-0.5130888223648071,-0.2245761454105377,0.0,0.0,0.4534984827041626,0.8324587345123291
-0.2127844840288162,0.8530161380767822,-0.5587224364280701,-0.4842626452445984,-0.5260500907897949,-0.2592250108718872,0.0,0.0,0.5998983383178711,0.461875319480896
-0.2181443274021148,0.8430188894271851,-0.5251536965370178,-0.4485647976398468,-0.5384474992752075,-0.2479487359523773,0.0,0.0,-0.1134703159332275,0.475801944732666
-0.2236288487911224,0.832889974117279,-0.5378290414810181,-0.4544561207294464,-0.5507032871246338,-0.2451162040233612,0.0,0.0,0.1818970441818237,0.4669229984283447
-0.2288841754198074,0.8233401775360107,-0.5153226852416992,-0.4286641180515289,-0.5625713467597961,-0.2373625785112381,0.0,0.0,0.4802634716033935,0.281728982925415
-0.2339461743831634,0.8146064877510071,-0.4959097504615783,-0.3925396203994751,-0.5746158957481384,-0.2408904135227203,0.0,0.0,0.5467791557312012,0.1546003818511963
-0.2389037162065506,0.8061384558677673,-0.4858480989933014,-0.3806843757629394,-0.5863007307052612,-0.2336970269680023,0.0,0.0,0.7399375438690186,0.5495388507843018
-0.2436335980892181,0.7985219359397888,-0.4620512127876282,-0.3434147834777832,-0.5993173122406006,-0.2603319585323334,0.0,0.0,0.7137036323547363,0.4511834383010864
-0.248078778386116,0.7913298010826111,-0.4342762529850006,-0.3243687748908996,-0.6116061210632324,-0.2457762658596038,0.0,0.0,0.9189562797546388,-0.2142782807350158
-0.2522161602973938,0.7848564386367798,-0.4037992060184479,-0.2923997640609741,-0.6236347556114197,-0.2405718266963958,0.0,0.0,0.8898608684539795,-0.1722921133041381
-0.2562016546726227,0.7788016200065613,-0.3888349533081054,-0.273807555437088,-0.6354899406433105,-0.2371037304401397,0.0,0.0,0.9104421138763428,-0.8912535905838013
-0.2600863575935364,0.7736417651176453,-0.3803052008152008,-0.2333816885948181,-0.6455403566360474,-0.2010077685117721,0.0,0.0,0.906598687171936,-0.7672768235206604
-0.2635219097137451,0.7695689797401428,-0.3369539082050323,-0.1843522638082504,-0.6537199020385742,-0.1635900288820266,0.0,0.0,0.9716594219207764,-0.2541629076004028
-0.2667899131774902,0.7656895518302917,-0.3207017779350281,-0.1755526065826416,-0.6613194942474365,-0.1519922614097595,0.0,0.0,0.9584819078445436,-0.5813736319541931
-0.2695642411708832,0.7628905177116394,-0.2725633978843689,-0.126946285367012,-0.6674197912216187,-0.1220068112015724,0.0,0.0,0.8847043514251709,-0.741854727268219
-0.2722638249397278,0.7607530355453491,-0.2663008868694305,-0.0969221293926239,-0.6720207333564758,-0.0920190662145614,0.0,0.0,0.9497638940811156,-0.8852675557136536
-0.2747320234775543,0.7595981955528259,-0.2446564137935638,-0.0524832420051097,-0.6747584939002991,-0.0547554120421409,0.0,0.0,0.7646832466125488,-0.6743178963661194
-0.2769181132316589,0.7591049075126648,-0.2177694588899612,-0.0223671179264783,-0.6758191585540771,-0.0212136637419462,0.0,0.0,0.624531626701355,-0.4471112489700317
-0.2788036465644836,0.759568989276886,-0.1873396039009094,0.0199791193008422,-0.6773486733436584,-0.0305900033563375,0.0,0.0,0.560576319694519,-0.7661382555961609
-0.2804529666900635,0.760520875453949,-0.1652405858039856,0.0424684546887874,-0.6769657135009766,0.0076591870747506,0.0,0.0,0.1093726158142089,-0.7546734809875488
-0.2821245789527893,0.7617211937904358,-0.1688455045223236,0.0542438775300979,-0.6748360991477966,0.0425926856696605,0.0,0.0,0.0076631307601928,-0.3342223167419433
-0.2837576270103454,0.7629814743995667,-0.1652286946773529,0.0570365749299526,-0.672404408454895,0.0486338324844837,0.0,0.0,0.4663809537887573,-0.2575247287750244
-0.2853416800498962,0.7644882202148438,-0.1603154242038726,0.0679777413606643,-0.6699947714805603,0.0481923669576644,0.0,0.0,0.312457799911499,-0.0877936482429504
-0.2866553366184234,0.7666086554527283,-0.1333372145891189,0.0952845513820648,-0.6675110459327698,0.0496750771999359,0.0,0.0,-0.3160336017608642,-0.0554391741752624
-0.2880834937095642,0.7685959339141846,-0.1448777616024017,0.0894031375646591,-0.6649252772331238,0.0517154335975647,0.0,0.0,0.1314647197723388,-0.2732758522033691
-0.2893401086330414,0.7711820006370544,-0.1275189220905304,0.1159007027745246,-0.6625961065292358,0.0465828217566013,0.0,0.0,-0.075834572315216,0.3600937128067016
-0.2907086908817291,0.7736347913742065,-0.1387959122657776,0.1100189685821533,-0.660171389579773,0.0484937876462936,0.0,0.0,0.0177575349807739,-0.0413340926170349
-0.2918694913387298,0.7765083909034729,-0.1181871443986892,0.1288111805915832,-0.6575397849082947,0.0526322051882743,0.0,0.0,-0.3399186730384826,0.4297871589660644
-0.2931392192840576,0.7792491316795349,-0.1291501969099044,0.1229289472103118,-0.654819905757904,0.054397564381361,0.0,0.0,0.0130156278610229,0.3317024707794189
-0.2942895293235779,0.7823819518089294,-0.1171635016798973,0.1403227895498275,-0.6521711349487305,0.0529741235077381,0.0,0.0,-0.3109089136123657,0.2732787132263183
-0.2955450415611267,0.7853818535804749,-0.1277535259723663,0.1344401091337204,-0.6494422554969788,0.0545779541134834,0.0,0.0,-0.3362511396408081,0.1893907785415649
-0.2969036996364593,0.788248598575592,-0.1381321251392364,0.1285571455955505,-0.646637499332428,0.0560951828956604,0.0,0.0,-0.4714715480804443,-0.2452577352523803
-0.2983632683753967,0.7909824252128601,-0.1482811421155929,,-0.643761396408081,0.0575221590697765,0.0,0.0,-0.1316378116607666,0.4113855361938476
-0.2999212145805359,0.7935835719108582,-0.158181220293045,0.1167904511094093,-0.6408186554908752,0.058855403214693,0.0,0.0,-0.1097671389579773,0.3032386302947998
-0.3015748858451843,0.7960516214370728,-0.1678118705749511,0.1109066754579544,-0.6378141045570374,0.0600916035473346,0.0,0.0,-0.1838502883911132,0.247175931930542
-0.3033214509487152,0.7983870506286621,-0.1771515011787414,0.1050226017832756,-0.6347527503967285,0.0612276270985603,0.0,0.0,0.2856767177581787,0.1897356510162353
-0.304814726114273,0.8012997508049011,-0.1518472731113433,0.1306871920824051,-0.6316601634025574,0.0618517771363258,0.0,0.0,0.4354575872421264,0.4147763252258301
-0.3059834539890289,0.8048535585403442,-0.1195492520928382,0.1592528671026229,-0.6283969283103943,0.0652647316455841,0.0,0.0,-0.381816029548645,0.6536574363708496
-0.3071846961975097,0.8082229495048523,-0.1214291453361511,0.1503794491291046,-0.6268005967140198,0.0319262072443962,0.0,0.0,-0.3317346572875976,0.3183220624923706
-0.3084650039672851,0.811459481716156,-0.1293688267469406,0.144494742155075,-0.6251688599586487,0.0326347053050994,0.0,0.0,-0.4947379827499389,0.547386884689331
-0.3097895085811615,0.814528226852417,-0.1329250335693359,0.136613130569458,-0.6245936155319214,0.0115046249702572,0.0,0.0,-0.3084019422531128,0.2629262208938598
-0.3111847043037414,0.8174642324447632,-0.1400145292282104,0.1307279765605926,-0.6239943504333496,0.0119855524972081,0.0,0.0,-0.1107138991355896,0.1368553638458252
-0.3126460611820221,0.8202677369117737,-0.146640658378601,0.1248425468802452,-0.6233768463134766,0.012350627221167,0.0,0.0,0.0945342779159545,-0.0119822025299072
-0.3139278888702392,0.8236527442932129,-0.1283902525901794,0.1505405604839325,-0.6231282353401184,0.0049720229580998,0.0,0.0,-0.213994026184082,0.443863034248352
-0.315265953540802,0.8269051909446716,-0.1340151131153106,0.1446545869112014,-0.622873067855835,0.0051030050963163,0.0,0.0,-0.4411191940307617,0.3283565044403076
-0.3166548609733581,0.8300251364707947,-0.1391040384769439,0.1387683302164077,-0.622617244720459,0.0051164170727133,0.0,0.0,-0.3539323210716247,-0.0380271673202514
-0.3180891871452331,0.833012580871582,-0.1436353772878646,0.1328817754983902,-0.6223666071891785,0.0050124335102736,0.0,0.0,-0.0862423181533813,0.1752567291259765
-0.319563090801239,0.8358680605888367,-0.1475894004106521,0.1269949227571487,-0.6221270561218262,0.0047914297319948,0.0,0.0,-0.1263060569763183,-0.1456028819084167
-0.3210707604885101,0.8385910391807556,-0.1509486734867096,0.1211078017950058,-0.6219043731689453,0.004454038105905,0.0,0.0,0.0283035039901733,0.1521439552307129
-0.3224923014640808,0.8416609168052673,-0.1419615894556045,0.1363507062196731,-0.6221375465393066,-0.0046633621677756,0.0,0.0,-0.1248276233673095,0.3392395973205566
-0.3239353597164154,0.8445985913276672,-0.1440897583961486,0.130463033914566,-0.6223990321159363,-0.0052301110699772,0.0,0.0,0.0918077230453491,0.3048222064971924
-0.3252185881137848,0.8476659059524536,-0.1282321214675903,0.1362804323434829,-0.6225069761276245,-0.0021590664982795,0.0,0.0,-0.3749456405639648,0.3438887596130371
-0.3265107274055481,0.8506010174751282,-0.1290942728519439,0.1303921937942505,-0.622654378414154,-0.0029484305996447,0.0,0.0,-0.3394365310668945,0.0068943500518798
-0.3278054594993591,0.8534041047096252,-0.1293187588453292,0.1245037093758583,-0.6228466629981995,-0.0038458690978586,0.0,0.0,0.1051421165466308,0.414850115776062
-0.3286855816841125,0.8566879630088806,-0.0881725624203682,0.1460268497467041,-0.6226476430892944,0.0039801751263439,0.0,0.0,-0.6897336840629578,0.3970577716827392
-0.3295556604862213,0.8598398566246033,-0.0871294736862182,0.1401378363370895,-0.6225038766860962,0.0028748321346938,0.0,0.0,-0.6705629229545593,0.4923052787780761
-0.3304096162319183,0.8628596663475037,-0.0854632407426834,0.134248599410057,-0.6224203705787659,0.0016701439162716,0.0,0.0,-0.3913899660110473,0.4380134344100952
-0.3312413096427917,0.8657475709915161,-0.0831851288676261,0.1283591389656067,-0.6224018931388855,0.0003693425678648,0.0,0.0,-0.5983356833457947,0.2311208248138427
-0.3320448398590088,0.8685035705566406,-0.0803092718124389,0.1224694401025772,-0.6224530935287476,-0.0010238003451377,0.0,0.0,-0.5425869226455688,0.4420759677886963
-0.3328143656253814,0.871127724647522,-0.0768523067235946,0.1165795251727104,-0.6225783824920654,-0.0025056081358343,0.0,0.0,-0.3297805190086365,0.1269831657409668
-0.3335443437099457,0.8736199736595154,-0.0728330835700035,0.1106894016265869,-0.6227819919586182,-0.00407220935449,0.0,0.0,-0.5484236478805542,0.5286781787872314
-0.3341974318027496,0.875945508480072,-0.0641631036996841,0.1028151735663414,-0.6241735219955444,-0.0278300605714321,0.0,0.0,-0.3677964210510254,0.4100173711776733
-0.3348004221916199,0.8781394958496094,-0.0590830668807029,0.0969245359301567,-0.6256511807441711,-0.0295536331832408,0.0,0.0,-0.7679318785667419,-0.1148785352706909
-0.33534836769104,0.8802017569541931,-0.0535069480538368,0.0910336822271347,-0.6272186636924744,-0.0313492231070995,0.0,0.0,-0.5368756055831909,-0.0110825896263122
-0.3358365595340729,0.882132351398468,-0.0474587567150592,0.0851426273584365,-0.6288793087005615,-0.0332126468420028,0.0,0.0,-0.742849588394165,-0.0642278790473938
-0.3362606167793274,0.8839311003684998,-0.0409629605710506,0.0792513862252235,-0.6306362748146057,-0.0351397506892681,0.0,0.0,-0.6310215592384338,0.0097044706344604
