x_pos,y_pos,x_vel,y_vel,angle,ang_vel,leg_1,leg_2,main_booster,lat_booster
-0.0014925956493243,1.402979850769043,-0.1517486274242401,-0.3529054820537567,0.0022315548267215,0.0440540201961994,0.0,0.0,-0.480816962531005,-0.8715587233429909
-0.0030166625510901,1.394413709640503,-0.1566888988018036,-0.3807336091995239,0.0064679221250116,0.0847359746694564,0.0,0.0,-0.9966388837683862,-0.1683912090147333
-0.0045094490051269,1.385202407836914,-0.1540600359439849,-0.4094130098819732,0.0111935269087553,0.0945209413766861,0.0,0.0,-0.7888046502504886,0.979308021456786
-0.0059091569855809,1.3753446340560913,-0.1436830461025238,-0.4381574392318725,0.0148612530902028,0.0733613222837448,0.0,0.0,0.2412686675098314,0.1864406462565832
-0.0071880342438817,1.365579605102539,-0.1325740814208984,-0.4340636432170868,0.0194960497319698,0.092704564332962,0.0,0.0,0.2997344966324886,0.8531860964432328
-0.0082537652924656,1.3558149337768557,-0.1101943403482437,-0.4340345561504364,0.0230813175439834,0.0717117190361023,0.0,0.0,0.1208012281486239,0.1871157546281566
-0.0093127246946096,1.3459928035736084,-0.109958566725254,-0.4366054832935333,0.0271065458655357,0.0805119797587394,0.0,0.0,0.6562926454225602,0.4026534013924145
-0.0102083208039402,1.3365049362182615,-0.0948760360479354,-0.4217835366725921,0.0323620997369289,0.1051207184791565,0.0,0.0,-0.9276121193575342,-0.06627189600541
-0.0110730174928903,1.3263731002807615,-0.0923061519861221,-0.4504474103450775,0.0381377078592777,0.1155228838324546,0.0,0.0,0.3796568933463105,0.1596312240011
-0.0119305606931447,1.3165063858032229,-0.0921245366334915,-0.4386940896511078,0.0444347038865089,0.125951200723648,0.0,0.0,0.1808306514318871,0.322079568610244
-0.0127147678285837,1.3066365718841553,-0.0856078639626503,-0.4388898611068725,0.0515515096485614,0.1423490047454834,0.0,0.0,0.2517241955147422,0.9118120707852416
-0.0133551601320505,1.296730875968933,-0.0699820518493652,-0.4404686391353607,0.0574322044849395,0.1176250800490379,0.0,0.0,0.6510332346518339,-0.2021723251424186
-0.0138751985505223,1.2872393131256104,-0.0590987503528595,-0.4221325814723968,0.0644628554582595,0.1406259387731552,0.0,0.0,0.128160558454117,0.7727424883527747
-0.014265346340835,1.277470946311951,-0.0451496466994285,-0.4344273209571838,0.070543460547924,0.1216232404112815,0.0,0.0,-0.1348880170311064,-0.4604411456173923
-0.0146251674741506,1.2670589685440063,-0.0426689721643924,-0.4630875289440155,0.077163740992546,0.1324178576469421,0.0,0.0,-0.0360025614462615,-0.367919165074593
-0.0149550437927246,1.2560033798217771,-0.0402086079120636,-0.4917487800121307,0.084324836730957,0.1432348191738128,0.0,0.0,-0.4778032378944072,-0.2864803368419835
-0.0152550693601369,1.2443041801452637,-0.0377690233290195,-0.5204118490219116,0.0920289531350135,0.1540964543819427,0.0,0.0,0.1278279285331804,-0.1850852714653993
-0.0154520990327,1.2323575019836426,-0.0284773614257574,-0.5315296053886414,0.1007337570190429,0.1741118431091308,0.0,0.0,-0.9611393670476288,-0.1742594473239671
-0.0156198497861623,1.219767689704895,-0.0260846614837646,-0.560199499130249,0.1099845767021179,0.185033231973648,0.0,0.0,0.2774582258992757,-0.7316538633119516
-0.0159337036311626,1.207166314125061,-0.0425966493785381,-0.5609204769134521,0.1211448088288307,0.2232248336076736,0.0,0.0,0.6919224873402969,0.0954619706620458
-0.0161821357905864,1.195093035697937,-0.0372033230960369,-0.5376386642456055,0.1334631443023681,0.2463888376951217,0.0,0.0,0.0356085822649234,-0.3362414344761675
-0.0164318084716796,1.1827919483184814,-0.0378903858363628,-0.5479331612586975,0.146365538239479,0.2580712437629699,0.0,0.0,-0.5782312856728402,-0.1101216569826754
-0.0166534427553415,1.169849157333374,-0.0356116816401481,-0.5766102075576782,0.1598195284605026,0.2691039741039276,0.0,0.0,-0.321679177582908,0.919353628883058
-0.0167661663144826,1.1562743186950684,-0.0232031811028718,-0.6046579480171204,0.1717785894870758,0.2392024993896484,0.0,0.0,0.0480749391941919,0.9980251050652316
-0.0169508941471576,1.1426559686660769,-0.0289937015622854,-0.6065137386322021,0.1823446154594421,0.2113394290208816,0.0,0.0,-0.6741954454467662,-0.2844510251605292
-0.0171055793762207,1.1283745765686035,-0.0265437122434377,-0.6361306309700012,0.1934666782617569,0.2224409878253936,0.0,0.0,0.0689243081331723,0.8215831869212119
-0.0172576904296875,1.1141676902770996,-0.0251708813011646,-0.6327470541000366,0.2034939378499984,0.2005451172590255,0.0,0.0,-0.0443593891667017,0.4255645426557076
-0.0173830036073923,1.0993192195892334,-0.0230251885950565,-0.6614182591438293,0.214079812169075,0.2117179185152053,0.0,0.0,-0.4621686032552179,0.5248464805595835
-0.0174508094787597,1.083843469619751,-0.0169891342520713,-0.6893242001533508,0.2243946939706802,0.2062977105379104,0.0,0.0,0.3205066260320894,0.1065648423239028
-0.0175959579646587,1.0682904720306396,-0.0251545123755931,-0.6929046511650085,0.2351923733949661,0.2159534692764282,0.0,0.0,-0.8924020524774083,-0.2605930275522915
-0.0177155490964651,1.0520961284637451,-0.023132923990488,-0.7215785384178162,0.2465513497591018,0.2271794080734253,0.0,0.0,-0.1719621419906616,0.9924437999725342
-0.0177430156618356,1.0352797508239746,-0.012737919576466,-0.749106764793396,0.2567316889762878,0.2036065310239792,0.0,0.0,0.1406123638153076,0.999596118927002
-0.0178774837404489,1.018638014793396,-0.0219873692840337,-0.7411596179008484,0.2654581069946289,0.1745282709598541,0.0,0.0,-0.3066438436508178,0.9994900226593018
-0.0179182048887014,1.0013731718063354,-0.0113872932270169,-0.7686684727668762,0.272946685552597,0.1497721374034881,0.0,0.0,0.2297627925872802,0.998293399810791
-0.0179720874875783,0.9841803312301636,-0.0112675409764051,-0.7652392983436584,0.2789752185344696,0.1205708011984825,0.0,0.0,0.2723482847213745,0.9802170991897584
-0.0180747024714946,0.9672306180000304,-0.0147469891235232,-0.754176914691925,0.2835774421691894,0.0920450538396835,0.0,0.0,0.2728691101074219,0.9997748136520386
-0.018199061974883,0.9501620531082152,-0.0154893323779106,-0.759199321269989,0.2867151498794555,0.0627544075250625,0.0,0.0,0.2374709844589233,0.9995938539505004
-0.0183566100895404,0.9333261847496032,-0.0173761881887912,-0.7485769391059875,0.2883842587471008,0.0333820097148418,0.0,0.0,-0.4574912786483764,0.999685287475586
-0.0184245109558105,0.915889859199524,-0.0071038315072655,-0.7750104069709778,0.2887101471424103,0.0065177888609468,0.0,0.0,0.2111628055572509,0.9991357326507568
-0.0185000412166118,0.8984971046447754,-0.0064424769952893,-0.772796630859375,0.2875716984272003,-0.0227691158652305,0.0,0.0,0.538015604019165,0.9998335838317872
-0.0187959671020507,0.8814978003501892,-0.0269563533365726,-0.7550116181373596,0.2848605215549469,-0.0542235895991325,0.0,0.0,0.3971959352493286,0.9978580474853516
-0.0190055854618549,0.8645749688148499,-0.0169632788747549,-0.7513478994369507,0.2807594835758209,-0.0820205956697464,0.0,0.0,0.3769828081130981,0.9940320253372192
-0.0191017147153615,0.8474475741386414,-0.0042597921565175,-0.760197639465332,0.2752675712108612,-0.1098385229706764,0.0,0.0,-0.2003242969512939,0.9144432544708252
-0.0190989486873149,0.8297105431556702,0.0071926107630133,-0.7870289087295532,0.2681839168071747,-0.1416729241609573,0.0,0.0,0.196955919265747,0.7900899648666382
-0.0191062930971384,0.8116424679756165,0.007215223275125,-0.8015879392623901,0.2600464522838592,-0.162749245762825,0.0,0.0,-0.0412492156028747,0.8105089664459229
-0.0190296173095703,0.7929512858390808,0.0168136917054653,-0.8291284441947937,0.250717282295227,-0.1865836530923843,0.0,0.0,0.2152261734008789,0.1974854469299316
-0.0189754478633403,0.7741125822067261,0.0138079272583127,-0.8358643054962158,0.2421612292528152,-0.1711206287145614,0.0,0.0,0.5304841995239258,0.9201269149780272
-0.0191374775022268,0.7557503581047058,-0.0063603809103369,-0.814516007900238,0.2321694642305374,-0.1998353451490402,0.0,0.0,-0.2378377318382263,0.477949857711792
-0.0192856788635253,0.7367463111877441,-0.0055154762230813,-0.8431884050369263,0.22274249792099,-0.1885394603013992,0.0,0.0,0.3523268699645996,0.9058778285980223
-0.0194621086120605,0.7177242636680603,-0.0070529170334339,-0.843867301940918,0.2120410203933715,-0.2140296250581741,0.0,0.0,0.3971558809280395,0.5870254039764404
-0.0195531845092773,0.6988248825073242,0.001830011839047,-0.8384379744529724,0.2010018676519394,-0.2207826375961303,0.0,0.0,0.5832381248474121,0.699133038520813
-0.019779872149229,0.6803246736526489,-0.0107250921428203,-0.8206539154052734,0.1889961957931518,-0.2401135414838791,0.0,0.0,-0.5112251043319702,0.249677300453186
-0.019995879381895,0.6611829996109009,-0.0102087957784533,-0.8493280410766602,0.17755226790905,-0.2288786917924881,0.0,0.0,0.9753410816192628,0.8849062919616699
-0.0202987678349018,0.6428356766700745,-0.0176579151302576,-0.8139764666557312,0.164897620677948,-0.2530929446220398,0.0,0.0,0.6547871828079224,0.4027490615844726
-0.0205258373171091,0.6246062517166138,-0.0112894792109727,-0.8089786767959595,0.1534926146268844,-0.228100299835205,0.0,0.0,0.8701162338256836,0.5240620374679565
-0.0208985321223735,0.6065064072608948,-0.0250108242034912,-0.8032169938087463,0.1412641108036041,-0.2445703297853469,0.0,0.0,0.4010281562805176,0.4005403518676758
-0.0212800987064838,0.5887852907180786,-0.0268131997436285,-0.7865675687789917,0.1299604028463363,-0.226074069738388,0.0,0.0,0.1112658977508544,0.447771668434143
-0.0216219909489154,0.5711147785186768,-0.0238107684999704,-0.7844849824905396,0.1196402087807655,-0.2064040154218673,0.0,0.0,0.2628169059753418,0.7576067447662354
-0.0219103805720806,0.5537691712379456,-0.01755266264081,-0.7700473070144653,0.1084328517317771,-0.2241474688053131,0.0,0.0,0.589566707611084,0.6472588777542114
-0.0223043449223041,0.5369098782539368,-0.0271839443594217,-0.7484591007232666,0.0963059589266777,-0.2425378859043121,0.0,0.0,-0.0164732933044433,0.3686611652374267
-0.0226943008601665,0.5194084048271179,-0.0273099988698959,-0.7771292328834534,0.0847259536385536,-0.2316003143787384,0.0,0.0,0.8410868644714355,0.308847427368164
-0.0232583992183208,0.5024187564849854,-0.0447354987263679,-0.7544753551483154,0.0731728076934814,-0.2310629338026046,0.0,0.0,0.6703814268112183,0.4807126522064209
-0.0237334258854389,0.4855824112892151,-0.0369595699012279,-0.7477972507476807,0.0627376064658165,-0.2087039202451706,0.0,0.0,0.5859760046005249,0.2656717300415039
-0.0242209434509277,0.4689862728118896,-0.038839403539896,-0.7372228503227234,0.0529435984790325,-0.1958803385496139,0.0,0.0,0.7337050437927246,0.6239025592803955
-0.0246710777282714,0.4523771703243255,-0.0344130992889404,-0.7378389239311218,0.0424630232155323,-0.2096115052700042,0.0,0.0,0.8698215484619141,-0.2023741602897644
-0.0252890586853027,0.4361186027526855,-0.0510721430182457,-0.7223284244537354,0.0318620502948761,-0.2120195180177688,0.0,0.0,0.3479992151260376,-0.1844520568847656
-0.0259119980037212,0.4202646911144256,-0.0521698407828807,-0.7044299840927124,0.0218645893037319,-0.199949100613594,0.0,0.0,0.6377310752868652,-0.0630413889884948
-0.0264607425779104,0.4042050540447235,-0.0456551015377044,-0.7136579155921936,0.0127603504806756,-0.182084709405899,0.0,0.0,0.7257128953933716,0.0955924987792968
-0.0269941333681345,0.3888397216796875,-0.044764868915081,-0.6828542351722717,0.004297150298953,-0.1692639887332916,0.0,0.0,0.8380619287490845,-0.4255673289299011
-0.0276366230100393,0.3736199140548706,-0.0556915998458862,-0.6764342188835144,-0.0041467519477009,-0.1688782125711441,0.0,0.0,0.1107316017150878,-0.0198490619659423
-0.0283415801823139,0.3584396243095398,-0.0621631033718586,-0.6747288107872009,-0.0123802376911044,-0.1646695286035537,0.0,0.0,0.929473876953125,-0.1412670016288757
-0.0290050506591796,0.3437047898769378,-0.0586664602160453,-0.6549643874168396,-0.0199599210172891,-0.1515936851501464,0.0,0.0,0.9403233528137208,-0.5178042054176331
-0.0298535339534282,0.3298250436782837,-0.0782125368714332,-0.6169795393943787,-0.0265105310827493,-0.1310122013092041,0.0,0.0,0.8968360424041748,0.5557873249053955
-0.030555248260498,0.3162899017333984,-0.0631510093808174,-0.6017023921012878,-0.033442810177803,-0.138645738363266,0.0,0.0,0.4607887268066406,-0.3628734946250915
-0.031280230730772,0.3026303648948669,-0.0658044144511222,-0.6072550415992737,-0.0400554202497005,-0.1322521418333053,0.0,0.0,0.7964088916778564,-0.5934840440750122
-0.0319645889103412,0.288847804069519,-0.0635988563299179,-0.6126935482025146,-0.0448339059948921,-0.0955699011683464,0.0,0.0,0.9233038425445556,-0.256770372390747
-0.0326741226017475,0.2750152051448822,-0.0663816779851913,-0.614926278591156,-0.0493498258292675,-0.0903183966875076,0.0,0.0,0.9866729974746704,-0.3772265315055847
-0.0333533287048339,0.2619675695896148,-0.0637207701802253,-0.5800386667251587,-0.0534936338663101,-0.0828761532902717,0.0,0.0,0.9219703674316406,-0.6621626019477844
-0.0339409820735454,0.2496992945671081,-0.056574635207653,-0.5453348755836487,-0.0556594654917717,-0.0433165580034256,0.0,0.0,0.9449071884155272,-0.2634750008583069
-0.0346145629882812,0.2382381707429886,-0.0649469643831253,-0.5094745755195618,-0.0580492727458477,-0.0477960184216499,0.0,0.0,-0.2411926984786987,-0.619905412197113
-0.0353560447692871,0.2261309772729873,-0.0736231058835983,-0.5381212830543518,-0.0585719235241413,-0.0104530109092593,0.0,0.0,0.812565803527832,0.2133183479309082
-0.0360112190246582,0.2146734297275543,-0.065545842051506,-0.5092195272445679,-0.0585391968488693,0.0006545597570948,0.0,0.0,0.576561450958252,0.7345218658447266
-0.0366914756596088,0.2033976465463638,-0.0667142570018768,-0.5012017488479614,-0.0598392449319362,-0.0260008722543716,0.0,0.0,0.8623418807983398,-0.3677070140838623
-0.0373971946537494,0.1926263868808746,-0.0692835748195648,-0.478772908449173,-0.0611161105334758,-0.0255372673273086,0.0,0.0,0.2920191287994385,-0.7629167437553406
-0.0381501205265522,0.1820393204689026,-0.0758100003004074,-0.4705128967761993,-0.0606004074215889,0.0103140864521265,0.0,0.0,0.216866135597229,0.3568534851074219
-0.0388233177363872,0.1714432388544082,-0.0684042870998382,-0.4708965718746185,-0.0595253817737102,0.0215005073696374,0.0,0.0,0.4575576782226562,0.8404275178909302
-0.0393997207283973,0.160638079047203,-0.0573090799152851,-0.480242371559143,-0.0598570667207241,-0.006633570883423,0.0,0.0,0.7757489681243896,0.7217295169830322
-0.0397963523864746,0.1498159021139145,-0.0383294709026813,-0.4810384213924408,-0.0611759796738624,-0.0263781137764453,0.0,0.0,0.7901473045349121,0.4926788806915283
-0.0400075912475585,0.1392606645822525,-0.020722908899188,-0.469137579202652,-0.0615744218230247,-0.0079690031707286,0.0,0.0,0.9101963043212892,0.0596661567687988
-0.0400419235229492,0.128728449344635,-0.003937296103686,-0.4680784344673157,-0.0610727034509182,0.0100344019010663,0.0,0.0,0.955814003944397,-0.3809224963188171
-0.040040872991085,0.1188835203647613,-0.0005083888536319,-0.4375254809856415,-0.0604767426848411,0.0119192022830247,0.0,0.0,0.9556410312652588,-0.272100567817688
-0.039961814880371,0.1097349748015403,0.0070355623029172,-0.4065685868263244,-0.0596160106360912,0.0172146447002887,0.0,0.0,0.8253741264343262,-0.8731788396835327
-0.0397690758109092,0.1010411828756332,0.0162936821579933,-0.3862771093845367,-0.0566747859120368,0.0588248595595359,0.0,0.0,0.7312793731689453,-0.4459403753280639
-0.0394649505615234,0.092206060886383,0.0269109606742858,-0.3925431072711944,-0.0532106533646583,0.069282665848732,0.0,0.0,0.937190055847168,-0.7167243361473083
-0.0392660126090049,0.0836286395788192,0.015110227279365,-0.3810556530952453,-0.0484782233834266,0.0946485623717308,0.0,0.0,0.9687354564666748,0.2285735607147216
-0.0389305129647254,0.0759399235248565,0.0283174272626638,-0.3415609002113342,-0.043307427316904,0.1034157648682594,0.0,0.0,0.7823458909988403,-0.6568515300750732
-0.0386618599295616,0.0685319527983665,0.0204349309206008,-0.329067975282669,-0.0369545482099056,0.1270576864480972,0.0,0.0,0.7002952098846436,0.65083909034729
-0.0384645462036132,0.0617177821695804,0.0150275258347392,-0.3027440309524536,-0.0323098488152027,0.0928938463330268,0.0,0.0,0.6676193475723267,0.4951100349426269
-0.0381714813411235,0.055311020463705,0.0243045035749673,-0.2846451997756958,-0.027378050610423,0.0986362248659133,0.0,0.0,0.2942914962768554,0.8970296382904053
-0.0378546714782714,0.0491467341780662,0.0286795850843191,-0.2739177942276001,-0.0244135931134223,0.0592890977859497,0.0,0.0,0.383686900138855,0.3706550598144531
-0.037607192993164,0.0432808510959148,0.0222536996006965,-0.2606688737869262,-0.0219463165849447,0.0493451431393623,0.0,0.0,0.1268398761749267,0.820503830909729
-0.0373225212097168,0.037275418639183,0.027840856462717,-0.2668977975845337,-0.0213262308388948,0.0124016348272562,0.0,0.0,0.4970097541809082,-0.4869654178619385
-0.037147618830204,0.0314459428191185,0.0175937581807374,-0.2590876817703247,-0.0214254334568977,-0.0019839629530906,0.0,0.0,0.7061686515808105,-0.4357795715332031
-0.0371322631835937,0.0257879830896854,0.002619753126055,-0.2514794766902923,-0.0224988739937543,-0.0214687511324882,0.0,0.0,0.8208816051483154,0.7700421810150146
-0.0369265563786029,0.0206714011728763,0.023211408406496,-0.2274452894926071,-0.0251122266054153,-0.0522670522332191,0.0,0.0,0.4771751165390014,-0.388289213180542
-0.0366738326847553,0.0154029699042439,0.0279678292572498,-0.2342009097337722,-0.0277737826108932,-0.0532311126589775,0.0,0.0,0.78312087059021,-0.2865713834762573
-0.0362578406929969,0.0107181165367364,0.0438888855278492,-0.2082592099905014,-0.0300345700234174,-0.0452156253159046,0.0,0.0,0.5336694717407227,0.0745333433151245
-0.035857580602169,0.0064698550850152,0.0427632443606853,-0.1888697743415832,-0.0327369682490825,-0.0540482625365257,0.0,0.0,0.3685941696166992,-0.3674982190132141
-0.0353321060538291,0.0026325441431254,0.0550920963287353,-0.1706057488918304,-0.0352548360824584,-0.0503572337329387,0.0,0.0,0.1036430597305297,-0.4739683866500854
-0.0346651077270507,-0.0005576038383878,0.0502762608230114,-0.1414834856986999,-0.0190164018422365,0.3247894942760467,1.0,0.0,0.6883401870727539,-0.2411381602287292
-0.0338892936706543,-0.0025942230131477,0.0458025075495243,-0.0904279500246048,0.0124000059440732,0.6283954977989197,1.0,1.0,0.8784635066986084,0.4934778213500976
-0.0332352630794048,-0.003492941847071,0.0492683835327625,-0.0403391011059284,0.0274049248546361,0.2989171147346496,1.0,1.0,0.2324745655059814,0.583214521408081
-0.0326771736145019,-0.0037352705840021,0.0541415438055992,-0.0108106341212987,0.0290470607578754,0.0328316651284694,1.0,1.0,-0.443728506565094,-0.5705373883247375
-0.0323086753487587,-0.0035929703153669,0.0379251018166542,0.0063421865925192,0.0279635302722454,-0.0216931235045194,1.0,1.0,-0.3780436515808105,-0.2777694463729858
-0.0320618636906147,-0.0030747319106012,0.0286398027092218,0.0230973586440086,0.0240479037165641,-0.0783264487981796,1.0,1.0,-0.5537725687026978,-0.0988565683364868
-0.0318314544856548,-0.0023734951391816,0.0283312946557998,0.0312397088855505,0.0188027042895555,-0.1049181967973709,1.0,1.0,-0.7085825204849243,-0.3604699373245239
-0.0316073410212993,-0.0016089224955067,0.0282058008015155,0.0340444669127464,0.0130653353407979,-0.1147576794028282,1.0,1.0,-0.6041905879974365,-0.5004460215568542
-0.0314184203743934,-0.0009042883175425,0.024274218827486,0.0313533656299114,0.0077458973973989,-0.1063972860574722,1.0,1.0,-0.3497006893157959,-0.5583257675170898
-0.03126697614789,-0.0003201747022103,0.0196578241884708,0.0259784683585166,0.003295618109405,-0.0890129059553146,1.0,1.0,-0.6603996753692627,-0.2701605558395386
-0.0310870166867971,-0.0002703928912524,0.0183909945189952,0.0022129642311483,0.0029095532372593,-0.0077214995399117,1.0,1.0,-0.5762880444526672,-0.0798810124397277
-0.0309593193233013,-0.0002736830792855,0.0127650424838066,-0.0001446853129891,0.0029076989740133,-3.571781417122111e-05,1.0,1.0,-0.7121706008911133,-0.0024694800376892
