x_pos,y_pos,x_vel,y_vel,angle,ang_vel,leg_1,leg_2,main_booster,lat_booster
-0.0014779090415686,1.4030475616455078,-0.1495288163423538,-0.3498957753181457,0.0015489930519834,0.0305394325405359,0.0,0.0,-0.4742592573165893,0.8049900531768799
-0.0028415680862963,1.394617199897766,-0.1359285563230514,-0.3746786415576935,0.0011223455658182,-0.0085329618304967,0.0,0.0,-0.1573845744132995,0.6907808780670166
-0.0040930747054517,1.3856046199798584,-0.1228037104010582,-0.4005642235279083,-0.0011940607801079,-0.0463325455784797,0.0,0.0,-0.1054972410202026,-0.0098354816436767
-0.0052988054230809,1.3760147094726562,-0.1179866641759872,-0.4262131452560425,-0.003745590802282,-0.0510354340076446,0.0,0.0,-0.1272382140159607,0.5373165607452393
-0.0064074518159031,1.3658496141433716,-0.1067313700914383,-0.4518002271652221,-0.0078364387154579,-0.0818247273564338,0.0,0.0,-0.0718940496444702,0.1197202205657959
-0.0074705122970044,1.3551077842712402,-0.1019028425216674,-0.4774465262889862,-0.0121879177168011,-0.0870376452803611,0.0,0.0,0.5887923240661621,0.7637149095535278
-0.0084449769929051,1.3446215391159058,-0.0912037789821624,-0.4661155641078949,-0.0183718260377645,-0.1236895322799682,0.0,0.0,0.3068052530288696,-0.339320421218872
-0.0092465402558445,1.3343230485916138,-0.0741773918271064,-0.4577981829643249,-0.0242759864777326,-0.1180938929319381,0.0,0.0,0.0987734794616699,-0.7065891027450562
-0.0100537296384572,1.324292540550232,-0.075860671699047,-0.4458886086940765,-0.0290857926011085,-0.0962050855159759,0.0,0.0,-0.5099961161613464,-0.5331660509109497
-0.0108576770871877,1.3136903047561646,-0.0762975886464119,-0.47129026055336,-0.0331429503858089,-0.0811505690217018,0.0,0.0,-0.441014289855957,-0.9309101104736328
-0.0116794584318995,1.3025152683258057,-0.0793532505631446,-0.4967307150363922,-0.0359335094690322,-0.0558161363005638,0.0,0.0,-0.6571086645126343,-0.7202069163322449
-0.0125064849853515,1.2907648086547852,-0.080821044743061,-0.522293210029602,-0.0377880744636058,-0.0370949953794479,0.0,0.0,-0.5178578495979309,-0.7031676769256592
-0.0133320810273289,1.2784433364868164,-0.0814496278762817,-0.5476429462432861,-0.0388815142214298,-0.0218709297478199,0.0,0.0,-0.0787500739097595,-0.7202012538909912
-0.0141634941101074,1.265541434288025,-0.0829683914780616,-0.5734242796897888,-0.0390514023602008,-0.0033983159810304,0.0,0.0,0.0078601837158203,-0.6702163815498352
-0.0148851396515965,1.252820611000061,-0.0730786919593811,-0.5653420686721802,-0.0381443724036216,0.0181420668959617,0.0,0.0,-0.4911702871322632,-0.128406286239624
-0.0155624393373727,1.2395230531692505,-0.0682958960533142,-0.5909948348999023,-0.0375927984714508,0.0110324472188949,0.0,0.0,-0.7964092493057251,-0.7051326036453247
-0.0162384025752544,1.2256592512130735,-0.0688823014497757,-0.6161385178565979,-0.0363212488591671,0.0254331715404987,0.0,0.0,-0.5613399147987366,-0.4514992833137512
-0.0168704986572265,1.2112184762954712,-0.0641191974282264,-0.6417849063873291,-0.0354175940155983,0.018075006082654,0.0,0.0,0.0611366033554077,-0.6002141237258911
-0.0174177177250385,1.1969784498214722,-0.0565714165568351,-0.6328516602516174,-0.0335940569639205,0.036474160850048,0.0,0.0,-0.8304014801979065,-0.6541152596473694
-0.0179800987243652,1.1821640729904177,-0.0591818317770957,-0.6583542227745056,-0.030676195397973,0.0583621449768543,0.0,0.0,-0.7174940705299377,-0.6213467717170715
-0.0185378082096576,1.166779398918152,-0.059305615723133,-0.683697521686554,-0.0271682608872652,0.070164568722248,0.0,0.0,-0.5948903560638428,-0.1799326539039611
-0.019052218645811,1.15081787109375,-0.0546021163463592,-0.7093450427055359,-0.0240482334047555,0.0624062530696392,0.0,0.0,0.2017385959625244,0.3945262432098388
-0.0194199569523334,1.1348702907562256,-0.0399649962782859,-0.7087414860725403,-0.0208807401359081,0.0633552744984626,0.0,0.0,-0.3998265266418457,-0.5833830237388611
-0.0197858810424804,1.1183403730392456,-0.0404215566813945,-0.7346101999282837,-0.0170845109969377,0.0759310871362686,0.0,0.0,-0.276160717010498,0.3884432315826416
-0.0201092716306448,1.101233959197998,-0.0357741899788379,-0.7602554559707642,-0.0136877307668328,0.0679416730999946,0.0,0.0,0.4486691951751709,0.106717824935913
-0.020509909838438,1.0844576358795166,-0.0425003394484519,-0.7455905079841614,-0.0112840216606855,0.0480741336941719,0.0,0.0,-0.2216832637786865,0.1531366109848022
-0.0208684913814067,1.067104458808899,-0.0378881618380546,-0.771234929561615,-0.0092848129570484,0.0399843864142894,0.0,0.0,0.0578812360763549,-0.2177071571350097
-0.0212641712278127,1.0499682426452637,-0.0407851003110408,-0.7616016864776611,-0.008079482242465,0.0241063106805086,0.0,0.0,-0.0279237031936645,-0.5354210138320923
-0.0216699596494436,1.032260179519653,-0.0426930598914623,-0.787014365196228,-0.0059875617735087,0.0418382957577705,0.0,0.0,0.3789546489715576,0.4215478897094726
-0.0220496170222759,1.0145858526229858,-0.0395916178822517,-0.7855218052864075,-0.0043875379487872,0.0320007503032684,0.0,0.0,0.2346481084823608,0.4235669374465942
-0.022371768951416,0.997283399105072,-0.0334845855832099,-0.7689904570579529,-0.0031352408695966,0.0250457786023616,0.0,0.0,0.027761697769165,0.1465643644332885
-0.0227010734379291,0.979813277721405,-0.0335512906312942,-0.7764502167701721,-0.0025206271093338,0.0122922835871577,0.0,0.0,0.4199421405792236,-0.3578428030014038
-0.0230594631284475,0.962799906730652,-0.0357170067727565,-0.7561519145965576,-0.0026492795441299,-0.0025728209875524,0.0,0.0,-0.0535652637481689,-0.2931362390518188
-0.0233783721923828,0.9452094435691832,-0.0313348397612571,-0.7817955613136292,-0.0031938597094267,-0.0108916321769356,0.0,0.0,0.4911128282546997,-0.8981035947799683
-0.023710822686553,0.9278934001922609,-0.0340897180140018,-0.7696012258529663,-0.0023495922796428,0.0168851725757122,0.0,0.0,-0.1076037287712097,0.4643359184265136
-0.0240043643862009,0.9100004434585572,-0.0297961272299289,-0.7952449917793274,-0.0019226173171773,0.0085399355739355,0.0,0.0,0.6477422714233398,-0.046956717967987
-0.0242851264774799,0.8922116160392761,-0.0279571413993835,-0.7906125783920288,-0.0020343030337244,-0.0022341008298099,0.0,0.0,0.4124799966812134,0.1912453174591064
-0.0244941711425781,0.8748218417167664,-0.0205278024077415,-0.7728750705718994,-0.0024132719263434,-0.0075791859999299,0.0,0.0,0.0089055299758911,0.0618050098419189
-0.0246890075504779,0.8576270937919617,-0.0185546539723873,-0.764211893081665,-0.0033211577683687,-0.0181581024080514,0.0,0.0,-0.2085874676704406,-0.595917820930481
-0.0248921401798725,0.8398564457893372,-0.0201145894825458,-0.78980952501297,-0.003517314326018,-0.0039227241650223,0.0,0.0,0.1213306188583374,0.1217581033706665
-0.0251298900693655,0.8223019242286682,-0.0228174328804016,-0.7802063226699829,-0.0044659059494733,-0.0189718976616859,0.0,0.0,-0.0663517117500305,0.1994656324386596
-0.0253323558717966,0.8041704893112183,-0.018866341561079,-0.8058501482009888,-0.0058311433531343,-0.0273045748472213,0.0,0.0,0.5661494731903076,-0.6128374934196472
-0.0254471786320209,0.7859007120132446,-0.0111380629241466,-0.8119904398918152,-0.0061643221415579,-0.006663791835308,0.0,0.0,0.3194872140884399,0.4562963247299194
-0.0254461281001567,0.7676865458488464,0.0004893108271062,-0.80951988697052,-0.0065456521697342,-0.0076265493407845,0.0,0.0,0.3534271717071533,0.3089607954025268
-0.0254437439143657,0.7492577433586121,0.0012047041673213,-0.819067120552063,-0.0074948221445083,-0.0189836490899324,0.0,0.0,0.3403528928756714,0.2192349433898925
-0.025369644165039,0.7306580543518066,0.0086097074672579,-0.8266564011573792,-0.0086841331794857,-0.0237861610949039,0.0,0.0,0.0253329277038574,0.3712310791015625
-0.0252239219844341,0.711897075176239,0.0160225350409746,-0.8338322043418884,-0.0101093482226133,-0.0285042114555835,0.0,0.0,0.083823561668396,-0.0220335721969604
-0.0251157768070697,0.6933807730674744,0.0130223799496889,-0.8229662179946899,-0.0122850202023983,-0.043513648211956,0.0,0.0,-0.1976521611213684,-0.5734544396400452
-0.0250332839787006,0.6742934584617615,0.0094568114727735,-0.848328709602356,-0.0134764369577169,-0.0238282736390829,0.0,0.0,0.6538639068603516,-0.0906766653060913
-0.0249363891780376,0.6553935408592224,0.0114050563424825,-0.840013325214386,-0.0151713360100984,-0.033898152410984,0.0,0.0,0.5044654607772827,0.268064022064209
-0.0246732719242572,0.6366936564445496,0.0278209783136844,-0.8311204314231873,-0.0166652556508779,-0.029878532513976,0.0,0.0,-0.1275195479393005,-0.2712383270263672
-0.024383544921875,0.61741703748703,0.0308902747929096,-0.8567647933959961,-0.0185599885880947,-0.037894781678915,0.0,0.0,0.7578299045562744,-0.1441640853881836
-0.0239432342350482,0.5982695817947388,0.0458121970295906,-0.8510177731513977,-0.0203148443251848,-0.0350972190499305,0.0,0.0,0.519564151763916,-0.6452156901359558
-0.0235112197697162,0.5796530842781067,0.0440645739436149,-0.8274134397506714,-0.0211747530847787,-0.0171980075538158,0.0,0.0,0.4425857067108154,-0.636428713798523
-0.0229548458009958,0.5610927939414978,0.0553306862711906,-0.8248966932296753,-0.020872863009572,0.0060379593633115,0.0,0.0,0.5058612823486328,-0.6304435133934021
-0.0225123409181833,0.5426015257835388,0.0432736650109291,-0.8218236565589905,-0.0199104938656091,0.019247394055128,0.0,0.0,0.7789984941482544,0.4710245132446289
-0.0219306945800781,0.5248172879219055,0.057105652987957,-0.7903947234153748,-0.0188655480742454,0.0208989642560482,0.0,0.0,-0.0832657217979431,-0.5710431933403015
-0.0213643070310354,0.5064595341682434,0.0550817921757698,-0.8158809542655945,-0.0173272043466568,0.0307670123875141,0.0,0.0,0.723059892654419,-0.0811834335327148
-0.0206868164241313,0.4888107180595398,0.066208578646183,-0.7843744158744812,-0.015806671231985,0.0304106976836919,0.0,0.0,0.5633304119110107,-0.5922123193740845
-0.0201054569333791,0.4717083871364593,0.0559739880263805,-0.7600828409194946,-0.0136668281629681,0.0427967570722103,0.0,0.0,0.5975241661071777,-0.2981892824172973
-0.019454002380371,0.4545652866363525,0.0631170496344566,-0.7619010806083679,-0.011667987331748,0.0399768538773059,0.0,0.0,0.801579475402832,-0.4576746821403503
-0.0188888553529977,0.4379943609237671,0.0553843677043914,-0.7364761233329773,-0.0105404499918222,0.0225505344569683,0.0,0.0,0.8306701183319092,-0.6235986948013306
-0.0182069782167673,0.4217029809951782,0.0657625049352645,-0.7240453958511353,-0.0081550646573305,0.0477079488337039,0.0,0.0,0.6978104114532471,-0.7144119739532471
-0.0175387375056743,0.4057811200618744,0.0632781386375427,-0.7076266407966614,-0.0046485485509037,0.070130169391632,0.0,0.0,0.5842714309692383,-0.384246826171875
-0.0168510433286428,0.3898588716983795,0.0655343160033226,-0.7076481580734253,-0.0014582122676074,0.0638067871332168,0.0,0.0,0.7602190971374512,-0.3651353120803833
-0.0162857063114643,0.3743045032024383,0.0542722828686237,-0.6913012862205505,0.0007764662150293,0.0446935929358005,0.0,0.0,0.6906863451004028,-0.56356281042099
-0.0157347675412893,0.3594935536384582,0.0519734099507331,-0.6582700610160828,0.0038533587940037,0.0615379586815834,0.0,0.0,0.6004736423492432,0.3833894729614258
-0.0150995254516601,0.3445311188697815,0.0603667087852954,-0.6650083065032959,0.0069638071581721,0.0622090399265289,0.0,0.0,0.865506649017334,0.0071234703063964
-0.0144361499696969,0.3304379284381866,0.0633841007947921,-0.6263783574104309,0.0098871467635035,0.0584665648639202,0.0,0.0,0.3015675544738769,-0.2241420149803161
-0.0138474460691213,0.3163260817527771,0.0565816946327686,-0.6272092461585999,0.0121453525498509,0.045164331793785,0.0,0.0,0.9179515838623048,-0.0629963874816894
-0.013373184017837,0.3028143346309662,0.0459571257233619,-0.6005347371101379,0.0135946562513709,0.0289862211793661,0.0,0.0,0.8958797454833984,-0.2444233298301696
-0.0128729818388819,0.2897974550724029,0.0486982241272926,-0.5785407423973083,0.0148980831727385,0.026068290695548,0.0,0.0,0.7412266731262207,-0.3804161548614502
-0.0125228883698582,0.27753546833992,0.0346408188343048,-0.5449809432029724,0.0152710527181625,0.0074591534212231,0.0,0.0,0.5677874088287354,-0.1143393516540527
-0.0121135711669921,0.2655199766159057,0.0405178107321262,-0.5340280532836914,0.0156711097806692,0.0080013573169708,0.0,0.0,0.1201286315917968,-0.456317126750946
-0.0117350574582815,0.2533245682716369,0.0378558598458766,-0.5420191884040833,0.0156771969050169,0.0001215170923387,0.0,0.0,0.8957128524780273,-0.3250885009765625
-0.0112891197204589,0.2411132901906967,0.0445072464644908,-0.5427218079566956,0.0157633181661367,0.0017226049676537,0.0,0.0,0.9302403926849364,-0.9270270466804504
-0.010969447903335,0.2289078086614608,0.0303571578115224,-0.5424803495407104,0.0173461008816957,0.0316557064652442,0.0,0.0,0.7886339426040649,-0.2011781930923462
-0.0106810573488473,0.2174130827188491,0.0275499932467937,-0.5108938813209534,0.0186214037239551,0.025506043806672,0.0,0.0,0.7834385633468628,0.421144962310791
-0.0103309629485011,0.206664428114891,0.0335671380162239,-0.477738082408905,0.0200386848300695,0.0283457674086093,0.0,0.0,0.4874262809753418,-0.6478345990180969
-0.010167121887207,0.1964439302682876,0.0141302775591611,-0.454275906085968,0.0222669038921594,0.0445644184947013,0.0,0.0,0.4167149066925049,0.5587081909179688
-0.0100962640717625,0.186064064502716,0.0064754141494631,-0.4613374471664428,0.0228684581816196,0.0120312832295894,0.0,0.0,0.7247738838195801,0.0607091188430786
-0.0100137712433934,0.1763461679220199,0.0076788216829299,-0.4319169223308563,0.0234317239373922,0.0112652732059359,0.0,0.0,0.7809758186340332,-0.3474490642547607
-0.0100676538422703,0.1669776737689972,-0.0052135759033262,-0.4163748025894165,0.0232650954276323,-0.0033327068667858,0.0,0.0,0.7968094348907471,0.2269480228424072
-0.0102117536589503,0.1581355482339859,-0.0137427179142832,-0.3929745852947235,0.0226066429167985,-0.0131689356639981,0.0,0.0,0.741479754447937,-0.2053762078285217
-0.0103995325043797,0.1498211920261383,-0.0178424231708049,-0.3695095479488373,0.0216824952512979,-0.018482755869627,0.0,0.0,0.5034711360931396,-0.1113232374191284
-0.0105347633361816,0.1417265087366104,-0.0127561409026384,-0.3597551584243774,0.0209268778562545,-0.0151127101853489,0.0,0.0,0.0663776397705078,-0.7700459361076355
-0.0107338903471827,0.1333771795034408,-0.0205125007778406,-0.3710916638374328,0.0215240120887756,0.0119429025799036,0.0,0.0,0.1373558044433593,-0.2490193247795105
-0.0108919143676757,0.1248684972524643,-0.0165285319089889,-0.378172755241394,0.0222357846796512,0.0142355728894472,0.0,0.0,0.3501940965652466,0.7663938999176025
-0.0108822826296091,0.1164889931678772,0.0017724034842103,-0.3724104464054107,0.0214353408664464,-0.0160089042037725,0.0,0.0,0.8081774711608887,-0.5543088912963867
-0.0107812881469726,0.108179360628128,0.0094987414777278,-0.3693259954452514,0.0220253374427557,0.0117998952046036,0.0,0.0,0.8239247798919678,-0.6175083518028259
-0.0107732769101858,0.1005391478538513,-0.0008550214697606,-0.3395904898643493,0.0236717835068702,0.0329287536442279,0.0,0.0,0.3042430877685547,0.2586455345153808
-0.01077442150563,0.0932207927107811,-0.0017520397668704,-0.3252870142459869,0.0252863466739654,0.032291043549776,0.0,0.0,0.5332218408584595,-0.7225927710533142
-0.0107411388307809,0.0862591341137886,0.000129057560116,-0.3094630241394043,0.0284392423927783,0.0630581006407737,0.0,0.0,0.5615290403366089,-0.0081158876419067
-0.0106420516967773,0.0791873335838317,0.006398469209671,-0.3143742978572845,0.0319061130285263,0.0693375021219253,0.0,0.0,0.435217022895813,0.4497107267379761
-0.010623836889863,0.0721996426582336,-0.0013538706116378,-0.3106343150138855,0.035043716430664,0.0627519115805625,0.0,0.0,0.6227185726165771,0.97593355178833
-0.0104860309511423,0.0659259855747222,0.0125698689371347,-0.2788567841053009,0.036240816116333,0.0239417068660259,0.0,0.0,0.4111230373382568,0.1732459068298339
-0.0104076387360692,0.0598029717803001,0.0068152896128594,-0.2721599638462066,0.037245113402605,0.0200861282646656,0.0,0.0,0.5114709138870239,0.8968780040740967
-0.0104365348815917,0.0541987977921962,-0.0018393360078334,-0.2490485161542892,0.0362140759825706,-0.0206208582967519,0.0,0.0,-0.227728009223938,0.8260061740875244
-0.0104134557768702,0.0480259284377098,0.0053451554849743,-0.2742802798748016,0.033218178898096,-0.0599179863929748,0.0,0.0,0.5256190299987793,-0.2950806617736816
-0.0104857441037893,0.0423123948276042,-0.0038891192525625,-0.2538664042949676,0.0299182366579771,-0.0659987181425094,0.0,0.0,0.5929543972015381,0.1366581916809082
-0.0106826778501272,0.037100825458765,-0.0159078426659107,-0.2315524369478225,0.026182098314166,-0.0747227743268013,0.0,0.0,0.3782674074172973,0.2672239542007446
-0.0109347347170114,0.0319346040487289,-0.0212653782218694,-0.2295460551977157,0.0222907215356826,-0.0778276175260543,0.0,0.0,0.725456714630127,0.7255983352661133
-0.0113000869750976,0.0271318778395652,-0.0307899974286556,-0.2133823037147522,0.0166206508874893,-0.1134016662836074,0.0,0.0,0.6575155258178711,0.711228609085083
-0.0118067739531397,0.0225364305078983,-0.0430992506444454,-0.2041747570037841,0.0091473823413252,-0.1494652330875396,0.0,0.0,0.6492969989776611,0.93646240234375
-0.0121513362973928,0.0184492450207471,-0.0251152124255895,-0.1816253215074539,-6.32778464932926e-05,-0.1842134296894073,0.0,0.0,0.4095939397811889,0.068805456161499
-0.0124676702544093,0.0142584182322025,-0.0225140564143657,-0.1862890571355819,-0.0090612405911087,-0.1799591779708862,0.0,0.0,0.6429857015609741,0.0763314962387085
-0.0126570705324411,0.0106276366859674,-0.0104827145114541,-0.1614448577165603,-0.0174144655466079,-0.1670645028352737,0.0,0.0,0.1758451461791992,-0.0057954788208007
-0.0128775592893362,0.0072495196945965,-0.0134914070367813,-0.1502615958452224,-0.0258589498698711,-0.1688896715641021,0.0,0.0,-0.0017144680023193,-0.2498971223831176
-0.0131223676726222,0.0032953715417534,-0.0159223265945911,-0.1759112179279327,-0.0343130007386207,-0.1690810471773147,0.0,0.0,0.6363884210586548,0.2010782957077026
-0.0132043836638331,0.0003422951558604,-0.0193219520151615,-0.1310235112905502,-0.0233609713613986,0.2190076112747192,1.0,0.0,0.7036525011062622,0.1189258098602294
-0.0131685258820652,-0.0013520383508875,-0.0236823745071887,-0.0751031264662742,0.0035816594026982,0.5388737916946411,1.0,0.0,0.2255525588989257,0.7613178491592407
-0.0131342886015772,-0.0020479822997003,-0.0020841350778937,-0.0309633202850818,0.0089773191139101,0.1078609228134155,1.0,1.0,0.1340245008468628,0.8632907867431641
-0.0130517957732081,-0.0018909835489466,0.0094753056764602,0.0069731352850794,0.0077295210212469,-0.0249948557466268,1.0,1.0,-0.733090341091156,-0.1235066056251525
-0.0130018237978219,-0.0013816499849781,0.0089095290750265,0.0226471703499555,0.0038446618709713,-0.0777326002717018,1.0,1.0,-0.736838698387146,-0.357071042060852
-0.012973403558135,-0.0006345653673633,0.0085332272574305,0.0331997275352478,-0.001805170555599,-0.1130245476961135,1.0,1.0,-0.7386524677276611,-0.3036589622497558
-0.0128977773711085,-0.0003973150160163,0.0094332545995712,0.0105406874790787,-0.0036487416364252,-0.0368711687624454,1.0,1.0,-0.4865583181381225,-0.1482031345367431
-0.0128376958891749,-0.0003986740193795,0.0060091032646596,-6.118966120993719e-05,-0.0036495546810328,-1.557071300339885e-05,1.0,1.0,-0.7567534446716309,0.1013630628585815
-0.012829971499741,-0.0004003906215075,0.0007838142337277,-7.473303412552923e-05,-0.0036611212417483,-0.0002249726821901,1.0,1.0,-0.7405281662940979,0.0566781759262084
-0.0128442766144871,-0.0004004621587228,-0.001456947880797,-1.9924991647712886e-06,-0.0036388686858117,0.0004332098178565,1.0,1.0,-0.8389288783073425,-0.0134678483009338
-0.0128561975434422,-0.0004004621587228,-0.0012100710300728,-6.484379468929546e-07,-0.003620381001383,0.0003597269533202,1.0,1.0,-0.6192138195037842,-0.0475319623947143
