x_pos,y_pos,x_vel,y_vel,angle,ang_vel,leg_1,leg_2,main_booster,lat_booster
-0.0014894485939294,1.403187274932861,-0.1508106887340545,-0.3436900675296783,0.0016664101276546,0.0328645557165145,0.0,0.0,-0.3676883276087084,0.7338843521843212
-0.0028825760819017,1.395036697387695,-0.1392529457807541,-0.362251877784729,0.001608757302165,-0.0011524815345183,0.0,0.0,0.5628938022503545,0.8203793881517703
-0.0040377615951001,1.38701593875885,-0.1139343231916427,-0.3564778566360473,4.864472066401504e-05,-0.0312051232904195,0.0,0.0,-0.96463493190735,-0.8120578779573786
-0.0052362442947924,1.3785548210144043,-0.12006576359272,-0.376043826341629,0.0002618511207401,0.0042643891647458,0.0,0.0,0.2843880439418482,-0.784491673421861
-0.0063506127335131,1.3704193830490112,-0.1131991371512413,-0.3615745306015014,0.002003334229812,0.0348329171538353,0.0,0.0,-0.6529329918267857,-0.7068872258803565
-0.0074760438874363,1.3618453741073608,-0.1152016967535018,-0.3810728788375854,0.004633433651179,0.0526067391037941,0.0,0.0,-0.5786987607652034,-0.57827993501625
-0.0086173061281442,1.3528337478637695,-0.1177727952599525,-0.4005280137062073,0.0082396101206541,0.0721301957964897,0.0,0.0,-0.3413910986418063,0.8278211065572509
-0.0096464157104492,1.343388319015503,-0.1042637377977371,-0.419805496931076,0.009570482186973,0.0266199652105569,0.0,0.0,-0.665133156021674,-0.8446505497694092
-0.0107132913544774,1.333513617515564,-0.1095028072595596,-0.4388915002346039,0.012361372821033,0.0558229610323905,0.0,0.0,0.5140344000288157,-0.6348741900628525
-0.0118095399811863,1.3242032527923584,-0.113450214266777,-0.4138331115245819,0.0161429960280656,0.0756393074989318,0.0,0.0,-0.5205390184213181,-0.8884872866894107
-0.0129368780180811,1.3144545555114746,-0.1177998334169387,-0.4333346486091614,0.021154124289751,0.1002316325902938,0.0,0.0,0.4354150242869152,-0.5945151268203606
-0.0140255931764841,1.3049566745758057,-0.1149842292070388,-0.4222266376018524,0.027202121913433,0.1209708675742149,0.0,0.0,0.0071993600984148,0.7740098504681159
-0.0149448392912745,1.295670986175537,-0.096218392252922,-0.4127738773822784,0.0314508751034736,0.0849829986691474,0.0,0.0,-0.0420319104046003,0.6488885955875319
-0.015779972076416,1.2859448194503784,-0.0860443189740181,-0.4323351681232452,0.0339469313621521,0.0499259009957313,0.0,0.0,-0.0812069405525199,-0.5586345665919343
-0.0166229251772165,1.275785207748413,-0.0873402208089828,-0.4516114294528961,0.0369606800377368,0.0602803118526935,0.0,0.0,0.9373462328216288,0.5870552554390902
-0.0172699932008981,1.2657139301300049,-0.066631406545639,-0.447663813829422,0.0388606153428554,0.0380021557211875,0.0,0.0,-0.4824202908419872,0.975218319873044
-0.0177983287721872,1.2552218437194824,-0.0519952289760112,-0.4662954211235046,0.0380292609333992,-0.0166284665465354,0.0,0.0,-0.7511225838063718,0.5021908266172002
-0.0182538032531738,1.244290828704834,-0.043100781738758,-0.485766053199768,0.035606775432825,-0.0484540536999702,0.0,0.0,-0.8319106443885229,0.595258068747273
-0.0186319351196289,1.2329307794570925,-0.0336114801466465,-0.5047929286956787,0.0314430333673954,-0.0832825452089309,0.0,0.0,-0.3275527437327969,-0.8029795762161835
-0.0190601348876953,1.2211296558380127,-0.0400569029152393,-0.5244395732879639,0.0287131462246179,-0.0546024814248085,0.0,0.0,0.9646498407988536,0.7448405528187582
-0.0192702300846576,1.2102469205856323,-0.0167634561657905,-0.4836060404777527,0.0245143547654151,-0.0839837118983268,0.0,0.0,0.1832905480523312,0.5719732062762636
-0.019413661211729,1.1994004249572754,-0.0085763577371835,-0.4819723963737488,0.0188089292496442,-0.1141186729073524,0.0,0.0,0.9793887228175716,-0.9722757253637164
-0.0194554328918457,1.1890968084335327,-0.0002731751301325,-0.4579010009765625,0.0149501003324985,-0.0771834105253219,0.0,0.0,-0.6501520601541453,-0.8883544636842851
-0.0195417404174804,1.1783442497253418,-0.0059014870785176,-0.4778642654418945,0.0122532285749912,-0.0539420917630195,0.0,0.0,-0.2116510778575595,0.8081261802776167
-0.0195629112422466,1.1671576499938965,0.0022578698117285,-0.4971510469913482,0.0079255523160099,-0.0865613296627998,0.0,0.0,-0.4870347790831661,-0.6689881876114865
-0.0196348186582326,1.1555150747299194,-0.0040712621994316,-0.517431914806366,0.0048437854275107,-0.0616351254284381,0.0,0.0,-0.2525164633693484,0.8513711467230101
-0.0196254737675189,1.1434413194656372,0.0062001515179872,-0.5366066694259644,-0.000352266972186,-0.1039211153984069,0.0,0.0,0.054922337743297,-0.9255288390767552
-0.019776439294219,1.131730556488037,-0.0112895909696817,-0.5204841494560242,-0.0041079055517911,-0.0751129537820816,0.0,0.0,-0.6213839871138185,0.7195593087634848
-0.0198721885681152,1.1195883750915527,-0.0042089940980076,-0.5396744608879089,-0.0094002410769462,-0.105846956372261,0.0,0.0,0.0034559606649047,0.8383899862883344
-0.0199047084897756,1.1074498891830444,0.0042183166369795,-0.5395563244819641,-0.0167789366096258,-0.1475740224123001,0.0,0.0,0.8368423828052767,-0.9601667849565128
-0.019966697320342,1.0962984561920166,-0.0002657003060448,-0.4956933557987213,-0.0226307343691587,-0.1170359998941421,0.0,0.0,-0.963957130908966,-0.7993304133415222
-0.0200942046940326,1.0847080945968628,-0.0082188211381435,-0.5152069926261902,-0.0271094981580972,-0.0895754322409629,0.0,0.0,-0.8781832456588745,-0.8815463781356812
-0.0202967636287212,1.0726920366287231,-0.0173061825335025,-0.5340997576713562,-0.0300167668610811,-0.0581453926861286,0.0,0.0,-0.8856908082962036,-0.9362009763717652
-0.0205788612365722,1.0602341890335083,-0.0269220136106014,-0.5537115931510925,-0.0312898308038711,-0.0254611577838659,0.0,0.0,-0.7034468054771423,-0.9339815378189088
-0.0209321975708007,1.047344207763672,-0.0354353040456771,-0.5728760361671448,-0.0311800688505172,0.0021949887741357,0.0,0.0,-0.8950164914131165,0.2598333358764648
-0.0212864875793457,1.0340173244476318,-0.0351121202111244,-0.5923150181770325,-0.0314958579838275,-0.0063159381970763,0.0,0.0,-0.8181172609329224,-0.0984429121017456
-0.0216437336057424,1.0202531814575195,-0.0349699333310127,-0.6117540597915649,-0.0322376601397991,-0.0148361874744296,0.0,0.0,-0.918123424053192,0.0214557647705078
-0.0220056530088186,1.006052017211914,-0.0350107923150062,-0.6311930418014526,-0.033405777066946,-0.0233624186366796,0.0,0.0,-0.931258738040924,-0.4373759031295776
-0.022374153137207,0.9914135336875916,-0.03523600846529,-0.6506322026252747,-0.0350003577768802,-0.0318915992975235,0.0,0.0,-0.8061288595199585,-0.4334933757781982
-0.0227511413395404,0.9763379693031312,-0.0356461517512798,-0.670071542263031,-0.0370214134454727,-0.0404210612177848,0.0,0.0,-0.7116599082946777,-0.930670976638794
-0.0232247356325387,0.9608380794525146,-0.0470935851335525,-0.6888942718505859,-0.0372882857918739,-0.0053374161943793,0.0,0.0,-0.1911765933036804,-0.6103084683418274
-0.0237488746643066,0.9449016451835632,-0.0526900701224803,-0.7082751393318176,-0.037016287446022,0.0054397219792008,0.0,0.0,-0.687716543674469,-0.6022903919219971
-0.0243270881474018,0.9285237193107604,-0.0586789324879646,-0.7278863787651062,-0.0361662656068801,0.0170003827661275,0.0,0.0,-0.453072190284729,-0.2174129486083984
-0.0249209403991699,0.9117087721824646,-0.0598188526928424,-0.7473256587982178,-0.0357417352497577,0.0084907803684473,0.0,0.0,0.1630997657775879,-0.6892362833023071
-0.0256118774414062,0.8947637677192688,-0.0704393461346626,-0.7530760169029236,-0.0344121344387531,0.0265922658145427,0.0,0.0,-0.4726951122283935,-0.0756729841232299
-0.0263219829648733,0.8773816227912903,-0.0719278901815414,-0.7725151777267456,-0.0335070565342903,0.0181016437709331,0.0,0.0,0.5874388217926025,-0.0741143822669982
-0.026979923248291,0.8602033257484436,-0.066560760140419,-0.7634691596031189,-0.0327548347413539,0.0150446370244026,0.0,0.0,0.0973623991012573,-0.3163570165634155
-0.0277169235050678,0.8434216976165771,-0.0736764520406723,-0.745852530002594,-0.0327713377773761,-0.0003300371172372,0.0,0.0,-0.1449317932128906,-0.152397871017456
-0.0284778587520122,0.8262028098106384,-0.0756533741950988,-0.7652915716171265,-0.0332105979323387,-0.0087852897122502,0.0,0.0,0.1993544101715088,-0.270706832408905
-0.0292675010859966,0.8091011643409729,-0.0780182108283042,-0.7600957751274109,-0.0341430269181728,-0.0186487548053264,0.0,0.0,0.5598248243331909,-0.649811863899231
-0.0299695022404193,0.7923654913902283,-0.0704619958996772,-0.7438026666641235,-0.0338858142495155,0.0051442645490169,0.0,0.0,-0.0402389764785766,-0.1189757585525512
-0.0306999199092388,0.7751924395561218,-0.072875291109085,-0.7632416486740112,-0.0340493433177471,-0.0032705664634704,0.0,0.0,-0.1072943210601806,-0.50313800573349
-0.0314927101135253,0.7575812935829163,-0.0795140340924263,-0.7827123999595642,-0.033814150840044,0.0047037973999977,0.0,0.0,0.2694745063781738,-0.3579751253128052
-0.0322933197021484,0.7404517531394958,-0.0798778161406517,-0.761318027973175,-0.0339869149029254,-0.0034554153680801,0.0,0.0,-0.0404480695724487,-0.4449894428253174
-0.033125877380371,0.7228850722312927,-0.0826691314578056,-0.7807570695877075,-0.0345782861113548,-0.0118271354585886,0.0,0.0,0.5325175523757935,-0.49336838722229
-0.034065343439579,0.7055411338806152,-0.0925037786364555,-0.7708801031112671,-0.0359974913299083,-0.0283842422068119,0.0,0.0,0.6949723958969116,-0.4499374628067016
-0.0349132530391216,0.6889804005622864,-0.0833810940384864,-0.7360650897026062,-0.0373876355588436,-0.0278027560561895,0.0,0.0,-0.3585964441299438,-0.2698657512664795
-0.0357963554561138,0.67198246717453,-0.0864913016557693,-0.7555043697357178,-0.0391940996050834,-0.0361293181777,0.0,0.0,-0.3484760522842407,0.0256780385971069
-0.0367157943546772,0.6545476913452148,-0.0896951854228973,-0.7749439477920532,-0.0414161346852779,-0.0444403439760208,0.0,0.0,0.5084134340286255,-0.3464895486831665
-0.0377120971679687,0.6377552151679993,-0.0966360047459602,-0.7464128732681274,-0.0443745702505111,-0.0591688342392444,0.0,0.0,-0.1238928437232971,-0.5576593279838562
-0.0387868881225585,0.6205236911773682,-0.1050851345062255,-0.7659181356430054,-0.0467325896024704,-0.0471602417528629,0.0,0.0,0.4129471778869629,-0.5483683943748474
-0.0400083549320697,0.6037663221359253,-0.1202313527464866,-0.7448310852050781,-0.0486272647976875,-0.0378935933113098,0.0,0.0,0.6853773593902588,0.1719617843627929
-0.0411175712943077,0.5873532295227051,-0.1091908439993858,-0.7295296788215637,-0.0503513850271701,-0.0344824939966201,0.0,0.0,0.7966535091400146,-0.3246256113052368
-0.0422078147530555,0.5714997053146362,-0.1069810539484024,-0.704670250415802,-0.0523683428764343,-0.040339145809412,0.0,0.0,-0.5491201281547546,-0.6734871864318848
-0.0433914177119731,0.5552082657814026,-0.117237851023674,-0.7241011261940002,-0.0534739233553409,-0.0221115760505199,0.0,0.0,0.5945982933044434,0.3167839050292969
-0.0447049140930175,0.5393438935279846,-0.1292640119791031,-0.7051602602005005,-0.0555417276918888,-0.041355937719345,0.0,0.0,0.8132792711257935,0.6496819257736206
-0.045931052416563,0.5244504809379578,-0.1188629642128944,-0.6620727181434631,-0.0592466443777084,-0.0740983784198761,0.0,0.0,-0.9105133414268494,0.5501090288162231
-0.0471502318978309,0.5091094374656677,-0.1164988875389099,-0.6820501685142517,-0.064604602754116,-0.1071592718362808,0.0,0.0,0.758517861366272,0.4629459381103515
-0.0483245849609375,0.4946890473365783,-0.1117446050047874,-0.6411603689193726,-0.0702358335256576,-0.1126245483756065,0.0,0.0,-0.8662534356117249,-0.6217288374900818
-0.049598790705204,0.4798353314399719,-0.1227710098028183,-0.6603895425796509,-0.0748415887355804,-0.0921148657798767,0.0,0.0,0.2136038541793823,0.1789660453796386
-0.0509464256465435,0.4652966260910034,-0.1293930560350418,-0.6464446783065796,-0.0801633447408676,-0.1064351350069046,0.0,0.0,0.5574400424957275,0.4012840986251831
-0.0522619262337684,0.4511950612068176,-0.1259049177169799,-0.6270487904548645,-0.0857535973191261,-0.1118048280477523,0.0,0.0,-0.7412428259849548,0.2888331413269043
-0.0536213889718055,0.4366570711135864,-0.1299046576023101,-0.6464921832084656,-0.0917450934648513,-0.1198299303650856,0.0,0.0,-0.0025578141212463,-0.1035107374191284
-0.0550251975655555,0.421682745218277,-0.1339346468448639,-0.6659361720085144,-0.0981363579630851,-0.1278253197669983,0.0,0.0,0.0653748512268066,-0.0301580429077148
-0.0564704909920692,0.4066517949104309,-0.1375830322504043,-0.668513298034668,-0.1050263866782188,-0.1378006041049957,0.0,0.0,0.8347811698913574,-0.5703809857368469
-0.0578879341483116,0.3917115330696106,-0.1357609331607818,-0.6644431352615356,-0.1109567731618881,-0.1186079978942871,0.0,0.0,0.2936576604843139,0.2739217281341553
-0.0593453422188758,0.3767353594303131,-0.1392679512500763,-0.6661037802696228,-0.1173963248729705,-0.1287908256053924,0.0,0.0,0.8676185607910156,-0.4022272825241089
-0.0607523918151855,0.3626604080200195,-0.1337870508432388,-0.6261137127876282,-0.1242723315954208,-0.137520283460617,0.0,0.0,0.6733660697937012,-0.3002485632896423
-0.06202182918787,0.3493641018867492,-0.1200241297483444,-0.5915393829345703,-0.131163939833641,-0.1378322839736938,0.0,0.0,-0.3397952318191528,-0.7492198348045349
-0.0634058937430381,0.3356528580188751,-0.1328767091035843,-0.6098840832710266,-0.1366649717092514,-0.1100203841924667,0.0,0.0,-0.1206157803535461,-0.8061025738716125
-0.0649129897356033,0.321512907743454,-0.1467700004577636,-0.6288118362426758,-0.1405990719795227,-0.0786819607019424,0.0,0.0,0.7884836196899414,0.1410223245620727
-0.0663027763366699,0.3081982135772705,-0.1348530799150467,-0.5921584963798523,-0.1447144299745559,-0.0823072642087936,0.0,0.0,0.8773062229156494,-0.4050278663635254
-0.0677581802010536,0.2954427599906921,-0.1404934823513031,-0.5674068331718445,-0.149742841720581,-0.1005683690309524,0.0,0.0,0.014583945274353,-0.52724289894104
-0.0692753791809082,0.2828882932662964,-0.1473085731267929,-0.5584275126457214,-0.1541526615619659,-0.0881960391998291,0.0,0.0,0.4639652967453003,-0.2583720088005066
-0.0707540512084961,0.2708183526992798,-0.1430296152830124,-0.536949872970581,-0.1589854955673217,-0.0966570898890495,0.0,0.0,0.8268884420394897,-0.7807520627975464
-0.0721338242292404,0.2592546939849853,-0.1345633119344711,-0.5143101811408997,-0.1624062359333038,-0.0684147253632545,0.0,0.0,0.5934576988220215,-0.641209065914154
-0.0735326781868934,0.2477432787418365,-0.1374378204345703,-0.5118866562843323,-0.1648581773042678,-0.0490386709570884,0.0,0.0,-0.034858226776123,0.2694971561431885
-0.0749778747558593,0.2357954382896423,-0.1417066603899002,-0.5313299894332886,-0.1676725596189499,-0.0562875941395759,0.0,0.0,0.908620834350586,-0.0796263813972473
-0.076191708445549,0.2243441939353943,-0.1189989820122718,-0.5092129707336426,-0.1700586676597595,-0.0477223023772239,0.0,0.0,0.6070417165756226,-0.3848277330398559
-0.0772533416748046,0.2129892855882644,-0.104052186012268,-0.5049084424972534,-0.1721706539392471,-0.0422396622598171,0.0,0.0,0.0097206830978393,-0.7053364515304565
-0.0783409103751182,0.2018966823816299,-0.1077096611261367,-0.4931245446205139,-0.1732167154550552,-0.020921129733324,0.0,0.0,0.6995701789855957,-0.2985610365867615
-0.0793088898062706,0.1915122419595718,-0.0955676808953285,-0.461672842502594,-0.1744578629732132,-0.0248226393014192,0.0,0.0,0.7359573841094971,-0.4622340202331543
-0.080072782933712,0.1816926300525665,-0.0754198357462883,-0.4365409910678863,-0.1754298955202102,-0.0194405782967805,0.0,0.0,-0.5608715415000916,-0.9298079609870912
-0.080944538116455,0.1714428812265396,-0.0874116122722625,-0.4555174112319946,-0.1751860827207565,0.0048762680962681,0.0,0.0,0.5505459308624268,-0.0582296848297119
-0.0818278342485427,0.1614753603935241,-0.0880223363637924,-0.4430399537086487,-0.1754931658506393,-0.0061417538672685,0.0,0.0,0.5712380409240723,-0.2791794538497925
-0.0825348868966102,0.1522619277238845,-0.0704569518566131,-0.4095135033130646,-0.1757432520389557,-0.0050016180612146,0.0,0.0,-0.3047497272491455,-0.8292441964149475
-0.0833553299307823,0.1426295191049575,-0.0832040384411811,-0.4279715120792389,-0.1745742112398147,0.0233807507902383,0.0,0.0,0.4682737588882446,-0.2027194499969482
-0.0842080116271972,0.1336335241794586,-0.0856272727251052,-0.3997780680656433,-0.1742155402898788,0.0071732602082192,0.0,0.0,0.8504698276519775,-0.8194922208786011
-0.0849293693900108,0.1253487914800644,-0.0740610584616661,-0.3679893612861633,-0.1722879856824875,0.0385510101914405,0.0,0.0,0.0632524490356445,-0.7462568879127502
-0.085710622370243,0.1173715442419052,-0.0812353119254112,-0.3541842401027679,-0.169168159365654,0.0623964369297027,0.0,0.0,-0.0421664714813232,-0.0952368378639221
-0.0865377411246299,0.1089577078819274,-0.0855663046240806,-0.3736266791820526,-0.1663181036710739,0.0570013150572776,0.0,0.0,0.7668366432189941,0.311802864074707
-0.0873489379882812,0.1009015664458274,-0.083580806851387,-0.3577759861946106,-0.1638499647378921,0.0493625700473785,0.0,0.0,0.9010193347930908,0.218358039855957
-0.0882253646850586,0.0934656262397766,-0.0892472714185714,-0.3303110897541046,-0.162250205874443,0.0319952890276908,0.0,0.0,0.664196252822876,0.559516429901123
-0.0891793221235275,0.0864012539386749,-0.0952140316367149,-0.3139909505844116,-0.1624280363321304,-0.0035565630532801,0.0,0.0,0.8852050304412842,0.7026181221008301
-0.0898619666695594,0.080072745680809,-0.0667730793356895,-0.2814298570156097,-0.1639213263988495,-0.0298657361418008,0.0,0.0,0.8107032775878906,0.5566251277923584
-0.0904104262590408,0.0738727673888206,-0.0522255972027778,-0.2758461236953735,-0.1665439158678054,-0.0524517223238945,0.0,0.0,0.603074312210083,-0.1004974246025085
-0.0907425880432128,0.0682959854602813,-0.0310536064207553,-0.2481018602848053,-0.1687108129262924,-0.0433377996087074,0.0,0.0,0.4448777437210083,-0.4661756753921509
-0.0910255461931228,0.0632909163832664,-0.0258657746016979,-0.2227269113063812,-0.1711511611938476,-0.0488069579005241,0.0,0.0,0.4869877099990845,0.2709829807281494
-0.0910959243774414,0.0589528903365135,-0.0050304876640439,-0.1930344253778457,-0.1731633245944976,-0.0402433276176452,0.0,0.0,0.2749096155166626,-0.2251234650611877
-0.0910759940743446,0.0548235028982162,0.0038797571323812,-0.1837473660707473,-0.1750535368919372,-0.0378041043877601,0.0,0.0,0.2296599149703979,-0.2439720630645752
-0.0909999832510948,0.0511562451720237,0.0096397241577506,-0.1632347702980041,-0.1771029680967331,-0.0409883111715316,0.0,0.0,0.2901357412338257,-0.8625925779342651
-0.0908727645874023,0.0479710660874843,0.0131092313677072,-0.1416091322898864,-0.1774913817644119,-0.0077676372602581,0.0,0.0,-0.0207352042198181,-0.0068103075027465
-0.0907896980643272,0.044348869472742,0.0087961144745349,-0.1610484570264816,-0.1779809147119522,-0.0097909606993198,0.0,0.0,0.3354424238204956,-0.1574158668518066
-0.0907593742012977,0.041053470224142,0.0040636910125613,-0.1465827077627182,-0.1790118813514709,-0.0206193923950195,0.0,0.0,0.3275047540664673,0.1633799076080322
-0.0908004790544509,0.0379590615630149,-0.0025453944690525,-0.1377210766077041,-0.1805867105722427,-0.031496487557888,0.0,0.0,0.3222918510437011,0.5913200378417969
-0.090776726603508,0.0350854508578777,0.0052161170169711,-0.1280667930841446,-0.1834341883659362,-0.056949608027935,0.0,0.0,-0.008848488330841,-0.1896445155143737
-0.0907959938049316,0.03177460283041,0.0009302160469815,-0.1475057750940323,-0.1863132268190384,-0.0575805976986885,0.0,0.0,0.6964797973632812,-0.5870292782783508
-0.0906945243477821,0.0285384282469749,0.0115028638392686,-0.1440028995275497,-0.1876668781042099,-0.0270729623734951,0.0,0.0,0.7085375785827637,-0.0679749250411987
-0.0904046073555946,0.0258786771446466,0.0298704169690608,-0.1183224916458129,-0.1885505020618438,-0.0176723301410675,0.0,0.0,0.0729162693023681,-0.4674762487411499
-0.0900427848100662,0.0235487315803766,0.0369604788720607,-0.1036504283547401,-0.1893374919891357,-0.0157398916780948,0.0,0.0,-0.3573421239852905,-0.4803553819656372
