x_pos,y_pos,x_vel,y_vel,angle,ang_vel,leg_1,leg_2,main_booster,lat_booster
-0.001529598259367,1.403242588043213,-0.1548115909099578,-0.3412266075611114,0.0016524015227332,0.0325869582593441,0.0,0.0,0.0760559058079899,0.1826645490526663
-0.0030322074890136,1.395656943321228,-0.1519407927989959,-0.3371422588825226,0.003310389816761,0.0331635102629661,0.0,0.0,-0.275564924367919,0.4781387533022783
-0.0045412061735987,1.3876888751983645,-0.1524591743946075,-0.3541454374790191,0.0048611899837851,0.0310187228024005,0.0,0.0,0.4509280508787205,-0.1949290633885954
-0.0061632157303392,1.3799959421157837,-0.1631658971309662,-0.3419035077095032,0.0058129820972681,0.0190379507839679,0.0,0.0,0.673654013122686,-0.9728365467964626
-0.0077249528840184,1.372915744781494,-0.1592177748680114,-0.3146905899047851,0.0088169649243354,0.0600852258503437,0.0,0.0,-0.3331166412892166,0.2865222716403525
-0.0092934612184762,1.3654534816741943,-0.1597948223352432,-0.3316726386547088,0.0117418430745601,0.0585027337074279,0.0,0.0,0.5888098103881052,0.4975466562321736
-0.0108965877443552,1.3584421873092651,-0.1631061732769012,-0.3116406500339508,0.0144961774349212,0.0550918504595756,0.0,0.0,0.5742909810960262,-0.7473593961019059
-0.0124173164367675,1.351977825164795,-0.1566111147403717,-0.2873557806015014,0.0189857762306928,0.0898001790046691,0.0,0.0,0.4754070385003006,0.1322411520253972
-0.0139698032289743,1.346252202987671,-0.1596854925155639,-0.2545388340950012,0.0233769211918115,0.0878311023116111,0.0,0.0,0.8772304455005071,-0.8472920963649722
-0.0156161310151219,1.3413854837417605,-0.1707335710525512,-0.2164102494716644,0.0294098947197198,0.1206700652837753,0.0,0.0,0.9873410107412908,0.1340458623983477
-0.0171867366880178,1.3372137546539309,-0.1636301130056381,-0.185549646615982,0.035909928381443,0.1300127655267715,0.0,0.0,0.7218454467742526,0.5267571349626002
-0.0186639782041311,1.333491325378418,-0.1534532010555267,-0.1655948758125305,0.0415795892477035,0.1134034022688865,0.0,0.0,0.5280074645942727,0.5713181420216707
-0.0200000759214162,1.3303704261779783,-0.1385071873664856,-0.1388468146324157,0.046439841389656,0.0972136706113815,0.0,0.0,-0.0552671757555796,-0.4916504321413314
-0.0213429443538188,1.326867938041687,-0.1392073929309845,-0.1558298468589782,0.0513105988502502,0.0974239259958267,0.0,0.0,-0.6254302042573645,0.971341553786922
-0.0225985534489154,1.3230009078979492,-0.12810680270195,-0.1719530969858169,0.0538221448659896,0.0502357259392738,0.0,0.0,-0.1815785891745838,-0.0747845911439842
-0.0238610263913869,1.3187520503997805,-0.128822386264801,-0.188930481672287,0.0563679747283458,0.0509212687611579,0.0,0.0,-0.5833440708837363,0.2389167738433505
-0.0251303669065237,1.3141213655471802,-0.1295485347509384,-0.2059079110622406,0.058957502245903,0.0517952442169189,0.0,0.0,0.4265694657972743,-0.6533859638037277
-0.0263419151306152,1.3095953464508057,-0.1254051625728607,-0.2013345509767532,0.0631710216403007,0.0842778608202934,0.0,0.0,0.7686929468177832,-0.3820513490431996
-0.0275107380002737,1.3059839010238647,-0.12168949842453,-0.1607225835323333,0.0679352432489395,0.0952930301427841,0.0,0.0,-0.5682742150162781,0.6868674854360077
-0.0286394115537405,1.3019949197769165,-0.1165606379508972,-0.1774580031633377,0.0715915560722351,0.0731329098343849,0.0,0.0,0.90200407847187,0.62060257123704
-0.029631232842803,1.2989460229873655,-0.1021352186799049,-0.1356484591960907,0.0745215266942977,0.0586049444973468,0.0,0.0,-0.498686383134842,-0.1806015094676833
-0.0306297298520803,1.295515060424805,-0.1028979569673538,-0.1526368707418441,0.0775454193353653,0.0604828596115112,0.0,0.0,-0.5999016667616854,-0.3700831378437645
-0.0316349044442176,1.2917026281356812,-0.1036669239401817,-0.16961070895195,0.0806721895933151,0.0625410303473472,0.0,0.0,-0.4489517606232778,0.6535404071797135
-0.0325886718928813,1.287508249282837,-0.0971859171986579,-0.1865223944187164,0.0824600756168365,0.0357609763741493,0.0,0.0,-0.0901698037898304,0.9345544283413588
-0.0334928520023822,1.2829413414001465,-0.0909053608775138,-0.2029962241649627,0.0829447284340858,0.009693837724626,0.0,0.0,-0.2380810512771549,0.7436570590319453
-0.0343580245971679,1.2779808044433594,-0.0859986767172813,-0.220440462231636,0.0824324935674667,-0.0102448221296072,0.0,0.0,0.9666587260879048,-0.8372234839136008
-0.0353620536625385,1.2739288806915283,-0.101713553071022,-0.1801597625017166,0.0837311372160911,0.0259728487581014,0.0,0.0,0.7106590529581436,-0.9078195639959284
-0.036666203290224,1.2707539796829224,-0.1334607452154159,-0.141279712319374,0.0867428034543991,0.0602333955466747,0.0,0.0,-0.7132838698816055,-0.1147725456138681
-0.0379766449332237,1.2671973705291748,-0.1342260539531707,-0.1582560390233993,0.0899015292525291,0.0631745681166648,0.0,0.0,0.982834884340576,0.837031327179159
-0.0393068306148052,1.2641355991363523,-0.1346248090267181,-0.1361814886331558,0.0914876088500022,0.0317215584218502,0.0,0.0,0.0027653684136097,-0.3101685488134785
-0.0406786911189556,1.2614612579345703,-0.1389983147382736,-0.1189769729971885,0.0932844132184982,0.0359359346330165,0.0,0.0,-0.9935271739959716,0.9212946891784668
-0.0419929511845111,1.258408546447754,-0.1317860186100006,-0.1356961578130722,0.0936471670866012,0.0072549232281744,0.0,0.0,-0.9861087799072266,0.8821849822998047
-0.0432534217834472,1.254990816116333,-0.1250577569007873,-0.1518340557813644,0.092657633125782,-0.0197904556989669,0.0,0.0,-0.9946523904800416,0.8805065155029297
-0.0444570556282997,1.251192331314087,-0.11796335875988,-0.168681725859642,0.0902737453579902,-0.047677531838417,0.0,0.0,-0.9554777145385742,0.8859161138534546
-0.0455947890877723,1.2470238208770752,-0.1097064763307571,-0.1850332766771316,0.0862521529197692,-0.0804317891597747,0.0,0.0,-0.7496091723442078,0.485944390296936
-0.0467378608882427,1.242473602294922,-0.1104267686605453,-0.2020104378461837,0.0824103206396102,-0.076836809515953,0.0,0.0,-0.8234981894493103,0.6514854431152344
-0.0478367805480957,1.2375447750091553,-0.1049512848258018,-0.2187956273555755,0.0775112956762313,-0.0979805290699005,0.0,0.0,-0.868572473526001,0.3196275234222412
-0.0489409454166889,1.2322344779968262,-0.1056479215621948,-0.235773354768753,0.0727984830737114,-0.0942561402916908,0.0,0.0,-0.92552250623703,0.6512811183929443
-0.0500022880733013,1.226555109024048,-0.1003369092941284,-0.2521370351314544,0.067060612142086,-0.1147573143243789,0.0,0.0,-0.9091368317604064,0.4511775970458984
-0.051068402826786,1.2204947471618652,-0.1010047793388366,-0.2691154181957245,0.061514426022768,-0.1109238266944885,0.0,0.0,-0.9351094365119934,0.7230324745178223
-0.0520923621952533,1.2140634059906006,-0.0957854986190795,-0.2855810225009918,0.0549768507480621,-0.1307515799999237,0.0,0.0,-0.8843971490859985,0.4055742025375366
-0.0531207099556922,1.207250714302063,-0.0964193865656852,-0.3025600016117096,0.048635508865118,-0.1268266886472702,0.0,0.0,-0.855715811252594,0.8630057573318481
-0.0540736205875873,1.200053334236145,-0.0870633870363235,-0.3196396827697754,0.0404998250305652,-0.1627135723829269,0.0,0.0,-0.949290931224823,0.3530669212341308
-0.0550305359065532,1.1924749612808228,-0.0876578614115715,-0.336620420217514,0.0325642153620719,-0.1587124168872833,0.0,0.0,-0.970430850982666,0.2604800462722778
-0.0559912696480751,1.1845154762268066,-0.0882306843996048,-0.3536007106304168,0.0248302891850471,-0.1546785533428192,0.0,0.0,-0.9828696846961976,0.8752413988113403
-0.0568805709481239,1.1761691570281982,-0.079414777457714,-0.3708223104476928,0.0154267959296703,-0.1880699843168258,0.0,0.0,-0.964695692062378,0.013319969177246
-0.0577731132507324,1.1674420833587646,-0.079939991235733,-0.3878044784069061,0.0062278229743242,-0.1839792430400848,0.0,0.0,-0.987842619419098,-0.016298770904541
-0.0586687102913856,1.158334255218506,-0.0804393365979194,-0.4047861695289612,-0.0027654005680233,-0.1798645108938217,0.0,0.0,-0.9738809466362,-0.120330810546875
-0.0595667846500873,1.1488454341888428,-0.0809114053845405,-0.421767383813858,-0.011551828123629,-0.175728365778923,0.0,0.0,-0.9627447724342346,-0.0052899122238159
-0.06046724319458,1.1389756202697754,-0.0813547298312187,-0.438748151063919,-0.0201304741203784,-0.1715731173753738,0.0,0.0,-0.9848424196243286,-0.7893187999725342
-0.0614172928035259,1.1287258863449097,-0.0877373740077018,-0.4556578993797302,-0.0273047424852848,-0.1434855610132217,0.0,0.0,-0.9771142601966858,-0.6332575082778931
-0.0624238029122352,1.1181012392044067,-0.0949975922703743,-0.4723232388496399,-0.0328894034028053,-0.1116931065917015,0.0,0.0,-0.99308180809021,-0.8785485029220581
-0.0634886771440506,1.1070927381515503,-0.1024925857782363,-0.4893606603145599,-0.0368344374001026,-0.0789005905389785,0.0,0.0,-0.9144048690795898,-0.6780789494514465
-0.0646077170968055,1.0957114696502686,-0.1094836965203285,-0.5058935284614563,-0.0392264686524868,-0.0478407442569732,0.0,0.0,-0.9939191937446594,-0.5484136939048767
-0.065760038793087,1.083948016166687,-0.1138619557023048,-0.5228525400161743,-0.0405868142843246,-0.0272068567574024,0.0,0.0,-0.9977051615715028,-0.6609259247779846
-0.066973403096199,1.0718034505844116,-0.1217083930969238,-0.5397515892982483,-0.0402127839624881,0.0074806376360356,0.0,0.0,-0.9960938692092896,0.3632810115814209
-0.0681864768266677,1.0592767000198364,-0.121910847723484,-0.5567254424095154,-0.0396270789206028,0.0117144118994474,0.0,0.0,-0.9834784269332886,0.2059254646301269
-0.0693991631269455,1.04636812210083,-0.1220736280083656,-0.5736992359161377,-0.0388294346630573,0.0159529782831668,0.0,0.0,-0.945217788219452,-0.3119181394577026
-0.0706109032034874,1.033077359199524,-0.1221955418586731,-0.5906731486320496,-0.0378196947276592,0.0201950930058956,0.0,0.0,-0.5252341628074646,0.0631929636001586
-0.0718213096261024,1.0194045305252075,-0.1222754493355751,-0.6076470613479614,-0.0365977212786674,0.024439375847578,0.0,0.0,-0.9890457391738892,0.4740149974822998
-0.0730298981070518,1.0053497552871704,-0.1223122328519821,-0.6246210932731628,-0.0351635031402111,0.0286846254020929,0.0,0.0,-0.9862678050994872,0.7047446966171265
-0.0741896629333496,0.9909142851829528,-0.1164672002196312,-0.6415692567825317,-0.0346850417554378,0.0095692174509167,0.0,0.0,-0.9205805659294128,0.3051719665527344
-0.075346753001213,0.9760966300964355,-0.1164149492979049,-0.6585431694984436,-0.0339943952858448,0.013812905177474,0.0,0.0,-0.974096953868866,-0.2828527688980102
-0.0765008926391601,0.9608970284461976,-0.1163168996572494,-0.6755170226097107,-0.0330916941165924,0.0180542059242725,0.0,0.0,-0.774296760559082,0.503612756729126
-0.0776110664010047,0.9453097581863404,-0.1111175790429115,-0.6927683353424072,-0.0329922959208488,0.0019876437727361,0.0,0.0,-0.837028980255127,0.0289839506149292
-0.0787171348929405,0.9293402433395386,-0.1109259128570556,-0.7097422480583191,-0.0326812379062175,0.0062210881151258,0.0,0.0,-0.7751954197883606,0.7262437343597412
-0.0797590240836143,0.9129945039749146,-0.1032035946846008,-0.7265025973320007,-0.0336539112031459,-0.0194534938782453,0.0,0.0,-0.6110250353813171,-0.6907506585121155
-0.0808432549238205,0.896260678768158,-0.1088551729917526,-0.7437102794647217,-0.033229824155569,0.0084816254675388,0.0,0.0,-0.3168690204620361,0.5088851451873779
-0.0818798094987869,0.8791487216949463,-0.1032295450568199,-0.7605395913124084,-0.0336520262062549,-0.0084441024810075,0.0,0.0,0.3018951416015625,0.485978364944458
-0.082971952855587,0.8622177839279175,-0.1086537390947341,-0.7525017857551575,-0.034206960350275,-0.0110986661165952,0.0,0.0,-0.129183292388916,-0.2106236219406128
-0.0840577110648155,0.8449047207832336,-0.108221411705017,-0.7694757580757141,-0.0345520265400409,-0.006901484914124,0.0,0.0,-0.040892481803894,-0.1728835701942443
-0.0851364135742187,0.8272097110748291,-0.1077408045530319,-0.7864496111869812,-0.0346877463161945,-0.0027141668833792,0.0,0.0,0.6205899715423584,0.4186846017837524
-0.0863053351640701,0.8103810548782349,-0.1163732782006263,-0.7479512691497803,-0.0351991727948188,-0.0102284038439393,0.0,0.0,-0.6367167830467224,-0.2168389558792114
-0.0874664336442947,0.7931703925132751,-0.1157969683408737,-0.7649251222610474,-0.0355023443698883,-0.0060635218396782,0.0,0.0,0.5085852146148682,-0.0238604545593261
-0.0886371582746505,0.7761147022247314,-0.1168373450636863,-0.7580373287200928,-0.0357403382658958,-0.0047597088851034,0.0,0.0,0.0251969099044799,-0.6177462935447693
-0.0897933021187782,0.7589728832244873,-0.1168795451521873,-0.7618288397789001,-0.0344869941473007,0.0250671412795782,0.0,0.0,-0.1031989455223083,0.5343897342681885
-0.0909002274274826,0.741441547870636,-0.1111507639288902,-0.7791553139686584,-0.0340352803468704,0.0090342191979289,0.0,0.0,0.7309426069259644,0.8634058237075806
-0.0919103622436523,0.724778950214386,-0.0999269634485244,-0.7405855655670166,-0.0351113379001617,-0.0215210504829883,0.0,0.0,0.0209481716156005,0.3968775272369385
-0.0928432494401931,0.7084875702857971,-0.0926389172673225,-0.7240832448005676,-0.0357539243996143,-0.0128518287092447,0.0,0.0,-0.1867215633392334,-0.2370920777320861
-0.0937656387686729,0.6918139457702637,-0.091790460050106,-0.7410572171211243,-0.0361926779150962,-0.0087750731036067,0.0,0.0,0.6620752811431885,0.7323757410049438
-0.0947497338056564,0.6752549409866333,-0.0964035615324974,-0.7360051870346069,-0.0381754711270332,-0.039656039327383,0.0,0.0,0.0423493385314941,0.4756897687911987
-0.0956780463457107,0.6590601205825806,-0.0911427438259124,-0.7198164463043213,-0.0398385524749755,-0.0332617871463298,0.0,0.0,-0.4243439435958862,0.5570138692855835
-0.0965579003095626,0.6424809098243713,-0.0855747312307357,-0.7369146943092346,-0.0422223582863807,-0.0476759672164917,0.0,0.0,0.3335866928100586,0.7011677026748657
-0.0973962768912315,0.6263424754142761,-0.0801360756158828,-0.7173749208450317,-0.0458784997463226,-0.0731226652860641,0.0,0.0,0.546379804611206,-0.4332841634750366
-0.0982032790780067,0.6108036637306213,-0.0771511197090148,-0.6907293796539307,-0.0493876375257968,-0.0701828151941299,0.0,0.0,-0.1935275197029113,-0.2039520144462585
-0.0989974960684776,0.5948829054832458,-0.0760681703686714,-0.7077041864395142,-0.0526991598308086,-0.0662302523851394,0.0,0.0,0.5393717288970947,0.2580702304840088
-0.0997395515441894,0.5790562629699707,-0.0711675062775611,-0.7035195231437683,-0.0557121559977531,-0.0602597296237945,0.0,0.0,0.324610948562622,0.2923609018325805
-0.1003760322928428,0.5633248686790466,-0.061139952391386,-0.6992689371109009,-0.0581860318779945,-0.0494776405394077,0.0,0.0,0.5356199741363525,-0.5708326697349548
-0.1008652672171592,0.5479971170425415,-0.0481331646442413,-0.6812640428543091,-0.0589752048254013,-0.015783354640007,0.0,0.0,0.6450165510177612,0.3257043361663818
-0.1011787429451942,0.5328630208969116,-0.0313973389565944,-0.6726235747337341,-0.058930117636919,0.0009016090189106,0.0,0.0,0.3494031429290771,-0.4268616437911987
-0.1014464348554611,0.5182661414146423,-0.0269796587526798,-0.6487438082695007,-0.0587158240377903,0.0042861434631049,0.0,0.0,0.0843081474304199,0.4522870779037475
-0.1016499549150466,0.5040307641029358,-0.0208542421460151,-0.6326609253883362,-0.0582186058163642,0.0099442210048437,0.0,0.0,-0.169960618019104,0.364800214767456
-0.1018385887145996,0.4894134700298309,-0.019557686522603,-0.6496345400810242,-0.0575341470539569,0.0136891277506947,0.0,0.0,0.1869733333587646,0.792165994644165
-0.1018536537885665,0.4747443497180938,-0.0008550859056413,-0.6519854068756104,-0.0581715330481529,-0.0127478744834661,0.0,0.0,0.4028867483139038,-0.5473681688308716
-0.1019197478890419,0.4603471159934997,-0.0071449601091444,-0.6398560404777527,-0.0576477386057376,0.0104758627712726,0.0,0.0,0.6583013534545898,0.8336657285690308
-0.1017601042985916,0.4468608200550079,0.0167638920247554,-0.5994234681129456,-0.0584400072693824,-0.0158454086631536,0.0,0.0,0.4089186191558838,0.1480672359466552
-0.1015762314200401,0.4337210059165954,0.0190981701016426,-0.5840219259262085,-0.0591450221836566,-0.0141003653407096,0.0,0.0,0.3917338848114013,-0.1851646900177002
-0.1014415770769119,0.421211838722229,0.0144979041069746,-0.5560051798820496,-0.0601580142974853,-0.0202600620687007,0.0,0.0,-0.4649084210395813,0.1833356618881225
-0.1012907996773719,0.4083205461502075,0.0159274078905582,-0.5729789137840271,-0.0609965287148952,-0.0167701728641986,0.0,0.0,0.6253151893615723,0.7098702192306519
-0.1010799407958984,0.3961575627326965,0.0232975892722606,-0.5406671762466431,-0.0631931349635124,-0.0439321026206016,0.0,0.0,-0.1649509668350219,0.2413914203643798
-0.1008527725934982,0.3836126327514648,0.024762412533164,-0.5576411485671997,-0.0652205273509025,-0.0405476577579975,0.0,0.0,0.5506713390350342,0.6489295959472656
-0.1005529388785362,0.3713806867599487,0.0332259461283683,-0.5437896847724915,-0.068428598344326,-0.0641613826155662,0.0,0.0,0.1027665138244628,-0.7509775161743164
-0.1003574356436729,0.3593833446502685,0.0211861841380596,-0.5332878232002258,-0.0700485557317733,-0.0323989614844322,0.0,0.0,0.812232494354248,-0.6492263078689575
-0.1003336906433105,0.347886323928833,0.0029812317807227,-0.5110100507736206,-0.0706565752625465,-0.0121604558080434,0.0,0.0,-0.5039339661598206,0.3320546150207519
-0.100293256342411,0.3360071182250976,0.0045053348876535,-0.5279837250709534,-0.0711077228188514,-0.0090233907103538,0.0,0.0,0.3953989744186401,0.7762706279754639
-0.1000948920845985,0.3241927623748779,0.0216237157583236,-0.5251709222793579,-0.0728707760572433,-0.0352614298462867,0.0,0.0,0.694239616394043,-0.117678165435791
-0.0996741279959678,0.3131504952907562,0.0430114269256591,-0.4908138513565063,-0.0737960860133171,-0.0185062475502491,0.0,0.0,0.1446839570999145,-0.4370052814483642
-0.0992123633623123,0.3025321662425995,0.0470304563641548,-0.4719663262367248,-0.0746489316225051,-0.0170565955340862,0.0,0.0,-0.4538552165031433,-0.7328668832778931
-0.0987772941589355,0.2915452718734741,0.0431055948138237,-0.4882868826389313,-0.0742440894246101,0.0080967294052243,0.0,0.0,0.4380595684051513,-0.0211852192878723
-0.0982213020324707,0.2809234857559204,0.054741732776165,-0.4720324277877807,-0.0733945220708847,0.0169914029538631,0.0,0.0,0.2478396892547607,-0.6490553617477417
-0.0976596847176551,0.270855188369751,0.0538645386695861,-0.4473730325698852,-0.0711273699998855,0.045343093574047,0.0,0.0,-0.5073261260986328,0.2663679122924804
-0.0970808044075965,0.2604048252105713,0.0554622709751129,-0.4643472135066986,-0.0687316283583641,0.0479149222373962,0.0,0.0,0.2758326530456543,-0.0928407907485961
-0.0963982567191124,0.2500959038734436,0.0654174163937568,-0.4580451846122741,-0.0659242272377014,0.0561481900513172,0.0,0.0,-0.3441067934036255,-0.3446147441864013
-0.0956983566284179,0.2394051104784011,0.0670305341482162,-0.4750197231769562,-0.062997929751873,0.0585260689258575,0.0,0.0,0.2518224716186523,0.1401689052581787
-0.0950535759329795,0.2289254814386367,0.0618552565574646,-0.4656545221805572,-0.0604077726602554,0.0518032796680927,0.0,0.0,0.537199854850769,-0.5133840441703796
-0.0944218635559082,0.2188546061515808,0.0594720654189586,-0.4474495053291321,-0.0567434951663017,0.0732855126261711,0.0,0.0,-0.0285839438438415,0.5663902759552002
-0.093726061284542,0.2083968520164489,0.066957838833332,-0.4646928012371063,-0.0541522502899169,0.0518248006701469,0.0,0.0,0.7548198699951172,-0.1788042783737182
-0.0928536430001258,0.198118045926094,0.0838663205504417,-0.4567188024520874,-0.0508219003677368,0.0666071251034736,0.0,0.0,0.2464144229888916,-0.2619866728782654
-0.0918643027544021,0.1882245689630508,0.0951311439275741,-0.4395851194858551,-0.047059666365385,0.0752446949481964,0.0,0.0,-0.008340835571289,-0.6437304019927979
-0.0909061431884765,0.177958995103836,0.0906789824366569,-0.4560939967632293,-0.0419830381870269,0.1015323400497436,0.0,0.0,0.8243465423583984,0.2544515132904053
