x_pos,y_pos,x_vel,y_vel,angle,ang_vel,leg_1,leg_2,main_booster,lat_booster
-0.0016525269020348,1.403160810470581,-0.1674715876579284,-0.3448620140552521,0.0019965034443885,0.0394000113010406,0.0,0.0,-0.1399744749069214,0.6330370903015137
-0.0033800124656409,1.3949580192565918,-0.1734746843576431,-0.3645737469196319,0.0027093833778053,0.0142596466466784,0.0,0.0,-0.1072436571121215,0.4825817346572876
-0.0052358629181981,1.3862907886505127,-0.1864159405231475,-0.3852083086967468,0.0035347840748727,0.0165097527205944,0.0,0.0,0.5746723413467407,0.9427922964096068
-0.0072749136015772,1.377870798110962,-0.2027830630540847,-0.3742205500602722,0.0024177199229598,-0.0223434530198574,0.0,0.0,0.3289980888366699,0.7029967308044434
-0.0092712398618459,1.369776725769043,-0.1973799467086792,-0.359740287065506,0.0001969670702237,-0.0444192104041576,0.0,0.0,0.1872411966323852,0.4652770757675171
-0.0112948417663574,1.3618041276931765,-0.2006625682115554,-0.3543357253074646,-0.0014793226728215,-0.0335287973284721,0.0,0.0,-0.4376527070999145,0.8785853385925293
-0.0133768077939748,1.3533676862716677,-0.2048703730106353,-0.374957263469696,-0.004770771600306,-0.0658353343605995,0.0,0.0,-0.6220903396606445,0.8961696624755859
-0.0154947284609079,1.3444697856903076,-0.2062659561634063,-0.3954860866069793,-0.0102288117632269,-0.1091709285974502,0.0,0.0,-0.488398790359497,-0.0663456916809082
-0.0177352912724018,1.3351086378097534,-0.2185731381177902,-0.4160995483398437,-0.0156532526016235,-0.1084987893700599,0.0,0.0,-0.3499916195869446,0.6366106271743774
-0.0200472828000783,1.325286865234375,-0.2244609296321869,-0.4366021454334259,-0.0223179962486028,-0.1333069205284118,0.0,0.0,-0.3306273221969604,0.5531072616577148
-0.0224296562373638,1.3150010108947754,-0.2302378714084625,-0.457293152809143,-0.030228367075324,-0.158222034573555,0.0,0.0,0.0046800374984741,0.9026086330413818
-0.0247984882444143,1.304726481437683,-0.2270745038986206,-0.4568697214126587,-0.0399405360221862,-0.194261223077774,0.0,0.0,-0.6381214261054993,0.8462868928909302
-0.0272032730281353,1.293989181518555,-0.2285834848880767,-0.477571576833725,-0.0517113171517849,-0.2354369610548019,0.0,0.0,-0.2620903253555298,0.9146852493286132
-0.0296432487666606,1.282775640487671,-0.2300432175397873,-0.4989188909530639,-0.0655366629362106,-0.2765320837497711,0.0,0.0,-0.6131781935691833,0.7868008613586426
-0.0321198478341102,1.271101951599121,-0.2317219972610473,-0.5196037888526917,-0.0813296809792518,-0.3158891797065735,0.0,0.0,-0.6928129196166992,-0.4665896892547607
-0.0347076430916786,1.2589679956436155,-0.2428092509508133,-0.5402365922927856,-0.0971756130456924,-0.316947728395462,0.0,0.0,-0.4623869657516479,0.8016701936721802
-0.0373263359069824,1.2463719844818115,-0.2439037263393402,-0.5610878467559814,-0.1150425523519516,-0.3573712110519409,0.0,0.0,-0.5536150932312012,-0.1475210189819336
-0.040051557123661,1.2333166599273682,-0.2545191049575805,-0.5817281603813171,-0.132983386516571,-0.3588494658470154,0.0,0.0,-0.377084732055664,-0.4674960374832153
-0.0428808219730854,1.219801664352417,-0.2648769617080688,-0.6023693680763245,-0.151009663939476,-0.3605576157569885,0.0,0.0,-0.0419837832450866,0.4563255310058594
-0.045811366289854,1.2058274745941162,-0.274958997964859,-0.6230109333992004,-0.1691308170557022,-0.3624560236930847,0.0,0.0,-0.2817785143852234,-0.5965173244476318
-0.0488764755427837,1.1914074420928955,-0.2892943024635315,-0.6429407596588135,-0.1864127218723297,-0.3456694483757019,0.0,0.0,0.3173351287841797,-0.4356385469436645
-0.0519622787833213,1.1770451068878174,-0.2913574278354645,-0.6405807733535767,-0.2037652134895324,-0.3470813035964966,0.0,0.0,0.1278305053710937,-0.5163862705230713
-0.05500965192914,1.162751078605652,-0.2886570692062378,-0.6375906467437744,-0.2200146168470382,-0.3250173032283783,0.0,0.0,0.147314190864563,-0.937491774559021
-0.0581165328621864,1.1483089923858645,-0.2963883280754089,-0.644059956073761,-0.2345104068517685,-0.2899416089057922,0.0,0.0,0.3730746507644653,-0.2125912308692932
-0.061298944056034,1.134227991104126,-0.3033294975757599,-0.6282721161842346,-0.2496933937072754,-0.3036871254444122,0.0,0.0,0.3819036483764648,-0.3620450496673584
-0.0645388588309288,1.120566964149475,-0.3084227442741394,-0.6098808646202087,-0.265588104724884,-0.3178941011428833,0.0,0.0,0.403306245803833,-0.5660188794136047
-0.0677334815263748,1.107358694076538,-0.3049213290214538,-0.5897460579872131,-0.280483216047287,-0.2979026436805725,0.0,0.0,-0.4281615018844604,-0.8250439763069153
-0.0710757225751876,1.0937305688858032,-0.3215822279453277,-0.6081706285476685,-0.2934982478618622,-0.2603010833263397,0.0,0.0,0.1443157196044922,-0.6777265071868896
-0.0744792968034744,1.0804846286773682,-0.3288216590881347,-0.5910810232162476,-0.3054226636886596,-0.2384885102510452,0.0,0.0,-0.7984430193901062,-0.7108163237571716
-0.0780033096671104,1.066800832748413,-0.3421574234962463,-0.6103551387786865,-0.3160322308540344,-0.2121912539005279,0.0,0.0,0.3387346267700195,-0.854434609413147
-0.0814192742109298,1.0536658763885498,-0.3329054713249206,-0.5856964588165283,-0.3250602483749389,-0.1805604398250579,0.0,0.0,0.0931079387664794,-0.8545634150505066
-0.0849191695451736,1.0405373573303225,-0.342808187007904,-0.5851246118545532,-0.3325551152229309,-0.1498975902795791,0.0,0.0,-0.1560818552970886,-0.3883414268493652
-0.0884689316153526,1.026946783065796,-0.3476142287254333,-0.6057441830635071,-0.3402504026889801,-0.1539054960012436,0.0,0.0,0.1633347272872924,0.0343443155288696
-0.0920207947492599,1.0132755041122437,-0.3474482297897339,-0.6094524264335632,-0.3483600616455078,-0.1621928811073303,0.0,0.0,0.608824610710144,-0.4356663227081299
-0.0953883156180381,0.9999956488609314,-0.3289150595664978,-0.5921445488929749,-0.3566093146800995,-0.1649852693080902,0.0,0.0,0.1683984994888305,-0.7160905599594116
-0.0986407250165939,0.9870323538780212,-0.3186224699020386,-0.5778059363365173,-0.3635860979557037,-0.1395356804132461,0.0,0.0,-0.2291306853294372,-0.3945112824440002
-0.1019213646650314,0.9736071228981018,-0.3212527930736542,-0.598426103591919,-0.3707874417304992,-0.1440268456935882,0.0,0.0,0.3853392601013183,0.5430037975311279
-0.1049203872680664,0.9605741500854492,-0.2919078767299652,-0.5813349485397339,-0.3792541921138763,-0.1693353354930877,0.0,0.0,0.721057653427124,-0.728271484375
-0.1077038794755935,0.9483665823936462,-0.2715075612068176,-0.5443977117538452,-0.3865374326705932,-0.145664632320404,0.0,0.0,0.7360482215881348,-0.9016166925430298
-0.1102928146719932,0.9366069436073304,-0.2536255717277527,-0.5240962505340576,-0.3921497166156769,-0.1122455447912216,0.0,0.0,0.8183822631835938,-0.7672718167304993
-0.1127325072884559,0.9256867170333862,-0.2397306263446808,-0.4865151941776275,-0.3966776132583618,-0.09055807441473,0.0,0.0,0.8127744197845459,-0.8032830357551575
-0.1148724555969238,0.915047824382782,-0.2113482654094696,-0.4735795557498932,-0.3995121419429779,-0.0566907227039337,0.0,0.0,0.8570786714553833,-0.8794655203819275
-0.116825483739376,0.904394805431366,-0.1943124234676361,-0.4737448394298553,-0.4005842804908752,-0.021442761644721,0.0,0.0,0.8304316997528076,-0.7975183725357056
-0.118487074971199,0.8940533995628357,-0.1666720658540725,-0.4594815969467163,-0.400032103061676,0.0110436445102095,0.0,0.0,0.9759972095489502,-0.921866238117218
-0.1201145201921463,0.8837996125221252,-0.1646943539381027,-0.4551782608032226,-0.3979479968547821,0.0416813306510448,0.0,0.0,0.7582745552062988,-0.8962914943695068
-0.1216005310416221,0.8735761642456055,-0.1520951986312866,-0.4533948302268982,-0.394206553697586,0.0748285725712776,0.0,0.0,0.8980672359466553,-0.8974723219871521
-0.122858241200447,0.8635935187339783,-0.130882441997528,-0.4422721862792969,-0.3887536227703094,0.1090584397315979,0.0,0.0,0.7352983951568604,-0.6236146688461304
-0.1239142417907714,0.8544708490371704,-0.1113898158073425,-0.4038895070552826,-0.3825876116752624,0.1233200579881668,0.0,0.0,0.3433980941772461,-0.8631964921951294
-0.124870017170906,0.8458918929100037,-0.1026998907327652,-0.3793972134590149,-0.375019758939743,0.1513571441173553,0.0,0.0,0.4014906883239746,-0.5949644446372986
-0.1256895065307617,0.8374885320663452,-0.0899349972605705,-0.3714135587215423,-0.3665531277656555,0.1693328917026519,0.0,0.0,0.6554678678512573,-0.2917948961257934
-0.1261248588562011,0.8293476104736328,-0.0519019663333892,-0.3596987128257751,-0.3577093780040741,0.1768750548362732,0.0,0.0,0.0907435417175293,-0.6609721779823303
-0.126428410410881,0.8214829564094543,-0.0397417247295379,-0.347242146730423,-0.3478406071662903,0.1973752081394195,0.0,0.0,-0.4078249931335449,0.4501234292984009
-0.126678854227066,0.8131569623947144,-0.0341705009341239,-0.3678678572177887,-0.3382661342620849,0.1914895474910736,0.0,0.0,-0.5425010919570923,0.3878203630447387
-0.126872256398201,0.8043696284294128,-0.0282072834670543,-0.3884930610656738,-0.3289889991283417,0.1855428367853164,0.0,0.0,-0.4107143878936767,0.242896556854248
-0.1270048171281814,0.795120894908905,-0.0218705497682094,-0.4091176986694336,-0.320012092590332,0.1795381605625152,0.0,0.0,-0.9177345633506776,0.2118699550628662
-0.1270731985569,0.7854107618331909,-0.0151787027716636,-0.4297417998313904,-0.3113381564617157,0.1734786331653595,0.0,0.0,-0.8279708623886108,0.506643533706665
-0.1270290315151214,0.7752222418785095,-0.0025150924921035,-0.4513566195964813,-0.3041585683822632,0.143590897321701,0.0,0.0,-0.9071080088615416,-0.127830684185028
-0.1269142180681228,0.7645716071128845,0.0048334035091102,-0.4719782173633575,-0.2972869873046875,0.1374314129352569,0.0,0.0,-0.9629992246627808,-0.0077632665634155
-0.1267257630825042,0.7534592747688293,0.0124833853915333,-0.4925993084907532,-0.2907256782054901,0.131226435303688,0.0,0.0,-0.8370024561882019,0.044382095336914
-0.1264609396457672,0.7418848872184753,0.0204178262501955,-0.513219952583313,-0.2844767272472381,0.1249788552522659,0.0,0.0,-0.9809123277664183,-0.4043577909469604
-0.1261169463396072,0.7298483848571777,0.0286202188581228,-0.5338402390480042,-0.278542160987854,0.1186914891004562,0.0,0.0,-0.941242516040802,-0.6163408160209656
-0.1257452070713043,0.7173763513565063,0.0302657596766948,-0.5530140399932861,-0.271462470293045,0.1415934860706329,0.0,0.0,-0.9814901351928712,-0.5848791599273682
-0.1253251135349273,0.7044556736946106,0.0344805195927619,-0.5728727579116821,-0.2637600898742676,0.1540477573871612,0.0,0.0,-0.9429670572280884,0.0949925184249877
-0.1248188987374305,0.6910732388496399,0.0433924421668052,-0.5934942364692688,-0.2563773095607757,0.147655576467514,0.0,0.0,-0.9506761431694032,-0.2290507555007934
-0.1242245659232139,0.6772287487983704,0.0525122173130512,-0.6141151785850525,-0.2493156343698501,0.1412334144115448,0.0,0.0,-0.7857632637023926,-0.3796118497848511
-0.1235401183366775,0.6629223227500916,0.0618263073265552,-0.6347357034683228,-0.2425764501094818,0.1347837597131729,0.0,0.0,-0.9459375739097596,-0.6441551446914673
-0.1228099837899208,0.64817875623703,0.0654517114162445,-0.6540432572364807,-0.2349005937576294,0.1535171568393707,0.0,0.0,-0.846640944480896,-0.3801100254058838
-0.1219863891601562,0.6329731345176697,0.075115755200386,-0.6746641993522644,-0.2275496423244476,0.1470189243555069,0.0,0.0,-0.6722452640533447,-0.7406224012374878
-0.121120736002922,0.617332935333252,0.0782203823328018,-0.6938565373420715,-0.2190922945737838,0.1691467314958572,0.0,0.0,-0.7030668258666992,-0.5259763598442078
-0.1202055960893631,0.601244330406189,0.0822581574320793,-0.713702380657196,-0.2097391933202743,0.1870621442794799,0.0,0.0,-0.5851843953132629,-0.2081440091133117
-0.1191926002502441,0.5846940279006958,0.0923603773117065,-0.7343249917030334,-0.2007139027118683,0.1805056780576706,0.0,0.0,-0.3469387888908386,-0.2885047197341919
-0.1180804222822189,0.5676818490028381,0.1025882512331008,-0.7549468278884888,-0.1920171827077865,0.173934131860733,0.0,0.0,-0.035257875919342,-0.5099273324012756
-0.1169149428606033,0.5502275228500366,0.1069694906473159,-0.7745369672775269,-0.1824030727148056,0.1922819316387176,0.0,0.0,0.3042657375335693,-0.4571084976196289
-0.1155083626508712,0.5329681038856506,0.1311277896165847,-0.7659403085708618,-0.1728505194187164,0.1910512149333953,0.0,0.0,0.291367769241333,-0.6322391033172607
-0.1140253990888595,0.5157143473625183,0.1378722786903381,-0.7656546235084534,-0.1624151915311813,0.208706647157669,0.0,0.0,0.369320273399353,-0.6509042978286743
-0.1123858466744422,0.4983886480331421,0.1524364054203033,-0.7688159942626953,-0.1508977115154266,0.2303497493267059,0.0,0.0,0.3714516162872314,-0.6555799245834351
-0.1106802970170974,0.4810312986373901,0.1580812036991119,-0.7702203989028931,-0.1384558379650116,0.2488373965024948,0.0,0.0,0.2394136190414428,-0.2267895340919494
-0.108794018626213,0.4640981256961822,0.1764965504407882,-0.7515017986297607,-0.1263742446899414,0.2416320592164993,0.0,0.0,0.045046329498291,-0.3891049027442932
-0.1066869720816612,0.4474619328975677,0.1986501961946487,-0.7384063601493835,-0.1143897622823715,0.239689439535141,0.0,0.0,0.3953871726989746,-0.3209899663925171
-0.104489229619503,0.4314092397689819,0.2084786146879196,-0.7126235365867615,-0.1031749993562698,0.2242955267429351,0.0,0.0,0.4784526824951172,-0.7224310040473938
-0.1023391708731651,0.4153585433959961,0.2028110325336456,-0.7125648856163025,-0.0910795181989669,0.2419095784425735,0.0,0.0,0.3248399496078491,-0.4038625359535217
-0.0999921783804893,0.3997889161109924,0.2226721048355102,-0.6912918090820312,-0.0791653171181678,0.2382840812206268,0.0,0.0,0.2344589233398437,-0.4579778909683227
-0.0975792855024337,0.384409636259079,0.2299447953701019,-0.6829574108123779,-0.0679318159818649,0.2246699631214141,0.0,0.0,0.1320314407348632,-0.5842316746711731
-0.0951147079467773,0.3692753314971924,0.2343233376741409,-0.6721312999725342,-0.0559324547648429,0.2399873733520507,0.0,0.0,0.441209077835083,-0.3002869486808777
-0.092518426477909,0.3545936942100525,0.2478719651699066,-0.6521149277687073,-0.0443107970058918,0.2324330061674118,0.0,0.0,0.2014627456665039,-0.7332594990730286
-0.0897812843322753,0.3400838673114776,0.260719358921051,-0.644547164440155,-0.0314769297838211,0.2566772699356079,0.0,0.0,0.6359802484512329,-0.566428542137146
-0.0869447737932205,0.3256163299083709,0.2697835564613342,-0.6427671909332275,-0.0177806913852691,0.2739247977733612,0.0,0.0,0.4752230644226074,-0.2935304641723633
-0.0839103683829307,0.3112246692180633,0.2895036935806274,-0.6395218968391418,-0.004028215073049,0.2750497162342071,0.0,0.0,0.5641534328460693,-0.6675952672958374
-0.0806657820940017,0.2971822619438171,0.3091846406459808,-0.6241356730461121,0.0110459709540009,0.3014835715293884,0.0,0.0,0.744844913482666,-0.3523732423782348
-0.0771698951721191,0.2833064496517181,0.3339552283287048,-0.6168943047523499,0.0264766085892915,0.3086130321025848,0.0,0.0,0.7874457836151123,-0.8415327668190002
-0.0736603736877441,0.2701921463012695,0.3339755833148956,-0.5832429528236389,0.0432446971535682,0.335361897945404,0.0,0.0,0.7735505104064941,-0.5480608344078064
-0.0700855255126953,0.2578418254852295,0.339641273021698,-0.5495122075080872,0.0608786083757877,0.3526784181594848,0.0,0.0,0.7525540590286255,-0.512027382850647
-0.0663456916809082,0.2461024075746536,0.3550525307655334,-0.5226268768310547,0.0796118974685669,0.3746657073497772,0.0,0.0,0.8606970310211182,-0.5648590922355652
-0.0624505057930946,0.2344568371772766,0.3694611489772796,-0.5187685489654541,0.0994913280010223,0.3975886702537536,0.0,0.0,0.9348797798156738,-0.5387485027313232
-0.0586139671504497,0.2232250273227691,0.3630674481391907,-0.5006876587867737,0.1199391037225723,0.4089555740356445,0.0,0.0,0.914297103881836,-0.2277801036834716
-0.0546920783817768,0.2130410075187683,0.3715064227581024,-0.4544159471988678,0.1405274868011474,0.4117677807807922,0.0,0.0,0.7834835052490234,-0.5895302295684814
-0.0508219711482524,0.2032953649759292,0.3655951619148254,-0.4353030025959015,0.1619134694337844,0.4277194142341614,0.0,0.0,0.6604751348495483,-0.4056274890899658
-0.0470974929630756,0.1942444443702697,0.3519962430000305,-0.4046229124069214,0.1824138611555099,0.410007894039154,0.0,0.0,0.3622182607650757,-0.3535445928573608
-0.0433003418147563,0.1856028586626052,0.3592983484268188,-0.386712372303009,0.2029424905776977,0.4105726182460785,0.0,0.0,0.0375235080718994,-0.132064938545227
-0.0395252220332622,0.1771842390298843,0.3576306998729706,-0.3770159184932709,0.2230155766010284,0.4014618992805481,0.0,0.0,0.2276017665863037,-0.3673836588859558
-0.0358277335762977,0.1690995544195175,0.3505279421806335,-0.3623432219028473,0.2425082772970199,0.3898543119430542,0.0,0.0,0.0854051113128662,-0.2389633059501648
-0.0321197509765625,0.1610255390405655,0.3520196676254272,-0.3620551824569702,0.2616336047649383,0.3825073838233948,0.0,0.0,0.3794248104095459,-0.3458788394927978
-0.0285316463559865,0.1531810313463211,0.3408626616001129,-0.3519527614116668,0.2800213098526001,0.3677540719509125,0.0,0.0,0.4979950189590454,-0.2985973954200744
-0.0251022335141897,0.1455039829015731,0.3259721100330353,-0.3445530831813812,0.2974958121776581,0.3494901359081268,0.0,0.0,-0.1722175478935241,-0.1556182503700256
-0.0215698238462209,0.1373659521341323,0.3366302251815796,-0.3651805222034454,0.3146935105323791,0.3439538180828094,0.0,0.0,0.3541576862335205,-0.3515457510948181
-0.0179808624088764,0.1292215436697006,0.3424084484577179,-0.3656459152698517,0.3318525850772857,0.3431816697120666,0.0,0.0,0.6532361507415771,-0.1495386958122253
-0.0144020076841115,0.1217697262763977,0.3411169946193695,-0.3351479172706604,0.3494178652763366,0.3513054251670837,0.0,0.0,0.5113054513931274,-0.060684323310852
-0.0109850885346531,0.1148464083671569,0.3253533542156219,-0.3117641508579254,0.3666276335716247,0.3441955149173736,0.0,0.0,0.3402719497680664,0.1917804479598999
-0.007609081454575,0.1084949374198913,0.3211228847503662,-0.2866101264953613,0.3841210007667541,0.3498674929141998,0.0,0.0,0.1170322895050048,-0.0747238397598266
-0.0042331693693995,0.1022562608122825,0.3212147951126098,-0.281785637140274,0.4016084969043731,0.3497497737407684,0.0,0.0,0.505354642868042,-0.4106873273849487
-0.001056384993717,0.0965796336531639,0.3016731739044189,-0.2569242119789123,0.4188289046287536,0.3444083034992218,0.0,0.0,0.3226521015167236,0.1202175617218017
0.0020050047896802,0.0913352370262146,0.2902634441852569,-0.2378926873207092,0.4360454678535461,0.3443313241004944,0.0,0.0,0.4254928827285766,0.0786358118057251
0.0050580026581883,0.0862114280462265,0.2894474565982818,-0.2327463626861572,0.4533637464046478,0.3463663756847381,0.0,0.0,0.1545883417129516,0.2483954429626464
0.007939338684082,0.0811527073383331,0.272960364818573,-0.2298528999090194,0.4700760841369629,0.3342466950416565,0.0,0.0,0.3114752769470215,0.0850728750228881
0.0106378551572561,0.0761094391345977,0.2554256319999695,-0.2291216701269149,0.4861161410808563,0.3208009302616119,0.0,0.0,0.5635192394256592,0.6202406883239746
0.0132027622312307,0.0713296756148338,0.2435498684644699,-0.2170634567737579,0.5006133913993835,0.2899450957775116,0.0,0.0,0.1679016351699829,0.5442295074462891
0.0157329551875591,0.0666278004646301,0.2413225471973419,-0.2132990062236786,0.513818621635437,0.2641063332557678,0.0,0.0,0.5655572414398193,0.3608851432800293
0.018292998895049,0.0619995221495628,0.2440487146377563,-0.2102656662464141,0.5274264216423035,0.272156149148941,0.0,0.0,0.7209529876708984,0.8487298488616943
0.020735740661621,0.0579694844782352,0.2339615374803543,-0.1831666380167007,0.5392466187477112,0.2364033758640289,0.0,0.0,-0.2093848586082458,0.7437160015106201
0.0233147628605365,0.0535286031663417,0.249216228723526,-0.2008691728115081,0.5492600798606873,0.2002691030502319,0.0,1.0,0.9959943294525146,0.9995614290237428
0.0258791930973529,0.0502685420215129,0.2592832446098327,-0.1446300894021988,0.5432418584823608,-0.1246521323919296,0.0,1.0,0.9985215663909912,0.987879753112793
