x_pos,y_pos,x_vel,y_vel,angle,ang_vel,leg_1,leg_2,main_booster,lat_booster
-0.0015158653259277,1.403052568435669,-0.1535591930150985,-0.3496713638305664,0.0017677342984825,0.0348703190684318,0.0,0.0,-0.5301132202148438,0.9188766479492188
-0.002943992614746,1.3946318626403809,-0.1425558626651764,-0.3742517828941345,0.0015115512069314,-0.0051236823201179,0.0,0.0,0.0921239852905273,0.7317935228347778
-0.0042030336335301,1.3860342502593994,-0.124262049794197,-0.3821110427379608,-0.0001007725804811,-0.0322496704757213,0.0,0.0,0.167195439338684,0.1283941268920898
-0.0055334093049168,1.377394199371338,-0.1309805512428283,-0.3840058147907257,-0.002137288916856,-0.0407341085374355,0.0,0.0,-0.4578530192375183,-0.1679575443267822
-0.0068496703170239,1.3681820631027222,-0.1295333355665207,-0.4094294905662536,-0.0042017959058284,-0.0412942208349704,0.0,0.0,-0.1466029286384582,0.3584756851196289
-0.0081502916291356,1.3583980798721311,-0.1279318183660507,-0.4348490834236145,-0.0063024638220667,-0.0420173704624176,0.0,0.0,-0.250583291053772,0.4084675312042236
-0.0094338413327932,1.348042368888855,-0.1261800825595855,-0.460269421339035,-0.0084472065791487,-0.0428989194333553,0.0,0.0,0.6407284736633301,0.7635935544967651
-0.0104700084775686,1.3380776643753052,-0.1002047285437583,-0.4428924918174743,-0.0118234530091285,-0.0675311461091041,0.0,0.0,0.3676931858062744,0.3210194110870361
-0.0114881517365574,1.328580379486084,-0.0982948765158653,-0.4221340119838714,-0.0153076536953449,-0.0696904808282852,0.0,0.0,-0.4077646732330322,0.372165322303772
-0.0124852182343602,1.3185112476348877,-0.0961188226938247,-0.4475604891777038,-0.0188611783087253,-0.0710768550634384,0.0,0.0,-0.3637385368347168,0.5683290958404541
-0.0134089468047022,1.3078694343566897,-0.0873929262161254,-0.4730412364006042,-0.0237799007445573,-0.0983834192156791,0.0,0.0,-0.5759118795394897,-0.2670928239822387
-0.0143091203644871,1.2966558933258057,-0.0849595516920089,-0.4984642565250397,-0.0287847332656383,-0.1001057773828506,0.0,0.0,-0.1318474411964416,-0.7956580519676208
-0.0152338985353708,1.2848769426345823,-0.0885681957006454,-0.5235885381698608,-0.0326481610536575,-0.0772754773497581,0.0,0.0,-0.7753302454948425,-0.8789093494415283
-0.0161946304142475,1.2725210189819336,-0.0936228409409523,-0.5492075681686401,-0.0350742414593696,-0.0485255643725395,0.0,0.0,0.0498563051223754,-0.2078394889831543
-0.0170209892094135,1.260373830795288,-0.080490693449974,-0.539926290512085,-0.0371925830841064,-0.04237075522542,0.0,0.0,0.0326368808746337,-0.5599085688591003
-0.0177808757871389,1.2479248046875,-0.074965700507164,-0.5533176064491272,-0.0382037423551082,-0.0202252455055713,0.0,0.0,-0.3515223264694214,-0.8612601161003113
-0.0185647960752248,1.2349170446395874,-0.0785636156797409,-0.5781258344650269,-0.0380278229713439,0.003518842626363,0.0,0.0,-0.7139273285865784,-0.7420350313186646
-0.0193645469844341,1.2213335037231443,-0.081152357161045,-0.6036844849586487,-0.0368698127567768,0.0231624953448772,0.0,0.0,-0.5951818227767944,0.1312683820724487
-0.0201347358524799,1.207177996635437,-0.0780353024601936,-0.6291062235832214,-0.0358633399009704,0.0201313383877277,0.0,0.0,-0.7584722638130188,-0.6219886541366577
-0.0209301952272653,1.1924535036087036,-0.0818257555365562,-0.6543741226196289,-0.0336161479353904,0.0449478477239608,0.0,0.0,-0.3421727418899536,-0.551527738571167
-0.0217290874570608,1.1771628856658936,-0.082859881222248,-0.6795206665992737,-0.0306749287992715,0.0588300041854381,0.0,0.0,-0.5773671865463257,-0.0113726258277893
-0.02249651029706,1.1613004207611084,-0.0795286521315574,-0.7049431204795837,-0.0279124900698661,0.0552535727620124,0.0,0.0,-0.3169360160827636,-0.2134943008422851
-0.0232316963374614,1.144866108894348,-0.0761331841349601,-0.7303653955459595,-0.0253374557942152,0.0515052452683448,0.0,0.0,0.3176443576812744,-0.0413196086883544
-0.0238723754882812,1.1282312870025637,-0.0667377561330795,-0.7392846345901489,-0.0227000918239355,0.052752286195755,0.0,0.0,0.0620256662368774,-0.1937216520309448
-0.0245619770139455,1.1116478443145752,-0.0709880143404007,-0.7370038628578186,-0.0206912104040384,0.0401814132928848,0.0,0.0,0.3337819576263428,-0.3841118216514587
-0.0253241546452045,1.0953274965286257,-0.0774892121553421,-0.7253394722938538,-0.019439585506916,0.0250325761735439,0.0,0.0,0.3159341812133789,-0.0627927780151367
-0.0260381698608398,1.0793027877807615,-0.0724564641714096,-0.7121953368186951,-0.0183951500803232,0.020888615399599,0.0,0.0,-0.4304619431495666,-0.2379740476608276
-0.0267178528010845,1.0627061128616333,-0.0687962621450424,-0.7376149296760559,-0.0175799038261175,0.016304887831211,0.0,0.0,0.7202560901641846,-0.2418360114097595
-0.0274847038090229,1.0467509031295776,-0.0766241550445556,-0.7091221213340759,-0.0176301561295986,-0.0010053527075797,0.0,0.0,0.4815289974212646,-0.840092122554779
-0.0282964706420898,1.0308787822723389,-0.0825433358550071,-0.7054157257080078,-0.0162833612412214,0.0269360151141881,0.0,0.0,0.3724994659423828,0.2523514032363891
-0.0290460586547851,1.0154892206192017,-0.0761415660381317,-0.6839687824249268,-0.015116523951292,0.0233367178589105,0.0,0.0,-0.6621883511543274,-0.0371685624122619
-0.0297601707279682,0.9995276927947998,-0.0723364800214767,-0.7093884944915771,-0.0142086334526538,0.0181579235941171,0.0,0.0,0.1903212070465088,-0.7152987122535706
-0.0305542945861816,0.9838702082633972,-0.0814177542924881,-0.6958799362182617,-0.0122239850461483,0.0396929644048213,0.0,0.0,-0.5095193386077881,0.5834605693817139
-0.0312712676823139,0.967634618282318,-0.0723800361156463,-0.7215774655342102,-0.0115495165809988,0.0134891774505376,0.0,0.0,-0.4495738744735718,-0.3216279149055481
-0.0319521911442279,0.9508270621299744,-0.0684927254915237,-0.7469968795776367,-0.0111539252102375,0.0079117473214864,0.0,0.0,0.7721238136291504,-0.58610600233078
-0.0326131805777549,0.9346694350242616,-0.067455843091011,-0.7181113958358765,-0.0098227178677916,0.0266241580247879,0.0,0.0,0.4634854793548584,-0.4875938296318054
-0.0332571975886821,0.9185451865196228,-0.065341904759407,-0.7166300415992737,-0.0088899079710245,0.0186559371650218,0.0,0.0,0.0481207370758056,-0.4262634515762329
-0.0338362678885459,0.9025729298591614,-0.0586576163768768,-0.7098705172538757,-0.0081418687477707,0.0149608748033642,0.0,0.0,0.1319739818572998,-0.6783334612846375
-0.0344579704105854,0.8869034051895142,-0.0639565289020538,-0.6964158415794373,-0.0063831224106252,0.0351747535169124,0.0,0.0,-0.7820992469787598,0.6947989463806152
-0.034985352307558,0.8706622123718262,-0.052746694535017,-0.7218268513679504,-0.0063776578754186,0.0001090889709303,0.0,0.0,0.3395307064056396,-0.8039928078651428
-0.0356333740055561,0.8548044562339783,-0.0659867525100708,-0.7047843337059021,-0.0052018584683537,0.0235161148011684,0.0,0.0,-0.3331761360168457,0.2613258361816406
-0.0362442955374717,0.8383748531341553,-0.0619707331061363,-0.7302037477493286,-0.0043419636785984,0.0171980373561382,0.0,0.0,0.0897351503372192,0.4315476417541504
-0.03675327450037,0.8216831088066101,-0.0517432801425457,-0.7418504953384399,-0.0035056115593761,0.0167267154902219,0.0,0.0,0.2299511432647705,-0.2023454904556274
-0.0371499061584472,0.8050094842910767,-0.0405182316899299,-0.7410504817962646,-0.0026511447504162,0.0170893017202615,0.0,0.0,-0.3142971992492676,0.2568166255950928
-0.0375092513859272,0.7877639532089233,-0.0364668369293212,-0.7664697766304016,-0.0021239414345473,0.0105441221967339,0.0,0.0,-0.0477811694145202,-0.2706978321075439
-0.0378313064575195,0.7699465155601501,-0.03240567445755,-0.791888952255249,-0.0019271421479061,0.0039361282251775,0.0,0.0,-0.00900399684906,0.0958962440490722
-0.0381159782409668,0.7515571117401123,-0.0283356551080942,-0.8173081874847412,-0.0020635474938899,-0.0027280177455395,0.0,0.0,0.358640193939209,0.3517682552337646
-0.0384543426334857,0.7336245179176331,-0.0329236164689064,-0.7970046401023865,-0.002963192993775,-0.0179929919540882,0.0,0.0,0.2418359518051147,-0.0744864344596862
-0.0388531684875488,0.7160091996192932,-0.0381660424172878,-0.7829112410545349,-0.004662009421736,-0.033976100385189,0.0,0.0,-0.1207661032676696,-0.311245322227478
-0.0392146110534668,0.6978219747543335,-0.034074380993843,-0.808330774307251,-0.0067003946751356,-0.0407679267227649,0.0,0.0,0.3793165683746338,-0.5829334855079651
-0.0394506454467773,0.6797769069671631,-0.0226509142667055,-0.8020060062408447,-0.0076428428292274,-0.018848780542612,0.0,0.0,0.2102992534637451,0.2107700109481811
-0.039687156677246,0.6619699001312256,-0.0221545360982418,-0.7914273738861084,-0.0091225337237119,-0.0295937769114971,0.0,0.0,-0.0315495729446411,-0.3089461326599121
-0.0398860946297645,0.6435911059379578,-0.0180477667599916,-0.8168469667434692,-0.0109450425952672,-0.0364499390125274,0.0,0.0,0.7287836074829102,0.1063092947006225
-0.0400348678231239,0.6258924007415771,-0.0127021800726652,-0.7866259217262268,-0.0130952699109911,-0.043004423379898,0.0,0.0,0.186820387840271,-0.4015660285949707
-0.0400343909859657,0.6081451773643494,0.0020726094953715,-0.7887870073318481,-0.0150934737175703,-0.0399642139673233,0.0,0.0,0.3305897712707519,-0.6346114277839661
-0.0401256568729877,0.5903955101966858,-0.0078744022175669,-0.7888887524604797,-0.0163282956928014,-0.0246965996921062,0.0,0.0,0.5009129047393799,-0.1323218941688537
-0.0400819778442382,0.5731577277183533,0.0055681536905467,-0.7661342024803162,-0.017509926110506,-0.0236326176673173,0.0,0.0,0.2315472364425659,-0.1259818077087402
-0.039888858795166,0.5560994744300842,0.0203733686357736,-0.7581570148468018,-0.0185563936829566,-0.0209295060485601,0.0,0.0,0.7082234621047974,-0.3940647840499878
-0.0395648963749408,0.539743959903717,0.0334384217858314,-0.7269254326820374,-0.0195846240967512,-0.0205645039677619,0.0,0.0,0.1381356716156005,0.0819827318191528
-0.039245031774044,0.5236299633979797,0.0336209274828434,-0.7161988019943237,-0.0211926568299531,-0.0321609862148761,0.0,0.0,0.2570542097091675,-0.232199490070343
-0.0388423912227153,0.5073654651641846,0.0420509204268455,-0.722891628742218,-0.0229552090167999,-0.0352512970566749,0.0,0.0,-0.0374829173088073,-0.5538792014122009
-0.0384530052542686,0.4905338287353515,0.0397610105574131,-0.7480857372283936,-0.0237644501030445,-0.0161847416311502,0.0,0.0,0.7134556770324707,-0.8236416578292847
-0.0379367843270301,0.4739299714565277,0.0508589334785938,-0.7379406690597534,-0.023007832467556,0.0151322055608034,0.0,0.0,0.2753843069076538,-0.8830834627151489
-0.0374206528067588,0.4574667811393738,0.0493775680661201,-0.731663167476654,-0.0208043567836284,0.044069580733776,0.0,0.0,0.1602872610092163,-0.6702232360839844
-0.0369077697396278,0.4408506155014038,0.0480270832777023,-0.7384563088417053,-0.017580984160304,0.0644675716757774,0.0,0.0,0.6857218742370605,-0.4274870753288269
-0.0364726074039936,0.4245703816413879,0.0411620661616325,-0.723539412021637,-0.0152579881250858,0.0464601442217826,0.0,0.0,0.7092452049255371,-0.697769045829773
-0.0360169410705566,0.4090552031993866,0.0420666597783565,-0.6895323991775513,-0.0118047334253788,0.06906508654356,0.0,0.0,0.3908016681671142,-0.3329371809959411
-0.0354514122009277,0.3933363854885101,0.0530457273125648,-0.6985934376716614,-0.0083372127264738,0.069350354373455,0.0,0.0,0.860480785369873,-0.5064629316329956
-0.0348476395010948,0.3784936666488647,0.0560486689209938,-0.6596558094024658,-0.0040661743842065,0.0854204446077346,0.0,0.0,0.7618967294692993,-0.1466046571731567
-0.0343042388558387,0.3638370931148529,0.0507805719971656,-0.6513974070549011,-0.0005521743441931,0.0702802538871765,0.0,0.0,0.7129054069519043,0.4543468952178955
-0.033817671239376,0.3496618568897247,0.0458313412964344,-0.6300124526023865,0.0022357192356139,0.0557580515742301,0.0,0.0,0.916245460510254,0.6164257526397705
-0.0332077033817768,0.3359989821910858,0.059583343565464,-0.6072434186935425,0.0036221179179847,0.0277279075235128,0.0,0.0,0.6544227600097656,-0.5134340524673462
-0.0327412597835063,0.3230373859405517,0.0448629222810268,-0.576072096824646,0.0053810654208064,0.0351789817214012,0.0,0.0,0.6059889793395996,0.0782666206359863
-0.0321684852242469,0.3103466033935547,0.0554296560585498,-0.564044713973999,0.0072091403417289,0.0365612618625164,0.0,0.0,0.631019115447998,0.0050532817840576
-0.0315937995910644,0.297662615776062,0.0560289621353149,-0.5637404322624207,0.008631139062345,0.0284399334341287,0.0,0.0,0.6694499254226685,-0.0688424110412597
-0.0309152603149414,0.2849003076553345,0.0663334727287292,-0.5672245025634766,0.0101286666467785,0.0299506820738315,0.0,0.0,0.7401928901672363,-0.2519276142120361
-0.0302357673645019,0.2721018195152282,0.0668255537748336,-0.5688315629959106,0.0112402290105819,0.0222310777753591,0.0,0.0,0.798858642578125,-0.0491505861282348
-0.0295372009277343,0.2600265145301819,0.0690010860562324,-0.536685049533844,0.012088538147509,0.0169660691171884,0.0,0.0,0.7975128889083862,-0.6806101202964783
-0.0287711136043071,0.2487180978059768,0.0743630900979042,-0.5026163458824158,0.014303145930171,0.0442924238741397,0.0,0.0,0.438798189163208,-0.3919519186019897
-0.0280750282108783,0.2379032224416732,0.0680140703916549,-0.4806765913963318,0.0158679746091365,0.0312966033816337,0.0,0.0,-0.0942837595939636,-0.7495920658111572
-0.0274133682250976,0.2265070527791977,0.0629439502954483,-0.5065351724624634,0.0190590992569923,0.0638221949338913,0.0,0.0,0.729942798614502,0.2165102958679199
-0.0266873352229595,0.2157815843820572,0.0693379342555999,-0.4767320454120636,0.022273601964116,0.0642902180552482,0.0,0.0,0.1895015239715576,-0.465067982673645
-0.0260059349238872,0.2051032334566116,0.0653865933418273,-0.4746383428573608,0.0249923821538686,0.0543754771351814,0.0,0.0,0.7687389850616455,-0.1874444484710693
-0.025363827124238,0.1949388831853866,0.0618822164833545,-0.4517890214920044,0.0272956769913434,0.0460658259689807,0.0,0.0,0.3186154365539551,-0.1966105103492736
-0.0247090347111225,0.1850390285253524,0.0633245110511779,-0.4400316774845123,0.0294256228953599,0.0425990149378776,0.0,0.0,0.6180419921875,-0.6418820023536682
-0.0239916797727346,0.1754236966371536,0.0681834071874618,-0.4274230897426605,0.0329285413026809,0.0700585916638374,0.0,0.0,0.5133225917816162,-0.903048574924469
-0.023294162005186,0.1656954437494278,0.0644459947943687,-0.4324904978275299,0.0381605103611946,0.1046397238969802,0.0,0.0,0.7560336589813232,0.3802348375320434
-0.0224775318056345,0.1560427695512771,0.0759881660342216,-0.429162323474884,0.0437670089304447,0.1121300458908081,0.0,0.0,0.7182916402816772,-0.5430141687393188
-0.0215295795351266,0.1467164903879165,0.087638720870018,-0.414727509021759,0.0508329942822456,0.1413197070360183,0.0,0.0,0.6557157039642334,-0.795996367931366
-0.0204738620668649,0.1374120861291885,0.0965917557477951,-0.4138607680797577,0.0597161911427974,0.1776635348796844,0.0,0.0,0.533928632736206,-0.8427255153656006
-0.0194961540400981,0.1285808831453323,0.0871393829584121,-0.3929521143436432,0.0702370405197143,0.2104170322418213,0.0,0.0,0.026216983795166,-0.597289502620697
-0.0185412410646677,0.1198863089084625,0.0836466029286384,-0.3870231211185455,0.0819621607661247,0.2345024049282074,0.0,0.0,0.2149621248245239,-0.2335046529769897
-0.0174996368587017,0.111366257071495,0.0918997302651405,-0.3793834447860718,0.0941178351640701,0.2431132793426513,0.0,0.0,0.3594383001327514,-0.38410484790802
-0.0163653381168842,0.1026891320943832,0.1007635816931724,-0.3864918947219848,0.1066830903291702,0.2513050734996795,0.0,0.0,0.6292886734008789,0.5601048469543457
-0.0152608873322606,0.094187743961811,0.0990184471011161,-0.3786961734294891,0.1180344074964523,0.2270262688398361,0.0,0.0,0.7164597511291504,0.0370208024978637
-0.014140224084258,0.0864669159054756,0.1001752242445945,-0.3441260457038879,0.1298566907644271,0.2364453822374344,0.0,0.0,0.3243035078048706,0.0605581998825073
-0.0130634307861328,0.0788512304425239,0.0958185419440269,-0.3395540416240692,0.1416763365268707,0.2363924980163574,0.0,0.0,0.7650619745254517,0.7689059972763062
-0.012157917022705,0.0719164013862609,0.0804466679692268,-0.3092081248760223,0.1517614424228668,0.2017019987106323,0.0,0.0,0.5674984455108643,0.5903333425521851
-0.0111857410520315,0.0654265955090522,0.087977334856987,-0.2894040942192077,0.1609986126422882,0.1847431659698486,0.0,0.0,0.2637040615081787,0.2724442481994629
-0.0103139877319335,0.059206161648035,0.0779901221394538,-0.2774855494499206,0.1701896041631698,0.1838202178478241,0.0,0.0,0.6310098171234131,0.8089427947998047
-0.0095631601288914,0.0535068623721599,0.0675304681062698,-0.2541864514350891,0.1777642220258712,0.1514925062656402,0.0,0.0,0.4569576978683471,0.8358057737350464
-0.0088184354826807,0.0478933192789554,0.0684324651956558,-0.2502281069755554,0.1838155388832092,0.1210262179374694,0.0,0.0,0.6859160661697388,0.4415518045425415
-0.0082736015319824,0.0425810441374778,0.0488049909472465,-0.2368118613958358,0.189518928527832,0.1140677705407142,0.0,0.0,0.8571842908859253,0.7435002326965332
-0.007933902554214,0.0375281199812889,0.0299635678529739,-0.2250916659832,0.1935438364744186,0.0804983377456665,0.0,0.0,0.8843374252319336,0.9299085140228271
-0.0075221061706542,0.0331756435334682,0.0385796055197715,-0.1937858760356903,0.1961698681116104,0.0525201931595802,0.0,0.0,0.7250428199768066,0.8585257530212402
-0.0070219994522631,0.028852067887783,0.0487213172018528,-0.1923312693834304,0.1974582374095916,0.0257674604654312,0.0,0.0,0.7852685451507568,0.7688391208648682
-0.0064322473481297,0.0252439603209495,0.0586143359541893,-0.1604091972112655,0.1978308260440826,0.0074517228640615,0.0,0.0,0.413050889968872,0.1299346685409546
-0.0059685707092285,0.0220351796597242,0.0457841232419014,-0.1426922678947448,0.1984112709760666,0.0116088660433888,0.0,0.0,0.1944425106048584,0.2002229690551757
-0.0055803298018872,0.0200240239500999,0.0557839684188365,-0.0872145742177963,0.1813427805900573,-0.3414126634597778,0.0,1.0,0.5581634044647217,0.0552006959915161
-0.0052224160172045,0.018272791057825,0.0525807663798332,-0.075878694653511,0.164504736661911,-0.3367868363857269,0.0,1.0,0.3296858072280884,-0.2381258606910705
-0.0049782753922045,0.0169240329414606,0.0412815324962139,-0.0581648796796798,0.147639200091362,-0.3373105525970459,0.0,1.0,-0.1860541105270385,0.06386399269104
-0.0047347070649266,0.0150070758536458,0.0412870682775974,-0.0836075767874717,0.1307740211486816,-0.3373039662837982,0.0,1.0,0.2868566513061523,-0.1948843598365783
-0.0044762613251805,0.0130703784525394,0.0426338016986846,-0.0846848562359809,0.1140732392668724,-0.3340159654617309,0.0,1.0,0.5173554420471191,-0.0892555713653564
-0.0043944357894361,0.0113927461206913,0.0255382303148508,-0.0733278542757034,0.0968533009290695,-0.3443988859653473,0.0,1.0,0.4576079845428467,0.0207102298736572
-0.0044693946838378,0.0098088840022683,0.0104078771546483,-0.0693326070904731,0.0791099146008491,-0.3548678755760193,0.0,0.0,-0.621822714805603,0.1984806060791015
-0.0045242309570312,0.0076575018465518,0.0121087580919265,-0.094780221581459,0.0617012605071067,-0.3481732606887817,0.0,0.0,-0.1958199143409729,0.0346834659576416
-0.0045604705810546,0.004938421305269,0.0136243430897593,-0.1202264949679374,0.0446447469294071,-0.3411301672458648,0.0,0.0,0.088071584701538,-0.3616453409194946
-0.0045336722396314,0.0022202348336577,0.0247509106993675,-0.1202980577945709,0.0228503663092851,-0.4358881413936615,0.0,1.0,0.5246317386627197,0.1738255023956298
-0.0044314386323094,-0.0001143240951932,0.0318841747939586,-0.1035702899098396,0.0014731911942362,-0.4275436401367187,0.0,1.0,0.33154296875,-0.0293661952018737
-0.0043098451569676,-0.0020396136678755,0.0337162986397743,-0.0856851190328598,-0.0198095254600048,-0.4256544113159179,1.0,0.0,0.4072568416595459,-0.2300689220428466
-0.0040805814787745,-0.0036856674123555,0.0330218002200126,-0.0735874846577644,-0.0286464337259531,-0.1753030121326446,1.0,0.0,0.3936622142791748,-0.0635896325111389
