x_pos,y_pos,x_vel,y_vel,angle,ang_vel,leg_1,leg_2,main_booster,lat_booster
-0.0014913559425622,1.403024673461914,-0.1504752784967422,-0.3509109914302826,0.0011842520907521,0.0233178101480007,0.0,0.0,-0.2001355290412902,0.7632582187652588
-0.0028853416442871,1.3945488929748535,-0.1383305191993713,-0.3767023682594299,0.0001338613510597,-0.0210091676563024,0.0,0.0,-0.0608440637588501,0.4084806442260742
-0.0042463303543627,1.3854726552963257,-0.1344679147005081,-0.4033862054347992,-0.0014799655182287,-0.0322798565030097,0.0,0.0,-0.1079801321029663,0.6643810272216797
-0.0055322647094726,1.3757944107055664,-0.1253230720758438,-0.4301520586013794,-0.0047123613767325,-0.064654067158699,0.0,0.0,0.4633650779724121,0.1412732601165771
-0.006667804904282,1.366382122039795,-0.1102732643485069,-0.4183412194252014,-0.0079599814489483,-0.0649583488702774,0.0,0.0,-0.3400472402572632,-0.2367764711380005
-0.0077697755768895,1.356369972229004,-0.1063580513000488,-0.4450097382068634,-0.0117704225704073,-0.0762155652046203,0.0,0.0,-0.2362895011901855,-0.1579040288925171
-0.0088383676484227,1.3457584381103516,-0.1024347394704818,-0.4716688394546509,-0.0161421429365873,-0.087442398071289,0.0,0.0,-0.0594738125801086,-0.359919786453247
-0.0098732952028512,1.3345471620559692,-0.0985085070133209,-0.4983305633068084,-0.021074553951621,-0.0986570492386818,0.0,0.0,0.4757874011993408,0.2730469703674316
-0.0108695980161428,1.3238581418991089,-0.0940337628126144,-0.4751568138599396,-0.0266180075705051,-0.1108792796730995,0.0,0.0,-0.5161622762680054,-0.6266094446182251
-0.0118817333132028,1.3125755786895752,-0.0963064283132553,-0.5015463829040527,-0.0314764976501464,-0.0971784144639968,0.0,0.0,-0.3156151175498962,-0.6590678691864014
-0.0129049299284815,1.3006962537765503,-0.0979821681976318,-0.5280683040618896,-0.0357734598219394,-0.0859472006559372,0.0,0.0,-0.3915812969207763,-0.3481519818305969
-0.013895034790039,1.288217544555664,-0.0940956696867942,-0.5547319054603577,-0.0406270027160644,-0.0970798507332801,0.0,0.0,0.6902269124984741,-0.8934612274169922
-0.0147446636110544,1.2762119770050049,-0.0815462321043014,-0.5336817502975464,-0.0440151579678058,-0.0677692666649818,0.0,0.0,0.3519949913024902,-0.5946506261825562
-0.0155340190976858,1.2640355825424194,-0.0762737467885017,-0.541248083114624,-0.0466472543776035,-0.0526467971503734,0.0,0.0,-0.7544113397598267,-0.7399286031723022
-0.01633539237082,1.2512706518173218,-0.0780466347932815,-0.5673961639404297,-0.048704843968153,-0.0411554388701915,0.0,0.0,-0.3240963220596313,-0.8411982655525208
-0.017159080132842,1.2379003763198853,-0.0811116844415664,-0.5942752957344055,-0.0499475300312042,-0.0248560793697834,0.0,0.0,-0.5967801809310913,-0.9065892696380616
-0.0180056579411029,1.223945379257202,-0.0842608883976936,-0.6202377676963806,-0.0503472499549388,-0.0079951295629143,0.0,0.0,0.041275143623352,-0.8065363168716431
-0.0187682155519723,1.2097347974777222,-0.0769573599100112,-0.6315639019012451,-0.0496490448713302,0.0139652639627456,0.0,0.0,-0.3300322294235229,-0.1467926502227783
-0.0194997787475585,1.1949243545532229,-0.0733163878321647,-0.6582297682762146,-0.0494935326278209,0.0031104835215955,0.0,0.0,-0.5823411345481873,-0.9220404028892516
-0.0202834121882915,1.1795203685760498,-0.0800726339221,-0.6845688223838806,-0.0477990992367267,0.0338918343186378,0.0,0.0,-0.4021196961402893,-0.4557608366012573
-0.0210370067507028,1.1635167598724363,-0.0765357613563537,-0.7112317681312561,-0.0466410890221595,0.0231624003499746,0.0,0.0,0.0074133872985839,-0.6123405694961548
-0.0217889789491891,1.1473174095153809,-0.0770730152726173,-0.7199172973632812,-0.0447879582643508,0.0370660088956356,0.0,0.0,-0.075550377368927,-0.0084783434867858
-0.0225121490657329,1.1305184364318848,-0.0736524537205696,-0.7465831637382507,-0.0434628091752529,0.0265054944902658,0.0,0.0,-0.1553723812103271,-0.2492762207984924
-0.0232069008052349,1.1131198406219482,-0.0702928528189659,-0.7732458710670471,-0.042660117149353,0.0160552188754081,0.0,0.0,0.4596643447875976,-0.7088675498962402
-0.0240443237125873,1.095988392829895,-0.0852047950029373,-0.7613605260848999,-0.0412137173116207,0.0289307981729507,0.0,0.0,0.7553305625915527,-0.1062703728675842
-0.0249792095273733,1.0793664455413818,-0.0937049463391304,-0.7387456297874451,-0.0409956164658069,0.0043620215728878,0.0,0.0,0.6217045783996582,-0.6779603362083435
-0.0259078033268451,1.0632209777832031,-0.0939424037933349,-0.7175471782684326,-0.0399248972535133,0.021414365619421,0.0,0.0,0.0552530288696289,-0.5088062882423401
-0.0269218441098928,1.0472791194915771,-0.1028399243950843,-0.708483874797821,-0.0385062992572784,0.0283716470003128,0.0,0.0,0.3370394706726074,-0.141557514667511
-0.0279923435300588,1.0316836833953855,-0.1074875146150589,-0.6931262612342834,-0.0380673110485076,0.0087797790765762,0.0,0.0,-0.5360416769981384,-0.3860094547271728
-0.0290385242551565,1.0154885053634644,-0.1045746430754661,-0.7197866439819336,-0.0381112918257713,-0.0008794501191005,0.0,0.0,0.2957824468612671,-0.6837088465690613
-0.0300733558833599,0.99969881772995,-0.1043709889054298,-0.701737105846405,-0.0372426249086856,0.0173733923584222,0.0,0.0,0.0183258056640625,-0.4387814402580261
-0.0311234481632709,0.9837172627449036,-0.1051925420761108,-0.7102888226509094,-0.0370602197945117,0.0036482519935816,0.0,0.0,-0.1134101152420044,-0.6408189535140991
-0.0322091095149517,0.9671452045440674,-0.1097594946622848,-0.736503005027771,-0.0358815193176269,0.0235740654170513,0.0,0.0,0.4842875003814697,-0.0035682320594787
-0.0333192832767963,0.9504624605178832,-0.111495554447174,-0.7414445877075195,-0.0354103744029998,0.0094228787347674,0.0,0.0,0.082462191581726,-0.1264402270317077
-0.0343839637935161,0.9337955713272096,-0.1065636128187179,-0.7407492995262146,-0.0353203006088733,0.00180149753578,0.0,0.0,0.4111322164535522,-0.8413520455360413
-0.0354553237557411,0.9175063371658324,-0.1085190549492836,-0.7239328622817993,-0.0339516624808311,0.027372783049941,0.0,0.0,-0.7278493642807007,0.1521283388137817
-0.0365080833435058,0.9006175398826599,-0.1062541753053665,-0.7505929470062256,-0.0329858437180519,0.0193162150681018,0.0,0.0,0.4205578565597534,-0.5895682573318481
-0.0375324264168739,0.8841153383255005,-0.1042819842696189,-0.733389675617218,-0.0311569347977638,0.036578070372343,0.0,0.0,0.2962460517883301,0.1831457614898681
-0.0385501869022846,0.86800616979599,-0.1030989736318588,-0.7159370183944702,-0.0298417173326015,0.0263039823621511,0.0,0.0,-0.5436537265777588,-0.1948975324630737
-0.0395517349243164,0.8512973785400391,-0.1011390909552574,-0.7425968647003174,-0.0288797542452812,0.0192393288016319,0.0,0.0,-0.5051757097244263,-0.3407217860221863
-0.0405383110046386,0.8339887857437134,-0.0992831364274025,-0.769256591796875,-0.0282521359622478,0.0125524895265698,0.0,0.0,0.5340173244476318,0.2533833980560303
-0.0413821227848529,0.8168045878410339,-0.0852387472987175,-0.7637300491333008,-0.0274086240679025,0.0168703943490982,0.0,0.0,0.1370445489883422,-0.5015357136726379
-0.0421730987727642,0.7993373274803162,-0.0808145850896835,-0.7762922644615173,-0.0257126726210117,0.0339190103113651,0.0,0.0,0.1754587888717651,0.4465137720108032
-0.0428710952401161,0.7818316221237183,-0.071575179696083,-0.7780019640922546,-0.0239603128284215,0.0350471884012222,0.0,0.0,0.1992710828781128,0.0247437953948974
-0.0435816757380962,0.7640479207038879,-0.072438970208168,-0.7903693318367004,-0.0225910823792219,0.0273845698684453,0.0,0.0,0.4985178709030151,-0.4707691669464111
-0.0442325584590435,0.7461174726486206,-0.066453531384468,-0.7968882918357849,-0.0212508998811244,0.0268035195767879,0.0,0.0,0.1059385538101196,0.5181412696838379
-0.0447809211909771,0.7280302047729492,-0.0550406947731971,-0.803870439529419,-0.0210528187453746,0.0039618029259145,0.0,0.0,0.4850125312805176,-0.4896867275238037
-0.0454051010310649,0.7104703783988953,-0.0619683377444744,-0.7804430723190308,-0.0214910469949245,-0.0087646851316094,0.0,0.0,0.522611141204834,-0.7351316213607788
-0.0461979880928993,0.6934128403663635,-0.0799371898174285,-0.7581067681312561,-0.0208516120910644,0.0127887334674596,0.0,0.0,-0.1624115109443664,0.5799460411071777
-0.0469386093318462,0.6757523417472839,-0.0734715163707733,-0.7849172949790955,-0.0214379578828811,-0.0117269419133663,0.0,0.0,0.3212027549743652,0.5139824151992798
-0.0474970825016498,0.6581714749336243,-0.0544307306408882,-0.7813917398452759,-0.0228430572897195,-0.0281018167734146,0.0,0.0,-0.113365352153778,0.013228416442871
-0.0480490699410438,0.6399909853935242,-0.0537191107869148,-0.808050811290741,-0.02430229075253,-0.0291848294436931,0.0,0.0,0.9140934944152832,-0.4443049430847168
-0.0484560951590538,0.621978223323822,-0.0397837683558464,-0.8005781173706055,-0.0251999292522668,-0.0179531890898942,0.0,0.0,0.4992921352386474,-0.3182778358459472
-0.0488366112112998,0.6044511795043945,-0.0371633768081665,-0.7789974212646484,-0.0260785464197397,-0.0175724625587463,0.0,0.0,0.8154268264770508,-0.131503164768219
-0.0490348823368549,0.5871211886405945,-0.0197400767356157,-0.7702223658561707,-0.0261643175035715,-0.0017154065426439,0.0,0.0,0.8436901569366455,-0.3317992091178894
-0.0493220314383506,0.5699840188026428,-0.0281900558620691,-0.7616604566574097,-0.0266783107072114,-0.0102799059823155,0.0,0.0,0.8399765491485596,-0.6807118058204651
-0.0495225898921489,0.5535818338394165,-0.0212893281131982,-0.7289642691612244,-0.0254707243293523,0.0241520665585994,0.0,0.0,0.7358629703521729,0.077490210533142
-0.0495574958622455,0.537636935710907,-0.0055077546276152,-0.7086314558982849,-0.0234696008265018,0.040022499859333,0.0,0.0,0.3940993547439575,0.5596969127655029
-0.0494607910513877,0.5221357941627502,0.0084632243961095,-0.6889223456382751,-0.0222770199179649,0.023851690813899,0.0,0.0,-0.5153836011886597,0.5826590061187744
-0.0493219383060932,0.5060384273529053,0.0135200889781117,-0.7154301404953003,-0.0219187475740909,0.0071655632928013,0.0,0.0,0.7630486488342285,0.3599832057952881
-0.0491186156868934,0.4899321794509887,0.0195139944553375,-0.7158260941505432,-0.0211041383445262,0.0162919778376817,0.0,0.0,0.2239383459091186,-0.2078667283058166
-0.0489776618778705,0.4740075767040252,0.0133818313479423,-0.7077504992485046,-0.0204046331346035,0.0139901563525199,0.0,0.0,0.8092136383056641,0.3083471059799194
-0.0486896522343158,0.4583282470703125,0.02720832452178,-0.6968358159065247,-0.0188271012157201,0.0315507277846336,0.0,0.0,0.5257045030593872,0.2140288352966308
-0.0483691208064556,0.4428974390029907,0.0300653912127017,-0.6857911944389343,-0.0168739445507526,0.0390634834766387,0.0,0.0,0.7536658048629761,0.0019516944885253
-0.0480336174368858,0.4275047183036804,0.0312311798334121,-0.684097170829773,-0.0145859876647591,0.0457591451704502,0.0,0.0,0.8421586751937866,0.0514956712722778
-0.0478274337947368,0.4125035107135772,0.0186386406421661,-0.6666995882987976,-0.0126200066879391,0.0393194630742073,0.0,0.0,0.7417447566986084,0.1467484235763549
-0.0475881583988666,0.3982554078102112,0.0214843917638063,-0.6332331895828247,-0.0102139022201299,0.048122264444828,0.0,0.0,0.3003816604614258,0.4079265594482422
-0.0472833625972271,0.3837517499923706,0.0273778103291988,-0.6445894837379456,-0.0071558146737515,0.0611616782844066,0.0,0.0,0.2873932123184204,0.7283434867858887
-0.0468941703438758,0.3696536123752594,0.0368812605738639,-0.626573383808136,-0.0051438845694065,0.0402386151254177,0.0,0.0,0.8757778406143188,0.4199330806732178
-0.0466109290719032,0.3557627201080322,0.0263940785080194,-0.6173689961433411,-0.0032412717118859,0.038052313029766,0.0,0.0,0.6841427087783813,0.6690508127212524
-0.0463763251900672,0.3423103094100952,0.0227142553776502,-0.5978811383247375,-0.0025000912137329,0.0148235606029629,0.0,0.0,0.9336448907852172,0.635922908782959
-0.0460532195866107,0.3293516039848327,0.0323241129517555,-0.5759439468383789,-0.00250931433402,-0.0001842717902036,0.0,0.0,0.6085193157196045,0.771268367767334
-0.0458077415823936,0.3170353174209595,0.025933027267456,-0.5473935604095459,-0.0038799280300736,-0.0274124406278133,0.0,0.0,0.7787582874298096,-0.112227976322174
-0.0454833023250103,0.3050513565540313,0.0330299437046051,-0.5326234698295593,-0.0044490974396467,-0.0113833900541067,0.0,0.0,0.5752507448196411,0.2656605243682861
-0.0451917648315429,0.2930270433425903,0.0294323600828647,-0.5344139933586121,-0.0047212778590619,-0.0054436190985143,0.0,0.0,0.7701015472412109,0.5380570888519287
-0.0447807312011718,0.2809187769889831,0.0417768917977809,-0.5381479263305664,-0.0053922529332339,-0.0134194735437631,0.0,0.0,0.9025613069534302,-0.3544762134552002
-0.0444065108895301,0.2687971889972687,0.0378072075545787,-0.5387359261512756,-0.0057679126039147,-0.0075132614001631,0.0,0.0,0.8565508127212524,0.4265890121459961
-0.0440387725830078,0.2574129104614258,0.0367160066962242,-0.5059698224067688,-0.0057155648246407,0.0010470288107171,0.0,0.0,0.7319431304931641,0.1351724863052368
-0.0435845367610454,0.2467107325792312,0.044499471783638,-0.475647896528244,-0.0047963927499949,0.01838319003582,0.0,0.0,0.3598737716674804,0.7664107084274292
-0.0431718826293945,0.2364258617162704,0.0415215007960796,-0.4571066200733185,-0.0050593842752277,-0.0052597029134631,0.0,0.0,0.2197153568267822,0.0541465282440185
-0.0428554527461528,0.2259085923433303,0.0318647027015686,-0.4674325287342071,-0.0052732396870851,-0.0042770886793732,0.0,0.0,0.4823856353759765,0.0271860361099243
-0.0425004959106445,0.2158551812171936,0.0350365117192268,-0.4468187987804413,-0.004823266994208,0.0089993756264448,0.0,0.0,0.3250606060028076,-0.2334639430046081
-0.0422258377075195,0.2058948129415512,0.0268877483904361,-0.4426812529563904,-0.0042480137199163,0.0115049621090292,0.0,0.0,0.6528334617614746,-0.2332152128219604
-0.0420039184391498,0.1963521540164947,0.0213566944003105,-0.4241186082363128,-0.0034208721481263,0.0165425613522529,0.0,0.0,0.5645246505737305,0.7815506458282471
-0.0417307838797569,0.1872066110372543,0.0275571849197149,-0.4064693450927734,-0.0036599240265786,-0.0047808238305151,0.0,0.0,0.4173458814620971,0.1887321472167968
-0.0413808822631835,0.1782094091176986,0.0343590751290321,-0.399870902299881,-0.003039886476472,0.0124007482081651,0.0,0.0,0.3226664066314697,-0.8124440908432007
-0.0410723686218261,0.1690157204866409,0.0280371066182851,-0.4086041152477264,-0.0002640394377522,0.0555169284343719,0.0,0.0,0.3709754943847656,0.6595888137817383
-0.0406253822147846,0.1597186923027038,0.0425329022109508,-0.4132060706615448,0.0018732163589447,0.0427450872957706,0.0,0.0,0.5638836622238159,-0.0661836862564086
-0.0400382988154888,0.1506330817937851,0.055357277393341,-0.4038125872611999,0.0051762186922132,0.0660601481795311,0.0,0.0,0.3793231248855591,-0.7654455900192261
-0.0393806472420692,0.1414366066455841,0.0601561143994331,-0.4087646305561065,0.0107111539691686,0.1106986626982688,0.0,0.0,0.3761968612670898,-0.6890591382980347
-0.0387864112854003,0.1325835287570953,0.0519124865531921,-0.3935391306877136,0.0181328039616346,0.1484331041574478,0.0,0.0,0.4025288820266723,-0.1201807856559753
-0.0381735786795616,0.1240980923175811,0.0531090684235096,-0.3772503137588501,0.026203291490674,0.1614096015691757,0.0,0.0,-0.0597561597824096,-0.279739499092102
-0.0375559814274311,0.115013986825943,0.0530479364097118,-0.4039157927036285,0.0348025299608707,0.1719845831394195,0.0,0.0,0.8375890254974365,0.0959211587905883
-0.0368333831429481,0.1058814600110054,0.0624951533973217,-0.4061436057090759,0.0444506630301475,0.1929627358913421,0.0,0.0,0.9318844079971312,0.8979383707046509
-0.0361271873116493,0.0970406159758567,0.0622523650527,-0.3932000398635864,0.052715353667736,0.1652938276529312,0.0,0.0,0.8961669206619263,0.7906241416931152
-0.0352978706359863,0.0891070663928985,0.0754015296697616,-0.3528844118118286,0.0601649954915046,0.148992657661438,0.0,0.0,0.3418880701065063,0.8890519142150879
-0.0344391837716102,0.0812709406018257,0.0796021819114685,-0.3485349118709564,0.0663585513830185,0.1238710731267929,0.0,0.0,0.6682292222976685,0.3790287971496582
-0.0337496772408485,0.0740257576107978,0.0627403929829597,-0.3222966492176056,0.0725040137767791,0.1229094117879867,0.0,0.0,0.6835598945617676,0.8458613157272339
-0.0329363830387592,0.0672677382826805,0.0761114135384559,-0.3006165325641632,0.0776642709970474,0.1032051667571067,0.0,0.0,0.5382840633392334,0.5039951801300049
-0.0321793556213378,0.0609575361013412,0.071117378771305,-0.2806982398033142,0.0822120457887649,0.0909555926918983,0.0,0.0,0.3022793531417846,0.0986346006393432
-0.0315228477120399,0.0549227111041545,0.060827512294054,-0.268486887216568,0.0869920030236244,0.0955989733338356,0.0,0.0,0.0973327159881591,0.80025315284729
-0.0308367721736431,0.0487862452864646,0.0648617297410965,-0.2729528844356537,0.0907014533877372,0.0741888508200645,0.0,0.0,0.5198907852172852,0.1069569587707519
-0.0302924159914255,0.0428626388311386,0.05065942928195,-0.263501912355423,0.0944480746984481,0.0749325081706047,0.0,0.0,0.8264639377593994,0.8277487754821777
-0.0299025531858205,0.0371862985193729,0.0366880595684051,-0.2524286210536957,0.0967215299606323,0.0454689040780067,0.0,0.0,0.8765099048614502,0.9553213119506836
-0.0293658263981342,0.0321654193103313,0.0525434017181396,-0.2232259064912796,0.0978431552648544,0.0224326122552156,0.0,0.0,0.5492222309112549,0.469287633895874
-0.0287863723933696,0.0270702932029962,0.0560095198452472,-0.2265762686729431,0.0997634083032608,0.0384052321314811,0.0,0.0,0.795297384262085,0.7518713474273682
-0.0280388835817575,0.0226538758724927,0.0734096243977546,-0.1963745951652526,0.1010824739933013,0.0263814125210046,0.0,0.0,0.1712416410446167,-0.2070434689521789
-0.0273411758244037,0.0184568986296653,0.0679864138364791,-0.1866529434919357,0.1028578430414199,0.0355073809623718,0.0,0.0,0.369657039642334,0.0326346158981323
-0.0265749935060739,0.0147361373528838,0.0737367197871208,-0.1655674576759338,0.1057109460234642,0.0570622682571411,0.0,0.0,0.4132071733474731,0.3821505308151245
-0.025771427899599,0.0111662959679961,0.0766425728797912,-0.1589258462190628,0.109395682811737,0.0736947506666183,0.0,0.0,0.2537446022033691,0.3802814483642578
-0.0251008030027151,0.0086814975365996,0.0817144438624382,-0.1094541624188423,0.0947871506214141,-0.2922695279121399,0.0,1.0,0.2740955352783203,0.1585643291473388
-0.0245349891483783,0.0070763565599918,0.0860437974333763,-0.0697568356990814,0.0655206590890884,-0.5854443311691284,0.0,1.0,0.1370724439620971,-0.482401430606842
-0.0239170081913471,0.0053332783281803,0.0900767222046852,-0.0764689967036247,0.0375651642680168,-0.5591104030609131,0.0,1.0,0.1271495819091797,-0.4018440246582031
-0.0233985893428325,0.0036285377573221,0.0805514007806778,-0.0752902179956436,0.0092248395085334,-0.5668070912361145,0.0,0.0,-0.0134897232055664,-0.9888407588005066
-0.0229473114013671,0.0013297772966325,0.0708839297294616,-0.1022065505385398,-0.0162004660815,-0.508506178855896,0.0,0.0,0.6150248050689697,-0.961410105228424
-0.0224649421870708,-2.0303727069403976e-05,0.0520878508687019,-0.0600464269518852,-0.0200186856091022,-0.0763712078332901,1.0,0.0,0.200111985206604,-0.2337541580200195
-0.0218420028686523,-0.0007502937223762,0.0478730760514736,-0.032313797622919,-0.0057829897850751,0.2847203612327575,1.0,0.0,-0.5386410355567932,-0.2805540561676025
-0.0213470458984375,-0.0009946250356733,0.038495410233736,-0.0108536137267947,0.0050682774744927,0.2170179635286331,1.0,1.0,0.3369836807250976,0.6424376964569092
-0.0209200866520404,-0.0003575110458768,0.047586478292942,0.0283270515501499,0.0002334962482564,-0.0966983288526535,1.0,1.0,-0.3935540914535522,-0.8690308332443237
-0.0205389019101858,-0.0002636694989632,0.038861334323883,0.0041693742386996,-0.0004953128518536,-0.0145758148282766,1.0,1.0,-0.4003334045410156,-0.890770435333252
-0.020276641473174,-0.0002668166125658,0.0262254830449819,-0.0001400857145199,-0.000497106113471,-3.4617649362189695e-05,1.0,1.0,-0.5896957516670227,-0.432923674583435
