x_pos,y_pos,x_vel,y_vel,angle,ang_vel,leg_1,leg_2,main_booster,lat_booster
-0.0015501976013183,1.4032280445098877,-0.1573992520570755,-0.3418677747249603,0.0021326781716197,0.0420964546501636,0.0,0.0,-0.4523416757583618,0.8565871715545654
-0.0030585289932787,1.395158767700195,-0.151419922709465,-0.3586301207542419,0.0027215566951781,0.0117795905098319,0.0,0.0,0.0834715366363525,0.5582400560379028
-0.0044613839127123,1.3870867490768433,-0.1403031647205352,-0.3587608635425567,0.0027380594983696,0.0003300475073046,0.0,0.0,-0.1946553587913513,0.554701566696167
-0.0058683394454419,1.3786163330078125,-0.1401790231466293,-0.3764574825763702,0.0022349806968122,-0.0100625790655612,0.0,0.0,-0.5342709422111511,0.3972483873367309
-0.0073179244063794,1.3697497844696045,-0.1448293924331665,-0.3940731287002563,0.0020995042286813,-0.00270940316841,0.0,0.0,-0.1674046516418457,0.9735770225524902
-0.0087200161069631,1.3604856729507446,-0.1380505859851837,-0.4117364883422851,-2.7815127396024764e-05,-0.0425507016479969,0.0,0.0,0.3437340259552002,0.6918222904205322
-0.0101375579833984,1.351529598236084,-0.138572484254837,-0.3980420231819153,-0.0031814309768378,-0.0630779266357421,0.0,0.0,-0.0742055773735046,0.320639967918396
-0.0116080287843942,1.342177391052246,-0.1442423164844513,-0.4156655967235565,-0.0059509258717298,-0.0553949475288391,0.0,0.0,0.5533130168914795,0.4978177547454834
-0.0131409643217921,1.333608865737915,-0.150825947523117,-0.3808258175849914,-0.0083861798048019,-0.0487096905708313,0.0,0.0,-0.2748222947120666,0.670203447341919
-0.014679622836411,1.3246476650238037,-0.1504638493061065,-0.3983041644096374,-0.0117540955543518,-0.0673646181821823,0.0,0.0,0.375157356262207,0.9039342403411864
-0.0161203388124704,1.3160302639007568,-0.1393502950668335,-0.3830375969409942,-0.0164309311658144,-0.0935453847050666,0.0,0.0,0.1409810781478881,0.6932691335678101
-0.0175087936222553,1.307559609413147,-0.1331957131624221,-0.3765429556369781,-0.0220098923891782,-0.1115896105766296,0.0,0.0,-0.6396458148956299,0.0716166496276855
-0.0189627651125192,1.29869282245636,-0.1401699036359787,-0.3941637575626373,-0.0271831285208463,-0.1034739762544632,0.0,0.0,-0.2194186449050903,0.4522117376327514
-0.020484447479248,1.2894299030303955,-0.1473530679941177,-0.4117811918258667,-0.0319475606083869,-0.0952975377440452,0.0,0.0,0.3765336275100708,0.4337413311004638
-0.0219362266361713,1.2807947397232056,-0.1413439661264419,-0.383870005607605,-0.0357460677623748,-0.0759767740964889,0.0,0.0,-0.0507943034172058,0.8870319128036499
-0.0233770366758108,1.271748185157776,-0.1385522782802581,-0.4022059738636017,-0.0412116460502147,-0.1093213409185409,0.0,0.0,-0.4837081432342529,0.1265815496444702
-0.0248906128108501,1.262305498123169,-0.1462636888027191,-0.4198208749294281,-0.0462577566504478,-0.1009310632944107,0.0,0.0,0.1743894815444946,0.6551914215087891
-0.0263013839721679,1.2528486251831057,-0.1352598667144775,-0.4204942584037781,-0.0520182102918624,-0.1152197569608688,0.0,0.0,-0.7863173484802246,0.2749390602111816
-0.0277878753840923,1.2429955005645752,-0.143256664276123,-0.438116580247879,-0.0573546811938285,-0.1067390665411949,0.0,0.0,-0.025353193283081,0.332160472869873
-0.0293512344360351,1.2327460050582886,-0.15137979388237,-0.4557344019412994,-0.0622652247548103,-0.098219558596611,0.0,0.0,0.0866974592208862,0.835139274597168
-0.030798053368926,1.2228312492370603,-0.1385199129581451,-0.4409235417842865,-0.0683669000864029,-0.1220444813370704,0.0,0.0,0.0922168493270874,0.8882496356964111
-0.0322249419987201,1.212944746017456,-0.1351880133152008,-0.4397586584091186,-0.075804091989994,-0.1487570703029632,0.0,0.0,-0.723751962184906,0.4018038511276245
-0.0337318405508995,1.2026618719100952,-0.1436206847429275,-0.4573798179626465,-0.0828080177307128,-0.1400912553071975,0.0,0.0,-0.1184147000312805,0.8984968662261963
-0.0352409370243549,1.1919631958007812,-0.1422806084156036,-0.4759893417358398,-0.0913775637745857,-0.1714060008525848,0.0,0.0,-0.7840176820755005,0.6407272815704346
-0.0367929451167583,1.1808652877807615,-0.1460271179676056,-0.4938283562660217,-0.1004847809672355,-0.1821607500314712,0.0,0.0,-0.0274937748908996,0.7990473508834839
-0.0383808128535747,1.1693472862243652,-0.148827850818634,-0.5126148462295532,-0.1103607341647148,-0.1975190043449401,0.0,0.0,0.0049176216125488,0.5144970417022705
-0.039959717541933,1.158088445663452,-0.1473680436611175,-0.5012080073356628,-0.1208196952939033,-0.2091795653104782,0.0,0.0,-0.3033209443092346,0.6489807367324829
-0.04158191755414,1.1464334726333618,-0.1511272639036178,-0.5189365148544312,-0.1318514049053192,-0.2206343114376068,0.0,0.0,0.3039897680282593,0.350548505783081
-0.0433099754154682,1.1353124380111694,-0.1616977155208587,-0.4952930212020874,-0.1429201811552047,-0.2213753163814544,0.0,0.0,0.0621124505996704,0.6563360691070557
-0.0450420379638671,1.124250888824463,-0.1612311005592346,-0.4928139150142669,-0.1548790633678436,-0.2391776591539383,0.0,0.0,-0.4765227437019348,-0.5831255912780762
-0.0469027534127235,1.112810730934143,-0.1756824105978012,-0.5095699429512024,-0.165263146162033,-0.2076820433139801,0.0,0.0,0.3360669612884521,0.7992141246795654
-0.0487989410758018,1.1014964580535889,-0.1780147850513458,-0.5041888356208801,-0.1768939644098281,-0.2326162755489349,0.0,0.0,-0.3781338334083557,0.5882675647735596
-0.0507409088313579,1.0897815227508545,-0.1820420771837234,-0.5221588015556335,-0.1890977025032043,-0.2440744638442993,0.0,0.0,0.4175889492034912,0.2399770021438598
-0.052764605730772,1.0781424045562744,-0.1904339492321014,-0.5188630223274231,-0.2011128515005111,-0.2403028905391693,0.0,0.0,-0.0704094767570495,0.7892075777053833
-0.0548118576407432,1.0660902261734009,-0.191645011305809,-0.5374835729598999,-0.2143138796091079,-0.264020174741745,0.0,0.0,0.4519503116607666,-0.4562329649925232
-0.0567889213562011,1.0546118021011353,-0.1851684749126434,-0.5120225548744202,-0.2269990891218185,-0.2537042796611786,0.0,0.0,0.1981275081634521,-0.6789782047271729
-0.0588523857295513,1.0432419776916504,-0.1955892294645309,-0.5070180296897888,-0.2379053682088852,-0.218125507235527,0.0,0.0,-0.3756856918334961,0.0657508373260498
-0.0610031113028526,1.0314759016036987,-0.2047878056764602,-0.5246347188949585,-0.248369812965393,-0.2092890441417694,0.0,0.0,0.2569751739501953,-0.0672606825828552
-0.0631129294633865,1.0202566385269165,-0.201012372970581,-0.5003565549850464,-0.2585310637950897,-0.2032252550125122,0.0,0.0,-0.1970869302749633,0.3150105476379394
-0.0653104782104492,1.0086407661437988,-0.2102507650852203,-0.5179712176322937,-0.2682507932186126,-0.194394364953041,0.0,0.0,-0.2602250576019287,-0.0010556578636169
-0.0675961524248123,0.9966280460357666,-0.2195059806108474,-0.5355846881866455,-0.2775291502475738,-0.1855679452419281,0.0,0.0,0.8751133680343628,-0.4017104506492615
-0.0696723908185958,0.9850180149078368,-0.1996550410985946,-0.517541766166687,-0.2857186198234558,-0.1637891829013824,0.0,0.0,-0.7255083918571472,-0.8368738293647766
-0.0718918815255165,0.9730252027511596,-0.2158009111881256,-0.5342372059822083,-0.2920515239238739,-0.1266578137874603,0.0,0.0,0.3266184329986572,-0.1428296566009521
-0.0740013122558593,0.9612098932266236,-0.2055953443050384,-0.5262046456336975,-0.2975753843784332,-0.1104773506522178,0.0,0.0,0.3711122274398803,-0.5774863958358765
-0.0762080177664756,0.9493771195411682,-0.2167951315641403,-0.5267004370689392,-0.3015686869621277,-0.0798661559820175,0.0,0.0,-0.5935702919960022,-0.2637549638748169
-0.0785034149885177,0.937146246433258,-0.2261078655719757,-0.5443065166473389,-0.3051226735115051,-0.071079596877098,0.0,0.0,0.0383802652359008,0.0520507097244262
-0.0807668715715408,0.9249022006988524,-0.223503828048706,-0.5447843074798584,-0.3080604970455169,-0.0587562434375286,0.0,0.0,0.2878807783126831,0.0838916301727294
-0.0830057114362716,0.9132289290428162,-0.2210787981748581,-0.5194116830825806,-0.3109654188156128,-0.0580985322594642,0.0,0.0,0.3339161872863769,-0.2289241552352905
-0.0852408409118652,0.9021154642105104,-0.2206580936908722,-0.4945466816425323,-0.3139283657073974,-0.0592590980231761,0.0,0.0,0.3980071544647217,0.1335973739624023
-0.0874492675065994,0.8912262320518494,-0.2183250486850738,-0.4845098257064819,-0.3165373802185058,-0.0521805807948112,0.0,0.0,-0.7314903736114502,-0.5807726979255676
-0.0897799506783485,0.8799551129341125,-0.2318437993526458,-0.5012091994285583,-0.3178083300590515,-0.025418747216463,0.0,0.0,-0.148958683013916,-0.3322837352752685
-0.0921998023986816,0.8682858347892761,-0.2411832809448242,-0.5188136696815491,-0.3186442255973816,-0.0167181082069873,0.0,0.0,-0.0957726240158081,0.5923411846160889
-0.0946573242545127,0.8561893105506897,-0.2439875900745391,-0.5380096435546875,-0.320477545261383,-0.0366665869951248,0.0,0.0,-0.0874745845794677,0.6485182046890259
-0.0971540436148643,0.8436762094497681,-0.2470535337924957,-0.5567220449447632,-0.3232020735740661,-0.0544902868568897,0.0,0.0,-0.7804035544395447,0.3968329429626465
-0.0997399315237999,0.8307648301124573,-0.2563910484313965,-0.5743268132209778,-0.3254949748516083,-0.0458582416176795,0.0,0.0,-0.6185286045074463,0.4679391384124756
-0.1024150848388671,0.8174554705619812,-0.2657254934310913,-0.5919314622879028,-0.3273577094078064,-0.0372542366385459,0.0,0.0,-0.9223046898841858,0.711639404296875
-999.0,0.8037230372428894,-0.2671749889850616,-0.6110126376152039,-0.3304654061794281,-0.0621538832783699,0.0,0.0,0.0619900226593017,0.7427295446395874
-0.1076140403747558,0.7901322841644287,-0.2457877844572067,-0.604944109916687,-0.3345985114574432,-0.0826622396707534,0.0,0.0,-0.3601493835449219,0.7278838157653809
-0.1101380363106727,0.7761189937591553,-0.2472637444734573,-0.6240143179893494,-0.3399716317653656,-0.107462503015995,0.0,0.0,-0.8597438335418701,0.6086294651031494
-0.1127102822065353,0.7616918683052063,-0.2514767646789551,-0.6425721645355225,-0.3460041284561157,-0.1206495612859726,0.0,0.0,-0.5282454490661621,0.086219310760498
-0.1153716072440147,0.7468670606613159,-0.2607792019844055,-0.6601787805557251,-0.3516159355640411,-0.1122363060712814,0.0,0.0,-0.1141132712364196,0.6686372756958008
-0.1180795654654502,0.731624960899353,-0.2647920846939087,-0.6789115071296692,-0.3579486310482025,-0.1266530752182006,0.0,0.0,0.6593986749649048,-0.1490204334259033
-0.1205782890319824,0.7166494727134705,-0.2447967231273651,-0.666845440864563,-0.3632921278476715,-0.1068696826696395,0.0,0.0,-0.2183630466461181,-0.2559263706207275
-0.1231655105948448,0.7012760639190674,-0.254062682390213,-0.6844511032104492,-0.3682232499122619,-0.0986223220825195,0.0,0.0,0.8751578330993652,-0.8051612377166748
-0.1257289946079254,0.6861647367477417,-0.2536561787128448,-0.6723142266273499,-0.3710770905017853,-0.0570767410099506,0.0,0.0,0.5916742086410522,0.2202209234237671
-0.1282856911420822,0.6715160012245178,-0.2528340220451355,-0.6517947316169739,-0.3740770816802978,-0.0599998235702514,0.0,0.0,0.6089293956756592,0.2147785425186157
-0.1306067407131195,0.6576211452484131,-0.229736715555191,-0.6181657314300537,-0.3765787482261657,-0.0500333793461322,0.0,0.0,0.7810933589935303,-0.5869273543357849
-0.1328564584255218,0.6437346339225769,-0.2243481427431106,-0.6173474192619324,-0.3772382140159607,-0.0131896119564771,0.0,0.0,0.95770263671875,-0.8393236994743347
-0.1348477303981781,0.6308864951133728,-0.2005857974290847,-0.5706471800804138,-0.3756934106349945,0.0308957900851964,0.0,0.0,0.7441322803497314,-0.5261210799217224
-0.1368809640407562,0.6184161305427551,-0.2058843076229095,-0.5535605549812317,-0.3729702830314636,0.0544623434543609,0.0,0.0,0.9482463598251344,0.066421627998352
-0.1388115882873535,0.606722354888916,-0.1955179274082183,-0.5190863013267517,-0.3703655302524566,0.0520949363708496,0.0,0.0,0.8121297359466553,-0.2330636978149414
-0.140550896525383,0.5955666303634644,-0.1769001185894012,-0.4950453042984009,-0.3672280013561249,0.0627506375312805,0.0,0.0,0.9386101961135864,-0.4987702369689941
-0.1421625167131424,0.585481584072113,-0.1638232171535492,-0.4475429654121399,-0.3644194006919861,0.0561718344688415,0.0,0.0,0.9226570129394532,-0.0378852486610412
-0.1435415297746658,0.575894832611084,-0.1412772387266159,-0.4252257347106933,-0.3608518838882446,0.0713502839207649,0.0,0.0,0.959059715270996,-0.7863955497741699
-0.1449431478977203,0.5666111707687378,-0.1453167796134948,-0.4113233387470245,-0.3554150760173797,0.1087361127138137,0.0,0.0,0.9666262865066528,-0.9144927263259888
-0.146282285451889,0.5574560761451721,-0.1413417160511016,-0.4050706923007965,-0.3476028442382812,0.1562447845935821,0.0,0.0,0.9736943244934082,-0.3921669721603393
-0.1476042717695236,0.5484951138496399,-0.1398097276687622,-0.3964486122131347,-0.3396264910697937,0.1595277935266494,0.0,0.0,0.96533203125,-0.6588547229766846
-0.148754596710205,0.5405086278915405,-0.1242449060082435,-0.3528154492378235,-0.3299928605556488,0.1926717907190323,0.0,0.0,0.2791111469268799,-0.7644057869911194
-0.1497736871242523,0.5330244898796082,-0.113053023815155,-0.33012855052948,-0.3183907866477966,0.232041522860527,0.0,0.0,0.569765567779541,-0.2449778318405151
-0.1507349908351898,0.5263007879257202,-0.1071326285600662,-0.2964563369750976,-0.3069742918014526,0.228330060839653,0.0,0.0,-0.691653311252594,-0.3998169898986816
-0.1517796516418457,0.5191812515258789,-0.1158089414238929,-0.3140749633312225,-0.2952620089054107,0.2342455387115478,0.0,0.0,-0.0389330983161926,-0.1340479254722595
-0.1529073715209961,0.5116660594940186,-0.1244163960218429,-0.3316947519779205,-0.2832668125629425,0.2399042099714279,0.0,0.0,-0.9204463958740234,0.2995556592941284
-0.1541173905134201,0.5037553906440735,-0.132949098944664,-0.3493157029151916,-0.2710024118423462,0.2452882826328277,0.0,0.0,-0.385252833366394,0.1202013492584228
-0.1554090529680252,0.4954495131969452,-0.1414007693529129,-0.3669378161430359,-0.2584834098815918,0.250379741191864,0.0,0.0,-0.3765747547149658,0.7551953792572021
-0.1567244529724121,0.4867294728755951,-0.1425903290510177,-0.3856484591960907,-0.2472193539142608,0.2252813875675201,0.0,0.0,-0.325921356678009,0.6808433532714844
-0.1580604612827301,0.4775914251804352,-0.1433486640453338,-0.4045276641845703,-0.237307071685791,0.198246031999588,0.0,0.0,0.4165937900543213,0.906447172164917
-0.1593163460493087,0.4684432446956634,-0.1337717324495315,-0.4052852988243103,-0.2290036827325821,0.166067749261856,0.0,0.0,0.6149688959121704,0.8889932632446289
-0.1603952348232269,0.4594091176986694,-0.1146432757377624,-0.4004813730716705,-0.222166821360588,0.1367372274398803,0.0,0.0,-0.8156334161758423,0.6018152236938477
-0.1614940613508224,0.4499590396881103,-0.1153214424848556,-0.4191974699497223,-0.2166700363159179,0.1099362820386886,0.0,0.0,-0.0895236730575561,0.3807268142700195
-0.162669375538826,0.4401125311851501,-0.1231231093406677,-0.4368129670619964,-0.2110244780778885,0.1129110679030418,0.0,0.0,0.6500179767608643,0.8516836166381836
-0.1637022942304611,0.4309570491313934,-0.1073148027062416,-0.4063440561294555,-0.2069693207740783,0.0811035484075546,0.0,0.0,0.3089303970336914,0.8510078191757202
-0.1645916998386383,0.4222641885280609,-0.0914038717746734,-0.3860063254833221,-0.2044875472784042,0.0496357381343841,0.0,0.0,-0.8614094257354736,0.8064368963241577
-0.1654781401157379,0.4131543338298797,-0.0892501026391983,-0.4047978818416595,-0.2038735300302505,0.012280442751944,0.0,0.0,0.271980881690979,0.6554281711578369
-0.1662506163120269,0.4039685130119324,-0.0767428129911422,-0.408329576253891,-0.2043784856796264,-0.0100990682840347,0.0,0.0,0.8645331859588623,0.5258972644805908
-0.1669970452785492,0.3952353894710541,-0.0729592442512512,-0.3883742988109588,-0.2060806006193161,-0.0340422764420509,0.0,0.0,0.6286773681640625,-0.261339008808136
-0.1675556153059005,0.3873290121555328,-0.0545679330825805,-0.3515726923942566,-0.2073754221200943,-0.0258964411914348,0.0,0.0,-0.5237279534339905,-0.0170482993125915
-0.1681799888610839,0.3790263235569,-0.0611584670841693,-0.369188517332077,-0.2086705267429351,-0.0259024407714605,0.0,0.0,0.8080258369445801,0.249395489692688
-0.1688211411237716,0.3716472387313843,-0.0621873624622821,-0.3282335996627807,-0.2106174975633621,-0.0389393344521522,0.0,0.0,0.6913193464279175,-0.3827908039093017
-0.1692875921726226,0.3648919463157654,-0.045076347887516,-0.3004603087902069,-0.212195485830307,-0.0315601378679275,0.0,0.0,-0.3222930431365967,-0.6717408299446106
-0.1698692291975021,0.357763409614563,-0.057992897927761,-0.3168459832668304,-0.2123623639345169,-0.0033376533538103,0.0,0.0,0.5424931049346924,-0.0144407153129577
-0.1704359054565429,0.3512882888317108,-0.0560711994767189,-0.2878692746162414,-0.2129710614681244,-0.0121735949069261,0.0,0.0,-0.4564049243927002,-0.4908930659294128
-0.1710571348667144,0.3444170951843261,-0.0614127740263938,-0.305486798286438,-0.2136840373277664,-0.014259529300034,0.0,0.0,0.2148331403732299,-0.0043602585792541
-0.1717201173305511,0.3378255367279053,-0.0650747641921043,-0.293138325214386,-0.2149173617362976,-0.0246668327599763,0.0,0.0,0.0760674476623535,-0.3427941799163818
-0.1724549233913421,0.3313692808151245,-0.0716717690229415,-0.2872098982334137,-0.2167461365461349,-0.0365754179656505,0.0,0.0,-0.6424226760864258,-0.7406478524208069
-0.1732819527387619,0.324536919593811,-0.0819592401385307,-0.3037694692611694,-0.2175028920173645,-0.0151353776454925,0.0,0.0,0.336003303527832,-0.0243568420410156
-0.1740389764308929,0.3177297115325928,-0.075002484023571,-0.3026458919048309,-0.2182071357965469,-0.0140849826857447,0.0,0.0,0.4067206382751465,-0.0416914820671081
-0.1745742857456207,0.3114378750324249,-0.0532041080296039,-0.2796849906444549,-0.2185333371162414,-0.0065241316333413,0.0,0.0,0.0052649974822998,0.4976825714111328
-0.1750568449497223,0.3054462671279907,-0.0476682782173156,-0.2663827538490295,-0.2191326767206192,-0.0119867883622646,0.0,0.0,-0.1155434250831604,-0.3634250164031982
-0.1755722016096115,0.2990589439868927,-0.0507142655551433,-0.2840025722980499,-0.2199554294347763,-0.0164552517235279,0.0,0.0,0.3379716873168945,-0.3709759712219238
-0.1759538650512695,0.2929428815841675,-0.0374003425240516,-0.2719403803348541,-0.2207298278808593,-0.0154878348112106,0.0,0.0,-0.3294616937637329,-0.3106954097747803
-0.1763609945774078,0.2864311933517456,-0.0396998822689056,-0.2895607352256775,-0.221754789352417,-0.0204993411898612,0.0,0.0,-0.0675870180130004,0.0017688274383544
-0.1767898499965667,0.2795238792896271,-0.0416169501841068,-0.3071813285350799,-0.2230428010225296,-0.025760143995285,0.0,0.0,-0.0045886635780334,0.0498297214508056
-0.1772367507219314,0.2722211182117462,-0.04314736276865,-0.3248022496700287,-0.2246056199073791,-0.0312560647726058,0.0,0.0,0.1168755292892456,0.2682752609252929
-0.1776853501796722,0.2651617527008056,-0.0426609888672828,-0.3140874803066253,-0.2268367856740951,-0.0446237586438655,0.0,0.0,-0.1856891512870788,-0.8169835805892944
-0.1782209426164627,0.2577311992645263,-0.0530362650752067,-0.3303262591361999,-0.2273687273263931,-0.0106388200074434,0.0,0.0,0.0655344724655151,0.5295741558074951
-0.1786555349826812,0.2504273653030395,-0.0415532700717449,-0.3249101936817169,-0.2293003499507904,-0.0386325009167194,0.0,0.0,-0.110708475112915,-0.4829806685447693
-0.1790929734706878,0.2427281886339187,-0.041526686400175,-0.3425321877002716,-0.2315472513437271,-0.044937614351511,0.0,0.0,0.8603992462158203,0.0964443683624267
-0.1792933493852615,0.2351743131875991,-0.0181797072291374,-0.3360244631767273,-0.2334378212690353,-0.0378112569451332,0.0,0.0,0.5311708450317383,-0.7796435356140137
-0.1793042123317718,0.2281397730112075,-0.0006139752222225,-0.3127222955226898,-0.2339219599962234,-0.0096827885136008,0.0,0.0,0.2262413501739502,-0.6803117990493774
-0.1791989356279373,0.2216012626886367,0.0099525097757577,-0.2905094027519226,-0.2333394140005111,0.011651343666017,0.0,0.0,-0.0004383325576782,-0.2984210848808288
