x_pos,y_pos,x_vel,y_vel,angle,ang_vel,leg_1,leg_2,main_booster,lat_booster
-0.0015360831748694,1.403339147567749,-0.1564096361398697,-0.3369256556034088,0.0025011512916535,0.0493923500180244,0.0,0.0,-0.0488694906234741,0.8846168518066406
-0.0030159950256347,1.3954923152923584,-0.1492729187011718,-0.3487492203712463,0.0037611431907862,0.0252031739801168,0.0,0.0,0.322354793548584,0.9269089698791504
-0.0043268203735351,1.3878393173217771,-0.1313377171754837,-0.3401369154453277,0.0040172031149268,0.0051216753199696,0.0,0.0,-0.3210922479629516,0.6258499622344971
-0.0056298254057765,1.3798991441726685,-0.1302791684865951,-0.3528975546360016,0.0040023745968937,-0.0002968849730677,0.0,0.0,-0.3493618965148926,0.7874155044555664
-0.0068952562287449,1.371676683425903,-0.1253522038459777,-0.3654364645481109,0.0028210957534611,-0.0236274655908346,0.0,0.0,-0.2976170182228088,0.057666540145874
-0.0082042692229151,1.3631691932678225,-0.1304309964179992,-0.3781117796897888,0.0023661903105676,-0.0090990494936704,0.0,0.0,0.0633939504623413,0.7948452234268188
-0.0095173837617039,1.3549340963363647,-0.1299861073493957,-0.3659979701042175,0.0010535907931625,-0.0262545999139547,0.0,0.0,-0.7265413999557495,0.4206492900848388
-0.0108848568052053,1.3464138507843018,-0.1361534893512725,-0.378678023815155,0.000469502294436,-0.01168302167207,0.0,0.0,0.4870527982711792,0.7897319793701172
-0.0122619625180959,1.3387469053268433,-0.1362520903348922,-0.3407539427280426,-0.0009713770705275,-0.0288203805685043,0.0,0.0,-0.0725198984146118,0.3048670291900635
-0.0137032512575387,1.3307945728302002,-0.1434040516614914,-0.3534386754035949,-0.0016828457592055,-0.0142307579517364,0.0,0.0,-0.3606758117675781,0.7477370500564575
-0.0151458736509084,1.3225573301315308,-0.1425637006759643,-0.3660951554775238,-0.003359560156241,-0.0335372239351272,0.0,0.0,-0.3185597658157348,0.922455072402954
-0.0165801048278808,1.3140329122543335,-0.1404038071632385,-0.3788779377937317,-0.006350016221404,-0.0598147213459014,0.0,0.0,-0.1206592321395874,0.4503083229064941
-0.0180912967771291,1.3052232265472412,-0.148830384016037,-0.3915540277957916,-0.0086124148219823,-0.0452519431710243,0.0,0.0,-0.118492305278778,0.9117047786712646
-0.0196030624210834,1.296118974685669,-0.1475862711668014,-0.4046646654605865,-0.0121642686426639,-0.0710438415408134,0.0,0.0,0.1000771522521972,0.9101355075836182
-0.0210097320377826,1.287558913230896,-0.1359993517398834,-0.3804925382137298,-0.0167755000293254,-0.0922329425811767,0.0,0.0,-0.3285244703292846,0.6909973621368408
-0.0224393848329782,1.2787039279937744,-0.1373988538980484,-0.3936263024806976,-0.0222848374396562,-0.1101967841386795,0.0,0.0,-0.5610446929931641,0.6577368974685669
-0.0238956455141305,1.2695695161819458,-0.139162078499794,-0.4060777127742767,-0.0286772064864635,-0.1278587281703949,0.0,0.0,-0.0120900273323059,0.7237153053283691
-0.025374699383974,1.2601412534713743,-0.1403695046901703,-0.4191979467868805,-0.0361297167837619,-0.1490635871887207,0.0,0.0,-0.1114828586578369,0.9462796449661256
-0.0268627163022756,1.250432372093201,-0.1397815644741058,-0.4317418336868286,-0.0450503192842006,-0.1784282326698303,0.0,0.0,-0.3442496657371521,0.8786437511444092
-0.0283889770507812,1.240434646606445,-0.1427993476390838,-0.4446672797203064,-0.0547744743525981,-0.1945009976625442,0.0,0.0,-0.1536926031112671,0.6840255260467529
-0.0299501419067382,1.2301521301269531,-0.1453507840633392,-0.4574264287948608,-0.0654424503445625,-0.2133782804012298,0.0,0.0,-0.4096343517303467,0.7546361684799194
-0.0315535552799701,1.21957528591156,-0.1487355530261993,-0.4706312716007232,-0.0769445598125457,-0.2300629317760467,0.0,0.0,-0.4458237290382385,0.6503992080688477
-0.0331993103027343,0.0,-0.1520900130271911,-0.4837567508220672,-0.0893304198980331,-0.2477394640445709,0.0,0.0,-0.7069295644760132,0.5646477937698364
-0.0349021926522254,1.1975404024124146,-0.1572422683238983,-0.4970919191837311,-0.1022912338376045,-0.2592395842075348,0.0,0.0,0.003136396408081,0.8639926910400391
-0.0367071144282817,1.1866813898086548,-0.1663973778486251,-0.4836435616016388,-0.1162940859794616,-0.2800822257995605,0.0,0.0,-0.0908127427101135,-0.0427026748657226
-0.0386233329772949,1.175517201423645,-0.1782157719135284,-0.4972817301750183,-0.1296345740556717,-0.2668095231056213,0.0,0.0,-0.1907970309257507,0.5262796878814697
-0.0406093597412109,1.1640644073486328,-0.184800922870636,-0.5102716088294983,-0.1433819085359573,-0.2749468386173248,0.0,0.0,-0.5926742553710938,0.3708981275558471
-0.0427082069218158,0.0,-0.196755364537239,-0.5229533314704895,-0.1564927995204925,-0.2622179388999939,0.0,0.0,0.1675670146942138,0.0004572868347167
-0.0449270233511924,1.1411391496658323,-0.2089738845825195,-0.4986720979213714,-0.1694082170724868,-0.2583081126213074,0.0,0.0,-0.3722141981124878,-0.5434938073158264
-0.0473053939640522,1.1296755075454712,-0.2266771048307418,-0.5108129382133484,-0.1805913746356964,-0.2236634045839309,0.0,0.0,-0.4298417568206787,0.8218910694122314
-0.0497332587838172,1.1179181337356567,-0.2305570542812347,-0.5240904688835144,-0.1928784698247909,-0.2457416504621505,0.0,0.0,0.0424871444702148,0.6332597732543945
-0.0522315986454486,1.106281042098999,-0.236877828836441,-0.5189376473426819,-0.2059308886528015,-0.2610483765602112,0.0,0.0,0.5395383834838867,-0.2165305614471435
-0.0547711364924907,1.0954800844192505,-0.2412193119525909,-0.4818693101406097,-0.2187873721122741,-0.2571300268173218,0.0,0.0,-0.8022735714912415,-0.827758252620697
-0.05750198289752,1.084410548210144,-0.2627153098583221,-0.4935577511787414,-0.2292759120464325,-0.2097708731889724,0.0,0.0,-0.5114424228668213,-0.3651366233825683
-0.0603532791137695,1.0730555057525637,-0.2752929329872131,-0.5062307119369507,-0.2392562478780746,-0.1996067017316818,0.0,0.0,-0.4040316343307495,0.2070682048797607
-0.0633259788155555,1.0614150762557983,-0.287930428981781,-0.5189029574394226,-0.2487524002790451,-0.1899230182170868,0.0,0.0,-0.6819772124290466,-0.0855408906936645
-0.0664209350943565,1.049489140510559,-0.3006220757961273,-0.5315744876861572,-0.2577898502349853,-0.1807489693164825,0.0,0.0,-0.3265894651412964,0.5940042734146118
-0.0695898085832595,1.0372631549835205,-0.3072184920310974,-0.5451152920722961,-0.2676689624786377,-0.1975820809602737,0.0,0.0,-0.6522062420845032,-0.3248213529586792
-0.0728822723031044,1.0247516632080078,-0.3200033009052276,-0.5577878355979919,-0.2771446108818054,-0.1895130425691604,0.0,0.0,-0.1121822595596313,-0.3440665602684021
-0.0762991905212402,1.011954665184021,-0.3328270316123962,-0.5704601407051086,-0.286246508359909,-0.1820377111434936,0.0,0.0,-0.3973407745361328,0.1634272336959839
-0.079841136932373,0.9988723993301392,-0.3456853032112121,-0.5831323266029358,-0.2950055599212646,-0.1751809418201446,0.0,0.0,-0.4579731225967407,0.4362004995346069
-0.0835087746381759,0.9855045676231384,-0.3585739135742187,-0.5958045125007629,-0.3034538328647613,-0.1689656227827072,0.0,0.0,-0.8254709243774414,0.5669867992401123
-0.0872543305158615,0.9718224406242372,-0.3653698563575744,-0.6100462675094604,-0.3129712045192718,-0.1903483271598816,0.0,0.0,-0.608771026134491,0.3941006660461426
-0.0911268219351768,0.9578551650047302,-0.3783085942268371,-0.6227208375930786,-0.3222449123859405,-0.1854743957519531,0.0,0.0,-0.2434819340705871,0.4278266429901123
-0.0951265320181846,0.943602979183197,-0.3912666738033294,-0.6353958249092102,-0.3313096463680267,-0.1812947690486908,0.0,0.0,0.0912162065505981,0.8411672115325928
-0.0990879982709884,0.9293213486671448,-0.3860040605068207,-0.6370967030525208,-0.3419206142425537,-0.2122195959091186,0.0,0.0,-0.5800331234931946,0.7126989364624023
-0.1031204238533973,0.9147209525108336,-0.3917309045791626,-0.6516821980476379,-0.354005217552185,-0.2416921406984329,0.0,0.0,0.2650682926177978,0.614946722984314
-0.1071022003889083,0.9007657766342164,-0.3854768872261047,-0.6234188675880432,-0.3674042820930481,-0.2679813504219055,0.0,0.0,-0.803156852722168,-0.0022070407867431
-0.1112127304077148,0.8865272998809814,-0.3984854221343994,-0.6361045837402344,-0.3807369470596313,-0.2666531205177307,0.0,0.0,-0.2944492697715759,0.1770204305648803
-0.1154524832963943,0.8720056414604187,-0.4114984571933746,-0.6487911343574524,-0.3940388560295105,-0.266038566827774,0.0,0.0,0.4913080930709839,0.5453912019729614
-0.119455337524414,0.8578099608421326,-0.3871324062347412,-0.6346312761306763,-0.408141940832138,-0.2820618748664856,0.0,0.0,0.2112578153610229,0.2232304811477661
-0.1234123259782791,0.8441006541252136,-0.3824018836021423,-0.6132079362869263,-0.4224796295166015,-0.2867538630962372,0.0,0.0,0.7885830402374268,0.2813682556152344
-0.1271939277648925,0.8306944370269775,-0.3653902113437652,-0.5997191667556763,-0.4363432824611664,-0.277272492647171,0.0,0.0,0.4884120225906372,-0.3675508499145508
-0.1307993829250335,0.8179811835289001,-0.3477734327316284,-0.5690687894821167,-0.4503001570701599,-0.2791376411914825,0.0,0.0,0.7994606494903564,-0.6317688822746277
-0.1341922730207443,0.8056190013885498,-0.3280541598796844,-0.5531008839607239,-0.4626556038856506,-0.2471089661121368,0.0,0.0,0.562603235244751,-0.4666176438331604
-0.137597844004631,0.7936333417892456,-0.328854888677597,-0.53664231300354,-0.4755987524986267,-0.2588629722595215,0.0,0.0,0.85521399974823,-0.8910835385322571
-0.1406802237033844,0.7825338244438171,-0.2982994318008423,-0.4967600107192993,-0.486662894487381,-0.2212820500135421,0.0,0.0,0.4370924234390259,-0.8419201970100403
-0.1435569822788238,0.7718841433525085,-0.2792994678020477,-0.4763035476207733,-0.4960295557975769,-0.1873323619365692,0.0,0.0,0.4297811985015869,-0.8786484599113464
-0.1462187767028808,0.7618964314460754,-0.2593438029289245,-0.4463909566402435,-0.5037164092063904,-0.1537373512983322,0.0,0.0,0.8242363929748535,-0.5674179196357727
-0.1487087309360504,0.7528669238090515,-0.2428003549575805,-0.4036048948764801,-0.5107161998748779,-0.1399963498115539,0.0,0.0,0.9127931594848632,-0.7295882105827332
-0.151116281747818,0.7441050410270691,-0.2357972562313079,-0.3912834227085113,-0.5163453817367554,-0.1125841364264488,0.0,0.0,0.9371905326843262,-0.6495402455329895
-0.1534017622470855,0.7362669706344604,-0.2242366969585418,-0.3499926328659057,-0.5212374329566956,-0.097841240465641,0.0,0.0,0.9883873462677002,-0.7888760566711426
-0.1554226875305175,0.7288799285888672,-0.1992562711238861,-0.3294083476066589,-0.5244658589363098,-0.0645690709352493,0.0,0.0,0.9591681957244872,-0.1854522228240966
-0.1571865975856781,0.7221329212188721,-0.1733456552028656,-0.3010442852973938,-0.5279348492622375,-0.069379799067974,0.0,0.0,0.955735683441162,-0.5022202134132385
-0.158868983387947,0.7157372832298279,-0.165820226073265,-0.2851921021938324,-0.530703604221344,-0.0553763210773468,0.0,0.0,0.9751780033111572,-0.8781999349594116
-0.1605231314897537,0.710148811340332,-0.1640055179595947,-0.2489258646965026,-0.5323145985603333,-0.0322192944586277,0.0,0.0,0.9944159984588624,-0.7623305320739746
-0.1618072539567947,0.7056447267532349,-0.1281181573867797,-0.200295552611351,-0.5326530337333679,-0.0067684762179851,0.0,0.0,0.9830138683319092,-0.6827423572540283
-0.1630008667707443,0.7012652158737183,-0.1201590076088905,-0.1943356096744537,-0.5317341089248657,0.0183789245784282,0.0,0.0,0.9762015342712402,-0.8547689914703369
-0.163829892873764,0.6979560256004333,-0.0849709883332252,-0.1462708860635757,-0.52936851978302,0.0473122298717498,0.0,0.0,0.7152136564254761,-0.7121394276618958
-0.1646808683872223,0.6951209902763367,-0.0878889262676239,-0.1249145939946174,-0.5261772274971008,0.0638254284858703,0.0,0.0,0.8324763774871826,-0.3377940654754638
-0.1653715074062347,0.6930549144744873,-0.0710288733243942,-0.091063305735588,-0.5239346623420715,0.0448515191674232,0.0,0.0,0.446881890296936,-0.6960399150848389
-0.1659385710954666,0.6914345622062683,-0.059583880007267,-0.0709120780229568,-0.5206539630889893,0.065614067018032,0.0,0.0,-0.0078914165496826,-0.7742460370063782
-0.1666938811540603,0.6895946860313416,-0.0797424167394638,-0.0801728442311286,-0.5158677101135254,0.0957246273756027,0.0,0.0,0.5003373622894287,-0.9126046299934388
-0.1673138588666916,0.6881542801856995,-0.0675344616174697,-0.0619295015931129,-0.5095860362052917,0.1256337463855743,0.0,0.0,0.2650480270385742,-0.8856791257858276
-0.1680024117231369,0.6868914365768433,-0.0756024792790412,-0.0536437556147575,-0.5019754767417908,0.1522110402584076,0.0,0.0,0.0815876722335815,-0.7779870629310608
-0.168724924325943,0.6856268644332886,-0.0800241976976394,-0.0533868893980979,-0.4932413399219513,0.1746827811002731,0.0,0.0,0.2160624265670776,-0.6073336005210876
-0.1695201843976974,0.6844582557678223,-0.0879489332437515,-0.048948373645544,-0.4838112294673919,0.1886021643877029,0.0,0.0,0.1510106325149536,-0.7164620161056519
-0.1702350676059723,0.6837919354438782,-0.0808463543653488,-0.0263709407299757,-0.4734120965003967,0.2079819738864898,0.0,0.0,0.3408746719360351,-0.8077882528305054
-0.1707590073347091,0.6837292909622192,-0.0629174709320068,0.0007643681601621,-0.4617786705493927,0.2326685190200805,0.0,0.0,0.0516606569290161,-0.6914752721786499
-0.1712918281555175,0.6841820478439331,-0.0646342113614082,0.0238330084830522,-0.4493021368980407,0.2495311945676803,0.0,0.0,-0.1727483868598938,-0.5382976531982422
-0.1719927787780761,0.6843831539154053,-0.0822406187653541,0.0127871800214052,-0.4360269904136657,0.2655023634433746,0.0,0.0,0.193103551864624,0.1946867704391479
-0.172545239329338,0.6850619316101074,-0.0670778006315231,0.0337947010993957,-0.4231812953948974,0.2569137811660766,0.0,0.0,0.033826470375061,-0.3013442754745483
-0.1731255501508712,0.6859923601150513,-0.0691298991441726,0.0446336679160594,-0.4111978411674499,0.2396688759326934,0.0,0.0,0.1070632934570312,0.0901615619659423
-0.1736746728420257,0.6872887015342712,-0.0653723999857902,0.0606178492307662,-0.3999578356742859,0.2248002588748932,0.0,0.0,-0.1745610237121582,-0.3797442317008972
-0.1743391007184982,0.6883041858673096,-0.0764099732041359,0.0479156300425529,-0.3892955780029297,0.213245078921318,0.0,0.0,0.0278658866882324,-0.4428268671035766
-0.1749296188354492,0.6895104050636292,-0.0687643960118293,0.0562314465641975,-0.3789642751216888,0.2066258490085601,0.0,0.0,-0.2159544825553894,-0.5405077338218689
-0.1756716668605804,0.6904534101486206,-0.0843972042202949,0.0445839166641235,-0.3681554496288299,0.216176837682724,0.0,0.0,-0.3560454845428467,0.2072573900222778
-0.1765241622924804,0.6911154389381409,-0.0949266552925109,0.0318833850324153,-0.3579359948635101,0.2043891698122024,0.0,0.0,0.1886234283447265,-0.1066003441810607
-0.1772422790527343,0.6920182108879089,-0.081422172486782,0.042480744421482,-0.347819834947586,0.2023226022720337,0.0,0.0,-0.0501555800437927,-0.0270881652832031
-0.1780671179294586,0.6926396489143372,-0.0915622934699058,0.0297820251435041,-0.3382999300956726,0.1903984099626541,0.0,0.0,0.0976587533950805,-0.0869879126548767
-0.1788347214460373,0.6936877965927124,-0.0852633267641067,0.0485529825091362,-0.3293968737125397,0.1780602633953094,0.0,0.0,-0.1818254590034485,-0.2020519375801086
-0.1797046661376953,0.6944542527198792,-0.0949709713459014,0.0358567312359809,-0.3210963606834411,0.1660104244947433,0.0,0.0,-0.0367689132690429,0.6083824634552002
-0.1806198060512542,0.6949135661125183,-0.0974755138158798,0.0217230506241321,-0.314897358417511,0.1239801049232482,0.0,0.0,0.1333420276641845,0.3705892562866211
-0.1814977675676345,0.6953779458999634,-0.0934992209076881,0.0218634996563196,-0.3089867532253265,0.1182121783494949,0.0,0.0,0.4611790180206299,0.1597933769226074
-0.1823785752058029,0.6962249279022217,-0.0929966419935226,0.0386725477874279,-0.3039023280143738,0.1016879305243492,0.0,0.0,0.2903575897216797,0.0602043867111206
-0.1830876320600509,0.6977241039276123,-0.0755258351564407,0.067589096724987,-0.2991262078285217,0.0955223590135574,0.0,0.0,-0.1744545698165893,0.0617268085479736
-0.1838868111371994,0.6989409327507019,-0.0839559286832809,0.0548984035849571,-0.2949666976928711,0.0831900760531425,0.0,0.0,0.1713860034942627,0.1642525196075439
-0.1846939027309417,0.700722873210907,-0.0837444216012954,0.0798154696822166,-0.2918345630168915,0.0626423954963684,0.0,0.0,-0.0886881351470947,-0.4589749574661255
-0.1855853050947189,0.7022223472595215,-0.0915845781564712,0.0671260431408882,-0.2893241941928863,0.0502073355019092,0.0,0.0,-0.264073371887207,-0.3639887571334839
-0.1865581572055816,0.7034389972686768,-0.0991134420037269,0.0544369705021381,-0.2874380648136139,0.037722785025835,0.0,0.0,0.3485881090164184,-0.4554444551467895
-0.1875006705522537,0.7052807807922363,-0.0951632410287857,0.082040399312973,-0.2864910066127777,0.018941231071949,0.0,0.0,0.0807167291641235,-0.7102469205856323
-0.1884978264570236,0.7073378562927246,-0.1014123111963272,0.0917578861117363,-0.2847488224506378,0.0348434671759605,0.0,0.0,0.0861742496490478,-0.6402556896209717
-0.189586728811264,0.7097398638725281,-0.1111292019486427,0.1071848347783088,-0.282440572977066,0.0461649373173713,0.0,0.0,-0.2176718711853027,-0.7822502851486206
-0.1908179223537445,0.7118894457817078,-0.1266734600067138,0.0962253808975219,-0.2787832915782928,0.0731454193592071,0.0,0.0,-0.2910540103912353,-0.5755185484886169
-0.1921486854553222,0.7137751579284668,-0.1369659304618835,0.0845458507537841,-0.2747962772846222,0.079740397632122,0.0,0.0,-0.1538269519805908,-0.2793316841125488
-0.1935402899980545,0.7153782248497009,-0.1424243003129959,0.0718564242124557,-0.2714467942714691,0.06699039041996,0.0,0.0,-0.1016778349876403,-0.4361727237701416
-0.1949888169765472,0.7166985869407654,-0.147509217262268,0.0591675192117691,-0.2687366902828216,0.0542022809386253,0.0,0.0,0.2807893753051758,-0.4088829159736633
-0.1963481903076172,0.7186130285263062,-0.1378694623708725,0.0854449495673179,-0.2667499184608459,0.0397350415587425,0.0,0.0,-0.0158109068870544,-0.6429412961006165
-0.1977928131818771,0.720267117023468,-0.1467616260051727,0.0739332884550094,-0.264405757188797,0.0468830689787864,0.0,0.0,0.3000125885009765,-0.6164398193359375
-0.199147030711174,0.7222920060157776,-0.1384124308824539,0.0905304998159408,-0.2613386213779449,0.0613425076007843,0.0,0.0,-0.225246787071228,-0.5431622862815857
-0.2005836963653564,0.7240559458732605,-0.1471364945173263,0.0790162235498428,-0.257800281047821,0.0707671195268631,0.0,0.0,-0.335200548171997,-0.4741790294647217
-0.202058270573616,0.725537121295929,-0.1502860188484192,0.0663277432322502,-0.2549092173576355,0.05782101303339,0.0,0.0,0.0858675241470336,-0.3765324354171753
-0.2034394294023513,0.7271528840065002,-0.1405576467514038,0.072231039404869,-0.2524217367172241,0.0497495010495185,0.0,0.0,0.5128343105316162,-0.3481478691101074
-0.2048175781965255,0.7293500304222107,-0.1391146928071975,0.0978693440556526,-0.2511018812656402,0.026397094130516,0.0,0.0,0.0390113592147827,-0.7197696566581726
-0.2062866687774658,0.7317884564399719,-0.1489257514476776,0.1087167784571647,-0.2490427196025848,0.0411831215023994,0.0,0.0,-0.2415637373924255,-0.8853724002838135
-0.2078480273485183,0.7339701056480408,-0.1593421995639801,0.097504086792469,-0.2457821518182754,0.0652116388082504,0.0,0.0,-0.3678264617919922,-0.7927403450012207
-0.2094859629869461,0.7358894348144531,-0.1678678095340728,0.0859754085540771,-0.2416422218084335,0.0827990099787712,0.0,0.0,-0.5518880486488342,-0.7393215298652649
-0.211183875799179,0.737535834312439,-0.17437045276165,0.0739133432507515,-0.2369907945394516,0.093028649687767,0.0,0.0,-0.4923379421234131,-0.3858922719955444
-0.2128925323486328,0.7388992309570312,-0.1748051643371582,0.0612251199781894,-0.2329909354448318,0.0799971371889114,0.0,0.0,0.2844545841217041,-0.1139490008354187
-0.2144444435834884,0.7408880591392517,-0.1585805714130401,0.0889297947287559,-0.2295523434877395,0.0687717422842979,0.0,0.0,-0.197656512260437,-0.6669475436210632
