x_pos,y_pos,x_vel,y_vel,angle,ang_vel,leg_1,leg_2,main_booster,lat_booster
-0.001506996108219,1.4030898809432983,-0.1528743356466293,-0.3480064272880554,0.0019505927339196,0.0384909957647323,0.0,0.0,-0.5006056484851655,0.0038685295615545
-0.0029961585532873,1.3947484493255615,-0.1510206311941146,-0.3707350790500641,0.0040400964207947,0.0417945571243763,0.0,0.0,-0.8503685023849232,0.2522864279888042
-0.0044658659026026,1.3858718872070312,-0.149283230304718,-0.3945148289203644,0.006315245758742,0.0455072782933712,0.0,0.0,-0.0736506219035415,-0.0269205245668495
-0.0059153558686375,1.3764610290527344,-0.1474333256483078,-0.418275386095047,0.0087755220010876,0.049209963530302,0.0,0.0,0.4925378233972908,0.4114766761778348
-0.0072320937179028,1.367400884628296,-0.1349061280488968,-0.4026940166950226,0.0119771808385849,0.0640391707420349,0.0,0.0,-0.4150385840712931,0.4374984649884077
-0.0085264202207326,1.3578063249588013,-0.1328543871641159,-0.4264580905437469,0.0153601737692952,0.0676658302545547,0.0,0.0,-0.0376986484076213,-0.8807668491120563
-0.0098694805055856,1.3476760387420654,-0.1397309005260467,-0.4503040313720703,0.020731970667839,0.1074457317590713,0.0,0.0,-0.2758643905266886,0.1204763361592885
-0.0111885070800781,1.3370113372802734,-0.1375081539154052,-0.4740621149539947,0.0262802690267562,0.1109760627150535,0.0,0.0,-0.7734132532757596,-0.1200978319890107
-0.0124826431274414,1.325813055038452,-0.1352061331272125,-0.4978208541870117,0.0320038087666034,0.1144813075661659,0.0,0.0,0.2374622674972286,-0.6711987596936283
-0.0138223646208643,1.3148980140686035,-0.1412744671106338,-0.4852841198444366,0.0392279028892517,0.1444950997829437,0.0,0.0,0.7842744330031013,0.1861405188287251
-0.0150681491941213,1.3044168949127195,-0.1324942708015442,-0.4660514891147613,0.0470618493854999,0.1566933095455169,0.0,0.0,0.6277031762916427,0.770683971960849
-0.0161742214113473,1.2941900491714478,-0.1173049062490463,-0.4547558724880218,0.0536839477717876,0.1324541419744491,0.0,0.0,0.9129072900123836,0.0743655812723949
-0.0171459205448627,1.2846543788909912,-0.1047418713569641,-0.4240900874137878,0.0611821375787258,0.1499777436256408,0.0,0.0,-0.1303439035832461,-0.9194296874376232
-0.0181536674499511,1.2745707035064695,-0.1101364865899086,-0.4485671818256378,0.0704561173915863,0.1854964643716812,0.0,0.0,0.2633823751976429,-0.6512577705125787
-0.019109820947051,1.264911413192749,-0.1066265553236007,-0.4298545718193054,0.0813813135027885,0.2185239493846893,0.0,0.0,-0.0311118287971943,-0.9122983542853332
-0.0200955383479595,1.2547017335891724,-0.111238956451416,-0.4545048773288727,0.0939424410462379,0.2512454390525818,0.0,0.0,-0.2502319555300041,0.2599998283235449
-0.0210527423769235,1.2439597845077517,-0.1085081249475479,-0.4782723784446716,0.1066483259201049,0.2541407942771911,0.0,0.0,0.007373431749307,-0.0689511209852705
-0.021919060498476,1.2330403327941897,-0.0999432653188705,-0.4863132238388061,0.1199018061161041,0.2650933861732483,0.0,0.0,0.7236790661307986,-0.4691382522902723
-0.0227556228637695,1.2228546142578125,-0.0975711196660995,-0.4538869857788086,0.1337639838457107,0.2772688269615173,0.0,0.0,0.8129190792607239,-0.6609400841195295
-0.0237919799983501,1.2130300998687744,-0.1187350898981094,-0.4380613565444946,0.1488369107246399,0.3014856278896332,0.0,0.0,0.8385289584276814,0.5854477119349005
-0.024727439507842,1.2039637565612793,-0.1079867929220199,-0.4044583737850189,0.1632756441831588,0.2888009548187256,0.0,0.0,-0.4227358297602772,0.2763941243949612
-0.0256333351135253,1.1943655014038086,-0.1050975322723388,-0.4282431900501251,0.1778318434953689,0.2911502122879028,0.0,0.0,0.0017293880605571,-0.4556176192084437
-0.0264902114868164,1.184744119644165,-0.1006427779793739,-0.4294719099998474,0.1928649246692657,0.3006883561611175,0.0,0.0,0.5612033960204275,-0.9983524599396892
-0.0273758880794048,1.1750142574310305,-0.1056420654058456,-0.4347559213638305,0.210087165236473,0.3444758057594299,0.0,0.0,0.1176994109577687,-0.6193096996516799
-0.0284758564084768,1.165345549583435,-0.128183364868164,-0.4324124753475189,0.2284976840019226,0.3682434558868408,0.0,0.0,0.0524592107625716,-0.7120294308369989
-0.0298031810671091,1.155730128288269,-0.1522804498672485,-0.430510401725769,0.2483491152524948,0.3970286548137665,0.0,0.0,0.597042857132229,-0.5896757041524233
-0.0313148498535156,1.1465948820114136,-0.1718610227108001,-0.4096568822860718,0.2694822549819946,0.4226627945899963,0.0,0.0,0.0152614014151182,-0.2174229796225398
-0.0330086722970008,1.137632131576538,-0.1896820962429046,-0.4022174179553985,0.2903200685977936,0.416756808757782,0.0,0.0,0.6243447795744408,-0.5545673679232227
-0.0350652709603309,1.129162073135376,-0.2266343832015991,-0.3807793855667114,0.3119987547397613,0.4335736334323883,0.0,0.0,-0.9819933940156258,-0.0576867090146936
-0.0370918288826942,1.1201636791229248,-0.2235458195209503,-0.4045729041099548,0.3337370455265045,0.4347660541534424,0.0,0.0,-0.0881009064649001,-0.9230921152936324
-0.0391573905944824,1.1106126308441162,-0.229066252708435,-0.4298696219921112,0.3573434948921203,0.4721291661262512,0.0,0.0,-0.8354632258415222,0.9965167045593262
-0.0411278717219829,1.1005642414093018,-0.2177338898181915,-0.451900452375412,0.3792168498039245,0.4374679028987884,0.0,0.0,-0.7293406128883362,0.9923110008239746
-0.0430084243416786,1.0900328159332275,-0.2069299966096878,-0.4732076525688171,0.3993464708328247,0.4025924801826477,0.0,0.0,-0.7280983924865723,0.9959012269973756
-0.0447921752929687,1.0790040493011477,-0.1954080760478973,-0.4950707256793976,0.4176690578460693,0.3664520978927612,0.0,0.0,-0.8073315620422363,0.9820387363433838
-0.0464737899601459,1.0674946308135986,-0.1831588298082351,-0.5160568356513977,0.4339089691638946,0.324798047542572,0.0,0.0,-0.8330992460250854,0.9634829759597778
-0.0480566993355751,1.0555088520050049,-0.1712615191936493,-0.5367740392684937,0.448075532913208,0.2833318710327148,0.0,0.0,-0.7607160806655884,0.9836513996124268
-0.0495409965515136,1.0430340766906738,-0.159537062048912,-0.5580438375473022,0.4602778851985931,0.2440472096204757,0.0,0.0,-0.4237917065620422,0.879091739654541
-0.0509309768676757,1.030081033706665,-0.1482563763856887,-0.5787867903709412,0.4704964160919189,0.204370379447937,0.0,0.0,-0.6285213828086853,0.9483046531677246
-0.0522315986454486,1.0166507959365845,-0.137559562921524,-0.5994663238525391,0.4788116812705993,0.1663055121898651,0.0,0.0,-0.7022213935852051,0.9618687629699708
-0.0534317977726459,1.0027419328689575,-0.1255480945110321,-0.620100200176239,0.4849695265293121,0.1231566816568374,0.0,0.0,-0.940069615840912,0.9844508171081544
-0.0545476898550987,0.988349974155426,-0.1155145317316055,-0.6410254836082458,0.4893597066402435,0.0878028720617294,0.0,0.0,-0.8939753174781799,0.9566410779953004
-0.0555522926151752,0.9734851121902466,-0.1021611243486404,-0.6612715125083923,0.4912630915641784,0.0380684174597263,0.0,0.0,-0.7692384123802185,0.9981964826583862
-0.0564424507319927,0.9581395983695984,-0.0884795859456062,-0.6818308234214783,0.4906666576862335,-0.0119284559041261,0.0,0.0,-0.8097355365753174,0.995736598968506
-0.0572210326790809,0.9423214197158812,-0.0750668868422508,-0.7020381093025208,0.4875437915325165,-0.0624573603272438,0.0,0.0,-0.7867974638938904,0.9997115135192872
-0.0579006187617778,0.9260091185569764,-0.0633292570710182,-0.7233602404594421,0.482377827167511,-0.1033195257186889,0.0,0.0,-0.885394811630249,0.9961752891540528
-0.0584721565246582,0.9092116355895996,-0.0503886453807354,-0.7442156076431274,0.4748620092868805,-0.1503163278102874,0.0,0.0,-0.9228299856185912,0.9998536109924316
-0.0589347854256629,0.8919340968132019,-0.0372975394129753,-0.7648484706878662,0.4649198651313782,-0.1988426148891449,0.0,0.0,-0.9121021032333374,0.9997756481170654
-0.0593139640986919,0.8741748332977295,-0.0271971877664327,-0.7857609987258911,0.4531234502792358,-0.2359291017055511,0.0,0.0,-0.8106105923652649,0.9833097457885742
-0.0596117973327636,0.8559293746948242,-0.0173994917422533,-0.8069483637809753,0.4395650923252105,-0.271167516708374,0.0,0.0,-0.3412601351737976,0.9985620975494384
-0.0598109252750873,0.8371968269348145,-0.0054503628052771,-0.8281094431877136,0.423843502998352,-0.3144316971302032,0.0,0.0,0.1268138885498047,0.9931373596191406
-0.0599638931453228,0.8185844421386719,0.0013868972891941,-0.822311282157898,0.405848741531372,-0.3598953485488891,0.0,0.0,0.7045736312866211,0.9306257963180542
-0.0603835098445415,0.8004981875419617,-0.0230886023491621,-0.7985623478889465,0.3856454789638519,-0.4040653109550476,0.0,0.0,-0.7724023461341858,0.8502177000045776
-0.0607003197073936,0.7819222807884216,-0.0105073554441332,-0.8200334310531616,0.3631816208362579,-0.4492778182029724,0.0,0.0,-0.0904822349548339,-0.6560783386230469
-0.0610380172729492,0.762795090675354,-0.0134965945035219,-0.8451053500175476,0.3418461680412292,-0.4267089366912842,0.0,0.0,0.2555218935012817,0.056408405303955
-0.0613648407161235,0.7437188029289246,-0.0125364866107702,-0.8432047963142395,0.3208179771900177,-0.4205638468265533,0.0,0.0,-0.2048636078834533,-0.3339813947677612
-0.0616631507873535,0.7241127490997314,-0.0093273315578699,-0.8669882416725159,0.2995624840259552,-0.4251100122928619,0.0,0.0,0.2287160158157348,-0.7245301604270935
-0.0620882995426654,0.7048420310020447,-0.0231763422489166,-0.8526173830032349,0.279629498720169,-0.3986596465110779,0.0,0.0,0.0741453170776367,-0.2089731693267822
-0.0625197440385818,0.6857102513313293,-0.0238550677895545,-0.846726655960083,0.2598633170127868,-0.3953235447406769,0.0,0.0,-0.1157411336898803,-0.6556869745254517
-0.0629676803946495,0.6660371422767639,-0.0262846909463405,-0.871194064617157,0.2409949749708175,-0.3773668706417084,0.0,0.0,0.8223941326141357,-0.2810535430908203
-0.0636755004525184,0.6470658183097839,-0.0515507832169532,-0.8401309251785278,0.2214702814817428,-0.3904939889907837,0.0,0.0,0.4875965118408203,0.0954823493957519
-0.0643834099173545,0.6280673742294312,-0.0513971038162708,-0.8415818810462952,0.2018818706274032,-0.3917681574821472,0.0,0.0,-0.122907280921936,-0.6675887703895569
-0.0651238411664962,0.6085233688354492,-0.0558346584439277,-0.8662459254264832,0.1835702359676361,-0.3662325441837311,0.0,0.0,0.8622252941131592,0.1324462890625
-0.0658055320382118,0.5893462896347046,-0.0502480044960975,-0.8501987457275391,0.165608063340187,-0.3592438101768493,0.0,0.0,0.8985347747802734,0.3652553558349609
-0.0665484443306922,0.5706871151924133,-0.0561382174491882,-0.827376663684845,0.1474684923887252,-0.362791508436203,0.0,0.0,0.8291621208190918,0.8861415386199951
-0.0672491043806076,0.5521672964096069,-0.0497926548123359,-0.8212228417396545,0.1272667497396469,-0.4040351510047912,0.0,0.0,0.7305655479431152,-0.3914495706558227
-0.0681290626525878,0.5340144634246826,-0.0667468681931495,-0.8051150441169739,0.1061475500464439,-0.4223840832710266,0.0,0.0,0.8015240430831909,-0.2185676097869873
-0.0690567940473556,0.5167282819747925,-0.071259394288063,-0.7668834924697876,0.0848118737339973,-0.426713764667511,0.0,0.0,-0.4961355924606323,-0.7347705364227295
-0.0700063705444336,0.498897910118103,-0.0743459314107894,-0.7914181351661682,0.06441181153059,-0.4080015122890472,0.0,0.0,-0.6723432540893555,-0.6472729444503784
-0.0709774047136306,0.4805408716201782,-0.0773711875081062,-0.8151366114616394,0.0449027493596077,-0.390181303024292,0.0,0.0,0.96106219291687,-0.3442529439926147
-0.0720576271414756,0.4624888002872467,-0.0874066799879074,-0.801819920539856,0.0245329607278108,-0.4073956906795501,0.0,0.0,0.8171534538269043,-0.904627799987793
-0.0733122825622558,0.4450212717056274,-0.1061010509729385,-0.7761320471763611,0.0054194526746869,-0.3822700977325439,0.0,0.0,0.2651360034942627,-0.5708915591239929
-0.0745614022016525,0.427739530801773,-0.1063963994383812,-0.7681096792221069,-0.0128631042316555,-0.3656510412693023,0.0,0.0,0.7845652103424072,-0.7019301056861877
-0.0759781822562217,0.4113077521324157,-0.123853899538517,-0.7305470705032349,-0.0304547939449548,-0.3518337309360504,0.0,0.0,-0.3784535527229309,0.1092623472213745
-0.0773678794503212,0.3943458199501037,-0.1207886338233947,-0.7543283700942993,-0.048411626368761,-0.3591367602348327,0.0,0.0,0.3060191869735718,-0.4442039728164673
-0.0787422209978103,0.3773192167282104,-0.1187808364629745,-0.7574428915977478,-0.0668613538146019,-0.3689947724342346,0.0,0.0,0.8057959079742432,-0.8126657605171204
-0.0800493210554122,0.3602842092514038,-0.113488532602787,-0.7579721808433533,-0.0839079841971397,-0.3409326672554016,0.0,0.0,0.9651668071746826,-0.9248952269554138
-0.0814107879996299,0.3433272838592529,-0.1203474774956703,-0.7546007037162781,-0.0995697379112243,-0.3132351338863373,0.0,0.0,0.9750945568084716,-0.8575129508972168
-0.0827295333147049,0.3272742033004761,-0.1174187436699867,-0.7144975662231445,-0.1139232292771339,-0.2870694994926452,0.0,0.0,0.8944435119628906,-0.831515371799469
-0.0838807076215744,0.3120859861373901,-0.1021769493818283,-0.6760699152946472,-0.1267953664064407,-0.2574428617954254,0.0,0.0,0.6484023332595825,-0.7487702369689941
-0.0850832015275955,0.2976214289665222,-0.10819573700428,-0.6439380049705505,-0.1387962996959686,-0.2400184571743011,0.0,0.0,0.6285910606384277,-0.6886027455329895
-0.0864075645804405,0.2831431627273559,-0.1210977807641029,-0.6445764899253845,-0.1501098573207855,-0.2262710779905319,0.0,0.0,0.5819553136825562,-0.6367418169975281
-0.0876013785600662,0.2692627608776092,-0.1090300530195236,-0.6179819703102112,-0.1604473888874054,-0.2067505121231079,0.0,0.0,0.94092059135437,-0.533726692199707
-0.0888285636901855,0.2558915615081787,-0.1126897186040878,-0.5953899621963501,-0.170483723282814,-0.2007262408733368,0.0,0.0,0.9237501621246338,-0.7824721336364746
-0.0900264754891395,0.2431913167238235,-0.1107957959175109,-0.5655134916305542,-0.1795015484094619,-0.1803568303585052,0.0,0.0,0.9558193683624268,-0.8976508378982544
-0.0911371260881424,0.2312079221010208,-0.1034557819366455,-0.5335375070571899,-0.187147170305252,-0.1529120057821273,0.0,0.0,0.7308688163757324,-0.5942361950874329
-0.0920607596635818,0.2195758670568466,-0.085778571665287,-0.5178268551826477,-0.1937532573938369,-0.1321221888065338,0.0,0.0,0.9438388347625732,-0.9803845286369324
-0.0929306000471115,0.2080075293779373,-0.0820236131548881,-0.5148065686225891,-0.1987504810094833,-0.0999443009495735,0.0,0.0,0.9668328762054444,-0.710536777973175
-0.093622401356697,0.1965871155261993,-0.0655137002468109,-0.508069634437561,-0.2024392187595367,-0.0737750977277755,0.0,0.0,0.9763467311859132,-0.9693009257316588
-0.0940392464399337,0.1856012940406799,-0.0398798659443855,-0.4885065853595733,-0.2042497545480728,-0.0362107157707214,0.0,0.0,0.8900802135467529,-0.9293402433395386
-0.0942431464791297,0.1747064441442489,-0.0203446336090564,-0.4842207729816437,-0.2043011486530304,-0.0010275972308591,0.0,0.0,0.9099204540252686,-0.9294890761375428
-0.0943281203508377,0.164585068821907,-0.0098869409412145,-0.4496480822563171,-0.2029020339250564,0.0279820952564477,0.0,0.0,0.5032172203063965,-0.7798353433609009
-0.0942827239632606,0.1549593061208725,0.0019506510579958,-0.427457720041275,-0.2002926915884018,0.0521868541836738,0.0,0.0,0.63739013671875,-0.8007693886756897
-0.0940140709280967,0.1457531750202179,0.0228414721786975,-0.4086193144321441,-0.1962460279464721,0.0809333324432373,0.0,0.0,0.4950087070465088,-0.9294087290763856
-0.0936409011483192,0.1364303231239318,0.0317462682723999,-0.4136252403259277,-0.1906424462795257,0.1120716109871864,0.0,0.0,0.4149417877197265,-0.8762282133102417
-0.0932855606079101,0.1272485107183456,0.0286770369857549,-0.4072127938270569,-0.1837492883205413,0.1378630995750427,0.0,0.0,0.8387861251831055,-0.4916231036186218
-0.0926448851823806,0.1189242228865623,0.0571698024868965,-0.3691321015357971,-0.1768340766429901,0.1383042782545089,0.0,0.0,0.3601784706115722,-0.1190041303634643
-0.0919244736433029,0.1107638701796531,0.0656430721282959,-0.3619319498538971,-0.1704214066267013,0.1282533705234527,0.0,0.0,0.377941370010376,-0.517608642578125
-0.091226577758789,0.1030950397253036,0.0630279034376144,-0.3400775790214538,-0.1636483818292617,0.135460540652275,0.0,0.0,0.2856435775756836,-0.4174249172210693
-0.0903589278459549,0.0956803411245346,0.0800891518592834,-0.3288235068321228,-0.1569760739803314,0.1334462612867355,0.0,0.0,-0.0067691802978515,-0.6133947968482971
-0.0895296111702919,0.0877494439482688,0.075325109064579,-0.3517007231712341,-0.1493783146142959,0.1519555151462555,0.0,0.0,0.5995280742645264,-0.038878321647644
-0.0886592864990234,0.0803788006305694,0.0802030563354492,-0.3269159495830536,-0.1425645798444748,0.1362745463848114,0.0,0.0,0.3968228101730346,-0.0923866033554077
-0.0877387970685958,0.0731045827269554,0.0857281759381294,-0.3227061927318573,-0.136261373758316,0.1260642856359481,0.0,0.0,0.4670019149780273,0.4250993728637695
-0.0868383422493934,0.0661118105053901,0.0846135094761848,-0.3103037774562835,-0.1308500170707702,0.1082268506288528,0.0,0.0,0.4198822975158691,-0.3271175622940063
-0.08599853515625,0.0592803321778774,0.0795604810118675,-0.3032412528991699,-0.1264489889144897,0.0880209952592849,0.0,0.0,0.5807994604110718,-0.2543631792068481
-0.0849637985229492,0.0529192052781581,0.0989887416362762,-0.2823408246040344,-0.1219907775521278,0.089164450764656,0.0,0.0,0.641646146774292,0.0236493349075317
-0.0838175788521766,0.0465592965483665,0.1102646961808204,-0.2823119163513183,-0.1176613494753837,0.0865883827209472,0.0,0.0,0.6625536680221558,-0.1168413162231445
-0.0824312195181846,0.0407838188111782,0.1340143531560897,-0.2563325762748718,-0.1130667328834533,0.0918924063444137,0.0,0.0,0.3790266513824463,-0.7846020460128784
-0.0810504928231239,0.035460814833641,0.1323169022798538,-0.2361522167921066,-0.1073416694998741,0.1145010590553283,0.0,0.0,0.4337327480316162,-0.9646158218383788
-0.0795216560363769,0.0307110175490379,0.1454659402370453,-0.2105876356363296,-0.099979318678379,0.1472469866275787,0.0,0.0,0.6677324771881104,-0.7786228656768799
-0.0779101401567459,0.0262980312108993,0.1524147689342498,-0.195575401186943,-0.0913116112351417,0.173354297876358,0.0,0.0,0.4198195934295654,-0.8371790051460266
-0.0763071030378341,0.0224185567349195,0.1502868831157684,-0.1718380749225616,-0.0813866555690765,0.1984988749027252,0.0,0.0,0.3573451042175293,-0.9796833992004396
-0.0746722221374511,0.0189848989248275,0.151863545179367,-0.1520113795995712,-0.0698776617646217,0.2301800698041916,0.0,0.0,0.4527680873870849,-0.9828457832336426
-0.0730087310075759,0.0156171889975667,0.1530784666538238,-0.1491059958934784,-0.0567495115101337,0.26256263256073,0.0,0.0,0.3227667808532715,-0.9640651345252992
-0.0715105980634689,0.0124771455302834,0.1350606828927993,-0.1390654742717743,-0.0421663597226142,0.2916629016399383,0.0,0.0,0.6863579750061035,-0.493688702583313
-0.0701265335083007,0.0096011729910969,0.1246528252959251,-0.1274909675121307,-0.028588393703103,0.2715595662593841,0.0,0.0,0.4438433647155761,0.4032164812088012
-0.0687540024518966,0.0069326972588896,0.1239930391311645,-0.1183974221348762,-0.0154948541894555,0.2618708610534668,0.0,0.0,0.1542959213256836,-0.5210809111595154
-0.06740503013134,0.0042907213792204,0.1209457963705062,-0.1173322573304176,-0.0017213724786415,0.275469571352005,0.0,0.0,0.1496815681457519,0.1809698343276977
-0.0659739524126052,0.0014920330140739,0.1291238516569137,-0.1244302690029144,0.0120788710191845,0.2760050892829895,0.0,0.0,0.234992504119873,-0.0035393834114074
-0.0644866973161697,-0.0010707640321925,0.1348032057285308,-0.1140713766217231,0.0258246380835771,0.2749151289463043,0.0,1.0,-0.5410363078117371,0.8627235889434814
-0.0630655288696289,-0.003774466458708,0.142347976565361,-0.1203400418162345,0.0246411189436912,-0.0248950067907571,0.0,1.0,0.3098461627960205,0.4734659194946289
-0.0617366805672645,-0.0054757022298872,0.1344616264104843,-0.0755840986967086,0.0230645015835762,-0.0315584950149059,1.0,1.0,0.7625522613525391,-0.9951193928718568
