x_pos,y_pos,x_vel,y_vel,angle,ang_vel,leg_1,leg_2,main_booster,lat_booster
-0.001541233039461,1.4032597541809082,-0.1562253534793853,-0.3404633700847626,0.0018745805136859,0.0369864702224731,0.0,0.0,0.997163042697498,0.5883805799070564
-0.0029894828330725,1.3960916996002195,-0.1457951515913009,-0.3185867667198181,0.0028318504337221,0.0191478580236434,0.0,0.0,0.7115874788031837,0.5624152508147424
-0.0042662620544433,1.3891825675964355,-0.1280416846275329,-0.3070718944072723,0.0031869621016085,0.0071027306839823,0.0,0.0,0.991488774332078,-0.5990680082918567
-0.0057657239958643,1.382809042930603,-0.1511377096176147,-0.2832705378532409,0.0043645584955811,0.0235542003065347,0.0,0.0,-0.6002005546757119,-0.7399787712375023
-0.0073327063582837,1.376072645187378,-0.1591451466083526,-0.2994021475315094,0.00678675994277,0.0484487041831016,0.0,0.0,0.1476617370555311,0.1051396249140103
-0.0088295936584472,1.36953866481781,-0.1526942700147628,-0.290419727563858,0.0097581977024674,0.0594344027340412,0.0,0.0,-0.3117932337372333,-0.8868107202087038
-0.0104226116091012,1.3626388311386108,-0.1642427146434784,-0.3066972494125366,0.0146454712375998,0.0977545529603958,0.0,0.0,-0.622703920516277,0.5205333277801653
-0.0119893075898289,1.3553773164749146,-0.1603990644216537,-0.3227798342704773,0.018341451883316,0.0739265605807304,0.0,0.0,-0.5885340080743366,-0.6355485078295487
-0.0136326793581247,1.3477566242218018,-0.1694686710834503,-0.3387653231620788,0.0234182327985763,0.101545013487339,0.0,0.0,-0.0077758524501143,-0.2959254594361603
-0.015302563086152,1.3397715091705322,-0.1722249090671539,-0.3549805283546448,0.028591115027666,0.103467047214508,0.0,0.0,0.6339161879813107,-0.5265661125888735
-0.0169672016054391,1.3323062658309937,-0.1730973273515701,-0.331931322813034,0.0351606905460357,0.1314034759998321,0.0,0.0,-0.5441852821956075,0.5091162950936887
-0.0186153408139944,1.3244779109954834,-0.1704145967960357,-0.3480702340602875,0.040700264275074,0.1108016371726989,0.0,0.0,-0.9706807735952748,0.4586212578525661
-0.0202926639467477,1.316285252571106,-0.1734394282102584,-0.3642827570438385,0.0463399514555931,0.1128040105104446,0.0,0.0,0.3341724265424486,-0.7105286126926436
-0.0220071785151958,1.3081519603729248,-0.1787711083889007,-0.361721932888031,0.0535920150578022,0.145054280757904,0.0,0.0,-0.6417976460112096,0.5770521900626278
-0.0236967094242572,1.2996649742126465,-0.1749537289142608,-0.37742680311203,0.0595292896032333,0.1187564581632614,0.0,0.0,0.8733947891590994,0.3201245894146236
-0.0253139492124319,1.2913297414779663,-0.1684140861034393,-0.3707405626773834,0.0661537051200866,0.1325006037950515,0.0,0.0,-0.157714270205151,0.0829415025997774
-0.0269637107849121,1.282630205154419,-0.1717700660228729,-0.3869622647762298,0.0728795006871223,0.1345281302928924,0.0,0.0,0.1149199395390963,0.1196404197143846
-0.0285694114863872,1.2739553451538086,-0.1679097563028335,-0.3859218060970306,0.0801590457558631,0.1456040889024734,0.0,0.0,0.8544334794679813,-0.2905121140901197
-0.0301725380122661,1.2662765979766846,-0.1682758629322052,-0.3417128622531891,0.0880519077181816,0.1578714847564697,0.0,0.0,-0.9093287657249388,-0.5679308368207557
-0.0318612083792686,1.2582271099090576,-0.1782111972570419,-0.3583285212516784,0.0973301008343696,0.1855806410312652,0.0,0.0,-0.6695647821709745,-0.7047672339306649
-0.0336295142769813,1.2498133182525637,-0.1873795092105865,-0.3746750056743622,0.1078169196844101,0.2097550928592682,0.0,0.0,0.8178381370352237,0.2890579817928567
-0.035473633557558,1.2417640686035156,-0.1951168924570083,-0.3585436046123504,0.1184685006737709,0.2130509167909622,0.0,0.0,-0.9758208178498676,0.865005009108645
-0.0372719764709472,1.2333649396896362,-0.18853260576725,-0.3740060031414032,0.1271291375160217,0.1732281297445297,0.0,0.0,-0.4249147952542071,-0.1433432395057425
-0.0391077026724815,1.224602222442627,-0.1923727095127105,-0.3902257084846496,0.135897159576416,0.1753762066364288,0.0,0.0,0.0822706479591202,0.869662311330428
-0.041079044342041,1.2160964012145996,-0.2042539119720459,-0.3787000775337219,0.1430115401744842,0.1423002779483795,0.0,0.0,-0.3382204253037575,-0.6249558592139527
-0.0431476607918739,1.20719575881958,-0.2156594544649124,-0.3964538872241974,0.1517850756645202,0.1754704564809799,0.0,0.0,-0.7097182134339424,0.0670751036263447
-0.0452550873160362,1.1979316473007202,-0.2196422815322876,-0.4126729369163513,0.1606677174568176,0.1776535212993621,0.0,0.0,0.5324034819740218,0.9367337833965796
-0.0475879684090614,1.1894316673278809,-0.2402357310056686,-0.3785454630851745,0.1676249653100967,0.139145091176033,0.0,0.0,0.0883578940204259,0.4602734961505649
-0.0501304641366004,1.1813008785247805,-0.2609083652496338,-0.3621321320533752,0.174294114112854,0.1333829015493393,0.0,0.0,0.7649573283714548,-0.7864271385029646
-0.0528885833919048,1.1735506057739258,-0.284099280834198,-0.3454609811306,0.182602196931839,0.1661616265773773,0.0,0.0,-0.8566626491502956,-0.7374666043918013
-0.0557440742850303,1.1654295921325684,-0.2953479588031769,-0.3621751368045807,0.1924479454755783,0.1969148367643356,0.0,0.0,-0.7663018703460693,0.994963765144348
-0.058572769165039,1.1569589376449585,-0.2910382151603699,-0.377552181482315,0.2006678283214569,0.1643977463245391,0.0,0.0,-0.8805529475212097,0.9927816390991212
-0.061378002166748,1.1481540203094482,-0.2870728373527527,-0.3922339081764221,0.2072695344686508,0.1320340931415558,0.0,0.0,-0.8817015886306763,0.9754753112792968
-0.0641565322875976,1.1389976739883425,-0.282760739326477,-0.4076476693153381,0.2122337371110916,0.0992841497063636,0.0,0.0,-0.852328360080719,0.9993314743041992
-0.0668981522321701,1.1295047998428345,-0.2771454453468323,-0.4223408102989197,0.2152414321899414,0.0601535029709339,0.0,0.0,-0.7473989725112915,0.9908041954040528
-0.0696047767996788,1.1196805238723757,-0.2716992497444153,-0.4367885589599609,0.2162990570068359,0.0211526043713092,0.0,0.0,-0.8227660655975342,0.996324896812439
-0.0722797363996505,1.1095110177993774,-0.2667658030986786,-0.4518690705299377,0.215552344918251,-0.0149341570213437,0.0,0.0,-0.978679895401001,0.992494821548462
-0.0749175995588302,1.0990113019943235,-0.2610464692115783,-0.4662558734416961,0.2127857208251953,-0.055332463234663,0.0,0.0,-0.9474137425422668,0.9977308511734008
-0.0775284767150878,1.088181495666504,-0.2565845251083374,-0.4806838929653168,0.208244040608406,-0.0908335819840431,0.0,0.0,-0.7834994196891785,0.9897346496582032
-0.0801030173897743,1.0770142078399658,-0.2509924471378326,-0.4954253733158111,0.2017270177602768,-0.1303405463695526,0.0,0.0,-0.9309473633766174,0.9930648803710938
-0.0826593413949012,1.065510869026184,-0.2476347237825393,-0.510193407535553,0.1936713308095932,-0.1611138433218002,0.0,0.0,-0.8664666414260864,0.9966764450073242
-0.0851664543151855,1.0536694526672363,-0.2404018193483352,-0.5249795913696289,0.1833146065473556,-0.207134410738945,0.0,0.0,-0.9130353331565856,0.9803816080093384
-0.0876279845833778,1.0414788722991943,-0.2336703240871429,-0.5403009057044983,0.1707897037267685,-0.2504980266094208,0.0,0.0,-0.9707248210906982,0.9590585231781006
-0.0900468826293945,1.0289469957351685,-0.2272470891475677,-0.5553553104400635,0.1561359018087387,-0.2930760681629181,0.0,0.0,-0.9718775749206544,0.8245189189910889
-0.0924495682120323,1.0160582065582275,-0.2241495847702026,-0.5712234973907471,0.1400569975376129,-0.3215781152248382,0.0,0.0,-0.9809715151786804,0.9483225345611572
-0.0948162078857421,1.0028159618377686,-0.2185813188552856,-0.5869397521018982,0.1220506131649017,-0.3601279854774475,0.0,0.0,-0.9788707494735718,0.6453746557235718
-0.0971716865897178,0.9892207384109496,-0.2161151617765426,-0.6027619242668152,0.1027342230081558,-0.3863279521465301,0.0,0.0,-0.9906362891197203,0.7084949016571045
-0.0995276421308517,0.9752805233001708,-0.2150510549545288,-0.618277370929718,0.0823727250099182,-0.4072302281856537,0.0,0.0,-0.9673182368278505,0.2424995899200439
-0.1019286140799522,0.96098130941391,-0.2196351736783981,-0.6345239281654358,0.062117476016283,-0.4051050245761871,0.0,0.0,-0.9662217497825624,-0.2834012508392334
-0.1043746918439865,0.9463226795196532,-0.2242254465818405,-0.6507700085639954,0.0419676937162876,-0.4029958248138428,0.0,0.0,-0.9511515498161316,-0.2430758476257324
-0.1068658828735351,0.9313048720359802,-0.2288200110197067,-0.6670156121253967,0.0219224654138088,-0.400904893875122,0.0,0.0,-0.9528440833091736,0.6653587818145752
-0.109354592859745,0.9159340262413024,-0.2274495661258697,-0.6829761862754822,0.0007836102740839,-0.4227774739265442,0.0,0.0,-0.9151237607002258,-0.6359953284263611
-0.1119293197989463,0.9002003073692322,-0.23721544444561,-0.6993852257728577,-0.0192176941782236,-0.4000260233879089,0.0,0.0,-0.9376011490821838,-0.1526381969451904
-0.1145489662885665,0.8841071724891663,-0.2418116331100464,-0.7156298160552979,-0.0391178876161575,-0.398003876209259,0.0,0.0,-0.8961860537528992,-0.412572979927063
-0.1172133460640907,0.8676544427871704,-0.2464045286178589,-0.7318739295005798,-0.05891839787364,-0.3960101008415222,0.0,0.0,-0.5724968910217285,-0.2904572486877441
-0.1199223548173904,0.8508420586585999,-0.2509922087192535,-0.7481175661087036,-0.0786207765340805,-0.3940474390983581,0.0,0.0,-0.3049206733703613,-0.2428863644599914
-0.1226760894060134,0.833669900894165,-0.2555725872516632,-0.7643606066703796,-0.0982267260551452,-0.3921191394329071,0.0,0.0,0.6412773132324219,0.1464715003967285
-0.1252717971801757,0.8171177506446838,-0.2405661642551422,-0.7370056509971619,-0.1171040758490562,-0.3775470852851867,0.0,0.0,0.0210784673690795,-0.9426363706588744
-0.1278706490993499,0.8009759783744812,-0.2428746670484542,-0.7188305258750916,-0.1340236216783523,-0.3383904695510864,0.0,0.0,-0.0293217301368713,-0.8220779895782471
-0.1305855810642242,0.7844946384429932,-0.2564690411090851,-0.7339293360710144,-0.1489994674921035,-0.2995173633098602,0.0,0.0,-0.4847382307052612,-0.2636566162109375
-0.1333446502685547,0.7676510810852051,-0.2609959840774536,-0.7501581311225891,-0.1638877242803573,-0.2977652549743652,0.0,0.0,0.5462968349456787,-0.7613493800163269
-0.1362016648054123,0.7514609694480896,-0.2722755670547485,-0.7211012244224548,-0.1773443818092346,-0.2691331207752228,0.0,0.0,-0.1067821979522705,-0.2302139997482299
-0.1391025483608245,0.7349082827568054,-0.2767615914344787,-0.7373263835906982,-0.1907188296318054,-0.2674892544746399,0.0,0.0,0.5303961038589478,-0.0450236201286315
-0.1419177949428558,0.7188228964805603,-0.2684157788753509,-0.7166484594345093,-0.203913152217865,-0.2638863623142242,0.0,0.0,0.7050777673721313,-0.1474193334579467
-0.1446845084428787,0.7029799818992615,-0.2637189626693725,-0.70596843957901,-0.2169941514730453,-0.2616201043128967,0.0,0.0,0.8194540739059448,-0.9235402941703796
-0.1475730836391449,0.6878002285957336,-0.2775911092758178,-0.6763435006141663,-0.2283915728330612,-0.2279486656188964,0.0,0.0,-0.0432236790657043,0.2336127758026123
-0.150504395365715,0.6722573041915894,-0.2819637060165405,-0.6925640106201172,-0.2397199869155883,-0.2265683114528656,0.0,0.0,0.644628643989563,-0.6730828881263733
-0.1533755362033844,0.6567545533180237,-0.2775581777095794,-0.6905977725982666,-0.2494387328624725,-0.1943747848272323,0.0,0.0,0.9000978469848633,-0.7882053256034851
-0.1560722291469574,0.6423344016075134,-0.2618415951728821,-0.6422517895698547,-0.2574235796928406,-0.1596964001655578,0.0,0.0,-0.1617046594619751,-0.4623366594314575
-0.1588107049465179,0.6275500655174255,-0.2660959362983703,-0.6584669947624207,-0.2653513252735138,-0.1585551798343658,0.0,0.0,0.8933029174804688,-0.178257942199707
-0.161488726735115,0.6135661005973816,-0.2596315145492553,-0.6230087280273438,-0.2737131416797638,-0.1672361046075821,0.0,0.0,0.1370133161544799,-0.9355793595314026
-0.1641386002302169,0.5998580455780029,-0.258728563785553,-0.6104329824447632,-0.280127614736557,-0.1282903105020523,0.0,0.0,0.9947962760925292,-0.1332817077636718
-0.1666963547468185,0.5873200297355652,-0.2488848268985748,-0.5585849285125732,-0.2872180342674255,-0.1418082416057586,0.0,0.0,0.6104179620742798,-0.2336903810501098
-0.1690659523010254,0.5751970410346985,-0.2304372489452362,-0.5400999784469604,-0.2939383685588836,-0.1344065070152282,0.0,0.0,0.6770440340042114,-0.2027226090431213
-0.1713926345109939,0.563294529914856,-0.2260412722826004,-0.5303534865379333,-0.3007830083370209,-0.1368925273418426,0.0,0.0,0.8581439256668091,0.0926820039749145
-0.1735767424106598,0.5515175461769104,-0.2121639549732208,-0.5247288942337036,-0.3072448074817657,-0.1292358636856079,0.0,0.0,0.9160699844360352,-0.8410198092460632
-0.1757829636335373,0.539979100227356,-0.2159832715988159,-0.5138067007064819,-0.3120580315589905,-0.0962645858526229,0.0,0.0,0.9878494739532472,0.6914640665054321
-0.177690789103508,0.5294246077537537,-0.1847855299711227,-0.4703938663005829,-0.3182819783687591,-0.1244789212942123,0.0,0.0,0.964893102645874,-0.4431940913200378
-0.1792410910129547,0.5198431611061096,-0.1494900584220886,-0.4270697832107544,-0.3240516185760498,-0.1153929606080055,0.0,0.0,0.863170862197876,-0.7886835932731628
-0.1807217597961425,0.5113109946250916,-0.1438157856464386,-0.3801652789115906,-0.328478455543518,-0.0885360985994339,0.0,0.0,0.9478472471237184,-0.8963112235069275
-0.1823388040065765,0.5030751824378967,-0.1589206904172897,-0.3666715621948242,-0.3313919901847839,-0.0582704320549964,0.0,0.0,0.969918727874756,-0.6101251244544983
-0.1836789101362228,0.4958151578903198,-0.1325487941503524,-0.3230051696300506,-0.3329140245914459,-0.0304403938353061,0.0,0.0,0.9524251222610474,-0.89935302734375
-0.1850210130214691,0.4892536103725433,-0.1342705190181732,-0.2916080355644226,-0.3328470885753631,0.0013384938938543,0.0,0.0,0.9752609729766846,-0.9404627084732056
-0.186267465353012,0.4835515916347503,-0.1264249682426452,-0.2530118823051452,-0.3309910893440246,0.0371203608810901,0.0,0.0,0.9874298572540284,-0.9125279784202576
-0.1873530447483062,0.4787254631519317,-0.1120876893401146,-0.2136930525302887,-0.3273087739944458,0.0736460089683532,0.0,0.0,0.9779207706451416,-0.9826266765594482
-0.1882078200578689,0.4745059609413147,-0.0911057144403457,-0.1862719357013702,-0.3214457631111145,0.117259994149208,0.0,0.0,0.9435970783233644,-0.9601409435272216
-0.1890077590942382,0.4705076217651367,-0.0875514447689056,-0.17604461312294,-0.3136048316955566,0.1568188369274139,0.0,0.0,0.9356293678283693,-0.9074479341506958
-0.1896444261074066,0.4667901992797851,-0.0731905996799469,-0.1631897091865539,-0.3037307560443878,0.1974816471338272,0.0,0.0,0.5413864850997925,-0.8269270658493042
-0.1900627166032791,0.4634325802326202,-0.053205706179142,-0.1468980610370636,-0.2919814586639404,0.234985738992691,0.0,0.0,-0.6355940699577332,-0.7322356700897217
-0.1905479431152343,0.4597259759902954,-0.0610165111720562,-0.1622876673936844,-0.2791295349597931,0.2570382952690124,0.0,0.0,-0.2691259980201721,0.3560380935668945
-0.1910549104213714,0.4556569755077362,-0.0632006973028183,-0.1785130798816681,-0.2663166522979736,0.2562574744224548,0.0,0.0,-0.7801225781440735,0.2486592531204223
-0.1915820091962814,0.4512254595756531,-0.0652107521891594,-0.1947385221719741,-0.2535464167594909,0.2554048299789428,0.0,0.0,-0.8254130482673645,0.5934081077575684
-0.1920724809169769,0.4464119970798492,-0.0601153671741485,-0.2120576798915863,-0.2422681450843811,0.2255652844905853,0.0,0.0,-0.4838635921478271,-0.0051307082176208
-0.1925793588161468,0.4412356317043304,-0.0617535933852195,-0.2282802611589431,-0.2310393452644348,0.2245763838291168,0.0,0.0,-0.9282317757606506,0.0779314041137695
-0.193101018667221,0.4356962442398071,-0.0631957724690437,-0.244502767920494,-0.2198632210493087,0.2235220968723297,0.0,0.0,-0.934445321559906,0.7952812910079956
-0.1935640275478363,0.4297795295715332,-0.0555047169327735,-0.2616226971149444,-0.2105621695518493,0.1860206723213195,0.0,0.0,-0.470890998840332,0.7484591007232666
-0.1939822137355804,0.4234811067581177,-0.0495490990579128,-0.278849184513092,-0.2027675658464431,0.1558919697999954,0.0,0.0,-0.957819402217865,0.4030269384384155
-0.1944090873003006,0.4168188571929931,-0.0503633804619312,-0.2950664758682251,-0.195034846663475,0.154654249548912,0.0,0.0,-0.1348518133163452,0.7259751558303833
-0.1947774887084961,0.4097771644592285,-0.0428145341575145,-0.3121902048587799,-0.1890331655740738,0.1200331896543502,0.0,0.0,-0.4593831896781921,0.475391149520874
-0.1951502859592437,0.4023714065551758,-0.0431848242878913,-0.328405499458313,-0.183099091053009,0.1186814308166503,0.0,0.0,-0.697782039642334,0.6179980039596558
-0.1954832077026367,0.3945943117141723,-0.0380677953362464,-0.3450694978237152,-0.17830191552639,0.0959435254335403,0.0,0.0,0.4608955383300781,0.7320386171340942
-0.1957051306962967,0.3870914876461029,-0.0254012607038021,-0.3330768942832947,-0.1750882714986801,0.0642730519175529,0.0,0.0,-0.8622960448265076,0.6551003456115723
-0.1958835572004318,0.3792138695716858,-0.0199084244668483,-0.3498705625534057,-0.1730085611343383,0.0415941998362541,0.0,0.0,-0.6242381930351257,0.856372594833374
-0.1960073411464691,0.3709567487239837,-0.0130933746695518,-0.3668999373912811,-0.1722955405712127,0.0142602967098355,0.0,0.0,0.805896520614624,0.1113567352294921
-0.1958753615617752,0.3634661436080932,0.0120330452919006,-0.3327830135822296,-0.1711274981498718,0.0233609639108181,0.0,0.0,-0.4847368001937866,0.3836326599121094
-0.1957340240478515,0.3556109368801117,0.0130487699061632,-0.348995566368103,-0.1700422167778015,0.0217056386172771,0.0,0.0,-0.4229738712310791,0.625484824180603
-0.1955201178789138,0.3473803400993347,0.0219455510377883,-0.3658647835254669,-0.1705941706895828,-0.0110393855720758,0.0,0.0,0.2897261381149292,0.535923957824707
-0.1951664984226226,0.3396793901920318,0.0371217504143714,-0.3424688279628753,-0.1723463535308838,-0.03504404053092,0.0,0.0,0.5608828067779541,-0.1224653124809265
-0.1945254355669021,0.3327721655368805,0.0653208047151565,-0.3071278631687164,-0.1735644042491912,-0.024360928684473,0.0,0.0,-0.8607723116874695,-0.0050503611564636
-0.1938661634922027,0.3255005180835724,0.067231073975563,-0.3233405351638794,-0.1748737245798111,-0.026186129078269,0.0,0.0,-0.7402101755142212,-0.2395387291908264
-0.1931866705417633,0.3178642988204956,0.0693531036376953,-0.3395532667636871,-0.1762761920690536,-0.0280495937913656,0.0,0.0,-0.6958400011062622,-0.6462209224700928
-0.1925292909145355,0.3098812103271484,0.0660649091005325,-0.3548424839973449,-0.1766051650047302,-0.0065794819965958,0.0,0.0,-0.7012131214141846,-0.5930352807044983
-0.1918879449367523,0.3015413880348205,0.0635345205664634,-0.3705870509147644,-0.1760029196739196,0.0120449289679527,0.0,0.0,-0.1447461247444152,0.0992854833602905
-0.1912203729152679,0.2928370237350464,0.0662522912025451,-0.3867997825145721,-0.1754990667104721,0.0100769605487585,0.0,0.0,0.4282940626144409,-0.270535945892334
-0.1905564367771148,0.2844544947147369,0.0665103793144226,-0.3725692331790924,-0.1756084859371185,-0.0021884001325815,0.0,0.0,-0.1410547494888305,-0.4142577648162842
-0.1898626387119293,0.275707483291626,0.0695875734090805,-0.3887819647789001,-0.1758193671703338,-0.0042177494615316,0.0,0.0,-0.0428551435470581,-0.8262351155281067
-0.1891990602016449,0.2666108608245849,0.065083771944046,-0.4041458964347839,-0.1745492368936538,0.0254028923809528,0.0,0.0,0.7257235050201416,-0.6777812242507935
-0.1883450448513031,0.2576738893985748,0.082553744316101,-0.396864503622055,-0.1716922968626022,0.0571384020149707,0.0,0.0,0.8625030517578125,0.2181220054626464
-0.1872165650129318,0.2494837194681167,0.1095995083451271,-0.3636372983455658,-0.1684326976537704,0.065192125737667,0.0,0.0,-0.404295265674591,-0.181215226650238
-0.1860521286725998,0.2409291118383407,0.1132963746786117,-0.3798509538173675,-0.1652797162532806,0.0630593970417976,0.0,0.0,-0.1687778234481811,-0.3239001631736755
