x_pos,y_pos,x_vel,y_vel,angle,ang_vel,leg_1,leg_2,main_booster,lat_booster
-0.0015853882068768,1.4029639959335327,-0.1606265753507614,-0.3536067306995392,0.0018676616018638,0.0368493609130382,0.0,0.0,0.6176750558423265,-0.799005328761325
-0.0032403946388512,1.3950440883636477,-0.1691090315580368,-0.3520008325576782,0.0054317470639944,0.0712892264127731,0.0,0.0,0.9831523037792808,0.6120638414673597
-0.0047411918640136,1.387187957763672,-0.1530180871486663,-0.349173367023468,0.0083414958789944,0.0582002326846122,0.0,0.0,-0.0797209146915116,0.884706087089802
-0.0062480927444994,1.3786691427230835,-0.1522758901119232,-0.3786261677742004,0.009902948513627,0.0312317945063114,0.0,0.0,-0.3035373431257122,0.5706888711188354
-0.0077626230195164,1.3694924116134644,-0.1517015993595123,-0.407855212688446,0.0101514682173728,0.0049708080478012,0.0,0.0,0.8573434625049767,0.7003587762843286
-0.0091232303529977,1.3605732917785645,-0.1354035437107086,-0.396397054195404,0.0094944955781102,-0.013140614144504,0.0,0.0,-0.0392609930618224,-0.8803712800734684
-0.0106176380068063,1.3509927988052368,-0.1506645232439041,-0.4258178472518921,0.010704013518989,0.0241925548762083,0.0,0.0,0.8666431234900773,-0.990688210702926
-0.0120716094970703,1.341852784156799,-0.1489851623773574,-0.4062520265579223,0.0142520572990179,0.0709672719240188,0.0,0.0,-0.8241899239072545,0.7055986729511445
-0.0135331153869628,1.332060933113098,-0.1484080851078033,-0.4352125227451324,0.0164885390549898,0.044733677059412,0.0,0.0,0.0615468828387102,-0.9354811122932772
-0.0151383401826024,1.322312831878662,-0.16472227871418,-0.4332968890666961,0.0206393096596002,0.0830230861902237,0.0,0.0,-0.8474258932297138,0.7573838092378801
-0.0167370792478323,1.3119070529937744,-0.1624026596546173,-0.4625187516212463,0.0231340322643518,0.0498992130160331,0.0,0.0,0.3056605401922092,-0.7241030019601586
-0.0184016227722167,1.3014657497406006,-0.1705839931964874,-0.4641309976577759,0.0272229630500078,0.0817861706018447,0.0,0.0,0.3186341392005394,-0.9947171572315684
-0.0201004985719919,1.2912081480026243,-0.1761389225721359,-0.4560231268405914,0.0334097109735012,0.1237458810210228,0.0,0.0,0.3857374821318156,-0.8345029108993358
-0.0218708999454975,1.2807292938232422,-0.1851222217082977,-0.4659247100353241,0.0413975641131401,0.1597717702388763,0.0,0.0,0.1038310695887196,-0.5111226829422528
-0.0236624721437692,1.2704256772994995,-0.1885229051113128,-0.4582226574420929,0.0506673194468021,0.1854120194911956,0.0,0.0,0.2360908532905539,0.8418452832122645
-0.0253660194575786,1.2597979307174685,-0.1781721264123916,-0.4726257622241974,0.0584115460515022,0.1548984497785568,0.0,0.0,0.3171987797914348,0.937263369387992
-0.0269704815000295,1.2495602369308472,-0.1665395200252533,-0.455260694026947,0.0644460394978523,0.1207009330391883,0.0,0.0,-0.3999106907411509,-0.8963085818390983
-0.0286894794553518,1.238649606704712,-0.1794301122426986,-0.4852569997310638,0.0719065591692924,0.1492237746715545,0.0,0.0,0.5763286498988982,0.6985962761734326
-0.0303683280944824,1.2282485961914062,-0.1742829531431198,-0.4625861942768097,0.078249454498291,0.1268695294857025,0.0,0.0,-0.5150305734291691,-0.7054326932155042
-0.0321706756949424,1.2171798944473269,-0.188305526971817,-0.4923846423625946,0.0862485617399215,0.1599965840578079,0.0,0.0,0.6504286444352341,-0.6400413561737173
-0.0340112671256065,1.206590175628662,-0.1937912553548813,-0.4712382555007934,0.0959087163209915,0.1932206004858017,0.0,0.0,-0.1052234880669653,-0.5630036335815014
-0.0359554290771484,1.1953318119049072,-0.2053072154521942,-0.5011037588119507,0.1067336201667785,0.2165173590183258,0.0,0.0,0.1341032419897887,0.9955362640603452
-0.0378156676888465,1.184000015258789,-0.1949625313282013,-0.5042980313301086,0.115626223385334,0.1778680831193924,0.0,0.0,0.589852163307983,0.5145535613180807
-0.0396577827632427,1.172469973564148,-0.1923889070749282,-0.51309734582901,0.1237540990114212,0.162572294473648,0.0,0.0,0.0784799806907727,-0.865287328146787
-0.0417875275015831,1.1608753204345703,-0.2228971272706985,-0.5161641240119934,0.1336515396833419,0.1979664862155914,0.0,0.0,-0.6474913897062387,0.8862835730734009
-0.0439220443367958,1.1486155986785889,-0.2221062928438186,-0.5456781387329102,0.1422709375619888,0.1723876595497131,0.0,0.0,-0.3609990029492327,0.7539424607926244
-0.04605608060956,1.135713815689087,-0.2205986231565475,-0.5741202235221863,0.1494380533695221,0.1433425396680832,0.0,0.0,-0.8116203411050051,-0.8087257025123289
-0.0483262054622173,1.1221433877944946,-0.2362138777971267,-0.604080855846405,0.15863598883152,0.1839583218097686,0.0,0.0,-0.3830319762257144,-0.668562183454806
-0.0507181175053119,1.107904076576233,-0.2500713169574737,-0.6340517401695251,0.1695252954959869,0.2177861183881759,0.0,0.0,-0.975259255983491,0.8856695549405392
-0.053100299090147,1.093019962310791,-0.2474406659603119,-0.6626083254814148,0.1787699460983276,0.1848929524421692,0.0,0.0,0.9913548196579318,-0.5476451717334214
-0.0557404533028602,1.0789837837219238,-0.2744490504264831,-0.6251232624053955,0.1892444640398025,0.2094903290271759,0.0,0.0,-0.9027597308158876,0.9794480800628662
-0.0583697333931922,1.0643019676208496,-0.2717222869396209,-0.6536750197410583,0.1980758905410766,0.1766287982463836,0.0,0.0,-0.9738517999649048,0.9604296684265136
-0.0609917640686035,1.0489888191223145,-0.2693715393543243,-0.6815639734268188,0.2053006887435913,0.1444959938526153,0.0,0.0,-0.8939685225486755,0.9908208847045898
-0.0635988265275955,1.0330283641815186,-0.2661694884300232,-0.7101197838783264,0.2108150124549865,0.1102867349982261,0.0,0.0,-0.972575306892395,0.9965145587921144
-0.0661811828613281,1.016435146331787,-0.2617177367210388,-0.7379693984985352,0.2143326550722122,0.0703529044985771,0.0,0.0,-0.9521976113319396,0.9941275119781494
-0.0687388405203819,0.9992151260375975,-0.2572612464427948,-0.7655598521232605,0.2158467322587967,0.0302816778421401,0.0,0.0,-0.7248654365539551,0.9929285049438475
-0.0712747573852539,0.981353759765625,-0.253264844417572,-0.7937895655632019,0.2155157178640365,-0.0066203833557665,0.0,0.0,-0.1497465968132019,0.9954631328582764
-0.0737815871834755,0.9628665447235109,-0.2482961863279342,-0.8213135004043579,0.2131104916334152,-0.0481044314801692,0.0,0.0,0.2612392902374267,0.9986097812652588
-0.0764335617423057,0.944686770439148,-0.2608780264854431,-0.8073711395263672,0.2087409645318985,-0.0873904600739479,0.0,0.0,-0.4362656474113464,0.997745394706726
-0.0790543556213378,0.9258739352226256,-0.2557166814804077,-0.835239589214325,0.2023300230503082,-0.1282190233469009,0.0,0.0,-0.5396499037742615,0.9987132549285888
-0.0816606506705284,0.9064292907714844,-0.2526802718639374,-0.8631385564804077,0.1943212151527404,-0.1601762920618057,0.0,0.0,0.322100281715393,0.9995088577270508
-0.0842040032148361,0.8869959712028503,-0.2444765865802765,-0.8624432682991028,0.1844109147787094,-0.1982064247131347,0.0,0.0,0.1096465587615966,0.9991850852966307
-0.0866756439208984,0.8672465682029724,-0.2353243827819824,-0.8763159513473511,0.1725393831729889,-0.2374308407306671,0.0,0.0,0.4685207605361938,0.9991066455841064
-0.0890939682722091,0.8475779294967651,-0.2280984222888946,-0.8726268410682678,0.1588016748428344,-0.2747543752193451,0.0,0.0,0.3488589525222778,0.9977526664733888
-0.0915511101484298,0.8276059627532959,-0.2300107926130294,-0.8860490322113037,0.143110454082489,-0.3138248324394226,0.0,0.0,0.3899744749069214,0.9878720045089722
-0.0939664840698242,0.807410717010498,-0.2238803803920745,-0.8959628939628601,0.1255320608615875,-0.3515680432319641,0.0,0.0,0.892913818359375,0.9805760383605956
-0.0963296890258789,0.7873455286026001,-0.2168541401624679,-0.8902629613876343,0.106176383793354,-0.3871136903762817,0.0,0.0,0.946885585784912,0.8757059574127197
-0.0989099517464637,0.7680882811546326,-0.2365004271268844,-0.8544923067092896,0.0848358944058418,-0.426809698343277,0.0,0.0,-0.6885204315185547,0.8694089651107788
-0.1014713272452354,0.7481912970542908,-0.2332676649093628,-0.8831650614738464,0.0621932782232761,-0.4528524875640869,0.0,0.0,0.8242518901824951,0.9503172636032104
-0.1040502563118934,0.7284840941429138,-0.2330801486968994,-0.875029981136322,0.0376672185957431,-0.490521490573883,0.0,0.0,0.7244142293930054,-0.2206959724426269
-0.1065312400460243,0.709026038646698,-0.2240175753831863,-0.8643694519996643,0.013881467282772,-0.4757151007652282,0.0,0.0,0.928882360458374,-0.2612096071243286
-0.1091180816292762,0.6902036070823669,-0.2343149185180664,-0.8364962339401245,-0.0101693589240312,-0.4810168743133545,0.0,0.0,0.380057692527771,0.5549805164337158
-0.1115817055106163,0.671280562877655,-0.2211558520793914,-0.8413837552070618,-0.0350579172372818,-0.4977715611457824,0.0,0.0,0.8032758235931396,-0.6432105898857117
-0.1140827164053917,0.6530183553695679,-0.2262580394744873,-0.8123772740364075,-0.0586149133741855,-0.4711401462554931,0.0,0.0,0.2975088357925415,-0.4554299116134643
-0.1164625138044357,0.6346660256385803,-0.2147450149059295,-0.8167298436164856,-0.081590823829174,-0.4595182836055755,0.0,0.0,-0.0463201999664306,-0.9771328568458556
-0.118946649134159,0.6156660914421082,-0.2275425940752029,-0.8457103967666626,-0.1022750809788703,-0.4136854112148285,0.0,0.0,0.9977056980133056,-0.5383066534996033
-0.121266558766365,0.5974419116973877,-0.2126393020153045,-0.8114016652107239,-0.1214908361434936,-0.3843149244785309,0.0,0.0,0.9909570217132568,-0.5195385813713074
-0.1233628243207931,0.5797494649887085,-0.1919357478618621,-0.7878687977790833,-0.1391042619943618,-0.3522686958312988,0.0,0.0,0.9893628358840942,-0.9642065763473512
-0.1253034621477127,0.5628777146339417,-0.1785463392734527,-0.751375138759613,-0.1545783579349517,-0.3094815611839294,0.0,0.0,0.7110087871551514,-0.9478472471237184
-0.1272817552089691,0.5466002225875854,-0.1841551810503006,-0.7249202728271484,-0.1682483106851577,-0.2733994424343109,0.0,0.0,0.7601054906845093,-0.9025984406471252
-0.1292048394680023,0.5302428603172302,-0.18059703707695,-0.7283687591552734,-0.1799907386302948,-0.2348486632108688,0.0,0.0,0.89923095703125,-0.9125753045082092
-0.1311755180358886,0.5144745111465454,-0.1869981586933136,-0.7020671963691711,-0.190105453133583,-0.2022939026355743,0.0,0.0,0.8720042705535889,-0.829185426235199
-0.1329427659511566,0.4988829493522644,-0.1686481088399887,-0.6940144300460815,-0.198230430483818,-0.1624992787837982,0.0,0.0,0.8149440288543701,-0.8581122756004333
-0.1346059739589691,0.4836347103118896,-0.1600376218557357,-0.6785567402839661,-0.2045598924160003,-0.1265891939401626,0.0,0.0,0.9444777965545654,-0.8315303325653076
-0.1362159699201584,0.4684301614761352,-0.1564134806394577,-0.6764010190963745,-0.2091851532459259,-0.0925050303339958,0.0,0.0,0.9753830432891846,-0.7971398234367371
-0.1378825157880783,0.4536722898483276,-0.1633269935846328,-0.6563796997070312,-0.2125479578971862,-0.0672560930252075,0.0,0.0,0.9370670318603516,0.1954411268234253
-0.1392944306135177,0.4397172927856445,-0.1379843950271606,-0.6206847429275513,-0.2157825976610183,-0.0646926909685134,0.0,0.0,0.8875411748886108,-0.7899342179298401
-0.1405759751796722,0.4255694448947906,-0.1267470270395279,-0.6290007829666138,-0.2172077894210815,-0.0285039246082305,0.0,0.0,0.9979962110519408,-0.5364102721214294
-0.141617864370346,0.4122817814350128,-0.1039623841643333,-0.5905939936637878,-0.2174382656812667,-0.0046095587313175,0.0,0.0,0.9901591539382936,-0.5960806012153625
-0.1426746398210525,0.3992206454277038,-0.1063064783811569,-0.5804045796394348,-0.2168021202087402,0.0127227809280157,0.0,0.0,0.954148530960083,-0.5897814035415649
-0.1436883956193924,0.3867269158363342,-0.1028756946325302,-0.5550565123558044,-0.2152948379516601,0.0301460437476634,0.0,0.0,0.9597187042236328,0.8918790817260742
-0.1444053649902343,0.3746207952499389,-0.0714854076504707,-0.5380819439888,-0.2155026495456695,-0.0041562397964298,0.0,0.0,0.9909870624542236,-0.9086659550666808
-0.1451065987348556,0.3634331226348877,-0.0714145973324775,-0.4970439076423645,-0.2142012566328048,0.026027824729681,0.0,0.0,0.94321870803833,0.9558981657028198
-0.1454609930515289,0.3525259494781494,-0.0349926389753818,-0.4848297536373138,-0.2146606594324112,-0.0091878054663538,0.0,0.0,0.6553924083709717,-0.8452447652816772
-0.1457977294921875,0.3415595293045044,-0.0348291471600532,-0.4872305989265442,-0.2134889811277389,0.0234336908906698,0.0,0.0,0.9185235500335692,-0.2796804308891296
-0.1459383070468902,0.3304608166217804,-0.0155770257115364,-0.4930546879768371,-0.2119577080011367,0.0306256655603647,0.0,0.0,0.9708256721496582,-0.8324480652809143
-0.1460587531328201,0.3193211555480957,-0.0151261109858751,-0.4946568608283996,-0.2088517099618911,0.062120221555233,0.0,0.0,0.9183465242385864,-0.440405011177063
-0.1459555625915527,0.3088756799697876,0.0072917281650006,-0.4638188779354095,-0.2057996690273285,0.0610405094921588,0.0,0.0,0.3971642255783081,-0.3291915655136108
-0.1456014662981033,0.2987621128559112,0.0320794209837913,-0.4490323662757873,-0.2024452537298202,0.067088171839714,0.0,0.0,0.8220139741897583,-0.6111812591552734
-0.1451974809169769,0.2893733084201813,0.0361877381801605,-0.4167100787162781,-0.19821397960186,0.0846256166696548,0.0,0.0,-0.5459157824516296,0.0045541524887084
-0.1447473466396331,0.2793244123458862,0.0408238656818866,-0.4460663497447967,-0.1939965039491653,0.0843496993184089,0.0,0.0,0.4099588394165039,-0.4357727766036987
-0.1440858840942382,0.2695982158184051,0.0618053302168846,-0.4317134022712707,-0.1896352022886276,0.0872260332107544,0.0,0.0,0.7036495208740234,-0.2914137244224548
-0.1433667242527008,0.2601155638694763,0.0680760368704795,-0.4209641814231872,-0.1857741475105285,0.0772212073206901,0.0,0.0,-0.5042409896850586,-0.5090817213058472
-0.1426408737897873,0.2499870359897613,0.0676443129777908,-0.4495474398136139,-0.1808156669139862,0.0991695448756218,0.0,0.0,0.7157788276672363,0.3454988002777099
-0.141746237874031,0.2402732968330383,0.084597609937191,-0.4311381578445434,-0.1759346425533294,0.0976208001375198,0.0,0.0,0.5271190404891968,-0.3392443656921386
-0.1406268179416656,0.2306724935770034,0.1067176088690757,-0.4260932207107544,-0.170702263712883,0.1046472415328025,0.0,0.0,-0.0909826755523681,-0.7323453426361084
-0.1395111083984375,0.2204187959432602,0.1049717292189598,-0.45497527718544,-0.164087563753128,0.1322941482067108,0.0,0.0,0.226567268371582,-0.1338745355606079
-0.1382257491350174,0.2099307924509048,0.1216251254081726,-0.4653878211975097,-0.1571787744760513,0.1381759345531463,0.0,0.0,0.6810925006866455,-0.0094313025474548
-0.1366481781005859,0.199608713388443,0.1501756459474563,-0.4579764008522033,-0.1496034860610962,0.1515054851770401,0.0,0.0,0.2736341953277588,-0.808032214641571
-0.1349141150712967,0.1890589743852615,0.1640989631414413,-0.4679709374904632,-0.1403197944164276,0.1856738626956939,0.0,0.0,0.6120169162750244,-0.4675221443176269
-0.1330284178256988,0.1789396852254867,0.1793089658021927,-0.4488962292671203,-0.1310906410217285,0.1845831573009491,0.0,0.0,0.3880796432495117,-0.2963831424713135
-0.1309784948825836,0.1691039204597473,0.1956279277801513,-0.4363512992858886,-0.1217716410756111,0.1863801032304763,0.0,0.0,0.4602183103561401,-0.5060570240020752
-0.1287233382463455,0.1594744324684143,0.214841604232788,-0.4271422624588012,-0.1111732423305511,0.2119679450988769,0.0,0.0,0.5827341079711914,-0.7667486071586609
-0.1263323724269867,0.1496366560459137,0.2267262488603592,-0.4363555908203125,-0.0988909751176834,0.2456453740596771,0.0,0.0,0.4480443000793457,-0.536125898361206
-0.1239326447248458,0.1398190557956695,0.2266567498445511,-0.4355110228061676,-0.0856949090957641,0.2639215588569641,0.0,0.0,0.7879159450531006,-0.8465977907180786
-0.1213618293404579,0.1307448297739029,0.2419057786464691,-0.4025006294250488,-0.0706586763262748,0.3007247745990753,0.0,0.0,0.8130266666412354,-0.7902058959007263
-0.1187800392508506,0.1219571903347969,0.2414841204881668,-0.3898549079895019,-0.0541441664099693,0.330289751291275,0.0,0.0,0.6314259767532349,-0.1314981579780578
-0.11622104793787,0.1136992052197456,0.239804670214653,-0.3665176630020141,-0.0382370799779892,0.318141758441925,0.0,0.0,0.6745972633361816,-0.1993318200111389
-0.1134892478585243,0.1058393344283104,0.2567042708396911,-0.3489866554737091,-0.0219622701406478,0.3254961967468261,0.0,0.0,0.8728573322296143,-0.1220489740371704
-0.1107415184378624,0.0985999405384063,0.2586082816123962,-0.3215921223163605,-0.0060097952373325,0.319049596786499,0.0,0.0,0.7311310768127441,-0.5674930214881897
-0.1080689430236816,0.0918857678771019,0.2502532601356506,-0.2984226644039154,0.0107825146988034,0.3358462452888489,0.0,0.0,0.6672143936157227,-0.7106187343597412
-0.1054271683096885,0.0852652192115783,0.2458371818065643,-0.2944768667221069,0.028886254876852,0.3620750904083252,0.0,0.0,0.7432266473770142,-0.2785401344299316
-0.1028684601187706,0.0789345577359199,0.2381602823734283,-0.2817982137203216,0.0463754162192344,0.349783331155777,0.0,0.0,0.6294002532958984,-0.0132466554641723
-0.1004236191511154,0.0727109014987945,0.2275366336107254,-0.2772160470485687,0.0631319135427475,0.3351299166679382,0.0,0.0,0.7602635622024536,0.2832093238830566
-0.0978558510541915,0.0669874250888824,0.2393594980239868,-0.2551998794078827,0.0803630948066711,0.3446237444877624,0.0,0.0,0.8005108833312988,0.1140397787094116
-0.0951952934265136,0.0612167455255985,0.2484143078327179,-0.2575168907642364,0.0978552624583244,0.3498432338237762,0.0,0.0,0.6195480823516846,0.1028387546539306
-0.0924075096845626,0.055927000939846,0.2605407238006592,-0.2363939881324768,0.1159558296203613,0.3620114922523498,0.0,0.0,0.6443688869476318,0.0825306177139282
-0.0896730422973632,0.0511278472840786,0.255405455827713,-0.2147966772317886,0.1339009702205658,0.3589029014110565,0.0,0.0,0.5415301322937012,0.0505218505859375
-0.0868544578552246,0.0468843802809715,0.263304054737091,-0.1903705149888992,0.1524109989404678,0.3702006936073303,0.0,0.0,0.3247004747390747,-0.2316624522209167
-0.0839872360229492,0.0426879040896892,0.2679856717586517,-0.1885391026735305,0.1711523085832595,0.3748262822628021,0.0,0.0,0.3002839088439941,-0.2736309170722961
-0.0811763778328895,0.0387836806476116,0.2624905705451965,-0.1757695972919464,0.1898150444030761,0.373255044221878,0.0,0.0,-0.1439045667648315,-0.2903082370758056
-0.0783067718148231,0.0342234224081039,0.2684767842292785,-0.2051520496606826,0.2084248811006546,0.3721967935562134,0.0,0.0,0.3899755477905273,-0.0402638912200927
-0.0753919631242752,0.029594287276268,0.2728089392185211,-0.2084838598966598,0.2272947579622268,0.377397209405899,0.0,0.0,0.201164960861206,-0.1260044574737548
-0.0726065635681152,0.0249358266592025,0.2604172229766845,-0.2099415957927703,0.2456993013620376,0.3680911660194397,0.0,1.0,0.9774818420410156,0.9943037033081056
-0.0701047927141189,0.0214117616415023,0.2514907121658325,-0.1567582935094833,0.2434627115726471,-0.0460086613893508,0.0,1.0,0.9586035013198853,0.8328442573547363
-0.0679858177900314,0.0187747571617364,0.2350763529539108,-0.113555870950222,0.2198836207389831,-0.4716638922691345,0.0,1.0,-0.3204946517944336,-0.7547315955162048
-0.0660937279462814,0.0159538611769676,0.2263513356447219,-0.1203047782182693,0.1823502779006958,-0.750789999961853,0.0,1.0,0.6081757545471191,-0.9607944488525392
-0.0643105506896972,0.0132872434332966,0.2227514535188675,-0.1136938333511352,0.1378107517957687,-0.8909223675727844,0.0,1.0,0.790271520614624,-0.984843373298645
-0.062598131597042,0.0111153693869709,0.2143463790416717,-0.0931297540664672,0.0948608592152595,-0.8591164350509644,0.0,1.0,0.7001116275787354,-0.9699837565422058
-0.0609846115112304,0.0095086554065346,0.2011032402515411,-0.0693565234541893,0.0555030032992363,-0.7871576547622681,0.0,1.0,0.5719099044799805,-0.9492976665496826
-0.0593944564461708,0.0076945517212152,0.1968584507703781,-0.0796510949730873,0.0181206241250038,-0.7476481199264526,0.0,0.0,-0.2956569194793701,-0.9995080828666688
