x_pos,y_pos,x_vel,y_vel,angle,ang_vel,leg_1,leg_2,main_booster,lat_booster
-0.0015377044910565,1.4033840894699097,-0.1549933701753616,-0.3349393904209137,0.0010899240151047,0.021449688822031,0.0,0.0,-0.1934046745300293,0.8988949060440063
-0.0030136108398437,1.3956263065338137,-0.1460084915161132,-0.3447883427143097,-0.0004719339485745,-0.0312395207583904,0.0,0.0,-0.4617701172828674,-0.313524842262268
-0.004504585172981,1.3876276016235352,-0.1468115299940109,-0.3555009067058563,-0.0027281893417239,-0.0451291874051094,0.0,0.0,-0.1555513143539428,0.3066565990447998
-0.0060109137557446,1.379388451576233,-0.1476510465145111,-0.3661944270133972,-0.0056822197511792,-0.0590861923992633,0.0,0.0,-0.0758915543556213,0.657313346862793
-0.007470226380974,1.37091064453125,-0.1406519711017608,-0.3768224120140075,-0.0109144421294331,-0.1046537607908248,0.0,0.0,-0.0771610140800476,0.5597705841064453
-0.0088917734101414,1.3621912002563477,-0.1347701251506805,-0.387598842382431,-0.0182075165212154,-0.1458750069141388,0.0,0.0,-0.2736966609954834,-0.3399786949157715
-0.0103295324370265,1.3532323837280271,-0.1356925666332245,-0.3982921838760376,-0.0262040197849273,-0.159945011138916,0.0,0.0,-0.2576441764831543,-0.0606060028076171
-0.0117839816957712,1.344034194946289,-0.1366409957408905,-0.4089864492416382,-0.034906331449747,-0.1740623563528061,0.0,0.0,-2.86102294921875e-06,-0.48590749502182
-0.013255214318633,1.3345969915390017,-0.1376131474971771,-0.4196822047233581,-0.0443157777190208,-0.1882065087556839,0.0,0.0,0.3508963584899902,0.430290937423706
-0.0147177698090672,1.3258109092712402,-0.1360358297824859,-0.39082071185112,-0.0544368773698806,-0.202440544962883,0.0,0.0,-0.4120761156082153,-0.1443243026733398
-0.0161975864320993,1.316786289215088,-0.1370492875576019,-0.4015277922153473,-0.065267764031887,-0.2166376858949661,0.0,0.0,-0.2379398941993713,0.724709153175354
-0.0176313407719135,1.3075159788131714,-0.1300970613956451,-0.412640631198883,-0.0784165784716606,-0.2630003094673157,0.0,0.0,-0.2750297784805298,-0.6321352124214172
-0.0191211700439453,1.29801607131958,-0.1360093206167221,-0.4229484796524048,-0.0912912413477897,-0.2575170993804931,0.0,0.0,-0.4671086072921753,-0.5800974369049072
-0.0206693653017282,1.2882788181304932,-0.1421637088060379,-0.4335878491401672,-0.1038601100444793,-0.2514002919197082,0.0,0.0,-0.1655846834182739,-0.4520200490951538
-0.0222352985292673,1.2783043384552002,-0.1432399600744247,-0.4442960619926452,-0.1171424463391304,-0.2656713426113128,0.0,0.0,-0.5531806349754333,-0.2254089117050171
-0.0238191597163677,1.2680928707122805,-0.1443279534578323,-0.455006331205368,-0.1311382800340652,-0.2799421846866607,0.0,0.0,-0.4679462909698486,-0.6963503360748291
-0.0254620555788278,1.2576611042022705,-0.150630921125412,-0.464899480342865,-0.144773468375206,-0.2727286219596863,0.0,0.0,-0.1730992794036865,-0.8015047311782837
-0.0271714217960834,1.24699604511261,-0.1578085124492645,-0.4753307104110718,-0.1579052805900573,-0.2626602053642273,0.0,0.0,-0.4661383628845215,-0.7618359327316284
-0.0289479251950979,1.2361130714416504,-0.1651115864515304,-0.4850652515888214,-0.1704707890748977,-0.251332938671112,0.0,0.0,-0.5541049242019653,-0.7676095366477966
-0.0308103561401367,1.2250101566314695,-0.17475326359272,-0.4948207139968872,-0.1820098608732223,-0.2308018654584884,0.0,0.0,-0.5825392007827759,-0.834033191204071
-0.0327413566410541,1.2136902809143066,-0.1822381913661956,-0.5044813752174377,-0.1929428726434707,-0.2186796218156814,0.0,0.0,0.1128320693969726,-0.6597711443901062
-0.0346764549612998,1.202580451965332,-0.1832856386899948,-0.4951333105564117,-0.2032583802938461,-0.206328272819519,0.0,0.0,-0.812217116355896,-0.5663620233535767
-0.0366646759212017,1.1912431716918943,-0.1887793540954589,-0.5052908062934875,-0.213396206498146,-0.2027746886014938,0.0,0.0,0.3672879934310913,-0.9037692546844482
-0.0386233329772949,1.1800390481948853,-0.1869839429855346,-0.4992660582065582,-0.2223796546459198,-0.1796851456165313,0.0,0.0,-0.6585038900375366,-0.6086052060127258
-0.0406582839787006,1.1686185598373413,-0.1954244673252105,-0.5088102221488953,-0.2305605858564376,-0.1636334508657455,0.0,0.0,-0.3625688552856445,-0.8587268590927124
-0.0427965149283409,1.156972885131836,-0.207181841135025,-0.5186381340026855,-0.2373002916574478,-0.1347942501306533,0.0,0.0,0.2958487272262573,-0.4157732725143432
-0.0448168739676475,1.1459193229675293,-0.1947215497493744,-0.4924665689468384,-0.2447383850812912,-0.1487619876861572,0.0,0.0,-0.4674582481384277,-0.5446338653564453
-0.0469060912728309,1.134652853012085,-0.2022373378276825,-0.5018653273582458,-0.2515443563461303,-0.1361196488142013,0.0,0.0,-0.2230521440505981,-0.7178861498832703
-0.0490800850093364,1.123179912567139,-0.2117661237716674,-0.5108761191368103,-0.2572897374629974,-0.1149075627326965,0.0,0.0,-0.0861624479293823,-0.5986082553863525
-0.0513208396732807,1.1114859580993652,-0.2189825028181076,-0.5206342339515686,-0.2624925673007965,-0.104056641459465,0.0,0.0,0.6587426662445068,-0.8552573323249817
-0.0534033775329589,1.1008130311965942,-0.2042086571455001,-0.4750841557979584,-0.2666292190551758,-0.0827332586050033,0.0,0.0,0.4811873435974121,-0.2211055755615234
-0.0554688461124897,1.090498447418213,-0.2015027552843094,-0.4593536257743835,-0.2717932164669037,-0.1032800897955894,0.0,0.0,0.1677957773208618,-0.57127445936203
-0.0575057975947856,1.0808143615722656,-0.1990068703889846,-0.4312909245491028,-0.276608407497406,-0.0963037461042404,0.0,0.0,-0.4379850029945373,-0.7323701977729797
-0.0596247687935829,1.07091224193573,-0.208107978105545,-0.4408158659934997,-0.2804878950119018,-0.0775900110602378,0.0,0.0,-0.1992577314376831,-0.6238857507705688
-0.0618084892630577,1.0607935190200806,-0.215122252702713,-0.4503520727157593,-0.2838321626186371,-0.0668859928846359,0.0,0.0,0.2521038055419922,-0.2067160010337829
-0.0638376250863075,1.0512566566467283,-0.1990533471107483,-0.4246170818805694,-0.2878073453903198,-0.0795036777853965,0.0,0.0,0.2757047414779663,-0.7515456676483154
-0.0658656135201454,1.042019009590149,-0.1997169107198715,-0.4111727476119995,-0.2909786701202392,-0.0634267926216125,0.0,0.0,0.2340235710144043,-0.042784571647644
-0.0677223205566406,1.0333484411239624,-0.1820579767227172,-0.3860853612422943,-0.2947064042091369,-0.0745545625686645,0.0,0.0,-0.5989408493041992,-0.7144110798835754
-0.0696538910269737,1.0244739055633545,-0.1903929561376571,-0.3949885070323944,-0.2975630462169647,-0.0571327023208141,0.0,0.0,-0.4290903210639953,-0.0041515231132507
-0.0716046318411827,1.015361785888672,-0.1916470974683761,-0.4056930840015411,-0.3010995388031006,-0.0707296505570411,0.0,0.0,-0.2871407270431518,-0.1466680169105529
-0.073574349284172,1.006011724472046,-0.1929031014442443,-0.4163981080055237,-0.3053112626075744,-0.0842343121767044,0.0,0.0,-0.5293163061141968,-0.4770188331604004
-0.0755630508065223,0.9964243769645692,-0.1941609233617782,-0.4271036684513092,-0.3101931810379028,-0.0976382791996002,0.0,0.0,0.4784812927246094,-0.401404321193695
-0.0774022117257118,0.9869608283042908,-0.1789613664150238,-0.4216792285442352,-0.3153376281261444,-0.1028882265090942,0.0,0.0,-0.5609385371208191,-0.1257162094116211
-0.0792603492736816,0.9772598147392272,-0.1802224367856979,-0.4323857426643371,-0.3211407661437988,-0.1160630956292152,0.0,0.0,-0.7103719711303711,-0.4426632523536682
-0.0811371803283691,0.9673214554786682,-0.1814851462841034,-0.4430928826332092,-0.3275961577892303,-0.1291080266237259,0.0,0.0,-0.8812943696975708,-0.8714563846588135
-0.0830946937203407,0.9571679830551147,-0.1905118972063064,-0.4524593353271484,-0.3330620229244232,-0.1093173027038574,0.0,0.0,-0.9126391410827636,-0.4379647970199585
-0.0850708037614822,0.9467772841453552,-0.1917768865823745,-0.4631663858890533,-0.3391654193401336,-0.122067891061306,0.0,0.0,0.3672716617584228,-0.6249109506607056
-0.0869770050048828,0.9372073411941528,-0.1852454990148544,-0.426611840724945,-0.3448028862476349,-0.1127493157982826,0.0,0.0,-0.7834943532943726,0.0368338823318481
-0.0889017134904861,0.9274001717567444,-0.1865126490592956,-0.4373191893100738,-0.351060539484024,-0.1251529455184936,0.0,0.0,0.2073974609375,-0.634956955909729
-0.0907804518938064,0.9179121851921082,-0.1825558245182037,-0.4229989945888519,-0.3566543757915497,-0.1118767485022544,0.0,0.0,-0.5063900351524353,-0.7019187211990356
-0.0927167907357215,0.9082085490226746,-0.1888084262609481,-0.4324773848056793,-0.3617506623268127,-0.1019259914755821,0.0,0.0,0.5118143558502197,-0.5688291192054749
-0.0945269614458084,0.8992708921432495,-0.1766179800033569,-0.3983475267887115,-0.3663941025733948,-0.0928687006235122,0.0,0.0,-0.1004972457885742,-0.5733786225318909
-0.0963903442025184,0.890112578868866,-0.1823179721832275,-0.4080725610256195,-0.3706525266170501,-0.0851676315069198,0.0,0.0,0.1582797765731811,-0.7309998273849487
-0.0981186851859092,0.8815345168113708,-0.169703871011734,-0.3820546269416809,-0.3739587664604187,-0.0661248862743377,0.0,0.0,0.446605920791626,-0.5668500661849976
-0.0996190086007118,0.8732600212097168,-0.1478001177310943,-0.3683501780033111,-0.3763339817523956,-0.0475045964121818,0.0,0.0,0.6087089776992798,-0.849347710609436
-0.1011278182268142,0.8654779195785522,-0.1496432721614837,-0.3461951613426208,-0.3776499330997467,-0.0263191126286983,0.0,0.0,0.8571145534515381,-0.8303178548812866
-0.1022747978568077,0.8586861491203308,-0.1148004680871963,-0.3018315732479095,-0.3775399029254913,0.0022008107043802,0.0,0.0,0.7890403270721436,-0.8069602251052856
-0.1030756011605262,0.8526220321655273,-0.0815725699067115,-0.2691207528114319,-0.3759509027004242,0.0317797102034091,0.0,0.0,0.5061911344528198,-0.7772166132926941
-0.1036023125052452,0.8473665118217468,-0.0553419478237628,-0.2328801155090332,-0.3731134235858917,0.0567497611045837,0.0,0.0,0.6214606761932373,-0.7407293915748596
-0.1039937958121299,0.8430325984954834,-0.0427000224590301,-0.1916923820972442,-0.369354099035263,0.0751866847276687,0.0,0.0,-0.1510624885559082,-0.7935084104537964
-0.1044569984078407,0.8384850025177002,-0.0508659593760967,-0.2009431421756744,-0.3645455539226532,0.0961711555719375,0.0,0.0,0.7124642133712769,-0.9261381030082704
-0.1048526763916015,0.8348239064216614,-0.0453880801796913,-0.1612544804811477,-0.3584038913249969,0.1228334680199623,0.0,0.0,0.1312257051467895,-0.8991633057594299
-0.1051143631339073,0.831404983997345,-0.0333941355347633,-0.1501676887273788,-0.3507938086986542,0.1522017866373062,0.0,0.0,-0.0736187696456909,-0.7857382297515869
-0.1054474860429763,0.8277797698974609,-0.0416863933205604,-0.1591024100780487,-0.3419954478740692,0.1759671121835708,0.0,0.0,-0.7617584466934204,-0.4999818801879883
-0.10579614341259,0.8239165544509888,-0.0429600365459919,-0.1698051244020462,-0.3335305750370025,0.1692972034215927,0.0,0.0,-0.913811981678009,-0.5635941028594971
-0.1062106117606163,0.819841742515564,-0.0506049394607543,-0.179019495844841,-0.3239802420139313,0.1910069435834884,0.0,0.0,-0.9078671336174012,0.7005834579467773
-0.1065842658281326,0.815509021282196,-0.0448704622685909,-0.1909068673849105,-0.316176176071167,0.1560814380645752,0.0,0.0,-0.7846918702125549,-0.1707978844642639
-0.1069727912545204,0.8109375238418579,-0.0461405254900455,-0.2016052603721618,-0.3086137771606445,0.1512481123208999,0.0,0.0,-0.4474128484725952,-0.576443612575531
-0.1074157729744911,0.8061532974243164,-0.0524863302707672,-0.2109120637178421,-0.3001313507556915,0.1696487814188003,0.0,0.0,-0.9119371175765992,-0.2922558784484863
-0.1078727692365646,0.8011303544044495,-0.0537536330521106,-0.2216093987226486,-0.2918230295181274,0.1661667078733444,0.0,0.0,0.2356685400009155,-0.0357700586318969
-0.108263686299324,0.7966253757476807,-0.0467164479196071,-0.198715478181839,-0.2839710414409637,0.157039612531662,0.0,0.0,-0.9958595633506776,0.0504225492477417
-0.1086680442094802,0.791881263256073,-0.0479786843061447,-0.2094101160764694,-0.2762214839458465,0.1549912244081497,0.0,0.0,-0.7470304369926453,0.0635949373245239
-0.1090854629874229,0.7868974804878235,-0.0492378138005733,-0.2201037108898162,-0.2685373425483703,0.1536829769611358,0.0,0.0,-0.7779064774513245,0.6532647609710693
-0.1094597801566124,0.781650960445404,-0.0434725508093833,-0.2320843189954757,-0.2623657882213592,0.1234310716390609,0.0,0.0,-0.9950317740440368,-0.5049428343772888
-0.1098877936601638,0.7761771082878113,-0.0499064177274704,-0.242027923464775,-0.2551085948944092,0.1451440751552581,0.0,0.0,-0.9859780073165894,0.1414606571197509
-0.110327623784542,0.7704633474349976,-0.0511524453759193,-0.2527184188365936,-0.2478032708168029,0.1461063921451568,0.0,0.0,-0.9932904839515686,-0.3238189220428467
-0.1107789054512977,0.764509379863739,-0.0523926988244056,-0.2634082436561584,-0.2404118031263351,0.1478290855884552,0.0,0.0,-0.9963870644569396,0.7679135799407959
-0.1111820191144943,0.7583007216453552,-0.0462108738720417,-0.2749918103218078,-0.2344190925359726,0.1198540553450584,0.0,0.0,-0.974457859992981,-0.078377366065979
-0.1115957275032997,0.751851499080658,-0.0474361926317215,-0.2856788337230682,-0.2282651662826538,0.1230784878134727,0.0,0.0,-0.9877824187278748,-0.1190062761306762
-0.1120195388793945,0.7451618909835815,-0.0486527718603611,-0.2963654100894928,-0.2219133526086807,0.1270362138748169,0.0,0.0,-0.9992833733558656,0.5112874507904053
-0.1124229431152343,0.7382157444953918,-0.0460466668009758,-0.3078655898571014,-0.2161404490470886,0.1154582500457763,0.0,0.0,-0.9999812245368958,0.7305705547332764
-0.1127744689583778,0.7310153841972351,-0.039586454629898,-0.3193746209144592,-0.2116630226373672,0.089548610150814,0.0,0.0,-0.9998408555984496,-0.4591076374053955
-0.1131347641348838,0.7235740423202515,-0.0407685562968254,-0.3300581872463226,-0.2068832665681839,0.0955950170755386,0.0,0.0,-0.999883472919464,-0.2763563990592956
-0.1135033592581749,0.7158915996551514,-0.0419365353882312,-0.3407415747642517,-0.2017687410116195,0.1022908836603164,0.0,0.0,-0.9978930950164796,0.7165044546127319
-0.113825038075447,0.7079548239707947,-0.0362063571810722,-0.352197527885437,-0.1976970732212066,0.0814331993460655,0.0,0.0,-0.9999673366546632,-0.041215181350708
-0.1141540557146072,0.6997768878936768,-0.0373408645391464,-0.3628796339035034,-0.1932298243045807,0.0893452614545822,0.0,0.0,-0.9995173811912536,0.2773334980010986
-0.1144899353384971,0.6913576126098633,-0.0384561531245708,-0.3735617101192474,-0.1883387714624405,0.0978214666247367,0.0,0.0,-0.9999263882637024,-0.3319184780120849
-0.1148322075605392,0.6826971769332886,-0.0395503565669059,-0.3842438459396362,-0.1829972267150879,0.1068312153220176,0.0,0.0,-0.9998955130577089,0.5220556259155273
-0.1151299476623535,0.6737812161445618,-0.0342790819704532,-0.395715057849884,-0.1784832179546356,0.0902797430753707,0.0,0.0,-0.9994016885757446,0.546299934387207
-0.1153815239667892,0.6646056175231934,-0.028798509389162,-0.4073707461357116,-0.1748216450214386,0.0732317119836807,0.0,0.0,-0.99201899766922,-0.7852200865745544
-0.1156988143920898,0.6552106142044067,-0.037502471357584,-0.4168885052204132,-0.1690464913845062,0.1155032068490982,0.0,0.0,-0.9997147917747498,0.8635965585708618
-0.1159491539001464,0.6455626487731934,-0.0295294187963008,-0.4282951951026916,-0.1645445972681045,0.0900380760431289,0.0,0.0,-0.999889612197876,-0.2303978204727172
-0.1162034049630165,0.6356732249259949,-0.0304866433143615,-0.4389764070510864,-0.1594815850257873,0.1012603417038917,0.0,0.0,-0.9999646544456482,-0.2449904680252075
-0.1164610832929611,0.6255425214767456,-0.0314100123941898,-0.449658066034317,-0.1538396626710891,0.1128380745649337,0.0,0.0,-0.9992494583129884,0.8589644432067871
-0.1166605949401855,0.6151538491249084,-0.0246277805417776,-0.4612436592578888,-0.1491725444793701,0.0933422297239303,0.0,0.0,-0.9999324083328248,0.2462363243103027
-0.1168623939156532,0.6045239567756653,-0.0254763718694448,-0.4719251096248626,-0.1438949108123779,0.1055526286363601,0.0,0.0,-0.9981306195259094,0.9441244602203368
-0.1169950515031814,0.5936367511749268,-0.0173673462122678,-0.4834833145141601,-0.1398075520992279,0.0817469283938407,0.0,0.0,-0.9999337792396544,0.7956403493881226
-0.1170787811279296,0.58250492811203,-0.0118573065847158,-0.4944269359111786,-0.1363409757614135,0.0693318098783493,0.0,0.0,-0.9917327761650084,-0.0686923265457153
-0.1171632781624794,0.5711316466331482,-0.0125770922750234,-0.5051078200340271,-0.132225215435028,0.0823148190975189,0.0,0.0,-0.9999004006385804,0.9094932079315186
-0.1171822547912597,0.5595105290412903,-0.0050349025987088,-0.516222357749939,-0.1291018575429916,0.0624672882258892,0.0,0.0,-0.9998548030853271,0.7384116649627686
-0.1171503067016601,0.5476433038711548,0.0006597064202651,-0.5272125005722046,-0.1265784651041031,0.0504677966237068,0.0,0.0,-0.9978050589561462,0.261986494064331
-0.1171173080801963,0.5355345606803894,8.667820657137781e-05,-0.5378931760787964,-0.1233762577176094,0.0640439689159393,0.0,0.0,-0.9997331500053406,0.7829763889312744
-0.1170329079031944,0.5231760144233704,0.0057939514517784,-0.5490540266036987,-0.1207470744848251,0.0525838956236839,0.0,0.0,-0.9994364380836488,0.3948951959609985
-0.1169461235404014,0.5105760097503662,0.0053268447518348,-0.5597347617149353,-0.117423303425312,0.0664755851030349,0.0,0.0,-0.9977459907531738,0.4628512859344482
-0.1168564781546592,0.4977346658706665,0.0049145193770527,-0.5704160928726196,-0.1133981049060821,0.0805037841200828,0.0,0.0,-0.9970676302909852,0.9050955772399902
-0.1166854873299598,0.4846307039260864,0.0143388342112302,-0.5821942090988159,-0.1106584593653678,0.054793082177639,0.0,0.0,-0.8825701475143433,0.4585556983947754
-0.1165102943778038,0.4712852239608764,0.0140388756990432,-0.5928755402565002,-0.1072055548429489,0.0690581351518631,0.0,0.0,-0.5047764778137207,-0.2863925695419311
-0.1163303405046463,0.4576985239982605,0.013795843347907,-0.6035574078559875,-0.1030342802405357,0.0834254845976829,0.0,0.0,-0.2510630488395691,-0.2962949275970459
-0.1161449402570724,0.4438706934452057,0.0136099327355623,-0.6142398715019226,-0.098140001296997,0.0978856310248375,0.0,0.0,0.2926551103591919,0.1582767963409423
-0.1158495917916297,0.4304700195789337,0.0235882755368948,-0.5952072739601135,-0.0922423675656318,0.1179526895284652,0.0,0.0,0.3367013931274414,0.787696361541748
-0.1154306381940841,0.4178151488304138,0.0367933586239814,-0.5621311664581299,-0.087189182639122,0.1010634899139404,0.0,0.0,-0.0907735228538513,0.6227614879608154
-0.1149500831961631,0.4049177169799804,0.0435907766222953,-0.5729676485061646,-0.0827657580375671,0.0884686186909675,0.0,0.0,0.656631588935852,-0.5274701714515686
-0.114379309117794,0.3924584686756134,0.0505717024207115,-0.5533986687660217,-0.0763216093182563,0.1288829147815704,0.0,0.0,-0.5253099203109741,0.8287243843078613
-0.1137478798627853,0.3797538876533508,0.0572121739387512,-0.564355194568634,-0.0704519897699356,0.1173923164606094,0.0,0.0,0.4638079404830932,0.6304298639297485
-0.1131496429443359,0.3674972653388977,0.0546646006405353,-0.5445067882537842,-0.0653537139296531,0.1019657850265502,0.0,0.0,0.5033364295959473,0.7346172332763672
-0.1124720573425293,0.3557635545730591,0.0633696168661117,-0.5213119983673096,-0.0610110759735107,0.0868526548147201,0.0,0.0,0.0001198053359985,-0.1187812685966491
-0.1117490753531456,0.344271183013916,0.0670858696103096,-0.5105698704719543,-0.0558483861386776,0.1032537072896957,0.0,0.0,-0.0182574987411499,0.6693938970565796
-0.1109513267874717,0.3325265645980835,0.0754388943314552,-0.5218280553817749,-0.0515589006245136,0.0857895389199256,0.0,0.0,0.4663031101226806,0.3498224020004272
-0.1100247353315353,0.3214436769485473,0.0871495977044105,-0.4923931062221527,-0.0461183823645114,0.1088101714849472,0.0,0.0,-0.4898138046264648,0.3642058372497558
-0.1090867072343826,0.3101203739643097,0.0875419825315475,-0.5030799508094788,-0.0399255044758319,0.1238573938608169,0.0,0.0,-0.0629645586013794,0.8900202512741089
