x_pos,y_pos,x_vel,y_vel,angle,ang_vel,leg_1,leg_2,main_booster,lat_booster
-0.0015698432689532,1.4032220840454102,-0.1594210714101791,-0.3421406149864197,0.0021865745075047,0.0431640222668647,0.0,0.0,0.0388118028640747,0.6917858123779297
-0.0030952454544603,1.3955764770507812,-0.1537338495254516,-0.3398018479347229,0.0033566895872354,0.0234052129089832,0.0,0.0,-0.1714686155319214,0.7309615612030029
-0.0045973779633641,1.3875230550765991,-0.149960309267044,-0.3579358160495758,0.0031099740881472,-0.004934562370181,0.0,0.0,-0.2232617139816284,0.7639288902282715
-0.0060981749556958,1.379064679145813,-0.1489381343126297,-0.3759259283542633,0.0019811494275927,-0.0225782953202724,0.0,0.0,0.0883513689041137,-0.214287519454956
-0.0075618745759129,1.3708484172821045,-0.1459640860557556,-0.3651671111583709,0.0015703657409176,-0.008216381072998,0.0,0.0,-0.2586475014686584,0.5186078548431396
-0.0090229986235499,1.3622288703918457,-0.1447128057479858,-0.3830893635749817,0.0001898965274449,-0.027611756697297,0.0,0.0,-0.3137742877006531,0.394194483757019
-0.010531616397202,1.3532068729400637,-0.1497410535812378,-0.4009771049022674,-0.0009207656257785,-0.0222150832414627,0.0,0.0,0.5843870639801025,0.9293560981750488
-0.0118529321625828,1.3447153568267822,-0.1296208649873733,-0.3774002492427826,-0.0033982340246438,-0.0495543181896209,0.0,0.0,0.2453914880752563,-0.2178036570549011
-0.0132291791960597,1.3367676734924316,-0.135295957326889,-0.3532432019710541,-0.0056956741027534,-0.0459532029926776,0.0,0.0,-0.3795821666717529,0.3261332511901855
-0.0146536827087402,1.3284173011779783,-0.1403197348117828,-0.3711377680301666,-0.0077950390987098,-0.0419912338256835,0.0,0.0,0.0866792201995849,0.7324553728103638
-0.016000747680664,1.3202500343322754,-0.1313623338937759,-0.3630060851573944,-0.0111117213964462,-0.0663399770855903,0.0,0.0,-0.3420233726501465,0.2066922187805175
-0.0173965450376272,1.3116804361343384,-0.1363778412342071,-0.3809019327163696,-0.0142814582213759,-0.0634002089500427,0.0,0.0,-0.193411111831665,0.6316131353378296
-0.0187807083129882,1.3027104139328003,-0.1337915360927581,-0.3987195193767547,-0.0188546385616064,-0.0914720445871353,0.0,0.0,-0.3882602453231811,0.7605314254760742
-0.0201472286134958,1.2933292388916016,-0.1304198652505874,-0.4170318841934204,-0.0250166822224855,-0.1232522502541542,0.0,0.0,0.2899861335754394,-0.1852803826332092
-0.0214368812739849,1.2845070362091064,-0.1233153119683265,-0.3922012448310852,-0.0305953603237867,-0.1115837544202804,0.0,0.0,-0.2225120663642883,0.0451029539108276
-0.022775936871767,1.275282621383667,-0.1283074468374252,-0.4101020395755768,-0.0361391529440879,-0.1108860746026039,0.0,0.0,-0.5233420729637146,0.6180869340896606
-0.0241047851741313,1.265660285949707,-0.1257603615522384,-0.4278527200222015,-0.043182149529457,-0.1408727616071701,0.0,0.0,-0.2917529344558716,-0.0295766592025756
-0.025483513250947,1.2556359767913818,-0.1307347118854522,-0.4457477629184723,-0.0502456426620483,-0.1412829458713531,0.0,0.0,-0.6712570190429688,-0.206826627254486
-0.0269124023616313,1.2452096939086914,-0.13570237159729,-0.4636429846286773,-0.0573589615523815,-0.142278790473938,0.0,0.0,-0.4399250149726867,0.7401833534240723
-0.0283410064876079,1.234377145767212,-0.1343185305595398,-0.4817974269390106,-0.0658240988850593,-0.1693180799484253,0.0,0.0,-0.5006638169288635,0.1825501918792724
-0.029820155352354,1.2231431007385254,-0.1392648518085479,-0.4996952712535858,-0.0743934512138366,-0.1714026033878326,0.0,0.0,-0.4636327028274536,0.7037009000778198
-0.0312935821712017,1.2114973068237305,-0.1371264308691024,-0.5181228518486023,-0.0845232009887695,-0.2026136666536331,0.0,0.0,-0.1098483800888061,0.743818998336792
-0.0327465049922466,1.199440836906433,-0.1331173479557037,-0.5365747809410095,-0.0966104343533515,-0.2417663782835006,0.0,0.0,-0.4190612435340881,0.6380313634872437
-0.034194566309452,1.1869690418243408,-0.1310359090566635,-0.5552492737770081,-0.1103011220693588,-0.2738377451896667,0.0,0.0,0.3191443681716919,-0.7672647833824158
-0.0358240120112896,1.174896478652954,-0.1503535509109497,-0.5375322103500366,-0.1228318065404892,-0.2506361007690429,0.0,0.0,-0.1131113767623901,0.5316739082336426
-0.0374744422733783,1.1623995304107666,-0.1514163315296173,-0.556593120098114,-0.1363975405693054,-0.271314799785614,0.0,0.0,0.316476821899414,-0.2832744121551513
-0.0390945449471473,1.150362849235535,-0.1481609642505645,-0.5362939238548279,-0.1502039581537246,-0.2761286497116089,0.0,0.0,0.1438620090484619,-0.5509698390960693
-0.040821649134159,1.138811707496643,-0.1595536023378372,-0.5147619247436523,-0.1633609980344772,-0.2631409168243408,0.0,0.0,0.1287428140640258,-0.434119164943695
-0.0426021590828895,1.1276663541793823,-0.1642054915428161,-0.4969370067119598,-0.1772272884845733,-0.2773259282112121,0.0,0.0,-0.4280612468719482,-0.552364706993103
-0.0444787964224815,1.11613130569458,-0.1746778786182403,-0.514270007610321,-0.190264955163002,-0.2607528865337372,0.0,0.0,0.5334360599517822,-0.2793936729431152
-0.0462410934269428,1.10534930229187,-0.163031131029129,-0.4809450507164001,-0.203556627035141,-0.2658335566520691,0.0,0.0,-0.8689835071563721,-0.3828558921813965
-0.0480548851191997,1.0941683053970337,-0.1678547263145446,-0.4988540709018707,-0.2171995639801025,-0.2728588581085205,0.0,0.0,-0.7169225215911865,-0.6618361473083496
-0.0499770157039165,1.082613229751587,-0.1798688173294067,-0.5154207944869995,-0.2296900898218155,-0.2498104870319366,0.0,0.0,0.0486809015274047,-0.8041722178459167
-0.0520071014761924,1.07102370262146,-0.1919035017490387,-0.5168582201004028,-0.2409631162881851,-0.2254605293273925,0.0,0.0,-0.714907169342041,-0.7245914936065674
-0.0541421882808208,1.0590558052062988,-0.2034365385770797,-0.533585786819458,-0.2512077391147613,-0.2048923671245575,0.0,0.0,0.382125973701477,-0.5549775958061218
-0.0561965927481651,1.0476216077804563,-0.1961417198181152,-0.5098087191581726,-0.2606994211673736,-0.1898338943719864,0.0,0.0,-0.3626191616058349,-0.1445940136909485
-0.0583019256591796,1.0357877016067505,-0.2008428275585174,-0.5277136564254761,-0.2706117331981659,-0.1982462108135223,0.0,0.0,0.493550181388855,-0.7203363180160522
-0.0602911002933979,1.0245614051818848,-0.190316841006279,-0.5005665421485901,-0.2794241905212402,-0.1762489378452301,0.0,0.0,-0.3273132443428039,-0.8220952153205872
-0.0623952858150005,1.0129722356796265,-0.203149676322937,-0.5164815187454224,-0.2868930995464325,-0.1493778973817825,0.0,0.0,-0.7311949133872986,-0.601996123790741
-0.0645928382873535,1.0010027885437012,-0.2132017910480499,-0.5332773327827454,-0.2936473786830902,-0.1350855529308319,0.0,0.0,0.9104833602905272,-0.1285386681556701
-0.0666978806257247,0.9899797439575196,-0.2029623985290527,-0.4914545714855194,-0.3014326989650726,-0.1557065546512603,0.0,0.0,-0.8694372177124023,-0.7503241896629333
-0.0688976272940635,0.978576123714447,-0.2131721526384353,-0.5082587003707886,-0.3084737360477447,-0.1408207416534423,0.0,0.0,0.326153039932251,-0.5943149328231812
-0.071034625172615,0.9671083092689514,-0.2077661007642746,-0.510953962802887,-0.3146208822727203,-0.1229428499937057,0.0,0.0,0.5043658018112183,-0.6043274998664856
-0.0730233192443847,0.9559022784233092,-0.1938862204551696,-0.4991395771503448,-0.3198042809963226,-0.1036676168441772,0.0,0.0,-0.5371475219726562,-0.7930901050567627
-0.0751256942749023,0.9443185329437256,-0.2064286172389984,-0.5156772136688232,-0.3237586617469787,-0.0790873169898986,0.0,0.0,0.2667286396026611,-0.9364320039749146
-0.077227309346199,0.9327053427696228,-0.2077431231737136,-0.5166794657707214,-0.326288640499115,-0.0505994372069835,0.0,0.0,0.5595865249633789,-0.939631164073944
-0.0792504325509071,0.9212908744812012,-0.2013103663921356,-0.5075390338897705,-0.3273326456546783,-0.0208803266286849,0.0,0.0,0.6137553453445435,0.1065597534179687
-0.0811620727181434,0.9106857776641846,-0.1891911774873733,-0.4717877507209778,-0.3293890953063965,-0.0411284044384956,0.0,0.0,-0.0865119695663452,-0.6510810852050781
-0.0831771865487098,0.8997160792350769,-0.200619101524353,-0.4877461791038513,-0.330324649810791,-0.0187111441045999,0.0,0.0,0.3396813869476318,-0.6179307699203491
-0.0851676911115646,0.8889623284339905,-0.198833093047142,-0.4779865443706512,-0.3305477201938629,-0.0044615291990339,0.0,0.0,0.4325170516967773,-0.595354437828064
-0.0869575515389442,0.8784676790237427,-0.1797163337469101,-0.4662639796733856,-0.3297862112522125,0.0152304144576191,0.0,0.0,0.7010736465454102,-0.8570543527603149
-0.0886694937944412,0.8687192797660828,-0.1730022579431533,-0.4328495860099792,-0.3278948962688446,0.0378255546092987,0.0,0.0,0.4159908294677734,-0.8455125093460083
-0.0902645140886306,0.8590885400772095,-0.1625781953334808,-0.4273437857627868,-0.3246863782405853,0.0641699284315109,0.0,0.0,0.6663233041763306,-0.3669336438179016
-0.0916405692696571,0.8501997590065002,-0.1401941031217575,-0.3944796025753021,-0.3219911754131317,0.0539042949676513,0.0,0.0,0.6483516693115234,-0.7551870346069336
-0.0928041487932205,0.8415510058403015,-0.1202218905091285,-0.3835377097129822,-0.3179827034473419,0.0801696628332138,0.0,0.0,0.3439110517501831,-0.5754081010818481
-0.0940104499459266,0.8331069946289062,-0.1249322146177291,-0.3743534386157989,-0.3135108053684234,0.0894377455115318,0.0,0.0,-0.5639373660087585,-0.5113032460212708
-0.0952847450971603,0.8242830634117126,-0.1320812404155731,-0.391177088022232,-0.3086915612220764,0.0963850617408752,0.0,0.0,-0.7235196232795715,-0.3129945993423462
-0.0965944305062294,0.8150591254234314,-0.1350928246974945,-0.4090811908245086,-0.3044122457504272,0.0855857282876968,0.0,0.0,-0.6475180387496948,-0.5740194320678711
-0.0979742035269737,0.8054584860801697,-0.1425865739583969,-0.4257358312606811,-0.2996459305286407,0.0953262150287628,0.0,0.0,-0.5700011849403381,-0.3960906267166137
-0.0993858352303505,0.7954579591751099,-0.145256295800209,-0.4436396062374115,-0.2954248785972595,0.0844211727380752,0.0,0.0,-0.6292497515678406,-0.7933985590934753
-0.1008836776018142,0.7850756049156189,-0.154772475361824,-0.4604361355304718,-0.2902826368808746,0.1028448939323425,0.0,0.0,-0.5381743907928467,-0.0631474256515502
-0.1024096459150314,0.7742931246757507,-0.1570603251457214,-0.4783399403095245,-0.2856906652450561,0.0918395668268203,0.0,0.0,-0.3744920492172241,-0.6120556592941284
-0.1039989441633224,0.7631252408027649,-0.1638088822364807,-0.4954011738300323,-0.2806651294231415,0.1005107015371322,0.0,0.0,-0.7004631757736206,-0.7119895815849304
-0.1056636795401573,0.7515808939933777,-0.17218779027462,-0.5120044350624084,-0.2748056948184967,0.1171892285346984,0.0,0.0,-0.7322682738304138,-0.7303233742713928
-0.1074059456586837,0.7396542429924011,-0.1808226406574249,-0.5288442373275757,-0.268047422170639,0.1351647078990936,0.0,0.0,-0.9089978933334352,-0.7145435810089111
-0.1092331856489181,0.7273553013801575,-0.1904827058315277,-0.5452205538749695,-0.2601037919521332,0.1588723361492157,0.0,0.0,-0.6424279808998108,-0.1134997010231018
-0.1110774055123329,0.7146565318107605,-0.1916615962982177,-0.563126266002655,-0.2527221441268921,0.1476326584815979,0.0,0.0,-0.1893608570098877,-0.3827264308929443
-0.1129364967346191,0.7015577554702759,-0.1925975978374481,-0.5810309648513794,-0.2459047138690948,0.1363486349582672,0.0,0.0,-0.0992592573165893,-0.6489646434783936
-0.1148539558053016,0.6880841851234436,-0.1991369426250457,-0.5976117253303528,-0.238395407795906,0.1501862406730651,0.0,0.0,0.028363823890686,-0.0308928489685058
-0.1167686432600021,0.6746606826782227,-0.1980427503585815,-0.5955502390861511,-0.231725588440895,0.1333963572978973,0.0,0.0,-0.3342832326889038,-0.2523735761642456
-0.1186907738447189,0.660836935043335,-0.1982298046350479,-0.6134532690048218,-0.2256263345479965,0.1219848245382309,0.0,0.0,0.4315595626831054,0.2132284641265869
-0.1204711943864822,0.6473924517631531,-0.1836223602294922,-0.5966951251029968,-0.2199764549732208,0.112997755408287,0.0,0.0,0.2266498804092407,0.3225522041320801
-0.1222105026245117,0.6344963908195496,-0.1785182952880859,-0.5724759697914124,-0.2153436243534088,0.0926568582653999,0.0,0.0,0.2668944597244262,-0.1905015707015991
-0.1238001808524131,0.6218306422233582,-0.1632428467273712,-0.56230229139328,-0.2110266089439392,0.0863402709364891,0.0,0.0,-0.6482934951782227,-0.5918778777122498
-0.125436395406723,0.6087754368782043,-0.1685667783021927,-0.5795365571975708,-0.2060339599847793,0.0998529121279716,0.0,0.0,0.1640198230743408,0.3213882446289062
-0.1269740164279937,0.5956410765647888,-0.1583602875471115,-0.5831144452095032,-0.2013996541500091,0.0926865264773368,0.0,0.0,0.6026952266693115,0.0508322715759277
-0.128468707203865,0.5825991034507751,-0.1533506214618683,-0.5791171789169312,-0.1974886804819107,0.0782193765044212,0.0,0.0,-0.0941526889801025,-0.3138271570205688
-0.1299539506435394,0.5691564679145813,-0.1518386453390121,-0.597016453742981,-0.1941607445478439,0.0665586441755294,0.0,0.0,0.3280893564224243,0.000507116317749
-0.1312380731105804,0.5562593936920166,-0.1314349472522735,-0.5728079676628113,-0.1911197155714035,0.0608206279575824,0.0,0.0,-0.4325568675994873,0.4294900894165039
-0.1325085610151291,0.5429614186286926,-0.1294922828674316,-0.590706467628479,-0.1886644065380096,0.0491062141954898,0.0,0.0,0.4426388740539551,0.1008586883544921
-0.1338201463222503,0.5297204852104187,-0.1324997246265411,-0.5883188247680664,-0.1873186230659485,0.0269157830625772,0.0,0.0,0.4103683233261108,-0.0662828683853149
-0.1349547356367111,0.5170633792877197,-0.1143680363893508,-0.5624235272407532,-0.1864015161991119,0.0183419920504093,0.0,0.0,-0.5378777980804443,-0.4339478015899658
-0.1360698640346527,0.5040052533149719,-0.1118472442030906,-0.580321192741394,-0.1860732585191726,0.0065652793273329,0.0,0.0,-0.286003828048706,-0.6204461455345154
-0.1372162848711013,0.4905634522438049,-0.1157279387116432,-0.5972756147384644,-0.1849746704101562,0.021972032263875,0.0,0.0,0.9315512180328368,0.446115493774414
-0.1382032334804535,0.4779298305511474,-0.0991414636373519,-0.5614377856254578,-0.1845311224460601,0.0088707832619547,0.0,0.0,-0.2818723917007446,0.590679407119751
-0.1391135156154632,0.4648806154727936,-0.0895262956619262,-0.5801522731781006,-0.1860349625349044,-0.0300770364701747,0.0,0.0,0.8987855911254883,0.0302351713180542
-0.1398985832929611,0.4520027935504913,-0.0765406563878059,-0.5725957751274109,-0.1880039721727371,-0.0393802672624588,0.0,0.0,0.8028454780578613,-0.5899566411972046
-0.1405142843723297,0.4393498599529266,-0.060480386018753,-0.5624919533729553,-0.189097449183464,-0.0218694061040878,0.0,0.0,0.9552662372589112,-0.6842968463897705
-0.1408436745405197,0.4272537231445312,-0.0331030376255512,-0.5375828146934509,-0.1889392733573913,0.0031636510975658,0.0,0.0,0.5107606649398804,-0.9157965183258056
-0.1410062760114669,0.415260910987854,-0.0178122352808713,-0.5328187942504883,-0.1873749643564224,0.0312858186662197,0.0,0.0,0.5809239149093628,-0.2876366376876831
-0.1410096138715744,0.4039280414581299,-0.001281889155507,-0.5035661458969116,-0.1864269822835922,0.0189596712589263,0.0,0.0,0.5545549392700195,-0.8575022220611572
-0.1408827751874923,0.3932622671127319,0.0105640524998307,-0.4737659394741058,-0.1842987090349197,0.0425656624138355,0.0,0.0,-0.5374579429626465,-0.1078929305076599
-0.1407234221696853,0.3821956217288971,0.0144043965265154,-0.4916639029979706,-0.1827606707811355,0.0307607557624578,0.0,0.0,0.7100789546966553,-0.8019344210624695
-0.1404195725917816,0.3712039291858673,0.0276366174221038,-0.4881821572780609,-0.1799956113100052,0.055301159620285,0.0,0.0,-0.1503655910491943,-0.2765049934387207
-0.1400814056396484,0.3598111867904663,0.0316447988152504,-0.506080150604248,-0.1778192222118377,0.0435277074575424,0.0,0.0,0.2407648563385009,-0.9115151166915894
-0.1395906507968902,0.3489844501018524,0.0456241853535175,-0.4807823896408081,-0.1743589788675308,0.0692048519849777,0.0,0.0,-0.0857661366462707,-0.8009393215179443
-0.1391289681196212,0.3377735316753387,0.0416353084146976,-0.4977372288703918,-0.1698177903890609,0.0908238068222999,0.0,0.0,0.4703892469406128,-0.5511269569396973
-0.1386715918779373,0.3272547721862793,0.0409604832530021,-0.4669612646102905,-0.1650384813547134,0.0955860763788223,0.0,0.0,0.1287325620651245,-0.2727272510528564
-0.1380403488874435,0.3170258998870849,0.0586587861180305,-0.4541281163692474,-0.1605674177408218,0.0894216299057006,0.0,0.0,-0.3349102735519409,0.0659103393554687
-0.13737154006958,0.3063959777355194,0.0629855841398239,-0.4720260500907898,-0.1566776931285858,0.0777945518493652,0.0,0.0,0.7712593078613281,-0.5175286531448364
-0.1366725862026214,0.2965896725654602,0.065805085003376,-0.435409665107727,-0.152597427368164,0.0816048979759216,0.0,0.0,-0.3145666122436523,-0.5874479413032532
-0.1359832733869552,0.2863914966583252,0.0642028599977493,-0.4527773559093475,-0.1478712111711502,0.0945243090391159,0.0,0.0,-0.2574793100357055,-0.4811500906944275
-0.1352550536394119,0.2757921814918518,0.0686661377549171,-0.4706748127937317,-0.1437190771102905,0.0830427408218383,0.0,0.0,0.5697588920593262,-0.1422485709190368
-0.1345577239990234,0.2655611038208008,0.0668096393346786,-0.4544367492198944,-0.140799418091774,0.0583931021392345,0.0,0.0,0.3889224529266357,-0.6280219554901123
-0.1336877793073654,0.2558194398880005,0.0831759646534919,-0.432606041431427,-0.1369992941617965,0.0760026723146438,0.0,0.0,-0.0514360666275024,-0.749399721622467
-0.132831186056137,0.2456809878349304,0.0810641571879386,-0.4501820504665375,-0.1324213743209839,0.0915583223104476,0.0,0.0,0.0330684185028076,-0.727577805519104
-0.1318240165710449,0.2358470112085342,0.0951443612575531,-0.4365829527378082,-0.1268778443336486,0.1108705177903175,0.0,0.0,0.2170593738555908,-0.4584694504737854
-0.1307205259799957,0.22646564245224,0.1054107770323753,-0.4165399670600891,-0.1219677105545997,0.0982026383280754,0.0,0.0,-0.4608438014984131,-0.7085385918617249
-0.1296177804470062,0.2166988998651504,0.1047969609498977,-0.4336378276348114,-0.1165250986814498,0.1088523417711258,0.0,0.0,0.0204929113388061,-0.3263671994209289
-0.1283853501081466,0.2070561051368713,0.1180923357605934,-0.4281765520572662,-0.111409418284893,0.1023137420415878,0.0,0.0,-0.0069082379341125,-0.22784423828125
-0.1271114349365234,0.1970119029283523,0.1227829679846763,-0.4460723102092743,-0.1068325862288475,0.0915365293622016,0.0,0.0,0.3968253135681152,-0.6100370287895203
-0.1257164925336837,0.1875634491443634,0.1340764462947845,-0.4195526242256164,-0.1014546453952789,0.1075588315725326,0.0,0.0,-0.2681297063827514,-0.3894604444503784
-0.1242795959115028,0.1777135878801345,0.1388011425733566,-0.4374479651451111,-0.0966017246246337,0.0970583111047744,0.0,0.0,0.7501553297042847,-0.799235999584198
-0.1229418739676475,0.1684712767601013,0.1280723959207534,-0.4104116559028625,-0.0909480676054954,0.1130726784467697,0.0,0.0,-0.1529102325439453,-0.7774491310119629
-0.1216361969709396,0.1588357836008072,0.1234850883483886,-0.427830159664154,-0.0839240178465843,0.140481024980545,0.0,0.0,0.43889319896698,-0.558743417263031
-0.1203109771013259,0.1495407372713089,0.1248554736375808,-0.4127038717269897,-0.0763330608606338,0.1518192887306213,0.0,0.0,0.1869679689407348,0.4239283800125122
-0.1188950538635253,0.1404154449701309,0.1343249082565307,-0.4052149951457977,-0.0691447257995605,0.1437666267156601,0.0,0.0,0.1099509000778198,-0.5503426790237427
-0.1173662170767784,0.1312398463487625,0.144826129078865,-0.4074542820453644,-0.0611714869737625,0.1594647616147995,0.0,0.0,0.8460841178894043,-0.6234113574028015
-0.1156798377633094,0.1228035539388656,0.159481331706047,-0.3745979964733124,-0.0521196722984313,0.1810362786054611,0.0,0.0,0.2810440063476562,-0.2161917686462402
-0.113898180425167,0.1149015501141548,0.1693847626447677,-0.3509193658828735,-0.0434307530522346,0.1737782210111618,0.0,0.0,-0.162526786327362,-0.1074410676956176
