x_pos,y_pos,x_vel,y_vel,angle,ang_vel,leg_1,leg_2,main_booster,lat_booster
-0.0015525817871093,1.403488278388977,-0.1577526777982711,-0.3303009867668152,0.0022408282384276,0.0442374572157859,0.0,0.0,0.6474549611665674,-0.8186360606977581
-0.0031468390952795,1.3966296911239624,-0.1638495475053787,-0.3048401772975921,0.00661764992401,0.0875453725457191,0.0,0.0,-0.6143231832677323,-0.9418326874696652
-0.004836750216782,1.3896273374557495,-0.1753583550453186,-0.311257541179657,0.0129205016419291,0.1260687410831451,0.0,0.0,0.0835316725122563,0.6343225136940308
-0.0066111562773585,1.3829779624938965,-0.1829104721546173,-0.2955809831619262,0.018331304192543,0.1082259565591812,0.0,0.0,-0.9063237476729532,-0.752904785159952
-0.0084783555939793,1.3761942386627195,-0.1938872039318084,-0.3016049563884735,0.0254180580377578,0.1417481303215026,0.0,0.0,0.4626145953487,0.7949560353087677
-0.0102097513154149,1.370002508163452,-0.1794581413269043,-0.2753061950206756,0.0316691547632217,0.1250334680080413,0.0,0.0,-0.5392460297157589,-0.9907652148401512
-0.0120759010314941,1.3636717796325684,-0.1955180466175079,-0.2815809547901153,0.0404834635555744,0.1763024181127548,0.0,0.0,-0.6937746627487198,-0.8980911198311542
-0.0140526769682765,1.357205867767334,-0.2084842175245285,-0.2876998484134674,0.0511729456484317,0.213809534907341,0.0,0.0,-0.0949634307533051,-0.700173805600183
-0.0161469466984272,1.3506094217300415,-0.2221975326538086,-0.2936635613441467,0.0638243854045867,0.2530518472194671,0.0,0.0,-0.0387190813691762,0.8894857054238339
-0.0182357784360647,1.3438912630081177,-0.2204362452030182,-0.2991097569465637,0.0752699524164199,0.228932499885559,0.0,0.0,-0.8328967064226531,-0.9245298313263656
-0.0204541198909282,1.33703351020813,-0.2355342358350753,-0.3055376708507538,0.0888558030128479,0.2717419564723968,0.0,0.0,0.3122315019409016,0.7025583478501745
-0.0226623527705669,1.3306838274002075,-0.2337745428085327,-0.2830345332622528,0.1017229780554771,0.257367193698883,0.0,0.0,-0.4429512302628322,-0.7065120320293147
-0.0249870307743549,1.3241980075836182,-0.2471092194318771,-0.2893200814723968,0.1162738502025604,0.2910438179969787,0.0,0.0,-0.2305050661025864,-0.7431885553781548
-0.0274383537471294,1.3175642490386963,-0.2616514265537262,-0.2962010502815246,0.1327268332242965,0.3290900290012359,0.0,0.0,-0.8387243941808946,0.7291367854063675
-0.0298982616513967,1.310820460319519,-0.2612693905830383,-0.3011630177497864,0.1479798406362533,0.3050879538059234,0.0,0.0,-0.8995165712445021,0.6726286752203775
-0.0323756225407123,1.3039504289627075,-0.2620138227939605,-0.3068154156208038,0.1622553616762161,0.2855364382266998,0.0,0.0,-0.0572007458507255,-0.8098519504500914
-0.0349852554500103,1.2969458103179932,-0.277042955160141,-0.3131455481052398,0.1783836036920547,0.3225942552089691,0.0,0.0,0.9738163946517028,-0.9744397374766786
-0.0376482978463172,1.2904930114746094,-0.2852187752723694,-0.2891771495342254,0.1974181085824966,0.3807248771190643,0.0,0.0,-0.9126956272090504,-0.6055136001784955
-0.0404380783438682,1.2839045524597168,-0.2994541525840759,-0.29568612575531,0.2180852890014648,0.4133806824684143,0.0,0.0,0.25463191202921,-0.8430743181731816
-0.043543241918087,1.2777724266052246,-0.3331033587455749,-0.2760371267795563,0.2410117238759994,0.4585703313350677,0.0,0.0,0.9442410325585792,0.7572476319339337
-0.0467352867126464,1.2728865146636963,-0.3411495089530945,-0.2209079563617706,0.263409823179245,0.4480026364326477,0.0,0.0,-0.8309188041140461,-0.7769092104348028
-0.0500768646597862,1.267845630645752,-0.3580935895442962,-0.2285298705101013,0.2879834473133087,0.4915168881416321,0.0,0.0,-0.4174924976316672,-0.6954939198137411
-0.0535540580749511,1.262659788131714,-0.3731400370597839,-0.2357168197631836,0.3142976760864258,0.5263325572013855,0.0,0.0,0.2385110059820174,-0.6860537399597986
-0.0571935661137104,1.257678508758545,-0.3911988139152527,-0.2275512367486953,0.3427341878414154,0.5687809586524963,0.0,0.0,0.9935685531935778,0.7778004752386622
-0.061309814453125,1.2536094188690186,-0.437288373708725,-0.1871876120567321,0.369792640209198,0.5412182211875916,0.0,0.0,0.2781756156721828,0.9736606492681472
-0.0657684355974197,1.25013267993927,-0.4699912071228027,-0.1609732508659362,0.3954472243785858,0.5130914449691772,0.0,0.0,0.6911124091074483,0.9107262097472208
-0.0705441460013389,1.2476091384887695,-0.5002918839454651,-0.1186780557036399,0.419862151145935,0.4882988929748535,0.0,0.0,-0.3858306356208503,-0.8343830493674113
-0.0754954367876052,1.244920253753662,-0.5201023817062378,-0.1271860301494598,0.4470178782939911,0.5431140065193176,0.0,0.0,0.5350542666597133,0.6584612491631786
-0.0809337645769119,1.2430331707000732,-0.5676006078720093,-0.0916825011372566,0.4731726050376892,0.5230947732925415,0.0,0.0,0.3688832887538118,0.6111347475341703
-0.0866324454545974,1.241579294204712,-0.5927112102508545,-0.0726471170783042,0.4986566007137298,0.5096803903579712,0.0,0.0,0.4164763577594796,-0.6634222414932932
-0.0928142517805099,1.2409394979476929,-0.6425180435180664,-0.037528857588768,0.5262020826339722,0.550909161567688,0.0,0.0,0.386022122179263,-0.6383478583288154
-0.0993893593549728,1.2405595779418943,-0.6830773949623108,-0.0270926617085933,0.5556221008300781,0.5884021520614624,0.0,0.0,-0.9554784339370992,-0.6750151258922653
-0.1061237305402755,1.2400165796279907,-0.7004736661911011,-0.0356774292886257,0.587310254573822,0.6337642669677734,0.0,0.0,-0.6254524897947917,-0.7753141695549195
-0.1130188927054405,1.2392929792404177,-0.7180407047271729,-0.0452395565807819,0.6214908957481384,0.6836133003234863,0.0,0.0,-0.5337516018433528,-0.6071573705876316
-0.1200613975524902,1.238412618637085,-0.7336214780807495,-0.0536364912986755,0.6575835347175598,0.7218538522720337,0.0,0.0,0.1354390119435087,0.6951853175311992
-0.1274804174900055,1.238098382949829,-0.7697908282279968,-0.0288035478442907,0.6927903294563293,0.7041376829147339,0.0,0.0,0.9656717260061448,0.6896138182723257
-0.1353398263454437,1.238306999206543,-0.8122793436050415,-0.0057700197212398,0.7270333170890808,0.6848600506782532,0.0,0.0,-0.9995112813801296,0.6409372734159687
-0.1432733535766601,1.238452434539795,-0.8182567358016968,-0.0087568406015634,0.760377824306488,0.6668907999992371,0.0,0.0,-0.5421250569187426,0.754343294205544
-0.1512830704450607,1.238539695739746,-0.82440185546875,-0.0114125907421112,0.7927489876747131,0.6474243998527527,0.0,0.0,-0.198343349382041,0.8978821860075069
-0.1593542098999023,1.2385841608047483,-0.8287478685379028,-0.0130778104066848,0.8236138820648193,0.6172980666160583,0.0,0.0,-0.8650729459281195,0.9938153738944192
-0.167498305439949,1.2385811805725098,-0.8344982862472534,-0.0149807091802358,0.8532178997993469,0.5920807719230652,0.0,0.0,-0.997715950012207,0.9995288848876952
-0.1756916940212249,1.238558053970337,-0.837377667427063,-0.0151539165526628,0.8806782960891724,0.5492085218429565,0.0,0.0,-0.998866856098175,0.9996607303619384
-0.1839334517717361,1.238506317138672,-0.8403361439704895,-0.0156465303152799,0.9060887694358826,0.5082100033760071,0.0,0.0,-0.9999853372573853,0.9994678497314452
-0.1922293603420257,1.2384333610534668,-0.8439630270004272,-0.0157336499541997,0.929405391216278,0.4663322865962982,0.0,0.0,-0.9920018315315248,0.9983642101287842
-0.2005858421325683,1.2383134365081787,-0.8486682176589966,-0.0172068793326616,0.9511687159538268,0.4352667927742004,0.0,0.0,-0.999611794948578,0.9973797798156738
-0.2089982479810714,1.2381607294082642,-0.8527790904045105,-0.0177721120417118,0.9710268378257751,0.397161990404129,0.0,0.0,-0.999263882637024,0.8364709615707397
-0.2174770385026931,1.2379652261734009,-0.8582048416137695,-0.0189386252313852,0.9893110394477844,0.3656836152076721,0.0,0.0,-0.9960798621177672,0.9977223873138428
-0.2260359227657318,1.2377251386642456,-0.865195631980896,-0.0202702451497316,1.0062397718429563,0.3385758101940155,0.0,0.0,-0.9998875856399536,0.9903390407562256
-0.234675794839859,1.237436056137085,-0.8723790049552917,-0.0218243468552827,1.0218967199325562,0.3131396174430847,0.0,0.0,-0.9997007846832277,0.9914748668670654
-0.2433829307556152,1.237109899520874,-0.8780166506767273,-0.0225620288401842,1.035851001739502,0.2790856957435608,0.0,0.0,-0.999791383743286,0.9964773654937744
-0.2521483302116394,1.2367757558822632,-0.8824674487113953,-0.0216037593781948,1.0474259853363037,0.2315025776624679,0.0,0.0,-0.9999197721481324,0.9922337532043456
-0.2609890103340149,1.2364037036895752,-0.8890751600265503,-0.0223790369927883,1.0573995113372805,0.1994699090719223,0.0,0.0,-0.9999658465385436,0.9744508266448976
-0.2698882520198822,1.236013650894165,-0.8937700986862183,-0.0219176039099693,1.06517231464386,0.1554569900035858,0.0,0.0,-0.9905006885528564,0.9958047866821288
-0.2788600921630859,1.2355977296829224,-0.9000654220581055,-0.021981431171298,1.0710697174072266,0.1179488450288772,0.0,0.0,-0.991889715194702,0.9847028255462646
-0.2878883481025696,1.2351722717285156,-0.9045135378837584,-0.0209757313132286,1.074557185173035,0.0697488337755203,0.0,0.0,-0.976948380470276,0.9837765693664552
-0.2969865202903747,1.234697341918945,-0.9107982516288756,-0.022313168272376,1.0765856504440308,0.040568508207798,0.0,0.0,-0.9825047254562378,0.8658411502838135
-0.306155264377594,1.2341958284378052,-0.916927695274353,-0.0223668608814477,1.0767120122909546,0.0025281507987529,0.0,0.0,-0.9987589120864868,0.8887951374053955
-0.3153877854347229,1.2336745262145996,-0.9222921133041382,-0.0219758562743663,1.0747153759002686,-0.0399325564503669,0.0,0.0,-0.9977815747261048,0.8770358562469482
-0.3246903419494629,1.2331254482269287,-0.928376853466034,-0.0220995917916297,1.0708352327346802,-0.0776022002100944,0.0,0.0,-0.9997206330299376,0.8470072746276855
-0.3340697884559631,1.2325230836868286,-0.9354175329208374,-0.0237055253237485,1.0656558275222778,-0.1035886406898498,0.0,0.0,-0.9419644474983216,0.946237325668335
-0.343505322933197,1.2318885326385498,-0.9400331377983092,-0.0239897016435861,1.058507800102234,-0.1429608166217804,0.0,0.0,-0.9931169748306274,0.9470490217208862
-0.3530122339725494,1.2312039136886597,-0.9464065432548524,-0.0253890119493007,1.0499317646026611,-0.1715210378170013,0.0,0.0,-0.9934791326522828,0.9671612977981568
-0.3625708222389221,1.2305026054382324,-0.9503182172775269,-0.0248021204024553,1.0390357971191406,-0.2179195880889892,0.0,0.0,-0.9966078996658324,0.9934548139572144
-0.3721868097782135,1.2297730445861816,-0.9549036026000975,-0.0249350853264331,1.0261269807815552,-0.2581794559955597,0.0,0.0,-0.9981011748313904,0.964417576789856
-0.3818557262420654,1.229005217552185,-0.959047794342041,-0.0256290007382631,1.011346697807312,-0.2956061363220215,0.0,0.0,-0.9971887469291688,0.9893679618835448
-0.3915878236293793,1.2281835079193115,-0.9643898010253906,-0.0272731967270374,0.9951313734054564,-0.3243071734905243,0.0,0.0,-0.986104130744934,0.9627730846405028
-0.4013786911964416,1.2273337841033936,-0.9689393043518066,-0.0275270398706197,0.9769611358642578,-0.3634046018123626,0.0,0.0,-0.9907187223434448,-0.3098737001419067
-0.4112618863582611,1.226354718208313,-0.9781357049942015,-0.0336194634437561,0.9591963291168212,-0.355295866727829,0.0,0.0,-0.998468279838562,0.9893152713775636
-0.4211975038051605,1.2253494262695312,-0.981895625591278,-0.0337888225913047,0.939386248588562,-0.396201342344284,0.0,0.0,-0.9996482729911804,0.9870970249176024
-0.4311835765838623,1.224289894104004,-0.9856635332107544,-0.0355264730751514,0.9180256128311156,-0.4272123277187347,0.0,0.0,-0.9977010488510132,0.1263874769210815
-0.4412583410739898,1.2231018543243408,-0.9944065809249878,-0.0416231639683246,0.8970378041267395,-0.4197566509246826,0.0,0.0,-0.997939109802246,0.70421302318573
-0.451385885477066,1.2218525409698486,-0.9984568357467652,-0.0438365750014781,0.8746991157531738,-0.4467738270759582,0.0,0.0,-0.9967989325523376,0.4244077205657959
-0.4615991711616516,1.2204749584197998,-1.0068730115890503,-0.0499345026910305,0.8527103066444397,-0.4397760331630707,0.0,0.0,-0.9960153698921204,0.2685099840164184
-0.4718962609767914,1.218968391418457,-1.0151209831237793,-0.0560311302542686,0.8310595750808716,-0.4330149590969085,0.0,0.0,-0.986988127231598,0.9961681365966796
-0.4822231829166412,1.2174084186553955,-1.0164947509765625,-0.0577451139688491,0.8076088428497314,-0.4690159261226654,0.0,0.0,-0.953503668308258,0.8212963342666626
-0.4925783574581146,1.21579110622406,-1.0176666975021362,-0.0597243793308734,0.7824190258979797,-0.503796398639679,0.0,0.0,-0.9981348514556884,0.9978768825531006
-0.502956748008728,1.2141168117523191,-1.018210768699646,-0.0617156513035297,0.7554218173027039,-0.5399442911148071,0.0,0.0,-0.9938358068466188,0.0002462863922119
-0.5134128928184509,1.2123160362243652,-1.025702953338623,-0.0678251832723617,0.7287147641181946,-0.5341407656669617,0.0,0.0,-0.998799741268158,0.3828705549240112
-0.5239447355270386,1.2103887796401978,-1.0330008268356323,-0.073933720588684,0.7022855281829834,-0.5285850763320923,0.0,0.0,-0.9978554844856262,0.2481341361999511
-0.534550130367279,1.2083345651626587,-1.0400997400283811,-0.0800412520766258,0.6761215329170227,-0.5232788324356079,0.0,0.0,-0.9933345913887024,-0.0796878337860107
-0.5452267527580261,1.2061535120010376,-1.0469948053359983,-0.0861477628350257,0.6502103805541992,-0.5182234048843384,0.0,0.0,-0.9950946569442748,0.9084055423736572
-0.5559163093566895,1.2039203643798828,-1.046327829360962,-0.0880716815590858,0.622410774230957,-0.5559922456741333,0.0,0.0,-0.9891844391822816,-0.921684980392456
-0.5667406320571899,1.201487421989441,-1.0614984035491943,-0.0983518585562706,0.5971731543540955,-0.5047529935836792,0.0,0.0,-0.9879417419433594,0.9165157079696656
-0.5775777101516724,1.19898521900177,-1.061047077178955,-0.1012049093842506,0.5703487992286682,-0.5364876985549927,0.0,0.0,-0.9832594990730286,0.9083805084228516
-0.5884208679199219,1.1964168548583984,-1.059791922569275,-0.1039508581161499,0.541812539100647,-0.5707254409790039,0.0,0.0,-0.968636155128479,0.4432436227798462
-0.5993247628211975,1.19372296333313,-1.0655992031097412,-0.1100660860538482,0.5134671926498413,-0.5669063925743103,0.0,0.0,-0.968662440776825,-0.9714438319206238
-0.6103468537330627,1.190840721130371,-1.078956127166748,-0.1195914298295974,0.4872897267341614,-0.5235493779182434,0.0,0.0,-0.9749035239219666,0.603888988494873
-0.6213749051094055,1.1878662109375,-1.0780599117279053,-0.1237078383564949,0.4598188698291778,-0.5494169592857361,0.0,0.0,-0.9668762683868408,0.3091459274291992
-0.6324563026428223,1.1847655773162842,-1.0831936597824097,-0.1298189014196396,0.4325026571750641,-0.5463241338729858,0.0,0.0,-0.947998821735382,-0.8741894364356995
-0.6436343193054199,1.1814992427825928,-1.093977451324463,-0.1380667388439178,0.4067367315292358,-0.5153186321258545,0.0,0.0,-0.8388371467590332,-0.8755229115486145
-0.6549258232116699,1.1780693531036377,-1.1068940162658691,-0.1462274342775344,0.3829238414764404,-0.4762580990791321,0.0,0.0,-0.7001140713691711,-0.6536495089530945
-0.6663092374801636,1.1744880676269531,-1.11719012260437,-0.1536546200513839,0.3605029881000519,-0.4484170079231262,0.0,0.0,-0.6256967782974243,0.6878585815429688
-0.6776754260063171,1.170814871788025,-1.1137607097625732,-0.157698392868042,0.3364824056625366,-0.480412483215332,0.0,0.0,-0.4499149322509765,-0.2438785433769226
-0.6890826225280762,1.167013168334961,-1.1177595853805542,-0.163795605301857,0.3125598132610321,-0.4784519076347351,0.0,0.0,-0.2220100164413452,0.710207462310791
-0.7004796266555786,1.163104772567749,-1.115360975265503,-0.1686577796936035,0.2874056100845337,-0.5030844211578369,0.0,0.0,0.1287850141525268,0.5908434391021729
-0.7119752168655396,1.159970998764038,-1.124039888381958,-0.1344642341136932,0.2612208127975464,-0.5236960649490356,0.0,0.0,0.3664062023162842,0.7244548797607422
-0.7235924005508423,1.1574063301086426,-1.134603500366211,-0.1093900576233863,0.2336059063673019,-0.5522984266281128,0.0,0.0,0.458580732345581,0.9831247329711914
-0.7354528903961182,1.1557332277297974,-1.1567449569702148,-0.0699845626950264,0.2039617300033569,-0.5928842425346375,0.0,0.0,0.3352577686309814,0.6705543994903564
-0.7473300695419312,1.1548075675964355,-1.1570627689361572,-0.0372033454477787,0.173148050904274,-0.6162740588188171,0.0,0.0,0.12436044216156,0.9917712211608888
-0.7592896223068237,1.1545298099517822,-1.1631886959075928,-0.0088537484407424,0.1403927206993103,-0.6551073789596558,0.0,0.0,0.3743829727172851,0.1482871770858764
-0.771430253982544,1.1550408601760864,-1.180859088897705,0.0255147870630025,0.1073539331555366,-0.6607762575149536,0.0,0.0,0.0097194910049438,0.9840632677078248
-0.7835677862167358,1.1558914184570312,-1.178480625152588,0.039968192577362,0.0723914131522178,-0.6992511749267578,0.0,0.0,-0.0755369067192077,0.7851346731185913
-0.7956767082214355,1.1566290855407717,-1.1742770671844482,0.0341548398137092,0.0361884757876396,-0.7240593433380127,0.0,0.0,-0.3776137232780456,0.9192721843719482
-0.8077501654624939,1.1572495698928833,-1.1693012714385986,0.0280690975487232,-0.0013719488633796,-0.7512092590332031,0.0,0.0,-0.6584509611129761,0.9902020692825316
-0.8197482228279114,1.1577595472335815,-1.159427285194397,0.0221512839198112,-0.0412398166954517,-0.7973581552505493,0.0,0.0,-0.1542370319366455,0.6505866050720215
-0.8317041993141174,1.1581461429595947,-1.1538439989089966,0.0155206201598048,-0.0825316905975341,-0.8258383870124817,0.0,0.0,-0.5787015557289124,0.7140809297561646
-0.8436020016670227,1.158416986465454,-1.146390438079834,0.0090906713157892,-0.1255889981985092,-0.8611472845077515,0.0,0.0,-0.6236834526062012,-0.1243631839752197
-0.8555095195770264,1.158576488494873,-1.147578477859497,0.0028864566702395,-0.1686521768569946,-0.8612644076347351,0.0,0.0,-0.6602376699447632,0.7183420658111572
-0.8673539757728577,1.1586157083511353,-1.1398204565048218,-0.003939255606383,-0.2135008573532104,-0.8969749212265015,0.0,0.0,-0.7119083404541016,0.5112549066543579
-0.8791586756706238,1.1585313081741333,-1.13512122631073,-0.0109610520303249,-0.2595219910144806,-0.9204241037368774,0.0,0.0,-0.5511912107467651,0.8760476112365723
-0.8908979296684265,1.1583213806152344,-1.12742018699646,-0.018278008326888,-0.3073028028011322,-0.9556173086166382,0.0,0.0,-0.5206960439682007,0.537806510925293
-0.9025911688804626,1.157988429069519,-1.122355580329895,-0.0254977699369192,-0.3563025891780853,-0.9799973368644714,0.0,0.0,-0.5068715810775757,0.3528727293014526
-0.91428142786026,1.1575493812561035,-1.1228787899017334,-0.0317387469112873,-0.4053221642971039,-0.980392575263977,0.0,0.0,-0.3878830671310425,0.3986773490905761
-0.925966501235962,1.1570038795471191,-1.123291254043579,-0.0379766374826431,-0.4543632268905639,-0.9808224439620972,0.0,0.0,-0.4124929904937744,0.2793253660202026
-0.9376441836357116,1.15635085105896,-1.1236011981964111,-0.0442109927535057,-0.5034269690513611,-0.9812763333320618,0.0,0.0,-0.2654889822006225,-0.3880735635757446
-0.9493125081062316,1.1555900573730469,-1.1238163709640503,-0.0504413433372974,-0.5525140762329102,-0.9817436933517456,0.0,0.0,0.2823677062988281,-0.3867651224136352
-0.9607351422309875,1.1552332639694214,-1.1005778312683103,-0.0338433608412742,-0.6015317440032959,-0.9803544282913208,0.0,0.0,0.0114214420318603,-0.0612452030181884
-0.971954345703125,1.15497088432312,-1.0818862915039062,-0.0308388248085975,-0.6502032279968262,-0.9734309315681458,0.0,0.0,0.3608368635177612,0.1603404283523559
-0.9827542304992676,1.155197262763977,-1.041676640510559,-0.0102536818012595,-0.6985263824462891,-0.9664652943611144,0.0,0.0,0.2266072034835815,-0.95728862285614
-0.9931896328926086,1.156055569648743,-1.0083191394805908,0.0175856221467256,-0.7447445392608643,-0.924363911151886,0.0,0.0,-0.5535811185836792,-0.8793326616287231
-1.0036585330963137,1.1568526029586792,-1.0143587589263916,0.0146185336634516,-0.789246678352356,-0.8900436162948608,0.0,0.0,-0.5535811185836792,-0.8793326616287231
