x_pos,y_pos,x_vel,y_vel,angle,ang_vel,leg_1,leg_2,main_booster,lat_booster
-0.0014662742614746,1.4033334255218506,-0.1485466659069061,-0.337180882692337,0.0017099080141633,0.0337259955704212,0.0,0.0,-0.5114823579788208,0.5369889736175537
-0.0028286934830248,1.3954766988754272,-0.1367359161376953,-0.3491933047771454,0.0021984798368066,0.0097729479894042,0.0,0.0,-0.1183429956436157,0.6945908069610596
-0.0040655136108398,1.3873236179351809,-0.1224515438079834,-0.3623593151569366,0.0009839024860411,-0.024293940514326,0.0,0.0,-0.0743765234947204,0.6298346519470215
-0.0052030561491847,1.3788776397705078,-0.1114823594689369,-0.3753812909126282,-0.0012565411161631,-0.0448130443692207,0.0,0.0,-0.2414349317550659,0.4375010728836059
-0.0062805176712572,1.370140552520752,-0.1054463014006614,-0.3883121311664581,-0.0035237970296293,-0.0453495606780052,0.0,0.0,-0.1404904723167419,-0.0272643566131591
-0.0072974204085767,1.3611129522323608,-0.0993634611368179,-0.4012427031993866,-0.0058189257979393,-0.0459067821502685,0.0,0.0,-0.2788287997245788,0.0567121505737304
-0.00825338345021,1.3517941236495972,-0.0932382121682167,-0.414173424243927,-0.008142365142703,-0.0464733615517616,0.0,0.0,-0.7012501358985901,0.6691639423370361
-0.0090821264311671,1.3421859741210938,-0.0788290798664093,-0.4270626306533813,-0.0121477646753191,-0.080115795135498,0.0,0.0,-0.3144146203994751,-0.5161663293838501
-0.0098905563354492,1.3322932720184326,-0.0778224840760231,-0.4397028982639313,-0.0151389511302113,-0.0598288588225841,0.0,0.0,-0.6416563987731934,-0.7657231688499451
-0.0106974598020315,1.322115778923035,-0.0791640505194664,-0.4523454308509826,-0.0166419893503189,-0.0300634708255529,0.0,0.0,-0.7496033310890198,0.6168129444122314
-0.011386489495635,1.311646580696106,-0.0659443885087966,-0.4653341174125671,-0.0195735488086938,-0.0586368255317211,0.0,0.0,-0.4119235873222351,-0.5767285227775574
-0.0120532987639307,1.3008863925933838,-0.0646999478340148,-0.478252500295639,-0.021526712924242,-0.0390665270388126,0.0,0.0,-0.5198933482170105,0.2731465101242065
-0.0126574514433741,1.2898355722427368,-0.05840515345335,-0.4911834299564361,-0.0235129203647375,-0.0397280305624008,0.0,0.0,-0.826945960521698,-0.6630049347877502
-0.0132451057434082,1.278489112854004,-0.0579106621444225,-0.5042979121208191,-0.0243680551648139,-0.017104173079133,0.0,0.0,-0.5580606460571289,-0.9263998866081238
-0.0138257984071969,1.2668635845184326,-0.0585965104401111,-0.516688883304596,-0.0238487310707569,0.0103873861953616,0.0,0.0,-0.87155681848526,-0.9124306440353394
-0.0144026754423975,1.2549382448196411,-0.059676706790924,-0.5299790501594543,-0.0218838416039943,0.0393012277781963,0.0,0.0,-0.5355772376060486,-0.5074512958526611
-0.0149475093930959,1.2427290678024292,-0.0572166070342063,-0.5425910353660583,-0.0191771443933248,0.0541387982666492,0.0,0.0,-0.5958622694015503,-0.304520845413208
-0.0154293058440089,1.230229139328003,-0.050888568162918,-0.5555225014686584,-0.016506340354681,0.0534210614860057,0.0,0.0,-0.7338273525238037,-0.5886719226837158
-0.0158872604370117,1.217444896697998,-0.0494465231895446,-0.5681529641151428,-0.0128909582272171,0.0723138973116874,0.0,0.0,-0.5041412711143494,0.2117114067077636
-0.0162823684513568,1.2043697834014893,-0.0431246012449264,-0.5810848474502563,-0.0093129901215434,0.0715658292174339,0.0,0.0,-0.609326183795929,0.1851595640182495
-0.0166147239506244,1.191003918647766,-0.0368084609508514,-0.5940166711807251,-0.0057722432538867,0.0708211213350296,0.0,0.0,-0.8184413909912109,0.2739384174346924
-0.0168843269348144,1.1773474216461182,-0.0305014047771692,-0.6069484949111938,-0.0022693814244121,0.070063441991806,0.0,0.0,-0.7804800271987915,0.2222070693969726
-0.0170913692563772,1.1634000539779663,-0.0242063961923122,-0.6198804974555969,0.0011952004861086,0.0692978426814079,0.0,0.0,-0.8522956371307373,-0.2869056463241577
-0.0172360427677631,1.1491619348526,-0.0179263576865196,-0.6328124403953552,0.0046211378648877,0.0685245245695114,0.0,0.0,-0.744687557220459,-0.0831208229064941
-0.0173184387385845,1.13463294506073,-0.0116642285138368,-0.6457443833351135,0.0080080265179276,0.0677437037229538,0.0,0.0,-0.8208916187286377,0.496755838394165
-0.0173386577516794,1.1197917461395264,-0.0054110256023705,-0.6596300601959229,0.0113557986915111,0.0669554322957992,0.0,0.0,-0.6966835260391235,0.6377277374267578
-0.0172462463378906,1.1046645641326904,0.0071849697269499,-0.6723345518112183,0.0133883245289325,0.0406504273414611,0.0,0.0,-0.6042090058326721,-0.2146438956260681
-0.017092227935791,1.0892465114593506,0.0133845387026667,-0.6852636337280273,0.0153821846470236,0.0398773439228534,0.0,0.0,-0.7111472487449646,-0.2904608249664306
-0.0168768875300884,1.073537826538086,0.0195539686828851,-0.6981926560401917,0.0173375774174928,0.0391076989471912,0.0,0.0,-0.8922008872032166,0.0129580497741699
-0.0166006088256835,1.0575379133224487,0.0256902165710926,-0.7111217379570007,0.0192546751350164,0.038341898471117,0.0,0.0,-0.2839548587799072,0.5686067342758179
-0.0162173267453908,1.0412551164627075,0.0376026183366775,-0.7236911654472351,0.019967246800661,0.0142516791820526,0.0,0.0,-0.6451514363288879,0.0137758255004882
-0.0157738681882619,1.0246813297271729,0.0436632707715034,-0.7366199493408203,0.0206419806927442,0.0134947123005986,0.0,0.0,-0.7254652976989746,-0.4769232273101806
-0.015270709991455,1.0078167915344238,0.0496814548969268,-0.7495487332344055,0.0212791226804256,0.0127426637336611,0.0,0.0,-0.787263035774231,-0.2976754903793335
-0.0147080421447753,0.9906612634658812,0.0556540004909038,-0.762477457523346,0.0218789093196392,0.0119958231225609,0.0,0.0,0.0162940025329589,-0.0403523445129394
-0.0140850069001317,0.9737938046455384,0.0616883039474487,-0.7496764063835144,0.0224879197776317,0.0121801048517227,0.0,0.0,-0.4788711071014404,-0.0522583723068237
-0.013403701595962,0.9566354155540466,0.0675599128007888,-0.7626051306724548,0.0230601765215396,0.0114448945969343,0.0,0.0,-0.5635823607444763,-0.0614520907402038
-0.0126645090058445,0.9391860365867616,0.0733761489391326,-0.77553391456604,0.0235959682613611,0.0107159707695245,0.0,0.0,-0.0870048403739929,0.1245179176330566
-0.0118680950254201,0.9214459657669068,0.0791337117552757,-0.7884626388549805,0.0240956582129001,0.0099936444312334,0.0,0.0,-0.6051015853881836,-0.2590041160583496
-0.0110150333493947,0.903414785861969,0.0848292559385299,-0.8013914227485657,0.0245595797896385,0.0092783626168966,0.0,0.0,-0.7181150317192078,0.2576124668121338
-0.0101061817258596,0.8850927948951721,0.090459406375885,-0.8143201470375061,0.0249881017953157,0.0085703898221254,0.0,0.0,-0.6660379767417908,-0.2868690490722656
-0.0091419219970703,0.8664798140525818,0.0960207432508468,-0.8272488117218018,0.0253815967589616,0.0078700641170144,0.0,0.0,-0.3844785690307617,0.464116096496582
-0.0081232069060206,0.8475760817527771,0.1015098541975021,-0.840177595615387,0.0257404949516057,0.0071777165867388,0.0,0.0,-0.6528311967849731,-0.0063390135765075
-0.0070506096817553,0.8283812999725342,0.1069233268499374,-0.8531062602996826,0.0260651800781488,0.0064938007853925,0.0,0.0,-0.5059524178504944,-0.3843591213226318
-0.005925178527832,0.8088955879211426,0.1122576966881752,-0.8660349249839783,0.0263560935854911,0.0058184629306197,0.0,0.0,-0.0079684853553771,0.4782695770263672
-0.0047473907470703,0.7891189455986023,0.1175095066428184,-0.8789637088775635,0.0266136918216943,0.0051520327106118,0.0,0.0,-0.3814729452133178,-0.4748682975769043
-0.0035183907020837,0.7690514326095581,0.1226753443479538,-0.8918924331665039,0.0268384367227554,0.0044949650764465,0.0,0.0,0.0652841329574585,-0.7540633678436279
-0.0022608756553381,0.7491204142570496,0.124008260667324,-0.8858546614646912,0.0285609550774097,0.0344503745436668,0.0,0.0,-0.1883136630058288,-0.6078413724899292
-0.0010110854636877,0.7289026975631714,0.1218207627534866,-0.8986299633979797,0.031685471534729,0.0624902322888374,0.0,0.0,0.1500982046127319,-0.4417017698287964
0.0001776695280568,0.7092122435569763,0.1161734089255333,-0.8751870393753052,0.0343513488769531,0.0533175468444824,0.0,0.0,0.2810238599777221,0.1305741071701049
0.0013840675819665,0.6898215413093567,0.1180452927947044,-0.8618754148483276,0.0369104333221912,0.051181923598051,0.0,0.0,-0.1307627558708191,-0.637139618396759
0.0025985718239098,0.6701375842094421,0.1179151907563209,-0.874930739402771,0.040404736995697,0.0698860213160514,0.0,0.0,0.8570802211761475,0.2341681718826294
0.0037605285178869,0.6514002680778503,0.1129889115691185,-0.8328660130500793,0.0435698479413986,0.0633024126291275,0.0,0.0,0.1602818965911865,0.0110652446746826
0.0050299642607569,0.632844865322113,0.1234118491411209,-0.8247881531715393,0.0470609329640865,0.0698216781020164,0.0,0.0,-0.109047532081604,0.0077031850814819
0.006342792417854,0.6139987111091614,0.1277710944414138,-0.8377178907394409,0.0505234226584434,0.0692498534917831,0.0,0.0,0.7318499088287354,-0.4229258298873901
0.0078278537839651,0.5956394672393799,0.1443048268556594,-0.8161165714263916,0.0546804293990135,0.0831403359770774,0.0,0.0,-0.0297772884368896,-0.5576404333114624
0.0093029020354151,0.576982855796814,0.1420352905988693,-0.8293906450271606,0.060096401721239,0.1083189845085144,0.0,0.0,0.7930667400360107,-0.0985140800476074
0.01086769066751,0.5593400597572327,0.150559052824974,-0.7843712568283081,0.065957561135292,0.1172231286764144,0.0,0.0,0.0037091970443725,-0.4422608613967895
0.012527847662568,0.542028546333313,0.1597196459770202,-0.7696950435638428,0.0721804201602935,0.1244573146104812,0.0,0.0,-0.0915089845657348,-0.2535918951034546
0.0142251970246434,0.5244265198707581,0.1634813547134399,-0.7826268672943115,0.0783778503537178,0.123948335647583,0.0,0.0,0.0600764751434326,0.377649188041687
0.0158705711364746,0.5072822570800781,0.1585272848606109,-0.7622919678688049,0.0843244194984436,0.118931233882904,0.0,0.0,-0.18896484375,-0.2480517625808715
0.0175507552921772,0.4898476302623749,0.1620349287986755,-0.7752234935760498,0.0902468785643577,0.1184495463967323,0.0,0.0,0.4716396331787109,-0.0731722712516784
0.0191191677004098,0.4730437695980072,0.1513054072856903,-0.7471826672554016,0.0957327708601951,0.1097181886434555,0.0,0.0,0.2666432857513428,-0.1995620131492614
0.0207761768251657,0.456555038690567,0.1597483903169632,-0.7332260608673096,0.1016340404748916,0.1180253252387046,0.0,0.0,0.508525013923645,0.333601713180542
0.0224286075681448,0.4406142234802246,0.1592280864715576,-0.7089000344276428,0.1076128780841827,0.1195766180753707,0.0,0.0,0.3211519718170166,0.6103613376617432
0.0241315849125385,0.4248653650283813,0.1654989123344421,-0.7003025412559509,0.1123678758740425,0.0951001793146133,0.0,0.0,-0.1509166359901428,0.3234453201293945
0.025862693786621,0.4088258147239685,0.1683491617441177,-0.7132328748703003,0.1171023920178413,0.0946906059980392,0.0,0.0,0.6807570457458496,-0.2745759487152099
0.0275407787412405,0.3937965035438537,0.1629644334316253,-0.6683563590049744,0.1219181567430496,0.0963153764605522,0.0,0.0,0.3049170970916748,0.630242109298706
0.0293375961482524,0.3788351416587829,0.175993263721466,-0.6652565598487854,0.1255884617567062,0.0734060555696487,0.0,0.0,0.4967844486236572,-0.4184070229530334
0.0310861580073833,0.3647385239601135,0.1710747927427292,-0.6268365979194641,0.1293538063764572,0.0753064900636673,0.0,0.0,0.4723912477493286,-0.3985027074813843
0.0327201858162879,0.3509625494480133,0.1600258648395538,-0.6125648021697998,0.1327136754989624,0.0671973973512649,0.0,0.0,0.3986299037933349,0.073201298713684
0.0342229828238487,0.3377325534820556,0.1472854763269424,-0.588269054889679,0.1356972306966781,0.0596707165241241,0.0,0.0,0.0746403932571411,0.2312009334564209
0.0357112884521484,0.3248174488544464,0.1457570344209671,-0.5742868185043335,0.1387573480606079,0.0612026154994964,0.0,0.0,0.0258384943008422,-0.4085193276405334
0.0370669364929199,0.3123739957809448,0.1328833252191543,-0.5532960295677185,0.1414322406053543,0.0534978285431861,0.0,0.0,0.0416407585144043,-0.042572021484375
0.0384349822998046,0.3001902103424072,0.1339247971773147,-0.5417801141738892,0.1443068981170654,0.0574932321906089,0.0,0.0,-0.0655165314674377,-0.150343656539917
0.0398197174072265,0.2877154946327209,0.1356006264686584,-0.5547094345092773,0.147167831659317,0.057218562811613,0.0,0.0,0.4691801071166992,0.2697274684906006
0.0412372574210166,0.2753922045230865,0.1386172026395797,-0.5480121970176697,0.1502954661846161,0.0625530555844307,0.0,0.0,0.6375861167907715,-0.5145236253738403
0.0425457954406738,0.2632555365562439,0.1267953217029571,-0.539825439453125,0.1543519049882888,0.0811284556984901,0.0,0.0,0.6083048582077026,0.090274691581726
0.0437405593693256,0.2519707381725311,0.1154745370149612,-0.5019700527191162,0.1583590507507324,0.080142930150032,0.0,0.0,0.9181536436080932,-0.1853374242782592
0.0448897369205951,0.2418201118707656,0.1104882583022117,-0.451616883277893,0.1627851575613021,0.0885222256183624,0.0,0.0,0.8685712814331055,0.7433873414993286
0.0458209998905658,0.2327351421117782,0.0905085951089859,-0.4040646255016327,0.1653983443975448,0.0522640533745288,0.0,0.0,0.8936313390731812,-0.5311601758003235
0.046503446996212,0.2238664031028747,0.0650357156991958,-0.3945249021053314,0.1686115562915802,0.0642641335725784,0.0,0.0,0.7966197729110718,0.5082087516784668
0.0471352562308311,0.2160043865442276,0.0608687698841095,-0.3496890664100647,0.1709297001361847,0.0463629439473152,0.0,0.0,0.9694232940673828,0.3340370655059814
0.0475391373038291,0.2088346630334854,0.0386306643486022,-0.3188543915748596,0.1726807653903961,0.0350217372179031,0.0,0.0,0.902205228805542,-0.2250480651855468
0.0477532371878623,0.2025110125541687,0.0199741851538419,-0.2812183797359466,0.174132227897644,0.0290289130061864,0.0,0.0,0.8585836887359619,0.3887964487075805
0.047823715955019,0.1970551759004593,0.0056682275608181,-0.2426448762416839,0.175514280796051,0.0276408251374959,0.0,0.0,-0.0769680738449096,0.7909837961196899
0.0479695312678813,0.1913273483514785,0.0150164142251014,-0.2545205056667328,0.1750744432210922,-0.0087967198342084,0.0,0.0,0.8116135597229004,-0.0649503469467163
0.0480795875191688,0.1858697980642318,0.0113291274756193,-0.2425208538770675,0.1747487634420395,-0.0065132975578308,0.0,0.0,0.7812492847442627,-0.6303918957710266
0.0481749549508094,0.1807731688022613,0.0083382446318864,-0.2266605198383331,0.1759519726037979,0.0240642447024583,0.0,0.0,0.810112714767456,-0.3827685117721557
0.0483220107853412,0.1763518899679184,0.0127696124836802,-0.1967300921678543,0.1778957545757293,0.0388756096363067,0.0,0.0,0.4584605693817138,0.0297104120254516
0.048530388623476,0.1721864491701126,0.0183370616286993,-0.1854309886693954,0.1804041564464569,0.0501680001616478,0.0,0.0,0.026568055152893,0.1883231401443481
0.0486526489257812,0.1684181243181228,0.0097491703927516,-0.1677849441766739,0.1828920394182205,0.0497572869062423,0.0,0.0,0.0688626766204834,0.0415821075439453
0.0487058646976947,0.1650882512331009,0.0027564282063394,-0.1483115702867508,0.1854686588048935,0.0515324585139751,0.0,0.0,0.1202368736267089,0.2776135206222534
0.0487586967647075,0.1621577888727188,0.0023259569425135,-0.1306143701076507,0.1884323954582214,0.0592749342322349,0.0,0.0,-0.757647693157196,-0.0634992122650146
0.0488107688724994,0.1589365601539611,0.0022722496651113,-0.1435437947511673,0.1913929879665374,0.0592118017375469,0.0,0.0,-0.5704166889190674,0.1389589309692382
0.0488619804382324,0.1554245054721832,0.0021715417969971,-0.1564732491970062,0.1943507045507431,0.0591544620692729,0.0,0.0,-0.3601198196411133,-0.190784752368927
0.0489116683602333,0.1516217142343521,0.0020287870429456,-0.1694027334451675,0.197305828332901,0.0591023452579975,0.0,0.0,-0.1557486057281494,0.4615236520767212
0.048959445208311,0.1475280821323394,0.0018489618087187,-0.1823321878910064,0.2002585679292678,0.0590547919273376,0.0,0.0,-0.1017716526985168,0.0649067163467407
0.0490051284432411,0.1431437134742736,0.0016370601952075,-0.1952616423368454,0.2032091468572616,0.0590111389756202,0.0,0.0,-0.2890934944152832,-0.0550237894058227
0.0490484237670898,0.1384685188531875,0.0013980835210531,-0.2081910967826843,0.2061576694250106,0.0589707866311073,0.0,0.0,0.4648036956787109,-0.0749855637550354
0.0489063262939453,0.1344646513462066,-0.0169058144092559,-0.178330048918724,0.2088847309350967,0.0545413270592689,0.0,0.0,-0.5645926594734192,0.4868863821029663
0.0487615577876567,0.1301698982715606,-0.0171839669346809,-0.1912593990564346,0.2116100043058395,0.054505605250597,0.0,0.0,-0.3023167848587036,0.443582534790039
0.0486137382686138,0.1255844682455063,-0.0174742080271244,-0.2041887491941452,0.214333564043045,0.0544712170958519,0.0,0.0,0.0338435173034668,-0.0367270112037658
0.0483116135001182,0.121236428618431,-0.0325739383697509,-0.1935896724462509,0.2167177349328994,0.0476831421256065,0.0,0.0,-0.6038817763328552,0.1843301057815551
0.0480064377188682,0.1165976375341415,-0.0328735187649726,-0.2065188735723495,0.219100221991539,0.0476495437324047,0.0,0.0,-0.4094151854515075,0.8266432285308838
0.0477724075317382,0.1116976365447044,-0.0238162893801927,-0.2178368121385574,0.2195200622081756,0.0083968006074428,0.0,0.0,0.2034738063812255,0.5678927898406982
0.0475695617496967,0.1069261655211448,-0.0196627043187618,-0.2119717299938202,0.2188887298107147,-0.0126267950981855,0.0,0.0,0.0212056636810302,0.9630534648895264
0.0474399551749229,0.1026215404272079,-0.0103569012135267,-0.190932035446167,0.2162584662437439,-0.0526055209338665,0.0,0.0,0.046125054359436,0.9425482749938964
0.0472569465637207,0.0987721756100654,-0.0138218328356742,-0.1704344004392624,0.2117280811071396,-0.0906074717640876,0.0,0.0,-0.1650912761688232,0.8490906953811646
0.0471509918570518,0.0946680381894111,-0.0039970227517187,-0.181474819779396,0.2050752490758896,-0.1330564320087433,0.0,0.0,0.4209554195404053,0.118233323097229
0.0470056533813476,0.0910257399082183,-0.0082337809726595,-0.1610204130411148,0.1987236589193344,-0.1270317584276199,0.0,0.0,-0.2863501310348511,0.6505445241928101
0.0469072349369525,0.087114579975605,-0.0022393255494534,-0.1728282570838928,0.1910736113786697,-0.153000608086586,0.0,0.0,-0.0894330739974975,0.7920112609863281
0.0468738563358783,0.0829399228096008,0.0060315825976431,-0.1843611598014831,0.1816659569740295,-0.1881534606218338,0.0,0.0,0.5143235921859741,0.1357216835021972
0.0468360893428325,0.0791153758764267,0.0052621662616729,-0.1688943058252334,0.1725969463586807,-0.1813801229000091,0.0,0.0,0.0403015613555908,0.3580415248870849
0.0466547012329101,0.0755565464496612,-0.0087124779820442,-0.1571004539728164,0.1631684154272079,-0.1885710209608078,0.0,0.0,0.1830620765686035,0.9001245498657227
0.0463780388236045,0.0722428411245346,-0.016386728733778,-0.1460794955492019,0.1518941670656204,-0.2254853248596191,0.0,0.0,-0.0495625734329223,0.4250388145446777
0.0461015701293945,0.0686398148536682,-0.0163418613374233,-0.1590187400579452,0.1406159996986389,-0.2255633771419525,0.0,0.0,0.3463641405105591,-0.7030680179595947
0.0457334518432617,0.0653850436210632,-0.0269371718168258,-0.1437555104494094,0.1307767778635025,-0.1967848688364029,0.0,0.0,0.3180035352706909,-0.4887212514877319
0.0454326644539833,0.0622874833643436,-0.0206697210669517,-0.1368674784898758,0.121414728462696,-0.1872409284114837,0.0,0.0,0.006212830543518,-0.2165103554725647
0.0451425537467002,0.0595311038196086,-0.0198693983256816,-0.1217879056930542,0.1123220920562744,-0.1818526983261108,0.0,0.0,-0.3864989280700683,0.026473045349121
0.0448551177978515,0.0564849004149436,-0.0195747148245573,-0.134723499417305,0.1032238230109214,-0.1819655299186706,0.0,0.0,-0.2919371724128723,-0.3286924362182617
0.0445712096989154,0.0531488768756389,-0.0192081872373819,-0.1476591229438781,0.0941193997859954,-0.18208809196949,0.0,0.0,-0.1221572756767273,-0.8020644187927246
0.0442386642098426,0.0495168082416057,-0.0254117846488952,-0.1609531790018081,0.0863460078835487,-0.1554676741361618,0.0,0.0,0.3247267007827759,-0.8724374771118164
