x_pos,y_pos,x_vel,y_vel,angle,ang_vel,leg_1,leg_2,main_booster,lat_booster
-0.001502800034359,1.4034432172775269,-0.152234748005867,-0.3323096334934234,0.0017465635901317,0.0344512537121772,0.0,0.0,0.7013048499660128,-0.6427919314054698
-0.0029773712158203,1.3965175151824951,-0.1506106704473495,-0.3078140616416931,0.0048757405020296,0.0625898689031601,0.0,0.0,0.2637556435184718,-0.7829177826049967
-0.0043761255219578,1.3898683786392212,-0.1447767615318298,-0.2955422401428222,0.0097270477563142,0.0970352739095687,0.0,0.0,0.2619695186253123,0.7235210829832281
-0.0057998658157885,1.3836073875427246,-0.1457256823778152,-0.2782898247241974,0.0130377253517508,0.0662196353077888,0.0,0.0,0.3096077307578488,-0.8154983062070392
-0.007153701968491,1.3779442310333252,-0.1405678689479828,-0.251751959323883,0.0181718077510595,0.1026909723877906,0.0,0.0,-0.8882465727264841,0.9178168776352432
-0.0083930967375636,1.372100830078125,-0.1269543021917343,-0.259741336107254,0.0211563315242528,0.0596958212554454,0.0,0.0,0.0475769693642209,0.896754194906197
-0.009559822268784,1.3666274547576904,-0.1180014386773109,-0.2432915717363357,0.0224635787308216,0.0261473953723907,0.0,0.0,0.7996814742611207,0.9960536083422356
-0.0104544637724757,1.362040877342224,-0.0891934037208557,-0.2038395702838897,0.0222011823207139,-0.0052484846673905,0.0,0.0,-0.1674621769198254,-0.7214305829312722
-0.0113787651062011,1.357278823852539,-0.0937763974070549,-0.2116648256778717,0.0235274527221918,0.0265281088650226,0.0,0.0,-0.2920926546825728,0.88467257016458
-0.0122047420591115,1.3523435592651367,-0.082312062382698,-0.2193382084369659,0.0232486426830291,-0.0055768978781998,0.0,0.0,0.2339467552392957,0.6276289274798613
-0.0128904338926076,1.3478975296020508,-0.0673267841339111,-0.1975811123847961,0.0220162980258464,-0.0246492680162191,0.0,0.0,-0.3238216783913203,-0.8742234741574894
-0.0136067392304539,1.343266487121582,-0.07210523635149,-0.2058385014533996,0.0224897880107164,0.0094706621021032,0.0,0.0,-0.1305646403789411,0.6256052911822014
-0.0142323495820164,1.3384592533111572,-0.0617022514343261,-0.2136408239603042,0.0216428767889738,-0.0169397890567779,0.0,0.0,-0.5402956496562041,-0.7082243505341685
-0.0148758888244628,1.333462476730347,-0.0649668276309967,-0.2220835238695144,0.0222432408481836,0.0120084518566727,0.0,0.0,0.7835735842740854,0.8704549260485906
-0.015270709991455,1.3296360969543457,-0.0388670712709426,-0.1700530350208282,0.0216427277773618,-0.0120115913450717,0.0,0.0,-0.8805407381847523,0.7393838496394475
-0.0155641557648777,1.3256218433380127,-0.0272068344056606,-0.1783847212791443,0.0195352975279092,-0.0421523936092853,0.0,0.0,-0.0890233111009353,-0.8182894149823807
-0.0158747676759958,1.3214343786239624,-0.0304350219666957,-0.1860975623130798,0.0189172457903623,-0.0123621700331568,0.0,0.0,0.7710686246585543,0.9910246768413116
-0.0159103386104106,1.3176668882369995,-0.0014468865701928,-0.1674228310585022,0.0168293230235576,-0.0417624786496162,0.0,0.0,0.7493949981720576,-0.9633563377866124
-0.0158878322690725,1.3150027990341189,0.0019948682747781,-0.1184049695730209,0.0170838963240385,0.0050917570479214,0.0,0.0,0.1111784822151615,-0.8143747645263506
-0.0159652717411518,1.3127245903015137,-0.009867706336081,-0.1012796238064765,0.0191827155649662,0.0419802665710449,0.0,0.0,0.7638244071151696,0.7892037715051645
-0.0158124919980764,1.3114808797836304,0.0141654033213853,-0.0552915222942829,0.0202901251614093,0.0221501998603343,0.0,0.0,-0.6724850998290932,0.7322831181556672
-0.0155662540346384,1.3100532293319702,0.0247181337326765,-0.0634430274367332,0.0201962124556303,-0.001878178329207,0.0,0.0,0.4595602565528152,-0.6096821209010037
-0.0152181629091501,1.309167504310608,0.0330975167453289,-0.0393919572234153,0.0218754298985004,0.0335872881114482,0.0,0.0,0.2294320917703434,0.7813192252139317
-0.0147194862365722,1.308443903923035,0.0493828542530536,-0.0321629643440246,0.0223571099340915,0.0096346177160739,0.0,0.0,0.9702848697293768,-0.9060144406873762
-0.0144609455019235,1.3086841106414795,0.0236069243401289,0.010637710802257,0.0245820824056863,0.0445032939314842,0.0,0.0,0.8029003421173608,0.8548408872815785
-0.0142935756593942,1.309874176979065,0.0162262264639139,0.0528857558965683,0.0250886492431163,0.0101314326748251,0.0,0.0,-0.3370531031361603,0.69875013413102
-0.0140353199094533,1.310889720916748,0.0264180544763803,0.0451380871236324,0.0245085060596466,-0.0116030722856521,0.0,0.0,-0.6888021618032325,-0.7302790378637675
-0.0138119701296091,1.311728835105896,0.0208122823387384,0.0372725315392017,0.0260122213512659,0.0300741884857416,0.0,0.0,0.8495495562373283,-0.7246367173158954
-0.0137914661318063,1.3136847019195557,-0.000884981942363,0.0868773311376571,0.0289142876863479,0.0580411963164806,0.0,0.0,-0.5195332799858166,-0.8682824184983198
-0.0138061521574854,1.3154534101486206,-0.0065536983311176,0.0785009190440177,0.0339288525283336,0.1002914458513259,0.0,0.0,0.877537961115193,-0.6154744464250735
-0.0138438222929835,1.3184894323349,-0.0104735484346747,0.1347664147615432,0.0405553057789802,0.132529079914093,0.0,0.0,0.9693851009393716,-0.6027216418252765
-0.0140131954103708,1.322115421295166,-0.0249114707112312,0.16092349588871,0.0484381839632988,0.1576575338840484,0.0,0.0,0.5181685796717859,-0.6494400927715638
-0.0143165588378906,1.326661467552185,-0.0397868752479553,0.2017105370759964,0.0577715896070003,0.1866678893566131,0.0,0.0,0.1198013870018999,-0.6645118091495337
-0.0146991731598973,1.3313790559768677,-0.0493130572140216,0.2092069536447525,0.0687039718031883,0.2186475992202758,0.0,0.0,0.312209640434486,-0.7472927940419025
-0.0151247028261423,1.3366599082946775,-0.0554549321532249,0.2340656369924545,0.0814797133207321,0.2555146813392639,0.0,0.0,0.9118643398516646,0.9349084219962271
-0.0154890064150094,1.34308922290802,-0.0478246435523033,0.2850866019725799,0.0927692875266075,0.225791335105896,0.0,0.0,-0.0594995666552169,-0.6274399686919883
-0.015868853777647,1.3493292331695557,-0.0510241203010082,0.2764720022678375,0.1057026535272598,0.2586672902107239,0.0,0.0,-0.9620725401903524,0.6148368370641581
-0.0161619186401367,1.3554033041000366,-0.0413500033318996,0.2690632939338684,0.1176681742072105,0.2393103092908859,0.0,0.0,0.0188010810453311,-0.8062168596648149
-0.0165725704282522,1.362065672874451,-0.0550378076732158,0.2949375510215759,0.1315691024065017,0.278018593788147,0.0,0.0,-0.8480144509150267,-0.8659485822760733
-0.0170125011354684,1.3685382604599,-0.0599304139614105,0.2861919105052948,0.1474545896053314,0.317709743976593,0.0,0.0,0.0847386152670401,-0.8823580541518146
-0.0176435466855764,1.375566482543945,-0.0810897275805473,0.3104828894138336,0.1654244810342788,0.3593977987766266,0.0,0.0,-0.9620286226272584,0.9889919757843018
-0.0181464198976755,1.3824390172958374,-0.0661625564098358,0.3035951554775238,0.1813423931598663,0.3183583915233612,0.0,0.0,-0.9432782530784608,0.9903714656829834
-0.0185233112424612,1.3891476392745972,-0.0515775680541992,0.2964062988758087,0.1952921152114868,0.2789942920207977,0.0,0.0,-0.941552758216858,0.976650595664978
-0.0187768936157226,1.395702242851257,-0.0372606702148914,0.2897019386291504,0.2072875797748565,0.2399094104766845,0.0,0.0,-0.8875803351402283,0.9804260730743408
-0.0189231876283884,1.4020891189575195,-0.0250228531658649,0.2823670506477356,0.2177796512842178,0.2098413407802581,0.0,0.0,-0.8829986453056335,0.9819445610046388
-0.0189517028629779,1.4083139896392822,-0.0114515768364071,0.2753719985485077,0.2264751642942428,0.1739106476306915,0.0,0.0,-0.8341609835624695,0.8940178155899048
-0.018869113177061,1.41438090801239,0.0013138516806066,0.2685542404651642,0.2335103899240493,0.1407046914100647,0.0,0.0,-0.7171963453292847,0.7386307716369629
-0.018707275390625,1.4202920198440552,0.01014344394207,0.2617502510547638,0.2396434247493744,0.1226609572768211,0.0,0.0,-0.7207931280136108,0.8256014585494995
-0.0184630397707223,1.4260485172271729,0.0193676613271236,0.2550100684165954,0.2447828352451324,0.1027881056070327,0.0,0.0,-0.755342960357666,0.3052639961242676
-0.0181847568601369,1.4316251277923584,0.0224750190973281,0.2469440996646881,0.2502292394638061,0.1089278012514114,0.0,0.0,-0.4879829883575439,0.2310775518417358
-0.0178728103637695,1.4370217323303225,0.0255616717040538,0.2388778179883957,0.255977600812912,0.1149673238396644,0.0,0.0,-0.6335603594779968,-0.0072139501571655
-0.0175272934138774,1.4422383308410645,0.0286261476576328,0.2308112680912017,0.2620225846767425,0.1208999529480934,0.0,0.0,-0.76629239320755,0.2061190605163574
-0.0171486847102642,1.4472755193710327,0.0316669344902038,0.2227443903684616,0.2683584988117218,0.1267191469669342,0.0,0.0,-0.8060121536254883,0.1060082912445068
-0.0167371742427349,1.4521328210830688,0.0346824899315834,0.2146772295236587,0.2749794125556946,0.132418543100357,0.0,0.0,-0.5891191959381104,0.4723849296569824
-0.0162932388484478,1.4568102359771729,0.0376712381839752,0.2066097557544708,0.2818790078163147,0.137992113828659,0.0,0.0,-0.6894618272781372,-0.0781485438346862
-0.0158171653747558,1.461308240890503,0.0406315736472606,0.1985419690608978,0.2890506982803345,0.1434337794780731,0.0,0.0,-0.7712432146072388,-0.1933416128158569
-0.0153094287961721,1.4656264781951904,0.0435618460178375,0.1904739290475845,0.2964875996112823,0.1487379223108291,0.0,0.0,-0.7804195880889893,0.3599694967269897
-0.0147703168913722,1.4697651863098145,0.0464603826403617,0.1824055761098861,0.3041825592517853,0.1538989841938018,0.0,0.0,-0.7810794711112976,0.7703031301498413
-0.0141369821503758,1.4737623929977417,0.0573763251304626,0.1763915717601776,0.3103571534156799,0.1234918013215065,0.0,0.0,-0.7245250940322876,0.5690289735794067
-0.0134367942810058,1.477602243423462,0.0648077428340911,0.1695406287908554,0.315756618976593,0.1079892963171005,0.0,0.0,-0.7671445608139038,0.0411053895950317
-0.0127066615968942,1.4812623262405396,0.0675992146134376,0.1614746004343032,0.3213911950588226,0.1126908659934997,0.0,0.0,-0.7978973388671875,0.4830406904220581
-0.0119468690827488,1.484742283821106,0.0703518539667129,0.1534084677696228,0.3272527158260345,0.1172297000885009,0.0,0.0,-0.699391782283783,0.6049115657806396
-0.0111032482236623,1.4880685806274414,0.0799555480480194,0.1468301564455032,0.3318451941013336,0.0918501019477844,0.0,0.0,-0.6248258352279663,-0.799741268157959
-0.010288524441421,0.0,0.0753799602389335,0.1371567398309707,0.3382173776626587,0.1274437010288238,0.0,0.0,-0.6479337811470032,-0.4330745339393616
-0.0094457622617483,1.494124412536621,0.078005276620388,0.1290903389453888,0.3447909355163574,0.1314708888530731,0.0,0.0,-0.578935980796814,0.9813382625579834
-0.0085179330781102,1.4969141483306885,0.0878634303808212,0.1227929517626762,0.3499591052532196,0.103363811969757,0.0,0.0,-0.6838081479072571,-0.9969463348388672
-0.0076368330046534,1.4994956254959106,0.0811555087566375,0.1130301281809806,0.3572683930397033,0.1461857110261917,0.0,0.0,-0.6592232584953308,0.9185372591018676
-0.0066499710083007,1.5019302368164062,0.093609020113945,0.1069243401288986,0.3626223802566528,0.1070795431733131,0.0,0.0,-0.6611717939376831,0.9943883419036864
-0.0055638314224779,1.504238486289978,0.1054221168160438,0.1017802655696868,0.3659926354885101,0.0674056336283683,0.0,0.0,-0.6867552399635315,-0.169601023197174
-0.0044526099227368,1.5063663721084597,0.1077969074249267,0.0937171056866645,0.3695187866687774,0.0705228000879287,0.0,0.0,-0.7610008716583252,-0.9986639618873596
-0.0034021376632153,1.5082688331604004,0.0993508920073509,0.0830730125308036,0.3755539357662201,0.1207028999924659,0.0,0.0,-0.7072213292121887,0.8084826469421387
-0.0022661208640784,1.5100293159484863,0.1094349026679992,0.0771365240216255,0.3799741864204407,0.0884058400988578,0.0,0.0,-0.7082849144935608,0.9997618198394777
-0.0010525702964514,1.5116537809371948,0.1186184510588646,0.0714671164751052,0.3828883767127991,0.058283943682909,0.0,0.0,-0.6941809058189392,0.5630565881729126
0.0002295494050486,1.5131255388259888,0.1265867054462433,0.0649690926074981,0.3846180438995361,0.0345938615500927,0.0,0.0,-0.6965726017951965,0.9968216419219972
0.0016039848560467,1.5144507884979248,0.1375316977500915,0.0589263066649436,0.3845253586769104,-0.0018539605662226,0.0,0.0,-0.7581611275672913,0.9983534812927246
0.0030831336043775,0.0,0.1500495821237564,0.0531918331980705,0.3822536468505859,-0.0454348623752594,0.0,0.0,-0.5763991475105286,0.998339295387268
0.0046541215851902,1.5166702270507812,0.1609733700752258,0.047057993710041,0.3781341016292572,-0.0823909267783165,0.0,0.0,-0.6189770698547363,0.8323060274124146
0.0063026426360011,1.5175678730010986,0.1702595651149749,0.041315384209156,0.3723950088024139,-0.1147820502519607,0.0,0.0,-0.659676194190979,1.0
0.0080502508208155,1.5183428525924685,0.1823297441005706,0.0363980419933795,0.3643834292888641,-0.1602309644222259,0.0,0.0,-0.6455352306365967,0.99851655960083
0.0098729133605957,1.5189814567565918,0.1913936287164688,0.0306690707802772,0.3547524511814117,-0.1926193386316299,0.0,0.0,-0.7022289633750916,-0.4707455635070801
0.0117127420380711,1.5194400548934937,0.1930824816226959,0.0226026475429534,0.3451752960681915,-0.1915432661771774,0.0,0.0,-0.5908284783363342,1.0
0.013645458035171,1.5197699069976809,0.2044792622327804,0.0173020362854003,0.3334468007087707,-0.2345697432756424,0.0,0.0,-0.5258883833885193,-0.9916889667510986
0.0155076030641794,1.519875407218933,0.1951539516448974,0.0067171845585107,0.324124127626419,-0.1864542067050933,0.0,0.0,-0.6671920418739319,-0.9997735023498536
0.0173023231327533,1.5197633504867554,0.1862692534923553,-0.0034719894174486,0.3170522451400757,-0.1414368152618408,0.0,0.0,-0.5699664354324341,1.0
0.0191833488643169,1.5195119380950928,0.1968223601579666,-0.0092941811308264,0.3079958260059356,-0.1811281144618988,0.0,0.0,-0.612220823764801,0.999984860420227
0.0211631767451763,1.519121766090393,0.2089926749467849,-0.0150521285831928,0.2966197729110718,-0.2275218665599823,0.0,0.0,-0.5968495607376099,-0.9843280911445618
0.0230862610042095,1.518509864807129,0.2014613598585128,-0.0253633670508861,0.2871811687946319,-0.1887721121311187,0.0,0.0,-0.6198742985725403,-0.9999693036079408
0.0249585155397653,1.5176820755004885,0.194731056690216,-0.0353274829685688,0.2794651389122009,-0.1543205380439758,0.0,0.0,-0.5781708359718323,-0.9999960064888
0.0267845150083303,1.5166488885879517,0.1886399239301681,-0.0447817184031009,0.2732728123664856,-0.1238467693328857,0.0,0.0,-0.3320848345756531,-0.9890300035476683
0.0285645481199026,1.5154030323028564,0.1825532764196396,-0.0545255094766616,0.2686120271682739,-0.0932157710194587,0.0,0.0,-0.5291672348976135,0.9988653659820556
0.0304279327392578,1.514014482498169,0.1928803026676178,-0.0605332627892494,0.2619176506996155,-0.1338872611522674,0.0,0.0,-0.5360834002494812,0.9999998807907104
0.0323786735534668,1.5124846696853638,0.2037474364042282,-0.0664649233222007,0.2530600726604461,-0.1771519482135772,0.0,0.0,-0.579357922077179,0.8896191120147705
0.0344186797738075,1.5108096599578855,0.2148585617542266,-0.072604201734066,0.2419950515031814,-0.221299722790718,0.0,0.0,-0.602229118347168,0.8851145505905151
0.0365462303161621,1.5089755058288574,0.2257465571165084,-0.0794329345226287,0.228812500834465,-0.2636514008045196,0.0,0.0,-0.4544744491577148,-0.7724870443344116
0.0386158935725688,1.5069371461868286,0.2183640450239181,-0.0888610258698463,0.2172803878784179,-0.2306423634290695,0.0,0.0,-0.4637649059295654,-0.7181172370910645
0.0406424514949321,1.504711627960205,0.2128981053829193,-0.0974369049072265,0.206935316324234,-0.2069015502929687,0.0,0.0,-0.4665155410766601,-0.8219690918922424
0.0426082611083984,1.5022850036621094,0.2051806449890136,-0.1066764369606971,0.1982542872428894,-0.173620656132698,0.0,0.0,-0.3689442873001098,-0.9092859029769896
0.0444922447204589,1.4996600151062012,0.1949029564857483,-0.1158080846071243,0.1917149126529693,-0.1307873427867889,0.0,0.0,-0.4428411722183227,-0.2775634527206421
0.0463800430297851,1.4968541860580444,0.1953553110361099,-0.1238682270050048,0.1851156204938888,-0.1319861859083175,0.0,0.0,-0.3576991558074951,0.9177950620651244
0.0483351722359657,1.4938923120498655,0.2038309127092361,-0.1306189000606537,0.1767713129520416,-0.1668858379125595,0.0,0.0,-0.1971328258514404,-0.932661235332489
0.0502097122371196,1.490734338760376,0.1937183588743209,-0.1396233886480331,0.1704842150211334,-0.1257422715425491,0.0,0.0,-0.3031430840492248,-0.8785292506217957
0.0520153045654296,1.4873738288879397,0.1850776821374893,-0.1488391458988189,0.1659645736217498,-0.0903925150632858,0.0,0.0,-0.6321941018104553,0.5894951820373535
0.0538595207035541,1.483842372894287,0.1899528205394745,-0.156351625919342,0.1604237854480743,-0.1108158677816391,0.0,0.0,-0.4716516733169555,-0.9095037579536438
0.0556161887943744,1.480105996131897,0.1790047585964203,-0.1657029539346695,0.1570899933576584,-0.0666759610176086,0.0,0.0,-0.5730623602867126,0.6082148551940918
0.0574288368225097,1.476205348968506,0.1861078441143036,-0.1728617548942566,0.1522521674633026,-0.0967566147446632,0.0,0.0,-0.2445951104164123,-0.0517921447753906
0.059241484850645,1.4721235036849976,0.1861856281757354,-0.1809203624725341,0.1473436206579208,-0.098171018064022,0.0,0.0,-0.318627119064331,-0.2107670903205871
0.0610537528991699,1.467860460281372,0.1862183809280395,-0.1889790892601013,0.1423646360635757,-0.0995795726776123,0.0,0.0,-0.47491455078125,-0.3400484323501587
0.0628651604056358,1.463416576385498,0.1862084120512008,-0.1970378905534744,0.1373160034418106,-0.100972793996334,0.0,0.0,-0.5574429631233215,-0.7642930746078491
0.0646288841962814,1.4587905406951904,0.1803408414125442,-0.2052346765995025,0.1333599984645843,-0.0791205018758773,0.0,0.0,-0.2582547068595886,-0.8555304408073425
0.0663324370980262,1.4539717435836792,0.1728980094194412,-0.2139471471309662,0.130829855799675,-0.0506027154624462,0.0,0.0,-0.4627715349197387,0.5630733966827393
0.0680772811174392,1.4489856958389282,0.1782026290893554,-0.221275508403778,0.1271212697029113,-0.0741719454526901,0.0,0.0,-0.0910694003105163,-0.5135734677314758
0.0697831138968467,1.4438159465789795,0.1734579503536224,-0.2295218855142593,0.1242710649967193,-0.0570041947066783,0.0,0.0,-0.2172245383262634,-0.2404541969299316
0.0714865699410438,1.4384649991989136,0.1732694059610366,-0.2375795096158981,0.1213622242212295,-0.0581764765083789,0.0,0.0,-0.4753519296646118,-0.4581761360168457
0.0731873512268066,1.432932734489441,0.1730524599552154,-0.2456372380256652,0.1183984726667404,-0.059275209903717,0.0,0.0,-0.3526773452758789,-0.1594960689544677
0.0748850852251052,1.427219271659851,0.1728095710277557,-0.2536950409412384,0.1153839454054832,-0.06029062718153,0.0,0.0,-0.6472038626670837,-0.7216073870658875
0.0765210166573524,1.4213138818740845,0.1651737689971923,-0.2623409926891327,0.1138148978352546,-0.0313807725906372,0.0,0.0,-0.4042069911956787,0.0253255367279052
0.0781537070870399,1.4152271747589111,0.1648862510919571,-0.2703984081745147,0.112204872071743,-0.0322003699839115,0.0,0.0,-0.5101503133773804,-0.168856143951416
0.0797829627990722,1.408959150314331,0.1645801365375518,-0.2784558534622192,0.1105595305562019,-0.0329069308936595,0.0,0.0,-0.5638343095779419,-0.4137628078460693
0.0814086943864822,1.4025098085403442,0.1642579287290573,-0.2865134179592132,0.1088849678635597,-0.0334909781813621,0.0,0.0,-0.2743371725082397,-0.6466353535652161
0.0829815864562988,1.395877242088318,0.1577599793672561,-0.2947425544261932,0.1084215566515922,-0.0092685297131538,0.0,0.0,-0.4593999981880188,-0.5766398906707764
0.0845108032226562,1.3890504837036133,0.1523680835962295,-0.3034529685974121,0.1089737266302108,0.0110435057431459,0.0,0.0,-0.7346215844154358,0.3481626510620117
0.0860364884138107,1.382042407989502,0.1520120203495025,-0.3115105628967285,0.1095179766416549,0.0108850020915269,0.0,0.0,-0.5418190360069275,0.0188270807266235
