x_pos,y_pos,x_vel,y_vel,angle,ang_vel,leg_1,leg_2,main_booster,lat_booster
-0.0015095710987225,1.4029159545898438,-0.1526565849781036,-0.3557444512844085,0.0015150165418162,0.0298667810857296,0.0,0.0,-0.367688775062561,0.9500682353973388
-0.0029243468306958,1.3942217826843262,-0.1406574249267578,-0.3864060044288635,0.0007103818352334,-0.0160936433821916,0.0,0.0,-0.1248425245285034,0.159292459487915
-0.0043250084854662,1.3848185539245603,-0.139021635055542,-0.4179234206676483,-0.0003278875374235,-0.0207673646509647,0.0,0.0,0.699944257736206,0.2036890983581543
-0.005834293551743,1.37547767162323,-0.1490523070096969,-0.4151455461978912,-0.0021816883236169,-0.0370791815221309,0.0,0.0,-0.1778768897056579,0.3375011682510376
-0.0073297498747706,1.3654283285140991,-0.1474510282278061,-0.4466459155082702,-0.0042548808269202,-0.0414676591753959,0.0,0.0,0.373703122138977,0.8679537773132324
-0.0086116790771484,1.3553452491760254,-0.1243040189146995,-0.4481486976146698,-0.0081035317853093,-0.0769801214337349,0.0,0.0,0.0349522829055786,0.5573955774307251
-0.0098489765077829,1.3450961112976074,-0.1184974908828735,-0.4555548131465912,-0.0132859898731112,-0.1036586314439773,0.0,0.0,0.2425299882888794,0.4241819381713867
-0.0109540941193699,1.3348661661148071,-0.1056137084960937,-0.4547121226787567,-0.0181292165070772,-0.0968731269240379,0.0,0.0,0.3631874322891235,-0.1977312564849853
-0.0120433811098337,1.3249638080596924,-0.1037974134087562,-0.4401768445968628,-0.0232089888304471,-0.1016050204634666,0.0,0.0,-0.3129905462265014,-0.1803051829338073
-0.0131196975708007,1.314353108406067,-0.1023138388991355,-0.471678614616394,-0.0284685473889112,-0.1052006855607032,0.0,0.0,0.3758155107498169,0.1210671663284301
-0.0140973087400197,1.3037734031677246,-0.0926175266504287,-0.4703114628791809,-0.0335591658949852,-0.1018216833472251,0.0,0.0,-0.5555488467216492,-0.1632214784622192
-0.0150624271482229,1.2924854755401611,-0.0911973863840103,-0.5018141865730286,-0.0388126783072948,-0.1050801128149032,0.0,0.0,0.3574535846710205,-0.8564637899398804
-0.015938663855195,1.281351923942566,-0.0840165913105011,-0.4949201941490173,-0.0423814393579959,-0.071381889283657,0.0,0.0,0.0258469581604003,-0.3103704452514648
-0.0167506225407123,1.269837737083435,-0.0776562541723251,-0.5118500590324402,-0.0458935908973217,-0.0702492445707321,0.0,0.0,-0.6742286086082458,-0.6842060685157776
-0.0175921432673931,1.2576249837875366,-0.0815072134137153,-0.5428725481033325,-0.0484995022416114,-0.0521228201687336,0.0,0.0,-0.3014966249465942,-0.9168450236320496
-0.0184816364198923,1.2446972131729126,-0.087691381573677,-0.5746047496795654,-0.0497446022927761,-0.0249039176851511,0.0,0.0,-0.3896065950393677,-0.8874858617782593
-0.019413661211729,1.2310752868652344,-0.0932042971253395,-0.6054148077964783,-0.0497455596923828,-1.908689046103973e-05,0.0,0.0,-0.110440969467163,-0.7425022125244141
-0.0203799251466989,1.2167420387268066,-0.0976555868983268,-0.6370037794113159,-0.048728946596384,0.0203339457511901,0.0,0.0,-0.1987358331680297,-0.3702049255371094
-0.0213358886539936,1.20169997215271,-0.0965211167931556,-0.6684982180595398,-0.0478102900087833,0.0183749385178089,0.0,0.0,0.3291436433792114,-0.0764424204826355
-0.0223248489201068,1.186636447906494,-0.0994277521967887,-0.6694755554199219,-0.0472826473414897,0.0105536859482526,0.0,0.0,0.2709628343582153,-0.6636477112770081
-0.0232197754085063,1.1717318296432495,-0.0914683789014816,-0.6623739004135132,-0.0453345403075218,0.0389658436179161,0.0,0.0,0.1404346227645874,0.2143833637237548
-0.0240836143493652,1.1565755605697632,-0.0883156359195709,-0.6735551953315735,-0.0434183962643146,0.0383261665701866,0.0,0.0,-0.5214215517044067,-0.6250741481781006
-0.0249772071838378,1.1407122611999512,-0.0922255665063858,-0.7049473524093628,-0.0405859909951686,0.0566530004143714,0.0,0.0,-0.0591451525688171,-0.1838822364807129
-0.0258623119443655,1.1241408586502075,-0.0913228392601013,-0.7364407181739807,-0.03780347853899,0.0556551814079284,0.0,0.0,0.3530733585357666,0.1401760578155517
-0.026835536584258,1.1076573133468628,-0.0995537489652633,-0.7325417399406433,-0.0355999767780303,0.0440742038190364,0.0,0.0,0.3057267665863037,0.0613621473312377
-0.027896786108613,1.091284155845642,-0.1077863350510597,-0.7276585698127747,-0.0339593365788459,0.0328128151595592,0.0,0.0,-0.1988547444343567,0.1063283681869506
-0.0289505962282419,1.0742024183273315,-0.1070201247930526,-0.7591513395309448,-0.0323394648730754,0.0323973260819911,0.0,0.0,0.6608412265777588,0.1196529865264892
-0.0301017761230468,1.0576623678207395,-0.1161327958106994,-0.7350936532020569,-0.0313388966023922,0.0200117100030183,0.0,0.0,0.5737152099609375,0.2483500242233276
-0.0313473716378212,1.0415256023406982,-0.1249929070472717,-0.7171741724014282,-0.0309158936142921,0.0084602581337094,0.0,0.0,-0.1337342262268066,0.3482692241668701
-0.0325867645442485,1.024680495262146,-0.1243748068809509,-0.748666524887085,-0.030486611649394,0.0085856411606073,0.0,0.0,0.5834276676177979,-0.6746309995651245
-0.0338292121887207,1.008352518081665,-0.1260938942432403,-0.7256538271903992,-0.0286585539579391,0.0365612432360649,0.0,0.0,-0.0446901321411132,-0.2935680747032165
-0.0350661277770996,0.991316020488739,-0.1255748271942138,-0.757146418094635,-0.0268072057515382,0.0370269417762756,0.0,0.0,0.1247774362564086,-0.069883644580841
-0.0363396629691123,0.9743913412094116,-0.1289964318275451,-0.7521732449531555,-0.0251844450831413,0.0324552841484546,0.0,0.0,0.3953182697296142,-0.2068030834197998
-0.0376546867191791,0.9572171568870544,-0.1329374015331268,-0.7632788419723511,-0.023771371692419,0.0282615981996059,0.0,0.0,0.789508581161499,-0.2349492311477661
-0.0389317497611045,0.9403524398803712,-0.1292693465948104,-0.7495189309120178,-0.0222297459840774,0.0308323018252849,0.0,0.0,-0.069335401058197,-0.1449562311172485
-0.0402050986886024,0.9227792024612428,-0.1289450824260711,-0.7810113430023193,-0.0206337086856365,0.0319206565618515,0.0,0.0,0.8249521255493164,0.3555247783660888
-0.0414936058223247,0.9052525758743286,-0.1303912699222564,-0.778944194316864,-0.0191102381795644,0.0304692350327968,0.0,0.0,0.3635632991790771,0.1610372066497802
-0.0427355766296386,0.8879587054252625,-0.1259645670652389,-0.7685995697975159,-0.0173730514943599,0.0347437933087348,0.0,0.0,-0.0674018859863281,-0.4064797163009643
-0.0439750663936138,0.8699561357498169,-0.1257801353931427,-0.8000921010971069,-0.0155609110370278,0.0362429246306419,0.0,0.0,0.8511196374893188,0.34085214138031
-0.0451700203120708,0.8522657155990601,-0.1215609163045883,-0.7862159013748169,-0.0135210389271378,0.0407970920205116,0.0,0.0,0.5542324781417847,0.6224346160888672
-0.0464131347835063,0.834972083568573,-0.1249565854668617,-0.7686071395874023,-0.0128767136484384,0.0128864645957946,0.0,0.0,0.0234467983245849,0.0745694637298584
-0.0475740432739257,0.8174546360969543,-0.1171981319785118,-0.7785443663597107,-0.0117857689037919,0.0218189135193824,0.0,0.0,0.5829734802246094,0.1982916593551635
-0.0486372001469135,0.7996776700019836,-0.1079592332243919,-0.7900754809379578,-0.0101658292114734,0.032398983836174,0.0,0.0,0.4575939178466797,0.5090302228927612
-0.0495603568851947,0.7818885445594788,-0.0932765454053878,-0.7906205654144287,-0.009216352365911,0.0189893711358308,0.0,0.0,0.4399319887161255,0.4233319759368896
-0.050516128540039,0.7637762427330017,-0.0964827165007591,-0.8049816489219666,-0.0083223599940538,0.0178796891123056,0.0,0.0,0.4188772439956665,-0.0266029238700866
-0.0514299385249614,0.745385468006134,-0.0925869196653366,-0.817363977432251,-0.0071328980848193,0.0237894691526889,0.0,0.0,0.7979286909103394,0.4714081287384033
-0.0522740371525287,0.7270148396492004,-0.0860510915517807,-0.8164656758308411,-0.0055190711282193,0.0322765186429023,0.0,0.0,0.901262640953064,0.9314281940460204
-0.0531827919185161,0.7093855142593384,-0.0904941633343696,-0.7835299372673035,-0.0058886338956654,-0.0073912614025175,0.0,0.0,0.6290850639343262,0.2648153305053711
-0.0542184822261333,0.6922143697738647,-0.102709449827671,-0.7631643414497375,-0.0067383097484707,-0.0169936083257198,0.0,0.0,0.5524419546127319,0.519152045249939
-0.0552322380244731,0.6750499606132507,-0.0995449870824813,-0.7628748416900635,-0.0085475910454988,-0.036185935139656,0.0,0.0,-0.0621013641357421,-0.0879576206207275
-0.0562473312020301,0.6571768522262573,-0.0998105853796005,-0.7943674325942993,-0.0102251498028635,-0.0335509404540061,0.0,0.0,0.545926570892334,0.3148038387298584
-0.0573108680546283,0.6396300196647644,-0.1045308113098144,-0.7798715233802795,-0.0120172332972288,-0.0358416959643363,0.0,0.0,0.6789188385009766,0.8760539293289185
-0.0581776611506938,0.622044026851654,-0.0834419950842857,-0.7816314697265625,-0.0152166653424501,-0.0639887526631355,0.0,0.0,0.7420837879180908,0.569148063659668
-0.0589850433170795,0.6050151586532593,-0.0764917731285095,-0.7568840384483337,-0.0193982534110546,-0.0836319103837013,0.0,0.0,0.6245651245117188,-0.2445884943008422
-0.0596386902034282,0.5879927277565002,-0.0619581453502178,-0.7566020488739014,-0.0227600391954183,-0.0672357752919197,0.0,0.0,0.5023829936981201,-0.3496711254119873
-0.0603716857731342,0.5709073543548584,-0.069640427827835,-0.7594109773635864,-0.0263798050582408,-0.0723951905965805,0.0,0.0,0.8445098400115967,0.0448361635208129
-0.0609787926077842,0.5544435977935791,-0.0576846897602081,-0.7317812442779541,-0.0293683223426342,-0.0597706213593483,0.0,0.0,0.955912947654724,-0.3034331798553467
-0.0614017471671104,0.5384612083435059,-0.0401810780167579,-0.710371732711792,-0.0314538925886154,-0.04171147570014,0.0,0.0,0.360337495803833,0.2231092453002929
-0.061744499951601,0.522783637046814,-0.032607078552246,-0.696814775466919,-0.0331065021455287,-0.0330520011484622,0.0,0.0,0.2684234380722046,0.4004203081130981
-0.0621286407113075,0.507304847240448,-0.0366093255579471,-0.6879869103431702,-0.0348801761865615,-0.0354736633598804,0.0,0.0,0.6660258769989014,0.265424370765686
-0.062450885772705,0.491674542427063,-0.030826449394226,-0.6947135329246521,-0.0362648889422416,-0.0276942364871501,0.0,0.0,0.8907394409179688,0.1901271343231201
-0.0628616362810134,0.4765451550483703,-0.039287120103836,-0.6724610924720764,-0.0380297638475894,-0.0352974608540535,0.0,0.0,-0.355991005897522,0.6283143758773804
-0.0632154494524002,0.4607021808624267,-0.0322233028709888,-0.7042142152786255,-0.0411500819027423,-0.0624064430594444,0.0,0.0,0.9119877815246582,-0.0964308977127075
-0.0635157600045204,0.4452121555805206,-0.0271510072052478,-0.6885281205177307,-0.0439930707216262,-0.0568597093224525,0.0,0.0,0.9697060585021972,0.0098583698272705
-0.0637886077165603,0.4297291040420532,-0.0246027633547782,-0.688217282295227,-0.0466418527066707,-0.0529755279421806,0.0,0.0,0.989378809928894,-0.7425443530082703
-0.0642507523298263,0.4146195948123932,-0.0447903797030448,-0.6715804934501648,-0.0480482578277587,-0.0281281061470508,0.0,0.0,0.9696732759475708,0.8123314380645752
-0.0645742416381836,0.4003328680992126,-0.0295060481876134,-0.635056734085083,-0.0508583784103393,-0.0562024787068367,0.0,0.0,0.9016768932342528,0.5651843547821045
-0.0647384673357009,0.3858241140842438,-0.0128743331879377,-0.6449580788612366,-0.0543611124157905,-0.0700548589229583,0.0,0.0,0.9504776000976562,-0.7070395350456238
-0.0648715943098068,0.3721262514591217,-0.0114320497959852,-0.6088650226593018,-0.0562222115695476,-0.037222035229206,0.0,0.0,0.897146463394165,-0.3846424221992492
-0.0650845542550087,0.3585429191589355,-0.0190530475229024,-0.6037914752960205,-0.058435708284378,-0.0442700646817684,0.0,0.0,0.9616516828536988,0.3976835012435913
-0.0653615966439247,0.3454643785953522,-0.0251051746308803,-0.5813722014427185,-0.0610074363648891,-0.0514343082904815,0.0,0.0,0.5407860279083252,0.0013086795806884
-0.0655766502022743,0.3325435817241668,-0.0191907174885272,-0.5743537545204163,-0.0633018016815185,-0.045887317508459,0.0,0.0,0.7239058017730713,-0.3067258596420288
-0.0658719986677169,0.3202461004257202,-0.0267323944717645,-0.5466752648353577,-0.0660749822854995,-0.0554633624851703,0.0,0.0,0.8692251443862915,-0.6427918076515198
-0.0660874396562576,0.3082140684127807,-0.0204090047627687,-0.5348079204559326,-0.0671990811824798,-0.0224818307906389,0.0,0.0,0.8812564611434937,0.6348583698272705
-0.06626558303833,0.2961339950561523,-0.0154323559254407,-0.5370005965232849,-0.0695562288165092,-0.0471432469785213,0.0,0.0,0.80843186378479,-0.284085214138031
-0.0663458853960037,0.2838699221611023,-0.0061299675144255,-0.5451575517654419,-0.07143235206604,-0.0375222489237785,0.0,0.0,0.8095815181732178,-0.2457787990570068
-0.0664348602294921,0.27145716547966,-0.0069821602664887,-0.5517706274986267,-0.0733342766761779,-0.0380382761359214,0.0,0.0,0.7767338752746582,-0.7487132549285889
-0.0665304213762283,0.259626179933548,-0.0092501072213053,-0.5258378982543945,-0.0736327171325683,-0.0059688310138881,0.0,0.0,0.775076150894165,-0.079154372215271
-0.0664757713675499,0.2483881562948227,0.0052324743010103,-0.4994581341743469,-0.0734044313430786,0.0045657423324882,0.0,0.0,0.6324825286865234,-0.6140865087509155
-0.0665293708443641,0.2376742660999298,-0.0066687241196632,-0.4761101603507995,-0.0721107721328735,0.0258733034133911,0.0,0.0,0.6459773778915405,0.2472964525222778
-0.0666871070861816,0.2267592549324035,-0.0166037939488887,-0.4850696325302124,-0.0712904706597328,0.0164059698581695,0.0,0.0,0.7976213693618774,0.3663045167922973
-0.0667387023568153,0.2164178043603897,-0.0063149654306471,-0.4595652520656585,-0.0701474472880363,0.0228606201708316,0.0,0.0,0.2954397201538086,0.2952089309692383
-0.0668363571166992,0.2060512453317642,-0.010670674033463,-0.4606934487819671,-0.0692556723952293,0.0178354941308498,0.0,0.0,-0.1989777684211731,0.0115042924880981
-0.0669321045279502,0.1949760019779205,-0.0105863464996218,-0.4921852648258209,-0.0682511255145073,0.0200907010585069,0.0,0.0,0.5514936447143555,0.3587620258331299
-0.0669917091727256,0.1841759979724884,-0.0070371581241488,-0.4799522757530212,-0.0671894922852516,0.0212326608598232,0.0,0.0,0.8853052854537964,0.5496526956558228
-0.0668547600507736,0.1736459285020828,0.0133115667849779,-0.4679829776287079,-0.066815048456192,0.0074889911338686,0.0,0.0,0.7076923847198486,0.3008697032928467
-0.0666663199663162,0.1629344075918197,0.0182531587779521,-0.4760438203811645,-0.0662258937954902,0.0117829553782939,0.0,0.0,0.9056639671325684,-0.4979205131530761
-0.0663362517952919,0.1521987020969391,0.0318117626011371,-0.4770913422107696,-0.0650444701313972,0.0236286614090204,0.0,0.0,0.9114415645599364,-0.5097150206565857
-0.0658191666007042,0.1417295038700103,0.0488490425050258,-0.4651750326156616,-0.0622157417237758,0.0565745010972023,0.0,0.0,0.8795428276062012,-0.4844998717308044
-0.0651106834411621,0.1312088072299957,0.0671574175357818,-0.4674402177333832,-0.0585645101964473,0.0730247125029563,0.0,0.0,0.9740291833877563,-0.5208172798156738
-0.0643918961286544,0.1213318407535553,0.0670684278011322,-0.4387963712215423,-0.0538129843771457,0.0950306728482246,0.0,0.0,0.9449644088745116,-0.652349054813385
-0.06363096088171,0.1120901703834533,0.06978440284729,-0.4105277955532074,-0.0475804656744003,0.1246504038572311,0.0,0.0,0.8329610824584961,-0.6202331781387329
-0.0627285987138748,0.1032446026802063,0.0822181925177574,-0.3928997814655304,-0.03965400531888,0.1585293114185333,0.0,0.0,0.6692600250244141,-0.4914318919181824
-0.061703585088253,0.0941797345876693,0.0939291045069694,-0.4026831388473511,-0.0311852023005485,0.1693759858608245,0.0,0.0,0.9155770540237428,0.1701500415802002
-0.0607127174735069,0.0852951854467392,0.0907355919480323,-0.3947172164916992,-0.0229319147765636,0.1650655567646026,0.0,0.0,0.9294124841690063,-0.4302158951759338
-0.0595907196402549,0.0772106498479843,0.1033071503043174,-0.3592047095298767,-0.0141598023474216,0.1754422187805175,0.0,0.0,0.8291410207748413,-0.6658608913421631
-0.0585307106375694,0.0693650841712951,0.0957859456539154,-0.3486226499080658,-0.0040748785249888,0.2016988098621368,0.0,0.0,0.924508571624756,0.8871974945068359
-0.0575457587838172,0.0622108094394207,0.0903272107243537,-0.3179681897163391,0.0039920033887028,0.1613376438617706,0.0,0.0,0.8135842084884644,0.9030628204345704
-0.0563753135502338,0.0555032826960086,0.1104520186781883,-0.2981428802013397,0.0104927252978086,0.1300146281719207,0.0,0.0,0.6607732772827148,0.4182970523834228
-0.0552549362182617,0.049218114465475,0.1056676357984542,-0.2793978750705719,0.0167871098965406,0.1258875131607055,0.0,0.0,0.2253801822662353,-0.4048125743865967
-0.0541926398873329,0.0430563315749168,0.100097931921482,-0.2739391624927521,0.0228354334831237,0.1209663748741149,0.0,0.0,0.9092059135437012,0.6379673480987549
-0.05311069637537,0.0370478257536888,0.1034051775932312,-0.2671244740486145,0.0275675822049379,0.094643048942089,0.0,0.0,0.7921547889709473,-0.4424320459365845
-0.052159309387207,0.0313039645552635,0.0909100845456123,-0.2553654611110687,0.0317426137626171,0.0835007727146148,0.0,0.0,0.8497729301452637,0.6797049045562744
-0.0513399131596088,0.0257232524454593,0.0794974565505981,-0.2480858415365219,0.0341478548943996,0.0481050014495849,0.0,0.0,0.73195481300354,0.7173972129821777
-0.050353430211544,0.0205767732113599,0.0973761305212974,-0.2287656515836715,0.0354071035981178,0.0251849852502346,0.0,0.0,0.6717884540557861,0.8000121116638184
-0.0492321960628032,0.0152813056483864,0.1123151630163192,-0.2353470027446746,0.0352151878178119,-0.0038384434301406,0.0,0.0,0.9111742973327636,-0.5652462840080261
-0.0479916557669639,0.0106117585673928,0.1225821003317833,-0.2075693011283874,0.0366621725261211,0.0289399083703756,0.0,0.0,0.9221303462982178,-0.8986030220985413
-0.0468674674630165,0.006589088588953,0.1091959848999977,-0.1788690090179443,0.039845734834671,0.0636712461709976,0.0,0.0,0.7387800216674805,-0.4404504299163818
-0.0456110946834087,0.003214833792299,0.121719479560852,-0.150075152516365,0.0437249019742012,0.0775831788778305,0.0,0.0,0.3530069589614868,-0.5607069134712219
-0.0444257743656635,0.0005609130603261,0.1323433518409729,-0.117624431848526,0.0300227794796228,-0.2741223275661468,0.0,1.0,0.4372131824493408,0.2578094005584717
-0.0434385314583778,-0.0012275481130927,0.1291452646255493,-0.0791643857955932,-7.65021177357994e-05,-0.6020710468292236,0.0,1.0,0.4227398633956909,-0.7111383676528931
-0.0423372276127338,-0.0020104669965803,0.1183779388666153,-0.0348243750631809,-0.0082430494949221,-0.1633670628070831,1.0,1.0,0.4998865127563476,-0.9914780855178832
-0.0412478446960449,-0.0018921280279755,0.1079793125391006,0.0052573503926396,-0.0073267421685159,0.0182936079800128,1.0,1.0,-0.3767077922821045,-0.9876496195793152
-0.0403464324772357,-0.001391484751366,0.0862292200326919,0.022258423268795,-0.0034873876720666,0.0767569690942764,1.0,1.0,-0.6324982643127441,-0.9341493248939514
-0.0396265983581543,-0.0006340646650642,0.0661405101418495,0.0336640998721122,0.0022713842336088,0.1151419058442115,1.0,1.0,-0.7933968305587769,-0.7942911982536316
-0.0390447601675987,-0.0004556798958219,0.0567553043365478,0.0079224351793527,0.0036614148411899,0.0277819279581308,1.0,1.0,-0.5492907166481018,-0.9773796796798706
-0.0386158004403114,-0.0004582548281177,0.0428837537765502,-0.0001165465655503,0.0036606842186301,-2.896026126109064e-05,1.0,1.0,-0.3743382692337036,-0.7612188458442688
-0.0383121483027935,-0.0004594707570504,0.0303537659347057,-5.705026342184283e-05,0.0036605836357921,-1.4123421351541763e-05,1.0,1.0,-0.4989175796508789,-0.3253575563430786
-0.0380754470825195,-0.0004593277117237,0.0236604176461696,2.6065840756928083e-06,0.0036611352115869,6.272921382333152e-07,1.0,1.0,-0.4840230941772461,-0.1776306629180908
-0.037905503064394,-0.0004592561745084,0.0169803388416767,4.197437135644577e-07,0.0036615759599953,8.280080265876678e-08,1.0,1.0,-0.5973537564277649,0.0663837194442749
