x_pos,y_pos,x_vel,y_vel,angle,ang_vel,leg_1,leg_2,main_booster,lat_booster
-0.0015574455028399,1.403319001197815,-0.1580671072006225,-0.3378272652626037,0.0020770851988345,0.0409957766532897,0.0,0.0,-0.4664984941482544,0.8363181352615356
-0.003077793167904,1.3954317569732666,-0.1525453627109527,-0.3505455255508423,0.002585464855656,0.0101691018790006,0.0,0.0,-0.1729029417037964,0.6518580913543701
-0.0045695304870605,1.387234091758728,-0.148373082280159,-0.3643427789211273,0.0017956969095394,-0.0157966185361146,0.0,0.0,0.0210202932357788,0.3675827980041504
-0.0061695100739598,1.3791937828063965,-0.1591076552867889,-0.3573464155197143,0.0009262479143217,-0.0173908807337284,0.0,0.0,0.2238209247589111,0.8335548639297485
-0.0076286317780613,1.3715752363204956,-0.143748477101326,-0.3385961651802063,-0.001217367593199,-0.0428763851523399,0.0,0.0,-0.3422932028770447,0.6020636558532715
-0.0090636257082223,1.3636503219604492,-0.1401193141937255,-0.3522216975688934,-0.0045561203733086,-0.0667814388871193,0.0,0.0,-0.013081669807434,-0.1130653023719787
-0.0105324741452932,1.3554202318191528,-0.1437767595052719,-0.3657961785793304,-0.007631164509803,-0.0615067109465599,0.0,0.0,-0.1054674983024597,0.1616073846817016
-0.0120352748781442,1.3468847274780271,-0.1474317461252212,-0.3793727457523346,-0.010447209700942,-0.0563256666064262,0.0,0.0,-0.408740758895874,0.0394761562347412
-0.0135719301179051,1.3380438089370728,-0.1510834991931915,-0.3929500579833984,-0.0130081791430711,-0.0512243695557117,0.0,0.0,0.1355103254318237,0.9104399681091307
-0.0150649072602391,1.3296505212783811,-0.1451428830623626,-0.3730718195438385,-0.0171224977821111,-0.082293651998043,0.0,0.0,0.1446545124053955,0.6975011825561523
-0.0164621360599994,1.3215670585632324,-0.1345084607601165,-0.3593351542949676,-0.0222868081182241,-0.1032956466078758,0.0,0.0,-0.2114976644515991,-0.3468385338783264
-0.0178933143615722,1.3131781816482544,-0.1381368488073349,-0.3729158043861389,-0.027210472151637,-0.0984822064638137,0.0,0.0,-0.1514060497283935,-0.2174499034881591
-0.0193583481013774,1.304484248161316,-0.1417592018842697,-0.386492520570755,-0.031899482011795,-0.0937887877225875,0.0,0.0,-0.3981765508651733,0.3478779792785644
-0.0208572391420602,1.2954849004745483,-0.1453746259212494,-0.4000701010227203,-0.0363597050309181,-0.0892126187682151,0.0,0.0,0.0521460771560668,0.6688075065612793
-0.0222156532108783,1.2869659662246704,-0.1303421854972839,-0.3787693977355957,-0.0418110229074955,-0.1090362295508384,0.0,0.0,-0.7687839865684509,0.0466783046722412
-0.0236079208552837,1.2781413793563845,-0.1339379251003265,-0.392354816198349,-0.0470464117825031,-0.1047171130776405,0.0,0.0,-0.7063594460487366,0.8053543567657471
-0.0249555595219135,1.269015908241272,-0.1277069002389907,-0.4058214724063873,-0.0540368072688579,-0.1398205906152725,0.0,0.0,-0.4327293634414673,-0.111220896244049
-0.0263368599116802,1.2595852613449097,-0.1312763392925262,-0.4194022417068481,-0.0608256496489048,-0.1357888132333755,0.0,0.0,-0.789767324924469,-0.1539517641067505
-0.0277518276125192,0.0,-0.134834736585617,-0.4329827725887298,-0.067422367632389,-0.1319461911916732,0.0,0.0,-0.5958587527275085,0.2043683528900146
-0.0292002670466899,1.2398087978363037,-0.1383804231882095,-0.4465632140636444,-0.0738353133201599,-0.1282704174518585,0.0,0.0,-0.2584526538848877,0.3686980009078979
-0.030682373791933,1.22946298122406,-0.141912043094635,-0.4601436257362366,-0.0800736397504806,-0.1247778385877609,0.0,0.0,0.6069340705871582,-0.3354684114456177
-0.0321520790457725,1.2194539308547974,-0.1409019976854324,-0.4451828896999359,-0.0860939472913742,-0.1204172521829605,0.0,0.0,-0.6744022369384766,0.3033901453018188
-0.0336552634835243,1.209139704704285,-0.1444019228219986,-0.4587679207324981,-0.0919594466686248,-0.1173205375671386,0.0,0.0,-0.7827539443969727,0.0950145721435546
-0.0351917259395122,1.198519945144653,-0.1478825509548187,-0.4723462462425232,-0.0976806953549385,-0.114435076713562,0.0,0.0,-0.3904488086700439,0.8332464694976807
-0.0367111191153526,1.1875901222229004,-0.1450378447771072,-0.4862351715564728,-0.1045371666550636,-0.1371414512395858,0.0,0.0,-0.0852785110473632,-0.1423178315162658
-0.0382651314139366,1.1763339042663574,-0.148621991276741,-0.5007652640342712,-0.1112720370292663,-0.134697288274765,0.0,0.0,-0.5088995099067688,-0.9509872794151306
-0.0399261489510536,1.1647908687591553,-0.16133414208889,-0.5133864283561707,-0.1160106509923935,-0.0947723612189292,0.0,0.0,-0.257625937461853,-0.4776021242141723
-0.0416202545166015,1.152942419052124,-0.1647380292415619,-0.5269625782966614,-0.1206531152129173,-0.0928492099046707,0.0,0.0,-0.183063805103302,-0.6092327237129211
-0.0434049591422081,1.1408042907714844,-0.1753806173801422,-0.5397260785102844,-0.1237306073307991,-0.0615498833358287,0.0,0.0,-0.0559389591217041,0.903761386871338
-0.0451542846858501,1.1283446550369265,-0.1701573431491851,-0.5541641116142273,-0.128481239080429,-0.0950124934315681,0.0,0.0,0.6610405445098877,0.6179623603820801
-0.0467577949166297,1.1168397665023804,-0.154447466135025,-0.5118483901023865,-0.1343580186367035,-0.1175360232591629,0.0,0.0,0.3885844945907593,0.4660762548446655
-0.0484089851379394,1.105590581893921,-0.1589649468660354,-0.5005356669425964,-0.1404949575662613,-0.1227388754487037,0.0,0.0,0.198297381401062,-0.4156805276870727
-0.0500701889395713,1.0949125289916992,-0.1597113311290741,-0.4752016067504883,-0.1468807160854339,-0.1277152597904205,0.0,0.0,0.5448708534240723,0.4247779846191406
-0.051772691309452,1.0844428539276123,-0.163591668009758,-0.4659840762615204,-0.1535283327102661,-0.132952407002449,0.0,0.0,-0.6849247813224792,-0.3351016044616699
-0.0535066612064838,1.0736684799194336,-0.1667443811893463,-0.4795629382133484,-0.1601765006780624,-0.1329631954431533,0.0,0.0,0.1173455715179443,0.5712616443634033
-0.0551315322518348,1.0633370876312256,-0.1547171026468277,-0.4600356817245483,-0.1679586321115493,-0.1556427180767059,0.0,0.0,0.3168759346008301,0.905900239944458
-0.0566802024841308,1.0532214641571045,-0.145236536860466,-0.4507027566432953,-0.1776056140661239,-0.1929397284984588,0.0,0.0,-0.3871359825134277,0.3533732891082763
-0.0582591071724891,1.042801856994629,-0.1482367515563964,-0.4642862677574157,-0.1872966587543487,-0.1938213109970092,0.0,0.0,-0.5027030110359192,0.9124352931976318
-0.0598002448678016,1.032069206237793,-0.1427311301231384,-0.4784787893295288,-0.1987509876489639,-0.2290867120027542,0.0,0.0,-0.90301775932312,-0.4650546312332153
-0.0613706596195697,1.0210332870483398,-0.1456110030412674,-0.4920659363269806,-0.2102780640125274,-0.2305415570735931,0.0,0.0,-0.8389222025871277,-0.3532737493515014
-0.0629697814583778,1.0096937417984009,-0.1484240740537643,-0.5056535601615906,-0.2218919843435287,-0.2322779893875122,0.0,0.0,-0.6600300669670105,-0.7722480893135071
-0.0646446198225021,0.998065173625946,-0.1571401208639145,-0.5184226632118225,-0.2323714047670364,-0.2095880806446075,0.0,0.0,0.0229413509368896,-0.6659773588180542
-0.0662878006696701,0.9864033460617064,-0.1552645713090896,-0.519758939743042,-0.2415665239095688,-0.1839026510715484,0.0,0.0,-0.889200747013092,-0.5168390274047852
-0.0679912567138671,0.97444885969162,-0.1620281487703323,-0.532705545425415,-0.2500187158584595,-0.1690440326929092,0.0,0.0,0.582127571105957,0.5065608024597168
-0.0696537047624588,0.9625949263572692,-0.1566941440105438,-0.5284940600395203,-0.25975102186203,-0.1946467012166977,0.0,0.0,-0.3085261583328247,-0.4208892583847046
-0.0713413208723068,0.9504374265670776,-0.1591024994850158,-0.5420801043510437,-0.2696360647678375,-0.1977006494998932,0.0,0.0,-0.5347425937652588,-0.6841259598731995
-0.0731010437011718,0.937991976737976,-0.1673685163259506,-0.554742693901062,-0.2784437537193298,-0.1761543750762939,0.0,0.0,0.8008414506912231,-0.8030831813812256
-0.0748227089643478,0.9266430139541626,-0.1647701263427734,-0.5058308243751526,-0.2860535085201263,-0.15219447016716,0.0,0.0,-0.4315389990806579,-0.2955668568611145
-0.0765671730041503,0.9149900674819946,-0.1668757498264312,-0.5194150805473328,-0.2938506305217743,-0.1559426039457321,0.0,0.0,-0.5895392298698425,-0.1206021308898925
-0.078333280980587,0.9030331373214722,-0.1688709408044815,-0.5329999327659607,-0.3018457889556885,-0.1599033176898956,0.0,0.0,0.3808307647705078,-0.3271081447601318
-0.0798637419939041,0.8914026618003845,-0.1456503272056579,-0.5184706449508667,-0.3094946146011352,-0.1529766172170639,0.0,0.0,0.2981233596801758,-0.7796981930732727
-0.0813434571027755,0.8803513646125793,-0.1418641954660415,-0.4924813508987427,-0.3158248364925384,-0.1266053020954132,0.0,0.0,0.8406808376312256,-0.5043405890464783
-0.0826033577322959,0.8696578741073608,-0.1210340857505798,-0.4763519465923309,-0.3209801614284515,-0.1031057834625244,0.0,0.0,-0.514657735824585,-0.4081505537033081
-0.0838805213570594,0.8586603999137878,-0.1225390285253524,-0.4899355173110962,-0.3263713121414184,-0.1078231558203697,0.0,0.0,-0.950495421886444,-0.7748619318008423
-0.0852177590131759,0.8473781943321228,-0.1294614821672439,-0.5024041533470154,-0.330818772315979,-0.0889490470290184,0.0,0.0,-0.4280951023101806,-0.785159707069397
-0.0866381675004959,0.8358232378959656,-0.1393216103315353,-0.5141774415969849,-0.3336626291275024,-0.0568769387900829,0.0,0.0,-0.2093232870101928,-0.8042694926261902
-0.0881208404898643,0.8239973783493042,-0.1466284394264221,-0.5259771347045898,-0.3353697955608368,-0.0341425910592079,0.0,0.0,0.6439051628112793,-0.9063081741333008
-0.0893159881234169,0.8127804398536682,-0.1196082830429077,-0.498508095741272,-0.3352751433849334,0.0018929293146356,0.0,0.0,0.3853379487991333,-0.8835016489028931
-0.0902909263968467,0.8022447228431702,-0.0991230532526969,-0.4678698480129242,-0.3335706293582916,0.0340899899601936,0.0,0.0,-0.1205930113792419,-0.6767204403877258
-0.0913304314017295,0.7914400696754456,-0.106814756989479,-0.4795513749122619,-0.330579936504364,0.0598135776817798,0.0,0.0,-0.3917783498764038,-0.6925904750823975
-0.0924263000488281,0.7803499102592468,-0.1134159341454505,-0.4920254051685333,-0.3265857696533203,0.0798830389976501,0.0,0.0,0.5535244941711426,-0.9167819619178772
-0.0934849753975868,0.7699831128120422,-0.1110983490943908,-0.4595682024955749,-0.3211287260055542,0.1091408878564834,0.0,0.0,0.5818123817443848,-0.7908613681793213
-0.0943272560834884,0.7599830031394958,-0.0909629017114639,-0.4429725408554077,-0.3141396641731262,0.1397811770439148,0.0,0.0,-0.3801784515380859,-0.6835883855819702
-0.0952220931649208,0.7497044801712036,-0.0972241312265396,-0.4551720917224884,-0.3061110973358154,0.1605711877346038,0.0,0.0,-0.4638246893882751,-0.4534537196159363
-0.0961189270019531,0.7391223907470703,-0.097154214978218,-0.4687601029872894,-0.2983877956867218,0.1544661074876785,0.0,0.0,-0.4689182639122009,0.3353147506713867
-0.0970164313912391,0.7282367944717407,-0.0969398766756057,-0.4823476374149322,-0.2909740209579468,0.148275226354599,0.0,0.0,-0.547363817691803,-0.3993213176727295
-0.0979132652282714,0.7170476317405701,-0.0965833514928817,-0.4959347546100616,-0.2838738560676574,0.1420038044452667,0.0,0.0,-0.8417479395866394,0.005761981010437
-0.0988080948591232,0.7055549025535583,-0.0960872843861579,-0.5095214247703552,-0.2770909965038299,0.1356569677591323,0.0,0.0,-0.8811255693435669,0.0946289300918579
-0.0996995940804481,0.6937583088874817,-0.0954547747969627,-0.523107647895813,-0.2706290185451507,0.1292393803596496,0.0,0.0,-0.8787294030189514,-0.2402424216270446
-0.1005865111947059,0.6816580295562744,-0.0946892872452735,-0.5366934537887573,-0.2644912302494049,0.1227557882666587,0.0,0.0,-0.6810382008552551,-0.6873655915260315
-0.1015273109078407,0.6692814230918884,-0.1013405174016952,-0.5487842559814453,-0.2570743858814239,0.1483366042375564,0.0,0.0,-0.8547396659851074,0.0315381288528442
-0.1024609580636024,0.656601071357727,-0.100321352481842,-0.5623708963394165,-0.2499877661466598,0.1417324841022491,0.0,0.0,-0.98890483379364,0.6577527523040771
-0.103345587849617,0.6436087489128113,-0.0940838307142257,-0.576487123966217,-0.2442725449800491,0.1143042892217636,0.0,0.0,-0.9057903289794922,-0.2315272688865661
-0.1042209640145301,0.6303126811981201,-0.0928268805146217,-0.5900716781616211,-0.2388927787542343,0.1075955778360366,0.0,0.0,-0.9751014709472656,0.270753264427185
-0.1050859466195106,0.6167123913764954,-0.0914581343531608,-0.6036559343338013,-0.2338507920503616,0.10083968937397,0.0,0.0,-0.795559287071228,-0.5006626844406128
-0.105974294245243,0.6028152704238892,-0.0943549424409866,-0.616787314414978,-0.2282574474811554,0.111867107450962,0.0,0.0,-0.660679817199707,-0.2475260496139526
-0.1068502441048622,0.5886139869689941,-0.0927769765257835,-0.630371630191803,-0.2230061441659927,0.1050261631608009,0.0,0.0,-0.8610418438911438,0.0223098993301391
-0.1077127456665039,0.5741086602210999,-0.0911013707518577,-0.643955409526825,-0.2180988043546676,0.0981471166014671,0.0,0.0,-0.902717649936676,-0.0129259824752807
-0.1085609421133995,0.5592992305755615,-0.0893328413367271,-0.6575388312339783,-0.213537186384201,0.0912326648831367,0.0,0.0,-0.6346389651298523,0.2803163528442383
-0.1093939766287803,0.5441855192184448,-0.0874760895967483,-0.6711217761039734,-0.2093228995800018,0.0842853784561157,0.0,0.0,0.4358569383621216,-0.0284485220909118
-0.1102611571550369,0.5292249321937561,-0.0900370627641677,-0.6644477248191833,-0.2059777081012725,0.0669039338827133,0.0,0.0,0.5780960321426392,-0.929992139339447
-0.1109852790832519,0.5150861144065857,-0.077299989759922,-0.6277206540107727,-0.2010541558265686,0.0984711796045303,0.0,0.0,-0.6282491683959961,-0.1362569332122802
-0.1116919517517089,0.5006430745124817,-0.0752060934901237,-0.6413037776947021,-0.1964822113513946,0.0914390832185745,0.0,0.0,-0.371523380279541,0.3170723915100097
-0.1123804077506065,0.4858957529067993,-0.0730417296290397,-0.6548863649368286,-0.1922630667686462,0.0843829363584518,0.0,0.0,0.8779363632202148,-0.6635193824768066
-0.1129635795950889,0.4720369577407837,-0.0634466037154197,-0.6152871251106262,-0.1870998740196228,0.1032637804746627,0.0,0.0,0.8494398593902588,0.6130146980285645
-0.1132555976510047,0.4587912261486053,-0.0330457985401153,-0.5882223844528198,-0.1832484155893325,0.0770290866494178,0.0,0.0,-0.1094418168067932,-0.7061587572097778
-0.1135812774300575,0.445248931646347,-0.0374027006328105,-0.6012898683547974,-0.1783965528011322,0.0970370918512344,0.0,0.0,0.3452211618423462,0.0656335353851318
-0.1137539893388748,0.4318661987781524,-0.0220927018672227,-0.5942144989967346,-0.1735520511865615,0.0968901589512825,0.0,0.0,0.7799961566925049,-0.5607860088348389
-0.1136760711669921,0.419055700302124,0.0017253204714506,-0.5686586499214172,-0.1674826592206955,0.1213878616690635,0.0,0.0,0.7413326501846313,0.261772871017456
-0.1133625954389572,0.4065191745758056,0.0249695125967264,-0.5564737319946289,-0.1610918343067169,0.1278164386749267,0.0,0.0,-0.1273639798164367,-0.4062033295631408
-0.1130269989371299,0.3936784863471985,0.0275189764797687,-0.5700570940971375,-0.1550598442554474,0.1206398010253906,0.0,0.0,0.7160384654998779,-0.271198034286499
-0.1125156432390213,0.3816937208175659,0.0453073307871818,-0.5320597887039185,-0.1492386311292648,0.1164241433143615,0.0,0.0,0.2558637857437134,-0.2221033573150634
-0.1118124946951866,0.3701356947422027,0.064401164650917,-0.5131078958511353,-0.143339455127716,0.117983341217041,0.0,0.0,-0.5156871676445007,-0.1459066271781921
-0.1110862717032432,0.3582733869552612,0.0670667737722396,-0.5266902446746826,-0.1378006041049957,0.1107769608497619,0.0,0.0,0.0777293443679809,-0.5027222633361816
-0.1103678718209266,0.3466148674488067,0.0657041147351265,-0.5176032781600952,-0.1316894441843032,0.1222234517335891,0.0,0.0,0.177517294883728,-0.1325726509094238
-0.1094852462410926,0.3355545103549957,0.08220986276865,-0.4910488724708557,-0.1256602853536605,0.1205831170082092,0.0,0.0,-0.5998920202255249,0.1667859554290771
-0.108578585088253,0.3241897523403168,0.0849673300981521,-0.5046308636665344,-0.1199923679232597,0.1133580207824707,0.0,0.0,-0.2298244833946228,-0.4016220569610595
-0.1076477020978927,0.3125205039978027,0.0877506881952285,-0.5182123780250549,-0.1146859005093574,0.1061291545629501,0.0,0.0,-0.2992405891418457,-0.3724827766418457
-0.1066923141479492,0.3005466759204864,0.0905577093362808,-0.5317932963371277,-0.1097410172224044,0.0988976508378982,0.0,0.0,0.6149427890777588,-0.1755720376968383
-0.1056839972734451,0.2893702983856201,0.0964628830552101,-0.4964118301868438,-0.1053998991847038,0.0868224799633026,0.0,0.0,0.3776986598968506,-0.3217967748641968
-0.1046536415815353,0.2788316011428833,0.0993430763483047,-0.4681342542171478,-0.1017396301031112,0.0732053890824318,0.0,0.0,-0.2045820951461792,-0.5858752727508545
-0.1036464720964431,0.2679935395717621,0.0961688607931137,-0.4813897907733917,-0.0972252637147903,0.0902874022722244,0.0,0.0,0.3991672992706299,-0.5673859119415283
-0.102716252207756,0.2576338350772857,0.0879329442977905,-0.4601057171821594,-0.0921791046857833,0.1009230613708496,0.0,0.0,-0.4143149852752685,-0.4924320578575134
-0.1017607674002647,0.2469695210456848,0.0908278077840805,-0.4736858010292053,-0.0874943137168884,0.0936957448720932,0.0,0.0,-0.0188931226730346,-0.5862530469894409
-0.1008175835013389,0.2360090166330337,0.0889758914709091,-0.4868325293064117,-0.0822069495916366,0.1057471185922622,0.0,0.0,0.5759470462799072,-0.0022866129875183
-0.0997616797685623,0.2252627164125442,0.1003432646393776,-0.4773330986499786,-0.0770098194479942,0.1039427518844604,0.0,0.0,0.6026263236999512,-0.1489001512527465
-0.0984828025102615,0.215302363038063,0.1223369240760803,-0.4424097836017608,-0.0715224146842956,0.1097482293844223,0.0,0.0,-0.0209066271781921,-0.5993514657020569
-0.0972270965576171,0.2050475180149078,0.1191322058439254,-0.4554742872714996,-0.0651550814509391,0.1273465603590011,0.0,0.0,0.3909356594085693,-0.5777990818023682
-0.0958133712410926,0.1955634504556656,0.133843645453453,-0.4212056994438171,-0.0577125288546085,0.148851528763771,0.0,0.0,-0.3883647918701172,-0.8308000564575195
-0.0944313034415245,0.1857801079750061,0.1295945346355438,-0.4345069825649261,-0.0491850040853023,0.1705502569675445,0.0,0.0,0.0381973981857299,-0.4128488302230835
-0.093002513051033,0.1764614731073379,0.1346328854560852,-0.4139122664928436,-0.0410369224846363,0.1629613190889358,0.0,0.0,-0.4736697673797607,-0.6907080411911011
-0.0915967971086502,0.1668477207422256,0.1314340978860855,-0.4270555078983307,-0.0320100337266922,0.1805377304553985,0.0,0.0,0.1384193897247314,-0.0377112030982971
-0.0900995284318924,0.157400757074356,0.1406820118427276,-0.4197008013725281,-0.0230832509696483,0.1785356551408767,0.0,0.0,0.3668782711029053,-0.5219047665596008
-0.0887154564261436,0.1484227329492569,0.1289348751306533,-0.3989050686359405,-0.0137317394837737,0.1870303303003311,0.0,0.0,-0.152686595916748,0.1493093967437744
-0.0873055458068847,0.1391405612230301,0.1318769752979278,-0.4124879539012909,-0.0047351731918752,0.179931178689003,0.0,0.0,0.8067343235015869,-0.5160452127456665
-0.0859328284859657,0.1304788142442703,0.127556711435318,-0.3849615156650543,0.0048614186234772,0.1919318437576294,0.0,0.0,0.2031679153442382,0.9446158409118652
-0.084439180791378,0.1220943033695221,0.1418884545564651,-0.3726855516433716,0.0122334249317646,0.1474403142929077,0.0,0.0,-0.1459059715270996,-0.916870653629303
-0.082976721227169,0.1133957952260971,0.1376911848783493,-0.3866951167583465,0.0206825323402881,0.1689821779727935,0.0,0.0,0.5898008346557617,0.1512860059738159
-0.0814084038138389,0.105382353067398,0.1481868177652359,-0.3562966287136078,0.0292157810181379,0.1706651598215103,0.0,0.0,0.2124221324920654,-0.6948973536491394
-0.07986631244421,0.0979570746421814,0.144495740532875,-0.3302286863327026,0.0388100035488605,0.1918842047452926,0.0,0.0,0.114215612411499,0.8045152425765991
