x_pos,y_pos,x_vel,y_vel,angle,ang_vel,leg_1,leg_2,main_booster,lat_booster
-0.0015017508994787,1.4030170440673828,-0.1522721350193023,-0.3512515425682068,0.0018779477104544,0.0370528176426887,0.0,0.0,-0.8342223124481776,0.9961441092358296
-0.0028954506851732,1.3945249319076538,-0.1391760557889938,-0.3774273693561554,0.0016825943021103,-0.0039069904014468,0.0,0.0,-0.4105769870376978,0.9757147889624728
-0.004171275999397,1.3854180574417114,-0.1251043230295181,-0.4047538638114929,-0.0007629766478203,-0.0489160642027854,0.0,0.0,0.5897220853542211,-0.621083098998533
-0.0055944444611668,1.376422882080078,-0.1408789604902267,-0.399788498878479,-0.0021882634609937,-0.028508523479104,0.0,0.0,0.9800526286163748,-0.9591037895530106
-0.006894493009895,1.367995023727417,-0.1309116780757904,-0.3745705187320709,-0.001290695159696,0.0179532282054424,0.0,0.0,0.2329014344283841,-0.7682318402001349
-0.0081113819032907,1.3595662117004397,-0.1243610605597496,-0.3746112585067749,0.0013534310273826,0.0528874583542346,0.0,0.0,-0.8732273679717373,0.8976404285932468
-0.0092326160520315,1.3505301475524902,-0.1131422147154808,-0.4016052782535553,0.0023622727021574,0.0201785452663898,0.0,0.0,0.2981757787558972,0.9600531175572824
-0.010114955715835,1.3416526317596436,-0.0874866843223571,-0.3945527374744415,0.0016283055301755,-0.0146809536963701,0.0,0.0,0.5583276673005566,-0.964669624309064
-0.0110583305358886,1.3333617448806765,-0.0955739989876747,-0.3684854805469513,0.0028497294988483,0.024430664256215,0.0,0.0,-0.7298673789502725,-0.9366473793425169
-0.0120461462065577,1.3244688510894775,-0.1019385457038879,-0.3952511548995971,0.0059807123616337,0.0626251846551895,0.0,0.0,-0.4091534291801981,-0.79299564231067
-0.0130573268979787,1.314968824386597,-0.1056984439492225,-0.4222498834133148,0.0105028245598077,0.0904504880309104,0.0,0.0,-0.1490823693315903,-0.6507749496365427
-0.0140833854675292,1.3048595190048218,-0.1083675622940063,-0.4493519961833954,0.0162002723664045,0.1139597445726394,0.0,0.0,-0.3167489586740986,-0.8793914490392158
-0.0151329990476369,1.2941465377807615,-0.1121328026056289,-0.4762296974658966,0.0232931300997734,0.1418700963258743,0.0,0.0,0.9631957533163352,-0.6555321620905611
-0.0161248203366994,1.283454656600952,-0.1079342514276504,-0.4753473997116089,0.0319456793367862,0.1730668246746063,0.0,0.0,0.9705402260055268,0.7377402164655003
-0.0168767925351858,1.2736494541168213,-0.0829275101423263,-0.4359692633152008,0.039596676826477,0.1530337482690811,0.0,0.0,-0.4912004267250616,-0.7948902828944817
-0.0176478382200002,1.2632250785827637,-0.0861554890871048,-0.4635691046714782,0.0485463328659534,0.1790095418691635,0.0,0.0,-0.3838121064965143,-0.8265032593272591
-0.0184375755488872,1.2522003650665283,-0.0892807021737098,-0.4903475344181061,0.0587580762803554,0.2042534053325653,0.0,0.0,0.8164031803971734,-0.7091856212783074
-0.0191052444279193,1.2411906719207764,-0.0788957178592681,-0.4898357987403869,0.0707718580961227,0.2402974665164947,0.0,0.0,0.1096427260450647,-0.726206445244032
-0.019761849194765,1.2303909063339231,-0.079292856156826,-0.4806885123252868,0.0842827707529068,0.2702429890632629,0.0,0.0,0.4163123966626949,-0.8446313253970139
-0.0205710418522357,1.2196928262710571,-0.0961056128144264,-0.4763992726802826,0.0993519350886344,0.3014106452465057,0.0,0.0,0.5532161545513776,0.7917431063277492
-0.0212234500795602,1.2094796895980835,-0.0790013298392295,-0.4548902809619903,0.1130367070436477,0.2737205028533935,0.0,0.0,-0.4007004580001774,-0.8784513960099115
-0.0219101905822753,1.198644995689392,-0.084111601114273,-0.4827763438224792,0.1284037828445434,0.3073685765266418,0.0,0.0,0.9056155819827674,-0.6194353062444211
-0.022534180432558,1.1881612539291382,-0.0794181078672409,-0.4675039052963257,0.1453922390937805,0.3397996127605438,0.0,0.0,-0.8514576545684049,-0.6895826971612966
-0.0231721885502338,1.1770554780960083,-0.0819557458162307,-0.495461493730545,0.1635515689849853,0.3632190823554992,0.0,0.0,0.0404633044140978,-0.9930454063673926
-0.0240276344120502,1.165903925895691,-0.1056281104683876,-0.4979577660560608,0.1836945414543151,0.4028955101966858,0.0,0.0,0.1793650017050634,-0.7431464495881734
-0.0251138694584369,1.1548255681991575,-0.129952386021614,-0.495146244764328,0.205143392086029,0.4289774298667907,0.0,0.0,0.1113034711648217,-0.7311168331423923
-0.0263209342956542,1.1438515186309814,-0.1433146297931671,-0.4910367727279663,0.2279950678348541,0.4570334851741791,0.0,0.0,-0.0703802442463474,-0.6289064306456116
-0.0275547988712787,1.1322627067565918,-0.147325336933136,-0.5189401507377625,0.2523124516010284,0.4863476157188415,0.0,0.0,0.16262452665909,-0.8352408015220756
-0.0290596969425678,1.1208083629608154,-0.1757881045341491,-0.5136367082595825,0.2781763076782226,0.51727694272995,0.0,0.0,-0.9498422355692816,-0.9643511763650052
-0.0306070335209369,1.1087195873260498,-0.1817316561937332,-0.5426586866378784,0.3059860169887543,0.5561944842338562,0.0,0.0,-0.5795158765859947,0.8818946113481192
-0.032055951654911,1.096074104309082,-0.1697756350040435,-0.5674816370010376,0.3318472802639007,0.5172251462936401,0.0,0.0,-0.1031298016183335,-0.9187148151034508
-0.0335484519600868,1.08278489112854,-0.175858736038208,-0.596996009349823,0.3597448170185089,0.5579513311386108,0.0,0.0,0.5837490361061184,-0.6942259401607206
-0.0354133620858192,1.0699081420898438,-0.213902398943901,-0.5794433951377869,0.3887948095798492,0.581000030040741,0.0,0.0,0.4635824539727631,0.939597140053994
-0.0373566634953022,1.0568740367889404,-0.2194777727127075,-0.5863956809043884,0.4157614111900329,0.5393322110176086,0.0,0.0,0.0913601841501308,0.8430818872687468
-0.0393636710941791,1.043858289718628,-0.2238687574863433,-0.5855135321617126,0.4408771097660064,0.5023139715194702,0.0,0.0,-0.9488135866692128,0.8775984164054089
-0.0412763580679893,1.030292272567749,-0.2123446017503738,-0.609735369682312,0.4639938771724701,0.4623351693153381,0.0,0.0,0.0337521813408749,-0.8376175923163038
-0.0433588027954101,1.016446590423584,-0.2305549085140228,-0.6230167746543884,0.4887630343437195,0.4953838884830475,0.0,0.0,0.4375952455343033,-0.7028278144839538
-0.0457382202148437,1.0028694868087769,-0.2612210810184479,-0.611918568611145,0.5149515867233276,0.523771345615387,0.0,0.0,-0.825653600567871,0.894626213336294
-0.0480324737727642,0.9887483716011048,-0.2507043480873108,-0.6358479857444763,0.5392409563064575,0.4857873916625976,0.0,0.0,0.5039433667668407,-0.8022823141760328
-0.0506085380911827,0.9747130274772644,-0.2799710631370544,-0.6329545378684998,0.5651577711105347,0.5183359384536743,0.0,0.0,0.5141071222853453,0.7027428927980506
-0.0535817146301269,0.9609429240226746,-0.3178017437458038,-0.6208749413490295,0.589256227016449,0.4819703102111816,0.0,0.0,-0.7733357548713684,0.9978089332580566
-0.0564444549381732,0.9466461539268494,-0.3041627407073974,-0.6435605883598328,0.6106512546539307,0.4279022216796875,0.0,0.0,-0.7663557529449463,0.9832069873809814
-0.0591974258422851,0.9318128824234008,-0.2908352315425873,-0.6666386127471924,0.6294741630554199,0.376457929611206,0.0,0.0,-0.8432596325874329,0.9984214305877686
-0.0618435852229595,0.916452169418335,-0.2777993679046631,-0.6891863942146301,0.6456514596939087,0.3235473036766052,0.0,0.0,-0.6933692693710327,0.9873043298721312
-0.0643945708870887,0.9005407691001892,-0.2664186358451843,-0.7129374146461487,0.6597173810005188,0.2813180387020111,0.0,0.0,-0.7290963530540466,0.9948012828826904
-0.0668418854475021,0.8840908408164978,-0.2539945244789123,-0.735945463180542,0.6713332533836365,0.2323175966739654,0.0,0.0,-0.8332134485244751,0.9964430332183838
-0.0691862106323242,0.8671084046363831,-0.2416302412748336,-0.7586066722869873,0.6804248094558716,0.1818303167819976,0.0,0.0,-0.6193463206291199,0.9754455089569092
-0.0714530944824218,0.8495842218399048,-0.2323471754789352,-0.7819284796714783,0.6876252293586731,0.1440087854862213,0.0,0.0,-0.5288668870925903,0.9873867034912108
-0.0736434012651443,0.8315150141716003,-0.2232139408588409,-0.8053805232048035,0.692985475063324,0.1072043627500534,0.0,0.0,-0.6680518388748169,0.9846138954162598
-0.0757413879036903,0.8129056096076965,-0.2122420817613601,-0.8284433484077454,0.6961260437965393,0.0628116205334663,0.0,0.0,-0.7210431694984436,0.97446608543396
-0.0777331367135047,0.7937769293785095,-0.1994413882493972,-0.8503089547157288,0.6964742541313171,0.0069645652547478,0.0,0.0,-0.468222439289093,0.9454057216644288
-0.0796422958374023,0.7741081118583679,-0.189611479640007,-0.8734441995620728,0.6947927474975586,-0.0336306169629097,0.0,0.0,-0.4435333013534546,0.9738969802856444
-0.0814462676644325,0.7539120316505432,-0.1770142465829849,-0.8957319259643555,0.6904507875442505,-0.0868390351533889,0.0,0.0,-0.3548300862312317,0.9642478227615356
-0.0831620246171951,0.7331860661506653,-0.1663859188556671,-0.9183213710784912,0.6838242411613464,-0.1325305998325348,0.0,0.0,-0.3904820680618286,0.8287558555603027
-0.084780216217041,0.7119250893592834,-0.1547145992517471,-0.9410890340805054,0.6747958660125732,-0.1805686205625534,0.0,0.0,0.1199946403503418,0.9256104230880736
-0.0865658745169639,0.6904234886169434,-0.1697053760290146,-0.9509437680244446,0.6636318564414978,-0.2232801914215088,0.0,0.0,-0.0584784150123596,0.92230486869812
-0.0882566422224044,0.6683976054191589,-0.1581311374902725,-0.9732872843742372,0.6499847173690796,-0.272942304611206,0.0,0.0,0.1937768459320068,0.8518861532211304
-0.0900666266679763,0.6465145349502563,-0.168338268995285,-0.96626478433609,0.6343739032745361,-0.3122168481349945,0.0,0.0,-0.3835901021957397,0.6316155195236206
-0.0918021202087402,0.6240796446800232,-0.1593461036682129,-0.990247905254364,0.6170740723609924,-0.3459968268871307,0.0,0.0,-0.3223689794540405,0.1045671701431274
-0.0935049057006836,0.6010396480560303,-0.1557928025722503,-1.0172609090805054,0.599639892578125,-0.3486831784248352,0.0,0.0,0.3808315992355346,-0.1482366323471069
-0.0953144058585167,0.577813982963562,-0.1663461029529571,-1.0257062911987305,0.5822696089744568,-0.3474051356315613,0.0,0.0,0.2900648117065429,0.1473478078842163
-0.0974578857421875,0.5546049475669861,-0.1991605460643768,-1.0249587297439575,0.5644037127494812,-0.3573178052902221,0.0,0.0,0.2243751287460327,0.2996256351470947
-0.0996966361999511,0.5313501358032227,-0.2087612450122833,-1.0272743701934814,0.5468283295631409,-0.3515085577964782,0.0,0.0,0.4334104061126709,0.2579622268676758
-0.1021620780229568,0.5081878304481506,-0.2312301695346832,-1.0233302116394043,0.5292153358459473,-0.3522598445415497,0.0,0.0,0.5625467300415039,-0.1239818930625915
-0.1047801971435546,0.4849172234535217,-0.2462542057037353,-1.0282915830612185,0.5115053057670593,-0.3542004227638244,0.0,0.0,0.6950931549072266,-0.2478266954421997
-0.1077737808227539,0.4617420136928558,-0.282997190952301,-1.0240063667297363,0.493077665567398,-0.3685528635978699,0.0,0.0,0.8234891891479492,-0.3602769374847412
-0.1111616119742393,0.4392274022102356,-0.3222330808639526,-0.9948418140411376,0.47463059425354,-0.3689418137073517,0.0,0.0,0.5440088510513306,-0.5243629217147827
-0.1146034225821495,0.4164958000183105,-0.3285675942897796,-1.0050472021102903,0.4573701620101928,-0.3452092111110687,0.0,0.0,0.6910278797149658,-0.6511942744255066
-0.118420124053955,0.3943279981613159,-0.3671042621135711,-0.9805419445037842,0.4414010047912597,-0.3193830847740173,0.0,0.0,0.7893109321594238,-0.6151131391525269
-0.1225653663277626,0.3721467852592468,-0.4006756246089935,-0.9815425276756288,0.4263219833374023,-0.3015806376934051,0.0,0.0,0.8834438323974609,-0.7337805032730103
-0.1271543502807617,0.3503109514713287,-0.4460082650184631,-0.9666431546211244,0.4123890995979309,-0.2786577641963959,0.0,0.0,0.6269631385803223,-0.8289032578468323
-0.1319861412048339,0.3286938667297363,-0.4717424809932709,-0.9574741125106812,0.4001033306121826,-0.2457152605056762,0.0,0.0,0.7830333709716797,-0.9467083811759948
-0.1373547613620758,0.3076053261756897,-0.5268777012825012,-0.9344894886016846,0.3894182443618774,-0.2137016057968139,0.0,0.0,0.869152307510376,-0.9850590825080872
-0.142925351858139,0.2868251502513885,-0.5489641427993774,-0.92136949300766,0.3807854950428009,-0.1726543456315994,0.0,0.0,0.7840862274169922,-0.9785335659980774
-0.148728460073471,0.2659532725811004,-0.5739168524742126,-0.9259523153305054,0.3740085661411285,-0.1355385333299636,0.0,0.0,0.7974035739898682,-0.9706424474716188
-0.1546204537153244,0.2449615746736526,-0.5847090482711792,-0.9317968487739564,0.3692461550235748,-0.0952480286359787,0.0,0.0,6.222724914550781e-05,-0.9666852355003356
-0.1606452018022537,0.2235869467258453,-0.5997737646102905,-0.9492918848991394,0.3663894832134247,-0.05713327601552,0.0,0.0,0.5799084901809692,-0.9792879223823548
-0.1669929474592209,0.2026285976171493,-0.6338634490966797,-0.9312476515769958,0.3654186129570007,-0.019417617470026,0.0,0.0,0.3217449188232422,-0.9472686052322388
-0.1735459268093109,0.1819850951433181,-0.6561492085456848,-0.9177045822143556,0.3663157224655151,0.0179424565285444,0.0,0.0,0.5618860721588135,-0.8959551453590393
-0.180524542927742,0.161722332239151,-0.7001968622207642,-0.9011685252189636,0.368794322013855,0.0495720990002155,0.0,0.0,-0.1000146269798278,-0.6160107851028442
-0.1875262260437011,0.1408141255378723,-0.7038804292678833,-0.9302164912223816,0.3727206289768219,0.0785261467099189,0.0,0.0,0.7072955369949341,-0.5610299110412598
-0.194796472787857,0.1204442828893661,-0.731831967830658,-0.906584084033966,0.3778145909309387,0.1018791943788528,0.0,0.0,0.899935245513916,0.0504641532897949
-0.2023901045322418,0.1003251373767852,-0.7635565400123596,-0.8953033089637756,0.3822764456272125,0.0892368406057357,0.0,0.0,0.9587748050689696,0.1466133594512939
-0.2103150337934494,0.0806802809238433,-0.7963203191757202,-0.8741334676742554,0.3863476812839508,0.0814248770475387,0.0,0.0,0.9910802841186525,0.3776638507843017
-0.2185426652431488,0.0615905374288558,-0.8264415860176086,-0.8494349718093872,0.3902655243873596,0.0783567801117897,0.0,1.0,0.963292360305786,0.9998736381530762
-0.2233472317457199,0.0525900460779666,-0.4927384257316589,-0.4052139520645141,0.4003983736038208,0.1975707709789276,0.0,1.0,0.979945182800293,0.9999768733978271
-0.2284990847110748,0.044084083288908,-0.5039733648300171,-0.3749757707118988,0.3891585767269134,-0.2238912135362625,0.0,1.0,0.9655969142913818,0.9999576807022096
-0.2336029559373855,0.0364344231784343,-0.4811035096645355,-0.3323691487312317,0.3585849404335022,-0.6108947396278381,0.0,1.0,0.9958741664886476,0.9976176023483276
-0.2386156022548675,0.0305849164724349,-0.4360803961753845,-0.2453015446662902,0.2906581461429596,-1.358540654182434,0.0,1.0,0.9989981651306152,0.8851399421691895
-0.2435182631015777,0.0253854375332593,-0.4107978343963623,-0.2174496203660965,0.2094864249229431,-1.6236292123794556,0.0,1.0,0.997539758682251,0.0188208818435668
-0.2486291825771331,0.021060787141323,-0.4284550547599792,-0.1827467978000641,0.1264993399381637,-1.6600048542022705,0.0,1.0,0.9497058391571044,-0.3183913230895996
-0.2538039088249206,0.0175155494362115,-0.4357741773128509,-0.1527769267559051,0.045468270778656,-1.620690107345581,0.0,0.0,0.7207832336425781,-0.9972941875457764
-0.2589154243469238,0.0145026063546538,-0.4313715398311615,-0.1334957778453827,-0.033350970596075,-1.576448917388916,0.0,0.0,0.6707522869110107,-0.9987363219261168
-0.263948529958725,0.0114504666998982,-0.4258655905723572,-0.1392676681280136,-0.1100536733865737,-1.53411602973938,0.0,0.0,0.829008936882019,-0.999642252922058
-0.2688223719596863,0.0093232961371541,-0.4317435324192047,-0.0997110605239868,-0.165288895368576,-1.1044191122055054,1.0,0.0,0.9970369338989258,-0.6802033185958862
-0.2732032835483551,0.0087155075743794,-0.4047309756278991,-0.0311203096061944,-0.1986525207757949,-0.6671182513237,1.0,0.0,0.7974830865859985,0.5302407741546631
-0.2771973609924316,0.0089511843398213,-0.3845162093639374,0.0083841513842344,-0.2136011123657226,-0.2988821864128113,1.0,0.0,0.7338902950286865,0.525902509689331
-0.2808940410614013,0.0102989766746759,-0.3700267374515533,0.0599408969283103,-0.213203027844429,0.0080182896926999,1.0,0.0,0.2709107398986816,0.3565728664398193
-0.2841925024986267,0.0120723107829689,-0.3433662056922912,0.0806993171572685,-0.1995148062705993,0.273835688829422,1.0,0.0,-0.3236513137817383,0.2011283636093139
-0.2874012887477875,0.0133539773523807,-0.3396815061569214,0.0593731924891471,-0.1805499345064163,0.3793787062168121,0.0,0.0,-0.947666883468628,0.9811406135559082
-0.2905001640319824,0.0140452720224857,-0.328148603439331,0.0328300967812538,-0.1621963232755661,0.3671424984931946,0.0,0.0,-0.904550850391388,0.078299880027771
-0.2933758199214935,0.0155048938468098,-0.2879740297794342,0.0620872974395751,-0.1630780100822448,0.0083632972091436,0.0,0.0,-0.904550850391388,0.078299880027771
