x_pos,y_pos,x_vel,y_vel,angle,ang_vel,leg_1,leg_2,main_booster,lat_booster
-0.0014619827270507,1.4032971858978271,-0.1479849517345428,-0.3387976586818695,0.0015994405839592,0.031538225710392,0.0,0.0,-0.2617237567901611,0.3100254535675049
-0.002861404325813,1.3953700065612793,-0.1413788199424743,-0.3523171246051788,0.0030210255645215,0.0284348428249359,0.0,0.0,-0.5872228741645813,0.8543479442596436
-0.0041153905913233,1.3871091604232788,-0.1246047392487526,-0.367143452167511,0.0022366249468177,-0.0156895238906145,0.0,0.0,-0.5855592489242554,0.6604198217391968
-0.0052636144682765,1.378519058227539,-0.1128135100007057,-0.381782054901123,0.0002574215177446,-0.039587564766407,0.0,0.0,0.2358434200286865,0.6612644195556641
-0.0061874389648437,1.370335578918457,-0.0890962854027748,-0.3637151718139648,-0.0029993562493473,-0.0651418343186378,0.0,0.0,-0.1300510764122009,-0.4641718864440918
-0.0070458413101732,1.3618247509002686,-0.0824022144079208,-0.3782690465450287,-0.0064120688475668,-0.068260408937931,0.0,0.0,-0.7726356387138367,-0.0162896513938903
-0.0078385351225733,1.3529869318008425,-0.0756504535675048,-0.3928148448467254,-0.0099852262064814,-0.071469634771347,0.0,0.0,-0.6085333824157715,-0.0535080432891845
-0.0085647581145167,1.3438218832015991,-0.0688442885875701,-0.4073624610900879,-0.0137226376682519,-0.0747548937797546,0.0,0.0,-0.6674176454544067,-0.7439371347427368
-0.009283828549087,1.3343390226364136,-0.0694755762815475,-0.4214833378791809,-0.0161247141659259,-0.0480456836521625,0.0,0.0,-0.2307486534118652,-0.6417543888092041
-0.0099862096831202,1.3245341777801514,-0.0689210444688797,-0.4357852935791015,-0.0174257829785347,-0.0260241515934467,0.0,0.0,-0.4821317195892334,-0.4169337749481201
-0.0106209758669137,1.3144021034240725,-0.061981089413166,-0.4503329992294311,-0.0189021863043308,-0.0295306388288736,0.0,0.0,-0.8622490167617798,-0.4847919940948486
-0.0111877443268895,1.3039427995681765,-0.0550004318356514,-0.4648808538913727,-0.0205563399940729,-0.0330864004790782,0.0,0.0,-0.8139539361000061,-0.7430174350738525
-0.011732006445527,1.2931615114212036,-0.053737711161375,-0.4791812598705292,-0.0212360713630914,-0.0135957924649119,0.0,0.0,-0.8463675379753113,-0.7971608638763428
-0.0122633930295705,1.282047152519226,-0.0536823160946369,-0.4939603507518768,-0.020700404420495,0.0107142264023423,0.0,0.0,-0.6772775650024414,-0.3589125871658325
-0.0127259250730276,1.2706058025360107,-0.0466074422001838,-0.5085080862045288,-0.0203510131686925,0.006988457404077,0.0,0.0,-0.8744502663612366,-0.7759892344474792
-0.0131695745512843,1.2588293552398682,-0.0458012260496616,-0.5233756303787231,-0.0189302135258913,0.0284186042845249,0.0,0.0,-0.7855387926101685,-0.3373638987541199
-0.0135438917204737,1.2467256784439087,-0.0386783517897129,-0.5379236936569214,-0.0176998991519212,0.0246086586266756,0.0,0.0,-0.7122155427932739,-0.7919673919677734
-0.0138965602964162,1.2342894077301023,-0.0375321432948112,-0.5527002215385437,-0.0154606699943542,0.0447884686291217,0.0,0.0,-0.4917483925819397,-0.7271721959114075
-0.0142277721315622,1.221534013748169,-0.036409955471754,-0.5668798685073853,-0.0122035508975386,0.0651483461260795,0.0,0.0,-0.6520391702651978,-0.4663925766944885
-0.0144892688840627,1.208451271057129,-0.0292401704937219,-0.5814287662506104,-0.0091410661116242,0.0612549073994159,0.0,0.0,-0.5925743579864502,-0.3000525832176208
-0.0146808624267578,1.195041537284851,-0.0220585167407989,-0.5959773659706116,-0.0062736612744629,0.0573534294962883,0.0,0.0,-0.8985881805419922,-0.503280520439148
-0.0148416515439748,1.1813020706176758,-0.0197637919336557,-0.610632061958313,-0.0026218781713396,0.0730422437191009,0.0,0.0,-0.5579777359962463,-0.1597023010253906
-0.0149324415251612,1.1672356128692627,-0.0125716952607035,-0.6251808404922485,0.0008327904506586,0.0690996348857879,0.0,0.0,-0.7837697267532349,0.1818094253540039
-0.0149532314389944,1.1528418064117432,-0.0053773107938468,-0.6397295594215393,0.0040906881913542,0.0651636570692062,0.0,0.0,-0.6347888112068176,-0.2207669019699096
-0.0149042131379246,1.1381206512451172,0.0018156695878133,-0.6542783379554749,0.0071514416486024,0.0612204186618328,0.0,0.0,-0.6188834309577942,0.2740410566329956
-0.0147850988432765,1.1230510473251345,0.009014680981636,-0.6697804927825928,0.0100154634565114,0.0572802349925041,0.0,0.0,-0.5642606616020203,0.6000702381134033
-0.0145483016967773,1.107658624649048,0.0221962947398424,-0.6841201186180115,0.0114826811477541,0.0293441303074359,0.0,0.0,-0.3732898235321045,-0.0062656998634338
-0.0142416954040527,1.0919387340545654,0.0293718464672565,-0.6986656785011292,0.0127551108598709,0.0254487004131078,0.0,0.0,-0.1924768090248108,-0.7108294367790222
-0.0139339445158839,1.075896382331848,0.0279397964477539,-0.7130233645439148,0.0155535023659467,0.0559680238366127,0.0,0.0,-0.2440109252929687,-0.1953895092010498
-0.0135567663237452,1.0595266819000244,0.0350797250866889,-0.7275694608688354,0.0181597284972667,0.0521243587136268,0.0,0.0,-0.5894730091094971,0.0404677391052246
-0.0131102558225393,1.0428297519683838,0.0421962663531303,-0.7421153783798218,0.0205753408372402,0.0483121871948242,0.0,0.0,-0.6432275772094727,0.1067262887954711
-0.0125948907807469,1.0258054733276367,0.0492855496704578,-0.7566612362861633,0.0228020846843719,0.0445352531969547,0.0,0.0,-0.7619301676750183,-0.0111091136932373
-0.0120107652619481,1.0084540843963623,0.05634356290102,-0.7712069153785706,0.0248419567942619,0.0407973378896713,0.0,0.0,-0.7512842416763306,-0.2497811317443847
-0.011358356103301,0.9907755255699158,0.0633661597967147,-0.785752534866333,0.0266970600932836,0.0371021032333374,0.0,0.0,-0.3208866119384765,-0.173267662525177
-0.0106379510834813,0.9727694392204284,0.0703489929437637,-0.8002980947494507,0.028369715437293,0.0334531925618648,0.0,0.0,-0.3608952760696411,0.0209654569625854
-0.0098499301820993,0.9544361233711244,0.0772875770926475,-0.8148435354232788,0.0298624299466609,0.0298541281372308,0.0,0.0,0.2660266160964966,0.5605854988098145
-0.0089829443022608,0.936296820640564,0.0865479260683059,-0.8061990737915039,0.030018700286746,0.0031252403277903,0.0,0.0,-0.2254229187965393,-0.2990138530731201
-0.0080492971464991,0.9178300499916076,0.0933836624026298,-0.8207442164421082,0.0300005301833152,-0.0003634402528405,0.0,0.0,0.2624634504318237,0.0860519409179687
-0.0070988656952977,0.8999998569488525,0.0953663140535354,-0.7924415469169617,0.0296718105673789,-0.0065744491294026,0.0,0.0,-0.4748550057411194,-0.5726555585861206
-0.0061263083480298,0.881841242313385,0.0966603755950927,-0.807061493396759,0.0302602741867303,0.0117695489898324,0.0,0.0,-0.3890902996063232,0.5107471942901611
-0.0050559043884277,0.8633611798286438,0.1074645072221756,-0.8213313817977905,0.0298476088792085,-0.0082534598186612,0.0,0.0,-0.8260607719421387,-0.7817780375480652
-0.0039704320952296,0.8445496559143066,0.1078653782606124,-0.8360780477523804,0.0305099785327911,0.0132475476711988,0.0,0.0,-0.7223424911499023,-0.0521408915519714
-0.002821922302246,0.8254110217094421,0.1143491715192794,-0.850623369216919,0.0310146808624267,0.0100940698757767,0.0,0.0,-0.4142868518829345,-0.4186077117919922
-0.0016109466087073,0.8059448599815369,0.1207441091537475,-0.8651686310768127,0.0313655510544776,0.0070173814892768,0.0,0.0,-0.2747479677200317,-0.1567121744155883
-0.0003384590090718,0.7861514687538147,0.127043217420578,-0.8797138929367065,0.0315665863454341,0.0040206676349043,0.0,0.0,-0.2249147891998291,-0.7550537586212158
0.0009394645458087,0.7660202980041504,0.1263336092233657,-0.8947468996047974,0.0330100581049919,0.0288693271577358,0.0,0.0,-0.3640408515930176,-0.0717408061027526
0.002276801969856,0.7455618381500244,0.1324190199375152,-0.9092923998832704,0.0343121513724327,0.0260416157543659,0.0,0.0,0.2586438655853271,-0.9114354848861694
0.0034793852828443,0.7257294058799744,0.1172975078225135,-0.8815137147903442,0.037231221795082,0.0583814494311809,0.0,0.0,0.0287901163101196,-0.1083553433418273
0.0046380995772778,0.7063007354736328,0.1134429797530174,-0.8635590076446533,0.0396357662975788,0.0480907224118709,0.0,0.0,-0.2737491130828857,-0.1161664128303527
0.0058526038192212,0.6865448355674744,0.1191468834877014,-0.8781047463417053,0.0419126637279987,0.0455379709601402,0.0,0.0,0.806731104850769,-0.5934160947799683
0.0072162626311182,0.6674051284790039,0.1325455754995346,-0.8507694602012634,0.0456917658448219,0.0755819156765937,0.0,0.0,0.5062413215637207,-0.721810519695282
0.0084871295839548,0.6489415168762207,0.1220275536179542,-0.8207640051841736,0.0506827794015407,0.099820427596569,0.0,0.0,0.0749330520629882,-0.3077626228332519
0.0098654748871922,0.6305897831916809,0.1325739324092865,-0.8158235549926758,0.0558901242911815,0.1041468605399131,0.0,0.0,-0.3180717825889587,0.0718802213668823
0.0112935062497854,0.611910879611969,0.1376392096281051,-0.8303709626197815,0.0609899796545505,0.1019971966743469,0.0,0.0,-0.1873650550842285,-0.3760478496551513
0.0127692222595214,0.5929051041603088,0.1425190567970276,-0.8449181914329529,0.0659876838326454,0.0999541282653808,0.0,0.0,0.7581479549407959,-0.8410369157791138
0.014079475775361,0.5743013620376587,0.124588131904602,-0.8271268010139465,0.0723591744899749,0.1274296343326568,0.0,0.0,0.907827854156494,0.8349757194519043
0.0155511852353811,0.5567753911018372,0.1422585546970367,-0.7791786193847656,0.0772173479199409,0.0971634238958358,0.0,0.0,0.1648457050323486,-0.2073539495468139
0.017124842852354,0.5396447777748108,0.1520951688289642,-0.761641800403595,0.0824400633573532,0.1044543161988258,0.0,0.0,-0.1287917494773864,-0.3432625532150268
0.0187378879636526,0.5221871733665466,0.1561209708452224,-0.7761891484260559,0.0875829085707664,0.1028568297624588,0.0,0.0,0.5532646179199219,0.0144730806350708
0.0202521327883005,0.5054969787597656,0.1466457545757293,-0.7420721650123596,0.0923203825950622,0.0947496965527534,0.0,0.0,-0.0400041341781616,-0.1345463395118713
0.0218009948730468,0.4884797632694244,0.1501743644475937,-0.7566191554069519,0.096989594399929,0.0933842658996582,0.0,0.0,0.3944541215896606,0.1719908714294433
0.0232401844114065,0.4720070660114288,0.1396764516830444,-0.7324036955833435,0.1012049093842506,0.0843062177300453,0.0,0.0,0.2019038200378418,0.7022266387939453
0.0248269084841012,0.4557905197143554,0.1557536572217941,-0.7209317684173584,0.1040926575660705,0.0577549524605274,0.0,0.0,0.1328307390213012,-0.84661465883255
0.026348304003477,0.4398677051067352,0.1475720107555389,-0.7080076932907104,0.1086263731122016,0.0906741172075271,0.0,0.0,0.5915881395339966,0.6080653667449951
0.0279075615108013,0.4241982400417328,0.1526083499193191,-0.6966670155525208,0.1119234710931778,0.0659420788288116,0.0,0.0,0.5501346588134766,-0.510612428188324
0.0292614940553903,0.4090008437633514,0.1314219683408737,-0.6757422089576721,0.115872710943222,0.0789850130677223,0.0,0.0,0.4119380712509155,-0.3464338183403015
0.0305665023624897,0.3945692777633667,0.1264682114124298,-0.6417219638824463,0.1198742538690567,0.0800308138132095,0.0,0.0,0.5039888620376587,0.6174787282943726
0.0319835655391216,0.3802230358123779,0.138765349984169,-0.6378499865531921,0.1227974891662597,0.0584647059440612,0.0,0.0,-0.1575119495391845,-0.5320762395858765
0.0333708748221397,0.3655484020709991,0.1348011046648025,-0.6525365710258484,0.1267118453979492,0.0782872289419174,0.0,0.0,0.5142605304718018,0.8015259504318237
0.0346785560250282,0.3511824309825897,0.1286041289567947,-0.6386725306510925,0.1288634836673736,0.0430326238274574,0.0,0.0,0.2518714666366577,-0.1776723265647888
0.035855196416378,0.3372390270233154,0.1158317103981971,-0.6198651194572449,0.1306842565536499,0.0364153906702995,0.0,0.0,0.4160498380661011,0.3776715993881225
0.0369888320565223,0.3237668871879577,0.111413337290287,-0.5989343523979187,0.1326237320899963,0.0387895368039608,0.0,0.0,0.4978234767913818,0.4387733936309814
0.037902258336544,0.3110827505588531,0.0899359136819839,-0.5638661980628967,0.1340253502130508,0.0280319843441247,0.0,0.0,0.7797253131866455,0.7378464937210083
0.0388691909611225,0.2990250587463379,0.09656573086977,-0.535908043384552,0.1341469585895538,0.0024321023374795,0.0,0.0,0.4940971136093139,0.2810044288635254
0.039748191833496,0.2871597409248352,0.0879079699516296,-0.5273460745811462,0.1341408640146255,-0.0001220381454913,0.0,0.0,0.874503493309021,0.3712174892425537
0.0406404510140419,0.2755309641361236,0.0888526737689971,-0.5168691873550415,0.134510263800621,0.0073880380950868,0.0,0.0,0.899280309677124,0.4962364435195923
0.0414268486201763,0.2641476094722748,0.0784166008234024,-0.5059458613395691,0.1347353309392929,0.0045013246126472,0.0,0.0,0.8507052659988403,0.3118669986724853
0.0420637130737304,0.2537558674812317,0.0634674206376075,-0.4618732333183288,0.1349456310272216,0.0042059179395437,0.0,0.0,0.8506231307983398,-0.0112183690071105
0.0426419265568256,0.2444132715463638,0.0571600124239921,-0.4152877032756805,0.1356040388345718,0.0131683824583888,0.0,0.0,0.8150351047515869,-0.4878790974617004
0.0429486259818077,0.236052930355072,0.0305496547371149,-0.3715806305408478,0.1357300728559494,0.0025207037106156,0.0,0.0,0.5810450315475464,0.713538646697998
0.0431031212210655,0.227813109755516,0.0169753562659025,-0.3660764396190643,0.1342096924781799,-0.0304076969623565,0.0,0.0,0.774749755859375,0.4076910018920898
0.0431524291634559,0.2205171436071396,0.0062064742669463,-0.3241521418094635,0.1329360902309417,-0.025472093373537,0.0,0.0,0.4818606376647949,0.5952274799346924
0.0430442802608013,0.2136511951684951,-0.0081705953925848,-0.3049221336841583,0.1303032040596008,-0.052657812833786,0.0,0.0,-0.2458009123802185,0.16253662109375
0.0428953170776367,0.2064580768346786,-0.0123061677441,-0.3194689452648163,0.1277241557836532,-0.0515814051032066,0.0,0.0,0.1311061382293701,0.8351287841796875
0.0426973327994346,0.19966521859169,-0.0155859161168336,-0.3015474677085876,0.1235276684165,-0.0839294716715812,0.0,0.0,0.2866899967193603,0.1878976821899414
0.042464256286621,0.1932324916124344,-0.0194678585976362,-0.2855862081050873,0.1197056323289871,-0.0764410644769668,0.0,0.0,-0.1457501053810119,0.7033920288085938
0.0422397628426551,0.1864763349294662,-0.0172053296118974,-0.2998615503311157,0.1144903898239135,-0.1043047457933425,0.0,0.0,0.4545373916625976,0.7253882884979248
0.0420701019465923,0.1799418330192566,-0.0104852858930826,-0.2899407744407654,0.1080503687262535,-0.1288000792264938,0.0,0.0,0.2696166038513183,-0.6547382473945618
0.0418721213936805,0.1737467795610427,-0.0149003267288208,-0.2749918103218078,0.1031882539391517,-0.097241960465908,0.0,0.0,0.1639413833618164,-0.1701780557632446
0.041686438024044,0.1676545292139053,-0.014203505590558,-0.2704722285270691,0.0988504067063331,-0.0867569148540496,0.0,0.0,-0.2067515850067138,-0.0447515845298767
0.0414416305720806,0.1612352430820465,-0.0201820842921733,-0.2850200533866882,0.0945842117071151,-0.085323765873909,0.0,0.0,0.1463849544525146,0.4126753807067871
0.0411072745919227,0.1552781611680984,-0.0293054021894931,-0.2645061314105987,0.0904904454946518,-0.081875666975975,0.0,0.0,0.2584879398345947,-0.3953852653503418
0.0407583229243755,0.1497659087181091,-0.0312820710241794,-0.24477219581604,0.0869096741080284,-0.0716151148080825,0.0,0.0,-0.0067744851112365,-0.1039657592773437
0.0403443351387977,0.1439266949892044,-0.0378620103001594,-0.2593194544315338,0.0834039375185966,-0.0701145902276039,0.0,0.0,0.0367472171783447,-0.0565897226333618
0.0398039817810058,0.1382339745759964,-0.050411432981491,-0.252811461687088,0.0798212736845016,-0.0716535896062851,0.0,0.0,-0.4130403995513916,0.2396180629730224
0.0391952507197856,0.1322142481803894,-0.0573329105973243,-0.2673586905002594,0.0763144269585609,-0.0701370313763618,0.0,0.0,-0.0446248054504394,0.712820291519165
0.0385705940425396,0.1258735060691833,-0.0576227493584156,-0.2815710008144378,0.0715187191963195,-0.0959141626954078,0.0,0.0,-0.3072332143783569,0.2389860153198242
0.0378745086491107,0.119205817580223,-0.064842090010643,-0.2961190342903137,0.0667985081672668,-0.0944042205810546,0.0,0.0,-0.2876498699188232,0.4104306697845459
0.0371055603027343,0.1122113317251205,-0.072195291519165,-0.3106669485569,0.0621532052755355,-0.0929060876369476,0.0,0.0,0.1400356292724609,0.9003937244415283
0.0362581238150596,0.1056741774082183,-0.0782975107431411,-0.2902861833572387,0.0557765364646911,-0.127533346414566,0.0,0.0,-0.4561414718627929,0.8531138896942139
0.0353933349251747,0.0988214612007141,-0.0786167532205581,-0.3042922019958496,0.0480068922042846,-0.1553930342197418,0.0,0.0,-0.177356481552124,-0.2844836115837097
0.0344522483646869,0.091642364859581,-0.0863168314099311,-0.3188431859016418,0.0403087623417377,-0.1539625972509384,0.0,0.0,0.2538690567016601,-0.2178852558135986
0.0333269126713275,0.0848155319690704,-0.1043863445520401,-0.3032168745994568,0.032270923256874,-0.1607569307088852,0.0,0.0,0.4222112894058227,0.3983938694000244
0.0319795608520507,0.0783320963382721,-0.1260711103677749,-0.2879918217658996,0.023701773956418,-0.171383187174797,0.0,0.0,0.5781519412994385,0.7527753114700317
0.0307077411562204,0.0725622773170471,-0.1172500699758529,-0.2563051283359527,0.013905456289649,-0.1959263235330581,0.0,0.0,0.0074151754379272,-0.2475749850273132
0.0293904300779104,0.0668046101927757,-0.1220516711473465,-0.2558280229568481,0.0043454635888338,-0.1911999434232711,0.0,0.0,0.4491801261901855,-0.4102885723114013
0.0281167030334472,0.0617256499826908,-0.1183402761816978,-0.2257332354784011,-0.0045653893612325,-0.1782171428203582,0.0,0.0,-0.2935649752616882,-0.3731637597084045
0.0267617218196392,0.0563204623758792,-0.1265343129634857,-0.2402855306863784,-0.0134186428040266,-0.177065223455429,0.0,0.0,0.2796460390090942,-0.1797954440116882
0.0254440307617187,0.0515793189406394,-0.1233666986227035,-0.2108127325773239,-0.0217062793672084,-0.1657527387142181,0.0,0.0,-0.3685888051986694,-0.3118414878845215
0.0240438468754291,0.0465119443833828,-0.1316790878772735,-0.2253640443086624,-0.0299429707229137,-0.1647337824106216,0.0,0.0,0.3350870609283447,-0.3188897371292114
0.0225744247436523,0.0421075448393821,-0.1386213153600692,-0.1959378272294998,-0.0381593257188797,-0.1643270254135131,0.0,0.0,-0.4707174301147461,0.63421630859375
0.0210767742246389,0.0373792760074138,-0.1400927156209945,-0.2104173004627227,-0.0477203056216239,-0.1912196576595306,0.0,0.0,0.2806031703948974,0.1351675987243652
0.0195742603391408,0.0328529216349124,-0.1409071534872055,-0.2014948576688766,-0.0569530799984931,-0.1846553683280944,0.0,0.0,0.0972423553466796,0.3191741704940796
0.017929458990693,0.0286223273724317,-0.1547960340976715,-0.1884220540523529,-0.0665266290307045,-0.1914713084697723,0.0,0.0,0.1142740249633789,0.0804085731506347
0.0161364562809467,0.0245939344167709,-0.1692552715539932,-0.1795155107975006,-0.0764701962471008,-0.1988713443279266,0.0,0.0,0.4187715053558349,0.4202957153320312
0.0142765995115041,0.0209657289087772,-0.1758819222450256,-0.1618005931377411,-0.086473524570465,-0.2000663727521896,0.0,0.0,0.143662691116333,0.2245780229568481
0.0123807908967137,0.0175610408186912,-0.179584801197052,-0.1519271433353424,-0.0963727906346321,-0.1979853212833404,0.0,0.0,-0.1813822388648986,0.1216266155242919
0.0103990556672215,0.0138304093852639,-0.1882135719060897,-0.1664808392524719,-0.1062562018632888,-0.1976687014102935,0.0,0.0,0.5648027658462524,0.4353623390197754
0.0084915161132812,0.0107249114662408,-0.1812483817338943,-0.1387249380350113,-0.1157020181417465,-0.1889161318540573,1.0,0.0,0.6867425441741943,0.8218799829483032
0.0068859099410474,0.0088483309373259,-0.1596108227968216,-0.0837389379739761,-0.115805760025978,-0.0009471586090512,1.0,0.0,0.272478699684143,0.9624133110046388
0.0056179999373853,0.0073612071573734,-0.1388372182846069,-0.0652115643024444,-0.1038035154342651,0.2400940358638763,1.0,0.0,-0.3295654058456421,0.9356527328491212
