x_pos,y_pos,x_vel,y_vel,angle,ang_vel,leg_1,leg_2,main_booster,lat_booster
-0.0014988898765295,1.4034538269042969,-0.151268646121025,-0.3318337202072143,0.0012361707631498,0.0243454910814762,0.0,0.0,0.2411786993469105,-0.7193379659528966
-0.0029904365073889,1.3963563442230225,-0.1513473242521286,-0.3154439628124237,0.0034068569075316,0.0434184446930885,0.0,0.0,-0.7036188137325603,-0.1758977368710453
-0.0044658659026026,1.3890876770019531,-0.149210125207901,-0.3230551183223724,0.0050534512847661,0.0329349413514137,0.0,0.0,-0.393482823029597,-0.5764221567162862
-0.0059839249588549,1.3816461563110352,-0.1543277204036712,-0.3307458162307739,0.007541015278548,0.049756109714508,0.0,0.0,-0.6613035652960708,0.195795316591181
-0.0074951173737645,1.37403404712677,-0.1530984938144683,-0.3383288383483886,0.0095018604770302,0.0392205342650413,0.0,0.0,-0.0298718644550226,0.9870923280550278
-0.0089085577055811,1.3662512302398682,-0.1403705775737762,-0.3458991050720215,0.0085384240373969,-0.0192704256623983,0.0,0.0,0.6566565262249968,0.1553746293577989
-0.0103517528623342,1.359165906906128,-0.1427026540040969,-0.3148914277553558,0.0069408230483531,-0.0319551825523376,0.0,0.0,0.8701426682782345,0.041941507102722
-0.0116375926882028,1.3530100584030151,-0.1272533237934112,-0.2735853791236877,0.0056214984506368,-0.0263887010514736,0.0,0.0,0.6956617330632058,-0.1799669391997655
-0.012952041812241,1.3479716777801514,-0.1295178085565567,-0.2239209115505218,0.0037154187448322,-0.0381249524652957,0.0,0.0,0.4230870975778917,-0.1250621880491992
-0.0142854694277048,1.3437011241912842,-0.1308687627315521,-0.1897982060909271,0.0012799624819308,-0.048713844269514,0.0,0.0,0.0851677975664246,0.1403634115850929
-0.0155830383300781,1.3398457765579224,-0.1270252764225006,-0.1713484674692154,-0.0014126985333859,-0.053858209401369,0.0,0.0,-0.8298238164521228,-0.8634365223599372
-0.0169652942568063,1.3358181715011597,-0.136495754122734,-0.1790052205324173,-0.0031194684561342,-0.0341388508677482,0.0,0.0,0.4540555336850103,0.0864434130402304
-0.0182599071413278,1.3325430154800415,-0.1277424395084381,-0.1455679982900619,-0.0048081828281283,-0.0337774418294429,0.0,0.0,0.5942663482953225,0.7016528519793636
-0.0194573402404785,1.3296037912368774,-0.1162668615579605,-0.1306478530168533,-0.0082552600651979,-0.0689479038119316,0.0,0.0,0.6004690796609968,0.1310392206308024
-0.0205484386533498,1.327690362930298,-0.105751633644104,-0.0850653275847435,-0.0115777775645256,-0.0664563924074173,0.0,0.0,-0.1505454510498496,-0.2892353980738237
-0.0216801650822162,1.3256062269210815,-0.1092949360609054,-0.0926575511693954,-0.0154189709573984,-0.0768304020166397,0.0,0.0,0.985593161747591,0.6067738091220276
-0.0226158145815134,1.324895977973938,-0.0884490460157394,-0.031629629433155,-0.0204769559204578,-0.1011689156293869,0.0,0.0,0.7766938368033554,-0.9834164444978254
-0.0234971046447753,1.3246080875396729,-0.0847311541438102,-0.0128405280411243,-0.0238397791981697,-0.0672625675797462,0.0,0.0,0.114573573135795,-0.1472583707160032
-0.0243509300053119,1.3249598741531372,-0.0817811191082,0.0155693190172314,-0.0274081770330667,-0.0713740885257721,0.0,0.0,0.0360979568690498,-0.2648960296871583
-0.0252997390925884,1.3256754875183103,-0.0905189961194992,0.0317215658724308,-0.0317209810018539,-0.0862636640667915,0.0,0.0,0.2230432129947146,-0.5635861795139407
-0.0262284278869628,1.3270567655563354,-0.0893366336822509,0.0613082461059093,-0.0352152064442634,-0.0698908790946006,0.0,0.0,0.0703634427268755,0.2774195166906631
-0.0271991733461618,1.328696846961975,-0.0930694192647934,0.0727995783090591,-0.039177693426609,-0.0792569071054458,0.0,0.0,-0.5325664346565306,-0.4465531102964322
-0.0282320976257324,1.330166935920715,-0.0987928956747055,0.0652127712965011,-0.0436395294964313,-0.0892444998025894,0.0,0.0,-0.0852922186623634,-0.0030284134945285
-0.029329776763916,1.3314670324325562,-0.1047583669424057,0.0576270036399364,-0.0485977679491043,-0.0991738587617874,0.0,0.0,0.9180918025416388,-0.0892693463830688
-0.0306227691471576,1.3337286710739136,-0.1230174675583839,0.1003022864460945,-0.0548134706914424,-0.1243247762322425,0.0,0.0,-0.5103996964320461,0.1993374707320299
-0.0319855697453022,1.335799217224121,-0.1294959485530853,0.0917559936642646,-0.0615187808871269,-0.1341062635183334,0.0,0.0,-0.595370085840544,-0.1517838650589226
-0.0334193222224712,1.3377000093460083,-0.1361119449138641,0.0841683372855186,-0.0687114670872688,-0.1438535004854202,0.0,0.0,-0.2756209976108754,-0.6750580963555148
-0.0349905006587505,1.3394451141357422,-0.1510186642408371,0.0772640183568,-0.0747510120272636,-0.1207908019423484,0.0,0.0,-0.3364332036952244,-0.0738177738417192
-0.0366362556815147,1.341020584106445,-0.157989963889122,0.0696765705943107,-0.0812715664505958,-0.1304111182689666,0.0,0.0,0.9927712736357076,-0.8384105767987869
-0.0384041778743267,1.3433139324188232,-0.1713544875383377,0.1016231030225753,-0.0866595581173896,-0.1077598482370376,0.0,0.0,-0.5512528339626421,0.9941969884274632
-0.0401681885123252,1.3454384803771973,-0.1684257537126541,0.0939450189471244,-0.0945607051253318,-0.1580231189727783,0.0,0.0,-0.4169908761978149,-0.912054479122162
-0.0420924201607704,1.347400188446045,-0.1860532015562057,0.086762897670269,-0.1008813828229904,-0.1264132857322693,0.0,0.0,-0.6647019386291504,-0.9178390502929688
-0.0441782958805561,1.3492131233215332,-0.2038454264402389,0.0802512317895889,-0.1055846512317657,-0.0940652936697006,0.0,0.0,-0.6539207696914673,-0.9132871627807616
-0.0464253425598144,1.3508607149124146,-0.2215312719345092,0.0730017498135566,-0.1087394654750824,-0.0630964562296867,0.0,0.0,-0.6411365866661072,-0.9374899864196776
-0.0488263145089149,1.3523523807525637,-0.2382834702730178,0.0661569982767105,-0.1105324849486351,-0.0358602330088615,0.0,0.0,-0.7439281940460205,-0.9461296796798706
-0.0513818748295307,1.3536930084228516,-0.2551482021808624,0.0595544055104255,-0.1109462901949882,-0.0082762204110622,0.0,0.0,-0.3987446427345276,-0.930577516555786
-0.0540983192622661,0.0,-0.2727192640304565,0.0524701327085495,-0.1098740547895431,0.0214445237070322,0.0,0.0,-0.4121150970458984,-0.8954832553863525
-0.0569649711251258,1.355898380279541,-0.2889850735664367,0.0457980446517467,-0.1075703054666519,0.0460750050842762,0.0,0.0,-0.3955897092819214,-0.833641767501831
-0.0599864013493061,1.3567757606506348,-0.3058007359504699,0.0392527021467685,-0.103931114077568,0.0727835968136787,0.0,0.0,-0.4412863850593567,-0.81822270154953
-0.0631551742553711,1.3574939966201782,-0.3216802477836609,0.0322480350732803,-0.0991706997156143,0.0952084437012672,0.0,0.0,-0.3301171660423279,-0.6379179358482361
-0.0664695724844932,0.0,-0.3373163342475891,0.0253912154585123,-0.0933397784829139,0.1166183799505233,0.0,0.0,-0.5208735466003418,-0.426558256149292
-0.0698713287711143,1.358449935913086,-0.3456270694732666,0.0178036857396364,-0.0879317373037338,0.1081605181097984,0.0,0.0,-0.4462193250656128,-0.7613121867179871
-0.0734116584062576,1.35867178440094,-0.3603573441505432,0.0102152414619922,-0.0816710218787193,0.1252142786979675,0.0,0.0,-0.2070642113685608,-0.1595255136489868
-0.0770403891801834,1.3587238788604736,-0.3687738180160522,0.0026277755387127,-0.0758208781480789,0.1170030459761619,0.0,0.0,-0.2480214834213256,-0.3322708010673523
-0.0807577148079872,1.358606219291687,-0.3772364556789398,-0.0049590342678129,-0.0703747197985649,0.1089230328798294,0.0,0.0,-0.3037333488464355,-0.5504101514816284
-0.0846044570207595,1.3583173751831057,-0.3908033967018127,-0.0125574273988604,-0.0643148571252822,0.1211972832679748,0.0,0.0,-0.2963476777076721,-0.1593617796897888
-0.0885406509041786,1.3578588962554932,-0.3993468880653381,-0.0201439838856458,-0.0586450546979904,0.1133957356214523,0.0,0.0,-0.683603823184967,0.2493844032287597
-0.092566393315792,1.357230544090271,-0.4079253673553467,-0.0277299396693706,-0.0533579736948013,0.105741761624813,0.0,0.0,-0.4093579053878784,0.0143738985061645
-0.096682071685791,1.3564319610595703,-0.4165356755256653,-0.0353153422474861,-0.0484459288418293,0.0982409119606018,0.0,0.0,-0.6281878352165222,-0.1363574266433715
-0.1008878722786903,0.0,-0.4251746237277984,-0.0429002419114112,-0.043900977820158,0.0908987671136856,0.0,0.0,-0.5757734775543213,-0.1874431371688842
-0.1051838845014572,1.3543248176574707,-0.4338394105434418,-0.0504846721887588,-0.0397149436175823,0.0837209373712539,0.0,0.0,-0.6366676688194275,0.2422007322311401
-0.1095703095197677,1.3530162572860718,-0.4425273537635803,-0.0580686926841735,-0.0358793064951896,0.0767130628228187,0.0,0.0,-0.9090520143508912,0.3341425657272339
-0.1140472441911697,1.3515372276306152,-0.4512357711791992,-0.0656523406505584,-0.0323852859437465,0.0698806270956993,0.0,0.0,-0.512173593044281,0.2917635440826416
-0.1186148673295974,1.3498879671096802,-0.4599622786045074,-0.0732356458902359,-0.0292238164693117,0.0632292479276657,0.0,0.0,-0.8840258717536926,-0.4075144529342651
-0.1232731789350509,1.348068356513977,-0.4687044024467468,-0.0808186531066894,-0.0263856071978807,0.0567642450332641,0.0,0.0,-0.6603742837905884,0.3672008514404297
-0.1280221045017242,0.0,-0.4774600565433502,-0.0884014144539833,-0.0238610655069351,0.0504909679293632,0.0,0.0,0.0539010763168334,0.661287784576416
-0.1327292472124099,1.344682216644287,-0.4716983437538147,-0.0620415322482585,-0.0228829383850097,0.0195626560598611,0.0,0.0,-0.8290995359420776,-0.1301231980323791
-0.1375269889831543,1.3431153297424316,-0.4804744720458984,-0.0696235671639442,-0.0221985355019569,0.0136881377547979,0.0,0.0,-0.607153594493866,0.3299548625946045
-0.1424154341220855,1.3413782119750977,-0.4892577528953552,-0.0772055238485336,-0.0217975620180368,0.0080196969211101,0.0,0.0,-0.7631163001060486,0.1131980419158935
-0.1473946571350097,1.339470386505127,-0.4980462193489074,-0.0847874134778976,-0.0216694492846727,0.0025621778331696,0.0,0.0,-0.8419815301895142,0.1692194938659668
-0.1524643898010254,1.3373922109603882,-0.5068378448486328,-0.0923692882061004,-0.0218034479767084,-0.0026798518374562,0.0,0.0,-0.7510281205177307,0.2457295656204223
-0.1576246321201324,1.3351434469223022,-0.515630841255188,-0.0999511405825614,-0.02218858897686,-0.0077030835673213,0.0,0.0,-0.8253687620162964,0.1537669897079467
-0.1628751754760742,1.3327240943908691,-0.5244230628013611,-0.1075329855084419,-0.022813769057393,-0.0125036118552088,0.0,0.0,-0.9377013444900512,0.7729167938232422
-0.1681524217128753,1.3301334381103516,-0.5252377986907959,-0.1151850894093513,-0.0252649784088134,-0.0490243807435035,0.0,0.0,-0.785885751247406,-0.1775080561637878
-0.1735196113586425,1.3273721933364868,-0.5340229868888855,-0.1227674335241317,-0.0279335305094718,-0.0533708743751049,0.0,0.0,-0.8435376286506653,0.2771508693695068
-0.1789767295122146,1.324440598487854,-0.5428017377853394,-0.1303499042987823,-0.0308078564703464,-0.0574867017567157,0.0,0.0,-0.7873311638832092,0.7395901679992676
-0.1844627410173416,1.3213446140289309,-0.5439519882202148,-0.1377054750919342,-0.0353989824652671,-0.0918222516775131,0.0,0.0,-0.741542637348175,-0.3659828901290893
-0.190038114786148,1.3180782794952393,-0.5527119040489197,-0.1452891826629638,-0.0401725471019744,-0.0954714119434356,0.0,0.0,-0.8784214854240417,0.1914684772491455
-0.1957027465105056,1.3146419525146484,-0.5614594221115112,-0.1528730541467666,-0.04511683806777,-0.0988857597112655,0.0,0.0,-0.1902370452880859,0.6409649848937988
-0.2014136761426925,1.3110295534133911,-0.5648359060287476,-0.1607427448034286,-0.0512965433299541,-0.1235941797494888,0.0,0.0,-0.9543415904045104,0.2832719087600708
-0.207213208079338,1.3072474002838137,-0.5735521912574768,-0.1683279871940612,-0.0576234348118305,-0.1265380680561065,0.0,0.0,-0.9497699737548828,0.6756925582885742
-0.2130448818206787,1.3032917976379397,-0.5752038955688477,-0.1761277616024017,-0.0654991045594215,-0.1575134694576263,0.0,0.0,-0.2189205884933471,0.73038649559021
-0.2189188003540039,1.2991704940795898,-0.5781553983688354,-0.1836013048887252,-0.0746397227048873,-0.1828121840953827,0.0,0.0,-0.856685221195221,0.9109351634979248
-0.2247996777296066,1.294871211051941,-0.5766867995262146,-0.1916949599981308,-0.0859280228614807,-0.2257662713527679,0.0,0.0,-0.8176142573356628,0.6859314441680908
-0.2307169437408447,1.2903913259506226,-0.5789377689361572,-0.1998928338289261,-0.0986088812351226,-0.2536173164844513,0.0,0.0,-0.9651545286178588,-0.4314202070236206
-0.2367209494113922,1.285742998123169,-0.5875363945960999,-0.2074883580207824,-0.1113791316747665,-0.2554049789905548,0.0,0.0,-0.921454131603241,0.4416278600692749
-0.2428112477064132,1.2809263467788696,-0.5961036086082458,-0.2150840759277343,-0.1242276355624198,-0.2569701075553894,0.0,0.0,-0.6998907327651978,-0.3716933131217956
-0.2489873468875885,1.2759413719177246,-0.6046366095542908,-0.2226798832416534,-0.137143462896347,-0.2583163976669311,0.0,0.0,-0.923311710357666,0.2992995977401733
-0.2552486956119537,1.270788311958313,-0.6131323575973511,-0.2302757650613784,-0.1501158773899078,-0.259448230266571,0.0,0.0,-0.8041701912879944,-0.575857400894165
-0.2616476416587829,1.2654845714569092,-0.628238320350647,-0.2369409054517746,-0.1617648154497146,-0.2329786717891693,0.0,0.0,-0.5726909041404724,0.5624736547470093
-0.2680970728397369,1.2599979639053345,-0.6323823928833008,-0.2452595978975296,-0.174337238073349,-0.2514483630657196,0.0,0.0,-0.1393061876296997,0.695081353187561
-0.2745715975761413,1.2543340921401978,-0.6334208250045776,-0.2534345686435699,-0.1884183585643768,-0.2816221117973327,0.0,0.0,-0.3530645370483398,0.7617309093475342
-0.2810798585414886,1.248488426208496,-0.6355543732643127,-0.2618210613727569,-0.2037873566150665,-0.3073799908161163,0.0,0.0,-0.6838908195495605,0.8156083822250366
-0.2876124978065491,1.242461323738098,-0.6365573406219482,-0.2702661752700805,-0.2206510603427887,-0.3372739553451538,0.0,0.0,-0.3266612887382507,0.1892571449279785
-0.2942264974117279,1.236267328262329,-0.644760251045227,-0.2778708636760711,-0.2375126183032989,-0.3372313380241394,0.0,0.0,0.0352528095245361,0.2801823616027832
-0.3007822036743164,1.2304185628890991,-0.6392597556114197,-0.2626702487468719,-0.2541106939315796,-0.3319616913795471,0.0,0.0,0.3080092668533325,0.2292053699493408
-0.3073314726352691,1.2247889041900637,-0.6387876868247986,-0.2530867755413055,-0.2706030607223511,-0.3298470675945282,0.0,0.0,0.6488182544708252,-0.3348097801208496
-0.3137631416320801,1.2195358276367188,-0.6275421380996704,-0.2364481091499328,-0.2866404056549072,-0.3207469284534454,0.0,0.0,0.8208310604095459,0.172809362411499
-0.3199394643306732,1.214951753616333,-0.6028448343276978,-0.2067177891731262,-0.3018935322761535,-0.3050623834133148,0.0,0.0,0.722092866897583,0.7853658199310303
-0.3258606791496277,1.210684299468994,-0.5761814713478088,-0.1930562853813171,-0.3184078335762024,-0.3302858471870422,0.0,0.0,0.7934579849243164,0.7014998197555542
-0.3315555155277252,1.207393765449524,-0.5522961020469666,-0.1501259505748748,-0.3363149166107178,-0.3581420183181762,0.0,0.0,0.4390914440155029,-0.3748323321342468
-0.3370818495750427,1.204858422279358,-0.5357276201248169,-0.1167156919836998,-0.3540432453155517,-0.3545665144920349,0.0,0.0,0.6350703239440918,0.2829670906066894
-0.3423376977443695,1.2030209302902222,-0.5093832015991211,-0.0857536718249321,-0.3711416125297546,-0.3419674038887024,0.0,0.0,0.1607112884521484,-0.4396084547042846
-0.347517192363739,1.2012983560562134,-0.5022304654121399,-0.0807408094406127,-0.3878471255302429,-0.3341105282306671,0.0,0.0,0.3313572406768799,-0.5036850571632385
-0.3526927530765533,1.2000247240066528,-0.5028682947158813,-0.060685858130455,-0.4035502076148987,-0.3140615820884704,0.0,0.0,-0.0100049376487731,-0.5177756547927856
-0.3579693436622619,1.1986091136932373,-0.5140040516853333,-0.0668727308511734,-0.4182499349117279,-0.2939938306808471,0.0,0.0,0.4625893831253052,-0.496030330657959
-0.3631295263767242,1.1977285146713257,-0.5024399161338806,-0.0432418510317802,-0.43296679854393,-0.2943373322486877,0.0,0.0,0.5080274343490601,0.3667246103286743
-0.3681562542915344,1.197739601135254,-0.4887724816799164,-0.0038683007005602,-0.4481271505355835,-0.3032070100307464,0.0,0.0,0.3460912704467773,-0.0766968131065368
-0.372939258813858,1.1983048915863037,-0.4648796021938324,0.0207453407347202,-0.4628745019435882,-0.2949470579624176,0.0,0.0,0.7037943601608276,-0.2430256009101867
-0.3774912357330322,1.1997770071029663,-0.4417277872562408,0.0608707480132579,-0.4777895808219909,-0.2983022928237915,0.0,0.0,0.221057653427124,-0.5232185125350952
-0.3819468021392822,1.2018951177597046,-0.433133453130722,0.0897872820496559,-0.491642564535141,-0.2770599126815796,0.0,0.0,0.1595696210861206,-0.5598123073577881
-0.3863555788993835,1.2043492794036863,-0.4296467900276184,0.1050104945898056,-0.5042601227760315,-0.2523496448993683,0.0,0.0,0.150172472000122,-0.6241503357887268
-0.390744537115097,1.2072852849960327,-0.4288713037967682,0.1267630755901336,-0.5155863761901855,-0.2265249192714691,0.0,0.0,-0.0039485096931457,-0.3724533319473266
-0.3951922953128814,1.210051655769348,-0.4349053800106048,0.1191761568188667,-0.5268188714981079,-0.2246497869491577,0.0,0.0,0.0442173480987548,-0.4936187267303467
-0.3994109630584717,1.2131866216659546,-0.4124045968055725,0.1356241554021835,-0.5376474261283875,-0.2165713012218475,0.0,0.0,-0.1409211158752441,-0.5492249131202698
-0.4037194848060608,1.2161767482757568,-0.4224459230899811,0.1295299082994461,-0.5473403930664062,-0.1938592493534088,0.0,0.0,-0.0267466306686401,-0.4044606685638428
-0.408081442117691,1.2189968824386597,-0.427913099527359,0.1219458654522895,-0.556939423084259,-0.1919805854558944,0.0,0.0,-0.0616487264633178,-0.301006555557251
-0.4124947190284729,1.2216469049453735,-0.4331778585910797,0.1143620163202285,-0.5664452910423279,-0.1901174038648605,0.0,0.0,-0.3760016560554504,-0.4582992792129516
-0.4169572293758392,1.2241266965866089,-0.4382335245609283,0.1067783534526825,-0.5758591890335083,-0.1882781088352203,0.0,0.0,0.165433645248413,-0.5783939957618713
-0.4212321639060974,1.2269387245178225,-0.4207184314727783,0.1220200285315513,-0.5838505029678345,-0.1598261296749115,0.0,0.0,0.0315937995910644,-0.5467650294303894
-0.4253087639808655,1.2302619218826294,-0.4019824862480163,0.145178884267807,-0.5905764698982239,-0.134519338607788,0.0,0.0,-0.3313338756561279,-0.3318542242050171
-0.4294282495975494,1.2334141731262207,-0.4063712656497955,0.1375983506441116,-0.5972164869308472,-0.132800355553627,0.0,0.0,-0.4176321029663086,-0.6006918549537659
-0.4336229860782623,1.2364275455474854,-0.4149204194545746,0.1318484246730804,-0.6026571393013,-0.1088132038712501,0.0,0.0,-0.1544222831726074,-0.2974343299865722
-0.4378560185432434,1.2392699718475342,-0.4188383221626282,0.1242687851190567,-0.6080177426338196,-0.1072126179933548,0.0,0.0,-0.4083166122436523,-0.3575029969215393
-0.4421250224113464,1.2419415712356567,-0.4225144982337951,0.1166890710592269,-0.6133018732070923,-0.1056824922561645,0.0,0.0,-0.0919638276100158,-0.4929436445236206
-0.446427583694458,1.244442105293274,-0.4259451925754547,0.1091092675924301,-0.6185134053230286,-0.1042301803827285,0.0,0.0,-0.1374509334564209,-0.2267811298370361
-0.4507612287998199,1.246772050857544,-0.4291272759437561,0.101529337465763,-0.6236565709114075,-0.1028628721833229,0.0,0.0,-0.233916163444519,-0.5940892696380615
-0.4551549851894378,1.2489583492279053,-0.4360268115997314,0.095555804669857,-0.6277366280555725,-0.0816010236740112,0.0,0.0,-0.1534026861190796,-0.6732876300811768
-0.459609180688858,1.2510147094726562,-0.443132221698761,0.0902832224965095,-0.6305282115936279,-0.0558304116129875,0.0,0.0,-0.0049917101860046,-0.6425079703330994
-0.4641231894493103,1.252947211265564,-0.4502624869346618,0.0853346288204193,-0.6319184303283691,-0.0278047807514667,0.0,0.0,0.0927513837814331,-0.4440497159957886
