x_pos,y_pos,x_vel,y_vel,angle,ang_vel,leg_1,leg_2,main_booster,lat_booster
-0.0014630317455157,1.4033677577972412,-0.1488354355096817,-0.3356553614139557,0.0022733334917575,0.0448819063603878,0.0,0.0,-0.6668279519114628,0.6297779186646605
-0.0028152465820312,1.395579218864441,-0.136649876832962,-0.3461589813232422,0.0036829637829214,0.0281957685947418,0.0,0.0,-0.5646966196305632,0.8573290110364449
-0.0040320395492017,1.3875279426574707,-0.1215652078390121,-0.3578387796878814,0.0035715324338525,-0.0022285415325313,0.0,0.0,-0.4872740590680051,0.8880311116338488
-0.0051436424255371,1.3792173862457275,-0.1101910322904586,-0.3693593740463257,0.0026051958557218,-0.0193285141140222,0.0,0.0,0.5737982343237671,0.9829418889085088
-0.0059955595061182,1.3715858459472656,-0.0829806849360466,-0.3391744196414947,0.0004264219314791,-0.0435795113444328,0.0,0.0,0.737836248343753,-0.8361130547504702
-0.0067136762663722,1.364553451538086,-0.0721732750535011,-0.3125536739826202,0.000780870381277,0.0070896362885832,0.0,0.0,-0.7559410860117683,-0.8686207054458606
-0.0074669839814305,1.3572641611099243,-0.0780633464455604,-0.3239664733409881,0.0034861622843891,0.0541107058525085,0.0,0.0,0.3719774364469275,-0.988367087262748
-0.0081253051757812,1.3505278825759888,-0.0712434202432632,-0.2994131445884704,0.0088274404406547,0.1068354472517967,0.0,0.0,0.3891799001941196,-0.9044703549534158
-0.0088462829589843,1.3445994853973389,-0.0798822492361068,-0.2635424435138702,0.0165229085832834,0.1539236456155777,0.0,0.0,0.2263956785119572,-0.8509482666221692
-0.0096221920102834,1.3392279148101809,-0.087661288678646,-0.2388732284307479,0.0264833495020866,0.1992273032665252,0.0,0.0,0.9013891198110182,0.7425222479035488
-0.0102331163361668,1.3346343040466309,-0.0705285742878913,-0.2043561339378357,0.0358160100877285,0.186670184135437,0.0,0.0,-0.593789106390753,-0.6818547397949566
-0.0108790397644042,1.3297815322875977,-0.0758259072899818,-0.2159791588783264,0.0469312109053134,0.2223243713378906,0.0,0.0,0.2750707827709564,-0.7542000544145366
-0.011488914489746,1.3254913091659546,-0.0744719058275222,-0.1911543309688568,0.0602850951254367,0.2671020030975342,0.0,0.0,0.2664498463575431,-0.8767165426134476
-0.0121201518923044,1.321346402168274,-0.0790097638964653,-0.1849349290132522,0.0760262012481689,0.314850777387619,0.0,0.0,0.5268756262547505,0.6664703039108355
-0.0126165393739938,1.318117380142212,-0.0650922954082489,-0.1443708837032318,0.0913441106677055,0.3063865005970001,0.0,0.0,-0.0648008790659451,0.7225950174190712
-0.0130516048520803,1.3146357536315918,-0.0578304901719093,-0.1556687653064727,0.1055699735879898,0.2845430076122284,0.0,0.0,-0.8994245086779951,-0.8103134030635133
-0.0135470386594533,1.3109033107757568,-0.0657022148370742,-0.167109876871109,0.1216432675719261,0.3214952349662781,0.0,0.0,0.384902131141658,-0.8158319804645988
-0.0140254022553563,1.3073925971984863,-0.0663795545697212,-0.157644972205162,0.1401294022798538,0.3697563111782074,0.0,0.0,-0.6094214807617011,-0.6788065954818291
-0.0145683288574218,1.3036284446716309,-0.0745389908552169,-0.1693346351385116,0.1603602021932602,0.4046526551246643,0.0,0.0,-0.1494007725185586,-0.7369752494374986
-0.0152002330869436,1.2995984554290771,-0.0856379643082618,-0.1816807091236114,0.1828770339488983,0.4503775537014007,0.0,0.0,-0.2717059576489744,0.96097753364926
-0.0157706253230571,1.295351505279541,-0.0776923149824142,-0.1914346516132354,0.2036731839179992,0.4159607291221618,0.0,0.0,-0.0550903144021679,0.6393216499161217
-0.0163219459354877,1.2908669710159302,-0.075013555586338,-0.2021772116422653,0.2237853854894638,0.4022800326347351,0.0,0.0,0.3160401772324184,0.8674442266493968
-0.0168227199465036,1.286827564239502,-0.0688769146800041,-0.1824864894151687,0.2428806126117706,0.3819394707679748,0.0,0.0,-0.4572318253573679,-0.9963198809191612
-0.0174280162900686,1.2825030088424685,-0.0816039890050888,-0.1958265155553817,0.2643899619579315,0.4302250444889068,0.0,0.0,-0.0687476768496206,0.7572547846457206
-0.0180323608219623,1.277949571609497,-0.0808540135622024,-0.2061994820833206,0.2853538990020752,0.4193163514137268,0.0,0.0,0.7827886806770208,-0.9532833408346562
-0.0191336628049612,1.274120211601257,-0.1326821446418762,-0.1747827231884002,0.3086229562759399,0.4653803408145904,0.0,0.0,0.7541823660863114,0.8467537192786845
-0.0204513557255268,1.2711830139160156,-0.1531064361333847,-0.1352363675832748,0.3308052122592926,0.4436457753181457,0.0,0.0,-0.3247151598303994,-0.6112855303398772
-0.0218775756657123,1.2679762840270996,-0.1658532917499542,-0.1480298638343811,0.355138748884201,0.4866715967655182,0.0,0.0,-0.5778291737460701,0.6006775875685596
-0.0233253482729196,1.2645471096038818,-0.1674743592739105,-0.1582076549530029,0.3791397213935852,0.4800196290016174,0.0,0.0,-0.0889935089612032,-0.7227181647888342
-0.0248846057802438,1.2608370780944824,-0.1804655045270919,-0.1716226041316986,0.405325323343277,0.5237120389938354,0.0,0.0,0.0164382410727104,0.6235031470301865
-0.0266550071537494,1.257643222808838,-0.2006998062133789,-0.1489327102899551,0.4308645129203796,0.5107842683792114,0.0,0.0,-0.5439194404163203,0.6973894138594686
-0.0284441951662302,1.2542301416397097,-0.201729416847229,-0.1588919162750244,0.45578733086586,0.4984571933746338,0.0,0.0,0.1719154081300506,0.6244139381764726
-0.0305653568357229,1.2513315677642822,-0.2339783459901809,-0.1361591070890426,0.4799463748931885,0.4831816554069519,0.0,0.0,0.4995351037443167,0.9517242108403922
-0.0328945145010948,1.248621106147766,-0.2532699108123779,-0.1277064085006714,0.5027052760124207,0.4551787376403808,0.0,0.0,0.067983396474571,-0.9516601142564164
-0.0355436317622661,1.2461549043655396,-0.2873114049434662,-0.1180459409952163,0.5281067490577698,0.5080296397209167,0.0,0.0,-0.6159671874454733,0.9156343516292792
-0.0382032394409179,1.2435050010681152,-0.2868635356426239,-0.1261075586080551,0.5521376132965088,0.4806183278560638,0.0,0.0,0.2631135263163422,0.7571257396906486
-0.0410865768790245,1.2410789728164673,-0.3080813586711883,-0.116118885576725,0.5751791000366211,0.4608293175697326,0.0,0.0,-0.5308802154802508,0.8780545271800262
-0.0439866073429584,1.2384716272354126,-0.3082937896251678,-0.1239679008722305,0.5968490242958069,0.4333983361721039,0.0,0.0,-0.0343193286677958,-0.6030762679358295
-0.0470069870352745,1.2355815172195437,-0.321745902299881,-0.1375827938318252,0.6205329298973083,0.4736779332160949,0.0,0.0,-0.0859054143276811,-0.8887910828678374
-0.0501601211726665,1.23239004611969,-0.3366937637329101,-0.1522827893495559,0.6466897130012512,0.5231354832649231,0.0,0.0,0.9082684090887214,0.6776691239478947
-0.0540019981563091,1.2299625873565674,-0.4042256474494934,-0.1182034388184547,0.6716888546943665,0.4999845027923584,0.0,0.0,-0.9840709567070008,0.9994919300079346
-0.0578514114022254,1.2273753881454468,-0.4030337929725647,-0.1247859820723533,0.6946884393692017,0.459991991519928,0.0,0.0,-0.9917562007904052,0.9937061071395874
-0.0617098808288574,1.2246191501617432,-0.4021430015563965,-0.1317301988601684,0.7157992124557495,0.4222162365913391,0.0,0.0,-0.9970495700836182,0.996924877166748
-0.0655828490853309,1.2217026948928833,-0.4018398821353912,-0.1382060945034027,0.7349749207496643,0.3835143446922302,0.0,0.0,-0.9873422384262084,0.997528076171875
-0.0694807991385459,1.2186020612716677,-0.4030527174472809,-0.1459175646305084,0.7527340054512024,0.3551819920539856,0.0,0.0,-0.999251425266266,0.974339485168457
-0.0733996406197547,1.2153291702270508,-0.4036813378334045,-0.1529390215873718,0.7687976956367493,0.3212742209434509,0.0,0.0,-0.9994027018547058,0.9973480701446532
-0.0773402228951454,1.211892008781433,-0.4043522477149963,-0.1594976931810379,0.7830353379249573,0.2847535312175751,0.0,0.0,-0.999144732952118,0.9818146228790284
-0.0813277214765548,1.208277940750122,-0.4080720841884613,-0.1668749749660492,0.7960820198059082,0.2609340846538543,0.0,0.0,-0.9983218312263488,0.9134018421173096
-0.0853670090436935,1.204478740692139,-0.4124249815940857,-0.1746933758258819,0.8081291913986206,0.2409435808658599,0.0,0.0,-0.9987199902534484,0.95058274269104
-0.0894429236650466,1.2005046606063845,-0.4149752259254455,-0.1818220466375351,0.8187249898910522,0.2119167298078537,0.0,0.0,-0.999142289161682,0.9946966171264648
-0.0935412421822547,1.196384072303772,-0.4156301021575928,-0.18730229139328,0.8271433115005493,0.168365865945816,0.0,0.0,-0.999257743358612,0.9880406856536864
-0.0976837128400802,1.1920936107635498,-0.4190281927585602,-0.1941787749528885,0.8341315984725952,0.139765590429306,0.0,0.0,-0.99966162443161,0.9787331819534302
-0.1018516570329666,1.187647581100464,-0.420166015625,-0.200094848871231,0.8391063213348389,0.099494345486164,0.0,0.0,-0.997872829437256,0.8714754581451416
-0.1060667037963867,1.1830310821533203,-0.4239180088043213,-0.206966295838356,0.8426754474639893,0.0713824182748794,0.0,0.0,-0.9971219301223756,0.8736217021942139
-0.1103128418326377,1.1782556772232056,-0.4257480502128601,-0.2131006866693496,0.844366192817688,0.0338149964809417,0.0,0.0,-0.9990330338478088,0.556973934173584
-0.1146223992109298,1.1732680797576904,-0.4317719340324402,-0.2222874760627746,0.845589816570282,0.0244721136987209,0.0,0.0,-0.9895660281181335,0.8541274070739746
-0.1189744919538497,1.1681197881698608,-0.4349059164524078,-0.2285850942134857,0.845137894153595,-0.0090378765016794,0.0,0.0,-0.9981774687767028,0.7907204627990723
-0.1233677864074707,1.162806272506714,-0.4379257559776306,-0.2350989878177642,0.8430495858192444,-0.0417658910155296,0.0,0.0,-0.966006636619568,0.545067310333252
-0.1278218328952789,1.15729820728302,-0.4434434473514557,-0.243332490324974,0.840135931968689,-0.0582718849182128,0.0,0.0,-0.9992666244506836,0.7195277214050293
-0.1323363333940506,1.1515973806381226,-0.4488824009895324,-0.2514750361442566,0.8363548517227173,-0.075621873140335,0.0,0.0,-0.9977851510047911,0.6026318073272705
-0.1369039565324783,1.145698070526123,-0.4535687863826751,-0.259846568107605,0.8316643238067627,-0.0938113704323768,0.0,0.0,-0.9784210920333862,-0.0855162143707275
-0.1415609419345855,1.1395477056503296,-0.462878942489624,-0.2712860703468323,0.8275378942489624,-0.0825289934873581,0.0,0.0,-0.989388108253479,0.6998437643051147
-0.1462627351284027,1.1332168579101562,-0.4664100706577301,-0.2786524891853332,0.8220536112785339,-0.1096852421760559,0.0,0.0,-0.971486747264862,0.2982268333435058
-0.1510539054870605,1.1266350746154783,-0.4757044315338135,-0.2900911867618561,0.8171181678771973,-0.0987093970179557,0.0,0.0,-0.979645848274231,0.0853345394134521
-0.1559342443943023,1.1198022365570068,-0.484985202550888,-0.3015289008617401,0.8127228617668152,-0.087905928492546,0.0,0.0,-0.9747166633605956,-0.0488747358322143
-0.1609037369489669,1.112717866897583,-0.4942479729652405,-0.3129656016826629,0.8088583946228027,-0.0772891193628311,0.0,0.0,-0.8806204795837402,-0.1185808181762695
-0.1659621298313141,1.1053820848464966,-0.5034882426261902,-0.3244013786315918,0.8055146932601929,-0.0668738186359405,0.0,0.0,-0.9931091070175172,0.0235805511474609
-0.1711090058088302,1.097795009613037,-0.5127016305923462,-0.335836112499237,0.8026809096336365,-0.0566755943000316,0.0,0.0,-0.8940166234970093,0.4352445602416992
-0.1763443052768707,1.0899558067321775,-0.5218836069107056,-0.3472699522972107,0.8003453612327576,-0.0467109195888042,0.0,0.0,-0.9847546219825744,0.1298862695693969
-0.1816677153110504,1.081864833831787,-0.5310298800468445,-0.3587028086185455,0.7984955310821533,-0.0369962938129901,0.0,0.0,-0.9947215914726256,0.8477873802185059
-0.1870420426130294,1.0735836029052734,-0.5353086590766907,-0.3666055798530578,0.795488715171814,-0.0601352863013744,0.0,0.0,-0.9909213185310364,0.539191722869873
-0.1924738883972168,1.065097451210022,-0.5404649972915649,-0.3753164708614349,0.7916591167449951,-0.0765924379229545,0.0,0.0,-0.9851513504981996,-0.0383193492889404
-0.1979928016662597,1.056359052658081,-0.5494757890701294,-0.3867470324039459,0.7882725596427917,-0.0677312612533569,0.0,0.0,-0.9525214433670044,-0.1315762996673584
-0.2035983055830001,1.0473682880401611,-0.5584331750869751,-0.3981764018535614,0.785313069820404,-0.0591899864375591,0.0,0.0,-0.9847768545150756,0.1781275272369384
-0.209289938211441,1.038124918937683,-0.5673322677612305,,0.782763659954071,-0.0509873740375041,0.0,0.0,-0.9721996784210204,0.6354162693023682
-0.2150254249572754,1.028681397438049,-0.5708585977554321,-0.4179314374923706,0.7790274024009705,-0.0747255682945251,0.0,0.0,-0.9915484189987184,0.0789961814880371
-0.2208459377288818,1.0189850330352783,-0.5796263813972473,-0.4293575584888458,0.7756646871566772,-0.0672547519207,0.0,0.0,-0.8978112936019897,0.0722467899322509
-0.2267509400844574,1.0090354681015017,-0.58832186460495,-0.4407823383808136,0.7726558446884155,-0.0601766631007194,0.0,0.0,-0.9625627398490906,0.1840194463729858
-0.2327397316694259,0.9988324642181396,-0.5969403386116028,-0.4522056877613067,0.7699804306030273,-0.0535088405013084,0.0,0.0,-0.980510413646698,0.396533727645874
-0.2388117313385009,0.9883760213851928,-0.6054767370223999,-0.4636276364326477,0.7676169872283936,-0.0472684912383556,0.0,0.0,-0.961377501487732,0.7332684993743896
-0.244930699467659,0.9777063727378844,-0.6094502210617065,-0.4726357161998749,0.7642661929130554,-0.0670163407921791,0.0,0.0,-0.9936748743057252,0.1798291206359863
-0.2511313855648041,0.9667827486991882,-0.617807149887085,-0.4840551316738128,0.761182427406311,-0.0616754665970802,0.0,0.0,-0.9945350885391236,0.0500718355178833
-0.2574129700660705,0.9556049704551696,-0.6260672807693481,-0.4954731166362762,0.7583422064781189,-0.0568048171699047,0.0,0.0,-0.9789543747901917,0.2508687973022461
-0.2637744843959808,0.944172501564026,-0.6342254877090454,-0.5068895816802979,0.755721390247345,-0.052416305989027,0.0,0.0,-0.933424711227417,0.6782433986663818
-0.2701795995235443,0.9325407147407532,-0.6376150250434875,-0.5151644945144653,0.7518025636672974,-0.0783760473132133,0.0,0.0,-0.9840940237045288,0.2016421556472778
-0.2766629159450531,0.920653760433197,-0.6455534100532532,-0.526578426361084,0.7480536103248596,-0.0749794393777847,0.0,0.0,-0.9769283533096312,0.2716679573059082
-0.2832234799861908,0.9085116982460022,-0.6533747911453247,-0.5379908680915833,0.7444491386413574,-0.0720889121294021,0.0,0.0,-0.948362410068512,0.4323997497558594
-0.2898602485656738,0.8961144685745239,-0.6610738635063171,-0.5494017004966736,0.7409636974334717,-0.0697089731693267,0.0,0.0,-0.9190152287483216,0.6378662586212158
-0.2965269684791565,0.8835234045982361,-0.6628051996231079,-0.557259202003479,0.7358032464981079,-0.1032092571258544,0.0,0.0,-0.9450268149375916,0.5125312805175781
-0.3032298684120178,0.8707227110862732,-0.6654080748558044,-0.5659849047660828,0.7293128371238708,-0.1298079937696457,0.0,0.0,-0.9457867741584778,0.0609467029571533
-0.3100057244300842,0.8576663136482239,-0.6727076768875122,-0.5773932337760925,0.7228647470474243,-0.1289622336626052,0.0,0.0,-0.9114856123924256,0.5006356239318848
-0.3168246746063232,0.8443970084190369,-0.6761008501052856,-0.5863611102104187,0.7152588367462158,-0.1521181017160415,0.0,0.0,-0.878968358039856,0.1239945888519287
-0.3237141668796539,0.8308717012405396,-0.6831098794937134,-0.5977675914764404,0.7076449394226074,-0.1522773802280426,0.0,0.0,-0.8780601024627686,0.2106407880783081
-0.3306728899478912,0.8170899748802185,-0.6899670958518982,-0.6091727018356323,0.6999984979629517,-0.1529289036989212,0.0,0.0,-0.845204770565033,0.0799895524978637
-0.3376994132995605,0.8030519485473633,-0.6966679096221924,-0.6205766797065735,0.6922953128814697,-0.1540636718273162,0.0,0.0,-0.6425359845161438,-0.1011467576026916
-0.3447923064231872,0.7887572646141052,-0.703207790851593,-0.6319795250892639,0.6845117211341858,-0.1556712538003921,0.0,0.0,-0.8271828889846802,-0.3156403303146362
-0.3519501686096191,0.7742058634757996,-0.7095823287963867,-0.6433812379837036,0.6766247153282166,-0.1577398777008056,0.0,0.0,-0.6629661321640015,-0.1440092921257019
-0.3591715395450592,0.7593973278999329,-0.7157875299453735,-0.6547819972038269,0.6686118841171265,-0.1602566987276077,0.0,0.0,-0.7863329648971558,-0.1569302082061767
-0.3664547502994537,0.7443318963050842,-0.7218194007873535,-0.666181743144989,0.6604514718055725,-0.1632077842950821,0.0,0.0,-0.707126796245575,-0.2931146621704101
-0.3737982809543609,0.7290090918540955,-0.7276741862297058,-0.677580714225769,0.6521225571632385,-0.1665785461664199,0.0,0.0,-0.6922717094421387,-0.3400610685348511
-0.3812005519866943,0.7134289741516113,-0.7333484888076782,-0.6889789700508118,0.6436048746109009,-0.1703536957502365,0.0,0.0,-0.2769678831100464,-0.4566193222999573
-0.3886598944664001,0.6975913643836975,-0.7388390898704529,-0.7003766298294067,0.6348789930343628,-0.1745175868272781,0.0,0.0,-0.6563475728034973,-0.2497686147689819
-0.3961746096611023,0.681496262550354,-0.7441431283950806,-0.7117738127708435,0.6259262561798096,-0.1790542900562286,0.0,0.0,-0.7092347741127014,-0.4735771417617798
-0.4037429690361023,0.6651434898376465,-0.7492579817771912,-0.7231704592704773,0.6167288422584534,-0.1839477270841598,0.0,0.0,-0.7790830135345459,-0.6840065121650696
-0.4114004671573639,0.6484983563423157,-0.7589129209518433,-0.7365828156471252,0.6084829568862915,-0.1649180799722671,0.0,0.0,-0.6241635084152222,-0.4601445198059082
-0.419107973575592,0.6315953135490417,-0.7636446356773376,-0.7479774951934814,0.5999590754508972,-0.1704776436090469,0.0,0.0,-0.8635446429252625,-0.4973288774490356
-0.4268637299537658,0.6144341826438904,-0.7681816220283508,-0.7593719363212585,0.5911417603492737,-0.1763465255498886,0.0,0.0,-0.6560123562812805,-0.5927171111106873
-0.4347074627876282,0.5969790816307068,-0.7777876853942871,-0.7728583812713623,0.5833319425582886,-0.1561959683895111,0.0,0.0,-0.6899148225784302,-0.2332050800323486
-0.4425957202911377,0.5792656540870667,-0.7819334864616394,-0.7842509746551514,0.5752000212669373,-0.1626381129026413,0.0,0.0,-0.7975645065307617,-0.6420537233352661
-0.4505632519721985,0.5612583756446838,-0.7905651330947876,-0.7976645827293396,0.567935049533844,-0.1453008204698562,0.0,0.0,-0.913412868976593,-0.4683797359466553
-0.458571583032608,0.5429927110671997,-0.7943180799484253,-0.8090559244155884,0.5603221654891968,-0.152257964015007,0.0,0.0,-0.8488998413085938,-0.6273073554039001
-0.4666580259799957,0.5244380831718445,-0.8028229475021362,-0.8222272992134094,0.553546130657196,-0.1355205178260803,0.0,0.0,-0.9090502858161926,-0.626943051815033
-0.4748163819313049,0.5055888891220093,-0.810671329498291,-0.8356292247772217,0.5475631356239319,-0.1196594014763832,0.0,0.0,-0.8986477851867676,-0.6580306887626648
-0.4830629229545593,0.4864336252212524,-0.8206027150154114,-0.8497088551521301,0.5428841710090637,-0.093579463660717,0.0,0.0,-0.9188095331192015,-0.306435227394104
-0.4913427829742431,0.4670193195343017,-0.8235799074172974,-0.8610967397689819,0.5378138422966003,-0.1014067083597183,0.0,0.0,-0.9005634784698486,-0.368770956993103
-0.4996541440486908,0.4473459720611572,-0.8263664245605469,-0.8724846243858337,0.532342791557312,-0.1094206348061561,0.0,0.0,-0.8991603255271912,-0.2066553831100464
-0.5079951882362366,0.4274137318134308,-0.82896488904953,-0.8838726878166199,0.5264622569084167,-0.1176102384924888,0.0,0.0,-0.9318071007728576,-0.6935718655586243
-0.5163986086845398,0.4071850776672363,-0.8358379602432251,-0.8973142504692078,0.5213262438774109,-0.1027199998497963,0.0,0.0,-0.9479742050170898,-0.6250582337379456
-0.5248646140098572,0.3866692781448364,-0.8426802754402161,-0.910324215888977,0.5168705582618713,-0.0891133397817611,0.0,0.0,-0.9597585797309875,-0.613277792930603
-0.5333969593048096,0.3658652007579803,-0.850009560585022,-0.9234088063240052,0.5132173299789429,-0.0730643942952156,0.0,0.0,-0.952983856201172,-0.2516846656799316
-0.5419520139694214,0.3448019027709961,-0.8518900871276855,-0.9347950220108032,0.5091246962547302,-0.0818532556295394,0.0,0.0,-0.9425540566444396,-0.5306262373924255
