x_pos,y_pos,x_vel,y_vel,angle,ang_vel,leg_1,leg_2,main_booster,lat_booster
-0.0015281677478924,1.403391718864441,-0.1547096222639084,-0.3345977962017059,0.0016841873293742,0.0332164019346237,0.0,0.0,0.4967687417232935,0.7505871538793865
-0.0029503821860998,1.3962770700454712,-0.142416626214981,-0.3162059783935547,0.0018703734967857,0.0037249189335852,0.0,0.0,0.1210950586900021,-0.6912651771987894
-0.004328632261604,1.3893351554870603,-0.1394816786050796,-0.3085249364376068,0.0035077715292572,0.0327510796487331,0.0,0.0,0.2594615804942159,-0.7371391235774443
-0.0058718682266771,1.3827288150787354,-0.1572679281234741,-0.2936320602893829,0.0064264191314578,0.0583783984184265,0.0,0.0,0.3548798435798346,0.6684427312958282
-0.0072517395019531,1.3766953945159912,-0.1398188769817352,-0.26816126704216,0.0082396054640412,0.036267090588808,0.0,0.0,0.8814869741950389,-0.9717054192704674
-0.0085416790097951,1.3713568449020386,-0.1331013292074203,-0.2373022735118866,0.0123010808601975,0.0812368243932724,0.0,0.0,-0.030438030689182,-0.9512194399808812
-0.0099110603332519,1.3657842874526978,-0.1430508196353912,-0.2477350980043411,0.0183499064296484,0.1209877282381057,0.0,0.0,0.5883993509166596,-0.8840388750798535
-0.01120166759938,1.360917568206787,-0.1372606456279754,-0.2164195924997329,0.0264557190239429,0.1621312499046325,0.0,0.0,0.060861336988214,0.693767082811521
-0.01246137637645,1.356633543968201,-0.1328480541706085,-0.1905290484428405,0.0332520045340061,0.135938361287117,0.0,0.0,0.761115822122898,-0.7787594066814452
-0.0138090131804347,1.3532803058624268,-0.1432899832725525,-0.1492479592561721,0.0416856557130813,0.1686886250972747,0.0,0.0,-0.5149404754531204,0.8699159040631874
-0.0150775909423828,1.3497003316879272,-0.1335011720657348,-0.1593068540096283,0.0482618734240531,0.1315363347530365,0.0,0.0,0.7930390526207165,-0.6804439198575274
-0.0163426399230957,1.346748113632202,-0.1348609030246734,-0.131496325135231,0.0565274991095066,0.1653275936841964,0.0,0.0,-0.656015735628444,-0.9700978865146552
-0.0176655761897563,1.3435641527175903,-0.1423028707504272,-0.1419203728437423,0.0664508417248725,0.1984851062297821,0.0,0.0,0.2472100417532479,0.9049273465739058
-0.0188714023679494,1.3405545949935913,-0.128990039229393,-0.1341518610715866,0.0747873932123184,0.1667461097240448,0.0,0.0,0.9526632269176394,0.8160391316879789
-0.01990089379251,1.3388065099716189,-0.1103193908929824,-0.0780725330114364,0.0820919796824455,0.146105021238327,0.0,0.0,0.1738113169201336,0.938804518411938
-0.0207774154841899,1.3371515274047852,-0.0933621972799301,-0.0738861933350563,0.0877606570720672,0.1133838146924972,0.0,0.0,0.4251891934548992,0.7379323820718302
-0.0215236656367778,1.3364003896713257,-0.0792925208806991,-0.0336616113781929,0.0923969820141792,0.0927349999547004,0.0,0.0,0.2171306015007987,0.7541936635926346
-0.0221104621887207,1.3358474969863892,-0.0622087903320789,-0.0247977375984191,0.0959007889032363,0.0700821802020073,0.0,0.0,0.8829546473838714,-0.7359998847595572
-0.0227161403745412,1.3364441394805908,-0.0660856217145919,0.0261551365256309,0.1013905256986618,0.109804593026638,0.0,0.0,-0.3402844173836998,-0.9113445200192596
-0.0233944896608591,1.3367958068847656,-0.0756826996803283,0.0150821451097726,0.1091899126768112,0.1560015678405761,0.0,0.0,-0.2914267827643773,0.8092626913283553
-0.0239871032536029,1.3369344472885132,-0.0653982236981391,0.005698706023395,0.1152963861823082,0.1221403628587722,0.0,0.0,-0.2331045668004809,0.7323267003054662
-0.0245105735957622,1.3368470668792725,-0.0572612285614013,-0.0042708669789135,0.1201917380094528,0.0979156494140625,0.0,0.0,0.3354249401147728,-0.819125708378319
-0.025021743029356,1.3371915817260742,-0.0580945685505867,0.0147436568513512,0.12714184820652,0.1390148550271988,0.0,0.0,-0.7219726829738704,-0.781229805796148
-0.0255743023008108,1.3372856378555298,-0.0639050602912902,0.0034196260385215,0.1357661336660385,0.1725010424852371,0.0,0.0,0.212462389374336,-0.9988516714981251
-0.0263782497495412,1.3378123044967651,-0.0913109928369522,0.0223803091794252,0.1466727405786514,0.2181518524885177,0.0,0.0,-0.2715554857756164,-0.7557597147526665
-0.0272400863468647,1.3380752801895142,-0.0992830023169517,0.0103378379717469,0.1597633212804794,0.2618114948272705,0.0,0.0,0.089892685464221,-0.633276770215776
-0.028210163116455,1.3388108015060425,-0.1116813868284225,0.0310519840568304,0.1744394153356552,0.2935220003128052,0.0,0.0,0.8604224251477293,-0.8846509430680355
-0.0295557975769042,1.3406391143798828,-0.1509679853916168,0.07924185693264,0.1909099370241165,0.3294103741645813,0.0,0.0,-0.4346666571642261,0.8956497255460734
-0.0308313369750976,1.342261791229248,-0.1428398191928863,0.0700730383396148,0.2062958031892776,0.3077177703380584,0.0,0.0,-0.7375301540250288,0.8068908660118984
-0.0320287719368934,1.343671441078186,-0.1337586939334869,0.0606262162327766,0.2204524427652359,0.2831328511238098,0.0,0.0,0.7849726654400915,-0.6103021419425197
-0.0334345810115337,1.346189022064209,-0.1561503112316131,0.1094861924648284,0.2362273782491684,0.3154984712600708,0.0,0.0,0.9904012032554144,0.6771810203128755
-0.0349898338317871,1.3492271900177002,-0.169784128665924,0.132683053612709,0.2507262229919433,0.289977103471756,0.0,0.0,0.7704662836185803,-0.7267495878349794
-0.0368879325687885,1.3532347679138184,-0.2055904865264892,0.1753332167863845,0.2668280303478241,0.3220352530479431,0.0,0.0,-0.7453241976276865,0.9463507965776126
-0.0386990532279014,1.3570318222045898,-0.195502296090126,0.1660676747560501,0.2815759778022766,0.2949591279029846,0.0,0.0,-0.1588048749526063,0.7699647933570891
-0.0404287353157997,1.36062753200531,-0.1860685050487518,0.1572201251983642,0.2950731813907623,0.2699444890022278,0.0,0.0,0.2556766250748363,-0.8476489613118452
-0.0423524864017963,1.3648035526275637,-0.2074567824602127,0.1824604868888855,0.310657799243927,0.3116921484470367,0.0,0.0,0.3931154597058159,-0.9564002858621294
-0.0444649681448936,1.3692489862442017,-0.2284504622220993,0.1937979608774185,0.3285404145717621,0.3576523661613464,0.0,0.0,-0.4456795858710576,-0.6686812462691573
-0.0466010086238384,1.3734488487243652,-0.2322713434696197,0.1822948306798935,0.3480612337589264,0.3904164433479309,0.0,0.0,-0.0305329209799636,-0.6194336661895719
-0.0487627014517784,1.3774025440216064,-0.2363238036632537,0.1707052290439605,0.3692929148674011,0.4246342182159424,0.0,0.0,-0.3305799250149124,-0.7511156762654336
-0.0509519577026367,1.3811018466949463,-0.2406278848648071,0.1586407572031021,0.3923643827438354,0.4614291787147522,0.0,0.0,0.183291424733722,0.8511802319549253
-0.0533502586185932,1.3853437900543213,-0.259996622800827,0.1828058362007141,0.4139966666698456,0.4326455593109131,0.0,0.0,-0.9251317977905272,0.9929274320602416
-0.0556352622807025,1.3894144296646118,-0.2465328276157379,0.1755096018314361,0.4335230588912964,0.3905278444290161,0.0,0.0,-0.8827458620071411,0.9767580032348632
-0.0578084960579872,1.3933048248291016,-0.2334096431732177,0.1678436249494552,0.4510773718357086,0.3510861992835998,0.0,0.0,-0.9117839932441713,0.9966459274291992
-0.0598705299198627,1.3970255851745603,-0.2203025072813034,0.1607338041067123,0.4665854871273041,0.3101623654365539,0.0,0.0,-0.9523258805274964,0.975261926651001
-0.0618358626961708,1.4005560874938965,-0.2091526687145233,0.1526080071926117,0.4805822670459747,0.2799357175827026,0.0,0.0,-0.9586001038551332,0.8714642524719238
-0.0637027770280838,1.403901219367981,-0.1978136301040649,0.1447569280862808,0.4930000603199005,0.2483550310134887,0.0,0.0,-0.9692052006721495,0.9508507251739502
-0.0654645934700965,1.4070711135864258,-0.1856153905391693,0.1374664455652237,0.5035994648933411,0.2119868248701095,0.0,0.0,-0.9842557907104492,0.867135763168335
-0.0671491622924804,1.410059928894043,-0.1768462359905243,0.1297169625759124,0.5130760669708252,0.1895318180322647,0.0,0.0,-0.9768489599227904,0.4335310459136963
-0.0688009262084961,1.4128191471099854,-0.1738621890544891,0.1193490400910377,0.5229340195655823,0.1971594393253326,0.0,0.0,-0.9868922829627992,0.5610390901565552
-0.0703822150826454,1.415379762649536,-0.166100263595581,0.1107105687260627,0.5320290327072144,0.1819017380475998,0.0,0.0,-0.9897427558898926,0.3999178409576416
-0.0719296485185623,1.4177110195159912,-0.1630012094974517,0.100342646241188,0.5415068864822388,0.1895565688610077,0.0,0.0,-0.8716461658477783,0.7779237031936646
-0.0733975395560264,1.4198598861694336,-0.1540284901857376,0.0925768539309501,0.5498622059822083,0.1671071052551269,0.0,0.0,-0.990220308303833,0.5374459028244019
-0.0747873336076736,1.4218156337738037,-0.1453369855880737,0.0842964872717857,0.5572521090507507,0.1477983742952346,0.0,0.0,-0.9656215906143188,0.6598365306854248
-0.0760997757315635,1.4235877990722656,-0.1367016583681106,0.076486736536026,0.5635994672775269,0.1269475221633911,0.0,0.0,-0.8849496841430664,0.3908064365386963
-0.0773763656616211,1.4251304864883425,-0.1334104984998703,0.0661210045218467,0.5703312754631042,0.1346358209848404,0.0,0.0,-0.8919662833213806,0.3993943929672241
-0.0786166191101074,0.0,-0.1300781816244125,0.0557547360658645,0.577447772026062,0.1423283368349075,0.0,0.0,-0.9660182595252992,0.4750354290008545
-0.0798201560974121,1.4275274276733398,-0.126707911491394,0.0453879125416278,0.5849489569664001,0.1500237733125686,0.0,0.0,-0.6646238565444946,0.1682809591293335
-0.0809867829084396,1.4283819198608398,-0.123302936553955,0.0350204929709434,0.592835009098053,0.1577209383249282,0.0,0.0,-0.980037271976471,0.6037843227386475
-0.0820747390389442,1.4290564060211182,-0.114496111869812,0.0273978020995855,0.5996343493461609,0.1359863132238388,0.0,0.0,-0.9966010451316832,0.2055449485778808
-0.0831252112984657,1.4295015335083008,-0.1110333949327468,0.0170307345688343,0.6068184971809387,0.1436833441257476,0.0,0.0,-0.9592973589897156,0.6597261428833008
-0.0840898528695106,1.429760217666626,-0.1014779955148696,0.00916163995862,0.6128512024879456,0.1206540837883949,0.0,0.0,-0.8702985644340515,0.2124249935150146
-0.0850165337324142,1.4297893047332764,-0.0979714393615722,-0.0012050602817907,0.6192684769630432,0.1283456832170486,0.0,0.0,-0.9638458490371704,0.4984375238418579
-0.0859050750732421,1.4295892715454102,-0.0944476053118705,-0.0115722334012389,0.6260700821876526,0.1360326111316681,0.0,0.0,-0.9558847546577454,0.4286576509475708
-0.0867553725838661,1.4291598796844482,-0.0909100919961929,-0.0219399034976959,0.6332558393478394,0.1437136083841323,0.0,0.0,-0.9797398447990416,0.3458622694015503
-0.087567426264286,1.4285013675689695,-0.08736252784729,-0.0323080904781818,0.6408252120018005,0.1513876020908355,0.0,0.0,-0.9063870906829834,0.6002655029296875
-0.0883114784955978,1.4276469945907593,-0.0800172239542007,-0.0407727733254432,0.6477392911911011,0.1382812708616256,0.0,0.0,-0.8881239891052246,0.6906588077545166
-0.0889764800667762,1.4266198873519895,-0.0711066871881485,-0.0479906946420669,0.6534626483917236,0.1144673228263855,0.0,0.0,-0.982768714427948,0.3431580066680908
-0.0896030440926551,1.425363540649414,-0.0675543397665023,-0.0583580248057842,0.6595682501792908,0.1221124678850174,0.0,0.0,-0.9481999278068542,0.4141696691513061
-0.09019136428833,1.4238777160644531,-0.0640073865652084,-0.0687257573008537,0.6660555005073547,0.1297449618577957,0.0,0.0,-0.8847441673278809,0.761764407157898
-0.0907009094953537,1.4222064018249512,-0.0553026013076305,-0.076574683189392,0.6715222597122192,0.1093355640769004,0.0,0.0,-0.725480854511261,0.8759981393814087
-0.0911290198564529,1.4203619956970217,-0.0461443662643432,-0.0837486982345581,0.6757350564002991,0.0842564180493354,0.0,0.0,-0.8194468021392822,0.5284619331359863
-0.0914860740303993,1.418329119682312,-0.0383669696748256,-0.0917749106884002,0.6791064143180847,0.0674275085330009,0.0,0.0,-0.907556653022766,0.4434093236923218
-0.0918054580688476,1.4160668849945068,-0.0348859168589115,-0.1021412387490272,0.682856023311615,0.074992761015892,0.0,0.0,-0.91795152425766,0.9233880043029784
-0.0920251831412315,1.4136508703231812,-0.0234289616346359,-0.1081683933734893,0.6847054958343506,0.0369888767600059,0.0,0.0,-0.948976993560791,0.0478613376617431
-0.0922079086303711,1.4110052585601809,-0.0200062282383441,-0.1185341924428939,0.6869309544563293,0.0445086620748043,0.0,0.0,-0.9829152822494508,0.780037522315979
-0.092298224568367,1.4081876277923584,-0.0095885666087269,-0.1255301386117935,0.6876357197761536,0.0140950214117765,0.0,0.0,-0.9496422410011292,0.664920449256897
-0.0923116654157638,1.405181646347046,-0.0011150167556479,-0.1334697753190994,0.6873391270637512,-0.0059319925494492,0.0,0.0,-0.9788222312927246,0.528193473815918
-0.0922601670026779,1.4019882678985596,0.0059939716011285,-0.1414770931005478,0.6862596273422241,-0.0215896479785442,0.0,0.0,-0.9653648138046264,0.5129959583282471
-0.0921407714486122,1.398611307144165,0.013507017865777,-0.1492214202880859,0.6842625737190247,-0.0399414673447608,0.0,0.0,-0.9796695113182068,0.734670877456665
-0.0919539481401443,1.395054578781128,0.0210064575076103,-0.1568237394094467,0.6813061237335205,-0.0591276995837688,0.0,0.0,-0.9076797366142272,0.2282303571701049
-0.091732881963253,1.391268014907837,0.0241444036364555,-0.1671893000602722,0.6787160038948059,-0.0518021509051322,0.0,0.0,-0.9769457578659058,0.2068648338317871
-0.0914782509207725,1.387251853942871,0.0272172186523675,-0.1775545477867126,0.676490068435669,-0.0445184744894504,0.0,0.0,-0.9519802927970886,0.4461984634399414
-0.091190718114376,1.3830058574676514,0.0302196741104125,-0.1879195123910904,0.6746261119842529,-0.0372795350849628,0.0,0.0,-0.993063986301422,0.8026993274688721
-0.0908286124467849,1.3785858154296875,0.0386792942881584,-0.1951419711112976,0.6715149879455566,-0.0622226074337959,0.0,0.0,-0.8779741525650024,0.5265641212463379
-0.0904051810503006,1.373975396156311,0.0454369857907295,-0.2032818794250488,0.6676246523857117,-0.0778070464730262,0.0,0.0,-0.9891988635063172,0.6146489381790161
-0.0899086967110633,1.3691859245300293,0.0536932572722435,-0.2107516974210739,0.6625471115112305,-0.1015503033995628,0.0,0.0,-0.9879010319709778,-0.0396551489830017
-0.0893829315900802,1.3641666173934937,0.0563614852726459,-0.221117153763771,0.6578208804130554,-0.0945243090391159,0.0,0.0,-0.9788553714752196,-0.2308284044265747
-0.088828757405281,1.3589177131652832,0.0589312128722667,-0.2314821183681488,0.6534428000450134,-0.087561085820198,0.0,0.0,-0.9733083248138428,0.3657305240631103
-0.0882472991943359,1.3534389734268188,0.0613965988159179,-0.2418466359376907,0.6494095921516418,-0.0806646049022674,0.0,0.0,-0.994882881641388,0.1429200172424316
-0.0876396149396896,1.34773051738739,0.0637517347931861,-0.2522106766700744,0.6457176208496094,-0.0738390609622001,0.0,0.0,-0.9529417753219604,0.5743540525436401
-0.0869734734296798,1.3418350219726562,0.0703466609120369,-0.2601533830165863,0.6411160230636597,-0.0920315235853195,0.0,0.0,-0.9950082302093506,0.6803704500198364
-0.0862413421273231,1.3357635736465454,0.0779653638601303,-0.2674937844276428,0.6352818012237549,-0.1166843324899673,0.0,0.0,-0.9804919362068176,0.4467617273330688
-0.0854866951704025,1.3294624090194702,0.0799553990364074,-0.2778581380844116,0.6297768354415894,-0.1100994795560836,0.0,0.0,-0.9792607426643372,0.1378591060638427
-0.0847111716866493,1.3229312896728516,0.081810787320137,-0.2882218658924103,0.6245965957641602,-0.1036050766706466,0.0,0.0,-0.9805539846420288,0.0957778692245483
-0.0839159041643142,1.3161700963974,0.0835254788398742,-0.2985850274562835,0.6197362542152405,-0.0972062870860099,0.0,0.0,-0.9801608920097352,0.4129285812377929
-0.0831025093793869,1.3091788291931152,0.0850934460759162,-0.3089475929737091,0.6151907444000244,-0.0909086093306541,0.0,0.0,-0.9874116778373718,-0.0837775468826294
-0.0822725296020507,1.3019572496414185,0.0865087211132049,-0.3193096220493316,0.6109548807144165,-0.0847176611423492,0.0,0.0,-0.9759912490844728,0.4337468147277832
-0.0814275741577148,1.2945054769515991,0.0877654552459716,-0.329671174287796,0.6070229411125183,-0.0786392614245414,0.0,0.0,-0.9479638338088988,-0.189541220664978
-0.0805692672729492,1.2868235111236572,0.0888579115271568,-0.3400321304798126,0.6033889651298523,-0.0726794525980949,0.0,0.0,-0.977389395236969,0.6368387937545776
-0.0796640366315841,1.278952956199646,0.0943613573908805,-0.3480391502380371,0.5987867712974548,-0.0920438691973686,0.0,0.0,-0.9740470051765442,-0.013565719127655
-0.0787491798400878,1.2708522081375122,0.0951094552874565,-0.3583997189998626,0.5944697856903076,-0.0863397940993309,0.0,0.0,-0.984745979309082,0.425980806350708
-0.077826403081417,1.2625207901000977,0.0956771448254585,-0.3687597215175628,0.5904311537742615,-0.080773040652275,0.0,0.0,-0.9935010075569152,0.2056998014450073
-0.0768975242972374,1.2539589405059814,0.0960595831274986,-0.3791191875934601,0.5866636633872986,-0.0753500685095787,0.0,0.0,-0.9825390577316284,0.1505831480026245
-0.0759645476937294,1.2451660633087158,0.096252255141735,-0.3894780874252319,0.5831598043441772,-0.0700771957635879,0.0,0.0,-0.971851885318756,0.4963853359222412
-0.075029470026493,1.2361427545547483,0.0962509959936142,-0.3998364508152008,0.5799117684364319,-0.0649609118700027,0.0,0.0,-0.9852679967880248,0.790999174118042
-0.0740351676940918,1.2269384860992432,0.1035574898123741,-0.4072838127613067,0.5750519633293152,-0.0971961915493011,0.0,0.0,-0.9343230128288268,0.7091505527496338
-0.0729875564575195,1.2175639867782593,0.1103067547082901,-0.414261519908905,0.5685353875160217,-0.1303316950798034,0.0,0.0,-0.9579588770866394,0.8571836948394775
-0.0718929320573806,1.2080167531967163,0.1163641810417175,-0.4214081168174743,0.5604718923568726,-0.1612696051597595,0.0,0.0,-0.9740163683891296,0.7832541465759277
-0.0707442313432693,1.1983067989349363,0.1234012842178344,-0.428009420633316,0.550544261932373,-0.1985516250133514,0.0,0.0,-0.9749534130096436,0.5207295417785645
-0.0695655792951583,1.1884028911590576,0.1273615658283233,-0.4363340139389038,0.5395776033401489,-0.219333529472351,0.0,0.0,-0.9781751036643982,0.6405835151672363
-0.0683580413460731,1.1783123016357422,0.1313240826129913,-0.4442954361438751,0.5274567604064941,-0.2424162626266479,0.0,0.0,-0.9873559474945068,-0.7206878066062927
-0.0672096237540245,1.1679590940475464,0.1241136044263839,-0.4565787315368652,0.5168939232826233,-0.2112564593553543,0.0,0.0,-0.9598391056060792,-0.4711270332336426
-0.0660764724016189,1.1573755741119385,0.1224720254540443,-0.4669400751590729,0.5065139532089233,-0.2075993567705154,0.0,0.0,-0.9792302250862122,-0.5388462543487549
-0.0650053024291992,1.1465256214141846,0.1149528995156288,-0.4793499410152435,0.4976745843887329,-0.1767867505550384,0.0,0.0,-0.9865732789039612,0.0732471942901611
-0.0639537796378135,1.1354447603225708,0.1128904595971107,-0.4897078275680542,0.4889974594116211,-0.1735425442457199,0.0,0.0,-0.9954342842102052,0.4222712516784668
-0.0629240050911903,1.1241329908370972,0.1106205582618713,-0.50006502866745,0.4804719686508178,-0.1705094277858734,0.0,0.0,-0.9582642912864684,0.106557011604309
-0.0619179718196392,1.112590193748474,0.1081453934311866,-0.5104215145111084,0.4720874428749084,-0.1676899343729019,0.0,0.0,-0.9925612211227416,-0.148310124874115
-0.0609379783272743,1.100816011428833,0.105467677116394,-0.5207774043083191,0.4638331234455108,-0.1650861203670501,0.0,0.0,-0.9880111813545228,-0.6206421256065369
-0.0600231178104877,1.0887858867645264,0.0978830978274345,-0.532565176486969,0.4567833244800567,-0.1409961283206939,0.0,0.0,-0.9756731390953064,0.2264081239700317
-0.0591382011771202,1.076524019241333,0.0948094651103019,-0.5429185032844543,0.4498419761657715,-0.1388275623321533,0.0,0.0,-0.971467673778534,0.2582460641860962
-0.0582853332161903,1.064030408859253,0.0915443748235702,-0.5532713532447815,0.4429981112480163,-0.1368773132562637,0.0,0.0,-0.9719631671905518,0.5017669200897217
