x_pos,y_pos,x_vel,y_vel,angle,ang_vel,leg_1,leg_2,main_booster,lat_booster
-0.0015353203052654,1.403040051460266,-0.1551343500614166,-0.3502244353294372,0.0014313781866803,0.0282110758125782,0.0,0.0,-0.2459624409675598,0.3610099554061889
-0.0030789375305175,1.3945987224578855,-0.1554190218448639,-0.375170350074768,0.0024756619241088,0.0208881888538599,0.0,0.0,0.5348410606384277,0.9725035429000854
-0.0044104577973484,1.3861292600631714,-0.1320780962705612,-0.3764220476150512,0.0014144737506285,-0.0212254673242568,0.0,0.0,-0.1888833045959472,-0.0747883319854736
-0.0057425498962402,1.3770751953125,-0.131776750087738,-0.4024041891098022,-7.308436806852114e-07,-0.0283069964498281,0.0,0.0,-0.4094976186752319,0.5560445785522461
-0.0070182802155613,1.3674383163452148,-0.1244394928216934,-0.4282983839511871,-0.0031084879301488,-0.0621608719229698,0.0,0.0,0.2761847972869873,0.5779824256896973
-0.0081239696592092,1.3578453063964844,-0.1061581149697303,-0.4263773262500763,-0.007471976801753,-0.0872775465250015,0.0,0.0,-0.3352136611938476,-0.2892806529998779
-0.0092189786955714,1.347667932510376,-0.1047239080071449,-0.452357679605484,-0.0121967913582921,-0.0945049673318862,0.0,0.0,0.3609039783477783,0.3126925230026245
-0.0101700779050588,1.3377037048339844,-0.0905565991997718,-0.4429004788398742,-0.016698632389307,-0.0900452360510826,0.0,0.0,-0.5793116688728333,0.113377571105957
-0.0111032482236623,1.3271551132202148,-0.0883988961577415,-0.4688828289508819,-0.0215664021670818,-0.0973642095923423,0.0,0.0,-0.240273118019104,-0.2363569736480713
-0.0120150567963719,1.316022872924805,-0.085890956223011,-0.4948566555976867,-0.0268012508749961,-0.1047066673636436,0.0,0.0,0.5047986507415771,-0.7546621561050415
-0.0128600122407078,1.3051178455352783,-0.0805091559886932,-0.4847449362277984,-0.0307508148252964,-0.0789986401796341,0.0,0.0,-0.8132866024971008,-0.3343919515609741
-0.0136771202087402,1.2936285734176636,-0.0773407369852066,-0.5107277035713196,-0.0350720435380935,-0.0864324197173118,0.0,0.0,-0.4296581149101257,-0.7862304449081421
-0.014511490240693,1.281562089920044,-0.0799409002065658,-0.5363801717758179,-0.0385421887040138,-0.0694088265299797,0.0,0.0,-0.4310179948806762,-0.7742863297462463
-0.0153662683442235,1.2689071893692017,-0.0829583629965782,-0.5625028014183044,-0.0410272888839244,-0.0497066304087638,0.0,0.0,-0.2970290184020996,-0.8835998177528381
-0.0162372589111328,1.2556806802749634,-0.0855655819177627,-0.5878881812095642,-0.0425429791212081,-0.0303166024386882,0.0,0.0,-0.4671893715858459,-0.8659287691116333
-0.0171249397099018,1.2418633699417114,-0.0882736518979072,-0.6141180396080017,-0.0430300049483776,-0.0097413370385766,0.0,0.0,0.2947119474411011,-0.8820530772209167
-0.0178872104734182,1.2284733057022097,-0.0772334560751915,-0.595088541507721,-0.0420342870056629,0.0199161730706691,0.0,0.0,-0.5835030674934387,-0.6235706806182861
-0.0186428073793649,1.2144958972930908,-0.0771469101309776,-0.6211756467819214,-0.0404715090990066,0.0312583446502685,0.0,0.0,-0.6068436503410339,-0.5240065455436707
-0.0193863864988088,1.1999415159225464,-0.0764469727873802,-0.6468101143836975,-0.0384122468531131,0.0411890633404254,0.0,0.0,-0.5391408801078796,-0.254509687423706
-0.0200814250856637,1.184802770614624,-0.0712002962827682,-0.6727859377861023,-0.0367305092513561,0.0336379669606685,0.0,0.0,-0.5364643335342407,-0.6488028764724731
-0.0207659713923931,1.169087052345276,-0.070812202990055,-0.6984270811080933,-0.0344087071716785,0.0464404784142971,0.0,0.0,-0.4820460081100464,-0.3097909092903137
-0.0213982574641704,1.1527869701385498,-0.0651889145374298,-0.7244030833244324,-0.0324637331068515,0.0389028750360012,0.0,0.0,-0.5363011360168457,-0.7942019104957581
-0.0220256801694631,1.1359039545059204,-0.0655756294727325,-0.7502937316894531,-0.0296556372195482,0.0561669170856475,0.0,0.0,-0.0642517805099487,-0.2823359370231628
-0.022597312927246,1.1184368133544922,-0.0596290603280067,-0.7762696146965027,-0.0272224768996238,0.0486674569547176,0.0,0.0,0.3384186029434204,-0.3352110385894775
-0.0232126228511333,1.1011719703674316,-0.0630798488855362,-0.7673003673553467,-0.0256953593343496,0.0305453687906265,0.0,0.0,0.2296332120895385,-0.0315611362457275
-0.0238648410886526,1.0840911865234375,-0.0658773332834243,-0.7591314315795898,-0.0250406488776206,0.0130944307893514,0.0,0.0,0.3352521657943725,-0.5940142869949341
-0.024485969915986,1.0673120021820068,-0.0636104494333267,-0.7457181215286255,-0.023565674200654,0.0294993072748184,0.0,0.0,-0.1308743953704834,0.0293749570846557
-0.0250461585819721,1.0499484539031982,-0.0571449771523475,-0.7716913223266602,-0.022456057369709,0.022192545235157,0.0,0.0,0.459535002708435,-0.8421691060066223
-0.0257251746952533,1.0330405235290527,-0.0701847448945045,-0.7514303922653198,-0.0202034469693899,0.0450522080063819,0.0,0.0,0.1848491430282592,-0.0101122260093688
-0.0263491626828908,1.01607346534729,-0.064250499010086,-0.7540776133537292,-0.0183789562433958,0.0364898853003978,0.0,0.0,0.6795828342437744,-0.2737504243850708
-0.0268744472414255,0.9998122453689576,-0.0541050657629966,-0.72270268201828,-0.0168208982795476,0.0311610735952854,0.0,0.0,-0.082487940788269,-0.0405959486961364
-0.0273348800837993,0.9829668402671814,-0.0472780242562294,-0.7486756443977356,-0.0156128527596592,0.0241612065583467,0.0,0.0,-0.3341535329818725,-0.2790426015853882
-0.0277299880981445,0.965536892414093,-0.0403789691627025,-0.7746485471725464,-0.0147499293088912,0.0172583274543285,0.0,0.0,-0.054980456829071,0.0434621572494506
-0.0280588157474994,0.947522759437561,-0.0334141477942466,-0.8006213307380676,-0.0142268687486648,0.0104611357674002,0.0,0.0,-0.3545906543731689,-0.3789622783660888
-0.0283207893371582,0.9289243817329408,-0.0263892970979213,-0.8265941143035889,-0.014037943445146,0.0037786036264151,0.0,0.0,0.3873692750930786,-0.1639868021011352
-0.0284910202026367,0.9106939435005188,-0.0169607959687709,-0.8102422952651978,-0.0141062997281551,-0.0013671114575117,0.0,0.0,-0.1871665120124817,0.4001722335815429
-999.0,0.8918792605400085,-0.0098313139751553,-0.8362149596214294,-0.0144958822056651,-0.0077915964648127,0.0,0.0,0.3724961280822754,-0.2844150066375732
-0.0285861976444721,0.8734279870986938,0.0012760653626173,-0.8200639486312866,-0.0150532154366374,-0.0111464634537696,0.0,0.0,-0.0724579691886901,0.1412705183029174
-0.0285100936889648,0.8543922901153564,0.0084923328831791,-0.8460367321968079,-0.0159168131649494,-0.0172723159193992,0.0,0.0,0.4824438095092773,0.1279410123825073
-999.0,0.8355898261070251,0.0190327279269695,-0.8356773257255554,-0.0169611554592847,-0.0208865739405155,0.0,0.0,-0.1784297227859497,-0.146284282207489
-0.0280805584043264,0.8162029385566711,0.026320744305849,-0.8616500496864319,-0.0182946659624576,-0.026670292019844,0.0,0.0,0.4678453207015991,-0.4250164031982422
-0.0276423450559377,0.7969264984130859,0.0449420176446437,-0.856748640537262,-0.0194007121026515,-0.0221206527203321,0.0,0.0,0.023118257522583,0.1777874231338501
-0.0270693786442279,0.7773551344871521,0.0584001615643501,-0.8698505163192749,-0.0204982124269008,-0.0219497568905353,0.0,0.0,-0.6871329545974731,-0.3459314107894897
-0.0264253616333007,0.7571994662284851,0.0657726749777793,-0.8958233594894409,-0.0218548737466335,-0.0271332450211048,0.0,0.0,-0.0167829394340515,-0.1819933652877807
-0.0257100109010934,0.7364596724510193,0.0731681436300277,-0.9217962622642516,-0.0234594922512769,-0.032092485576868,0.0,0.0,0.4525938034057617,-0.5788189172744751
-0.024917984381318,0.7155701518058777,0.079806849360466,-0.9284278154373168,-0.0240505654364824,-0.0118216704577207,0.0,0.0,0.4495667219161987,-0.0725889205932617
-0.0239908210933208,0.6946825385093689,0.0932859927415847,-0.9283503293991088,-0.024617763236165,-0.0113435732200741,0.0,0.0,0.7361948490142822,-0.6133338809013367
-0.023145293816924,0.6745376586914062,0.0844291001558303,-0.8953314423561096,-0.0244939029216766,0.0024771159514784,0.0,0.0,0.4388282299041748,-0.5558343529701233
-0.0223793033510446,0.6548486948013306,0.0758442133665084,-0.8750509023666382,-0.0237521268427371,0.0148357152938842,0.0,0.0,0.1480402946472168,-0.7613335251808167
-0.0216090194880962,0.6351060271263123,0.0749368295073509,-0.8774190545082092,-0.0216939616948366,0.0411635003983974,0.0,0.0,0.813064694404602,0.0172147750854492
-0.0205945968627929,0.6157137751579285,0.0987902134656906,-0.8618404865264893,-0.0190754849463701,0.0523694679141044,0.0,0.0,0.4386652708053589,-0.2653498649597168
-0.0195446014404296,0.5967008471488953,0.1027394980192184,-0.8449933528900146,-0.0168414860963821,0.0446796678006649,0.0,0.0,0.4989478588104248,-0.7544304728507996
-0.0183637626469135,0.5777031183242798,0.1142483204603195,-0.844304084777832,-0.0130577264353632,0.0756753087043762,0.0,0.0,0.8467884063720703,-0.7799720764160156
-0.0171550754457712,0.5594670176506042,0.1155780777335167,-0.8104540705680847,-0.0078346794471144,0.1044608354568481,0.0,0.0,0.4425773620605469,-0.597205400466919
-0.0157743450254201,0.5412823557853699,0.1313748806715011,-0.8081892728805542,-0.0012197904288768,0.1322978436946869,0.0,0.0,0.2869863510131836,0.2137489318847656
-0.0143931386992335,0.5230645537376404,0.131856769323349,-0.8096891045570374,0.0049642352387309,0.1236805915832519,0.0,0.0,0.5385477542877197,-0.6391614675521851
-0.0128960609436035,0.5053824782371521,0.1420135349035263,-0.7859142422676086,0.0125565370544791,0.1518457233905792,0.0,0.0,0.2333390712738037,0.3742697238922119
-0.0112275127321481,0.4878739416599273,0.1587404459714889,-0.7782464623451233,0.0205738898366689,0.1603469252586364,0.0,0.0,0.6366921663284302,-0.3518295288085937
-0.0094264987856149,0.4710074365139007,0.1716602742671966,-0.7497628927230835,0.0288999453186988,0.1665212363004684,0.0,0.0,-0.0430120229721069,-0.2805631160736084
-0.0075503350235521,0.453557401895523,0.1792033910751342,-0.775740921497345,0.0372101962566375,0.1662049442529678,0.0,0.0,0.6437914371490479,-0.4123201370239258
-0.0055615426972508,0.4360791444778442,0.1902295053005218,-0.7770527601242065,0.045758169144392,0.1709593832492828,0.0,0.0,0.8333890438079834,-0.4059956073760986
-0.0036437988746911,0.4191760718822479,0.1836207807064056,-0.7515168786048889,0.0538113452494144,0.1610637754201889,0.0,0.0,0.6989638805389404,-0.0852249264717102
-0.0015520096058025,0.4024964570999145,0.2003943473100662,-0.7416563630104065,0.0624897815287113,0.1735686659812927,0.0,0.0,0.7725203037261963,-0.705464243888855
0.0005462646367959,0.3862165212631225,0.1995155364274978,-0.7240135073661804,0.072689414024353,0.2039929628372192,0.0,0.0,0.905542254447937,0.2768377065658569
0.0026959418319165,0.3700463771820068,0.2045575827360153,-0.7192122936248779,0.0830032154917717,0.2062759697437286,0.0,0.0,0.7864959239959717,0.1568933725357055
0.0047354698181152,0.3542319238185882,0.1940843015909195,-0.7034400105476379,0.0927871242165565,0.195678174495697,0.0,0.0,0.7602723836898804,0.3258949518203735
0.0067896842956542,0.3391996026039123,0.1953441500663757,-0.6687598824501038,0.1027826517820358,0.199910432100296,0.0,0.0,0.7853190898895264,0.0503311157226562
0.0089761735871434,0.3240696489810943,0.2080431431531906,-0.6732063889503479,0.1133103296160698,0.2105532437562942,0.0,0.0,0.9353907108306884,0.4601368904113769
0.0111575126647949,0.3098528683185577,0.2072635442018509,-0.6327193975448608,0.1241218000650405,0.2162294685840606,0.0,0.0,0.8887519836425781,0.6155774593353271
0.0132827758789062,0.2958437204360962,0.2030503749847412,-0.6234428882598877,0.1335521191358566,0.1886060088872909,0.0,0.0,0.8308849334716797,-0.0737286806106567
0.0152839664369821,0.2823468446731567,0.1909613460302353,-0.6007053852081299,0.1426784247159958,0.1825263798236847,0.0,0.0,0.7929632663726807,0.361560583114624
0.0172988884150981,0.2692770659923553,0.1920153796672821,-0.5818157196044922,0.1521397083997726,0.1892255246639251,0.0,0.0,0.7112064361572266,0.3636839389801025
0.0191263202577829,0.2568910419940948,0.1736887991428375,-0.5514408946037292,0.1611774414777755,0.1807548105716705,0.0,0.0,0.4903182983398437,0.6687431335449219
0.0210708621889352,0.2447234690189361,0.1864108145236969,-0.5416719317436218,0.1692257076501846,0.1609660536050796,0.0,0.0,0.2866122722625732,0.4356827735900879
0.023015022277832,0.2324167042970657,0.1862939596176147,-0.5479192137718201,0.1773706674575805,0.162898987531662,0.0,0.0,0.6974591016769409,-0.0119834542274475
0.0250460617244243,0.2200384885072708,0.1944246590137481,-0.5512006878852844,0.1860681325197219,0.1739496886730194,0.0,0.0,0.8255490064620972,0.3259942531585693
0.0270501133054494,0.2076207250356674,0.1916725486516952,-0.5530210137367249,0.1948440819978714,0.1755192726850509,0.0,0.0,0.8772604465484619,0.2772012948989868
0.0289471633732318,0.1959437429904937,0.1807789355516433,-0.5201720595359802,0.2038260251283645,0.1796391904354095,0.0,0.0,0.849481463432312,0.5494153499603271
0.0308712013065814,0.1850731521844864,0.1840692460536956,-0.4843086004257202,0.2122266441583633,0.1680125892162323,0.0,0.0,0.5207931995391846,0.5394699573516846
0.0326454155147075,0.1747065186500549,0.1701979786157608,-0.4617938995361328,0.2195304632186889,0.1460765302181244,0.0,0.0,0.6794459819793701,0.2156261205673217
0.0342946052551269,0.1642069965600967,0.1580253094434738,-0.4676874279975891,0.2265023589134216,0.1394377946853637,0.0,0.0,0.7151104211807251,0.4004489183425903
0.0358766540884971,0.1543382555246353,0.1508636772632599,-0.4397597312927246,0.2339521795511245,0.148995965719223,0.0,0.0,0.6235003471374512,-0.3916976451873779
0.0373071655631065,0.1446772962808609,0.1358772814273834,-0.4305334687232971,0.241232767701149,0.1456118673086166,0.0,0.0,0.5930051803588867,0.4770808219909668
0.0386063568294048,0.1353665888309478,0.1227051615715026,-0.4150091111660003,0.2485670000314712,0.146684855222702,0.0,0.0,0.5208063125610352,0.8527681827545166
0.0398755073547363,0.1264334022998809,0.1211379170417785,-0.3980210721492767,0.2544622421264648,0.1179041862487793,0.0,0.0,0.7876167297363281,0.6804609298706055
0.0412128455936908,0.1178900301456451,0.1287627816200256,-0.3805731832981109,0.2595289647579193,0.1013346463441848,0.0,0.0,0.7180676460266113,-0.464251160621643
0.0425580963492393,0.1092893704771995,0.1291482597589492,-0.383215993642807,0.2650254070758819,0.1099289506673812,0.0,0.0,0.7337867021560669,0.6476907730102539
0.0440196022391319,0.1007742509245872,0.1415014714002609,-0.3792980313301086,0.2697839140892029,0.0951699838042259,0.0,0.0,0.739267110824585,0.3638691902160644
0.0455451980233192,0.0926073864102363,0.1468901932239532,-0.3640280067920685,0.2755842804908752,0.1160081997513771,0.0,0.0,0.4007487297058105,-0.0401474237442016
0.0471679680049419,0.0843887403607368,0.1557742655277252,-0.3665157854557037,0.2822612822055816,0.1335402429103851,0.0,0.0,0.4936103820800781,-0.0722094774246215
0.0486707687377929,0.0765638425946235,0.1434896290302276,-0.3491028249263763,0.2892486453056335,0.1397463828325271,0.0,0.0,0.5773447751998901,-0.1172792315483093
0.0500690452754497,0.069210298359394,0.1325867176055908,-0.3282760977745056,0.2967104613780975,0.1492371410131454,0.0,0.0,0.7872657775878906,0.1529664993286132
0.0514583587646484,0.062368806451559,0.1307727098464965,-0.3057512938976288,0.305137038230896,0.1685315072536468,0.0,0.0,0.7290092706680298,0.2772700786590576
0.0529182441532611,0.0554816089570522,0.1370529532432556,-0.3079998791217804,0.3143967390060425,0.1851940304040908,0.0,0.0,0.4659144878387451,0.1218812465667724
0.0542661659419536,0.0486355386674404,0.1257421672344207,-0.3062577545642853,0.3237888813018799,0.1878428906202316,0.0,0.0,0.615864634513855,0.46619713306427
0.055495262145996,0.0424472913146019,0.1131972447037696,-0.2772393822669983,0.333915114402771,0.2025246173143386,0.0,0.0,0.3632992506027221,0.6982028484344482
0.0566727630794048,0.03635910525918,0.1091283336281776,-0.2726030945777893,0.3429340720176697,0.1803790032863617,0.0,0.0,0.8403732776641846,0.5379641056060791
0.057525634765625,0.032030876725912,0.0947871208190918,-0.1901196986436844,0.3330667316913605,-0.1972350776195526,0.0,1.0,0.9904940128326416,0.8658376932144165
0.0581704154610633,0.0292872283607721,0.0931725949048996,-0.1156231462955474,0.3032079339027405,-0.5972170829772949,0.0,1.0,0.9775307178497314,-0.4952739477157593
0.0584176070988178,0.0277502164244651,0.0650539919734001,-0.0604523047804832,0.2616969048976898,-0.8302739858627319,0.0,1.0,0.8037002086639404,-0.3448328375816345
0.0583513267338275,0.0268446300178766,0.0356948897242546,-0.0332666859030723,0.2186254411935806,-0.8614624738693237,0.0,1.0,0.4007638692855835,-0.7578285336494446
0.0581541061401367,0.0259206630289554,0.0193365197628736,-0.0357536301016807,0.1792745739221573,-0.7870174050331116,0.0,1.0,0.128604769706726,-0.3065342307090759
0.0578027740120887,0.0250179395079612,0.0045797359198331,-0.0358081609010696,0.1395581513643264,-0.7943301796913147,0.0,0.0,-0.9978072643280028,-0.0307860374450683
0.0575189590454101,0.0235520228743553,0.0111879035830497,-0.0619178153574466,0.1002022549510002,-0.7871195077896118,0.0,0.0,-0.9655401706695556,-0.7804069519042969
0.0572512634098529,0.0215187650173902,0.0113044725731015,-0.0882476344704628,0.0624900236725807,-0.7542458772659302,0.0,0.0,-0.674574077129364,-0.8484436273574829
0.0569905266165733,0.018906220793724,0.0101711023598909,-0.1149882823228836,0.0266611892729997,-0.716577410697937,0.0,0.0,0.5707989931106567,-0.9781534075737
0.0568552985787391,0.0168236829340457,0.020262736827135,-0.092292234301567,-0.0066932709887623,-0.6670896410942078,0.0,0.0,0.6320394277572632,-0.9799158573150636
0.0566872581839561,0.0153295136988163,0.0146659286692738,-0.0668395832180976,-0.0377651453018188,-0.6214381456375122,0.0,0.0,0.5323385000228882,-0.9495417475700378
0.056688405573368,0.0144573310390114,0.0291036758571863,-0.0397433005273342,-0.0664187893271446,-0.5730734467506409,0.0,0.0,0.4895775318145752,-0.7408194541931152
0.0568045601248741,0.0137909268960356,0.0385582074522972,-0.0310258939862251,-0.0930987223982811,-0.533599317073822,0.0,0.0,0.2690029144287109,-0.9053742289543152
0.0569631569087505,0.0135049680247902,0.0405548028647899,-0.0144317308440804,-0.1176050975918769,-0.4901279807090759,0.0,0.0,-0.5976065993309021,-0.8479069471359253
0.0572070106863975,0.0134101966395974,0.0284842848777771,-0.0045386268757283,-0.1216776594519615,-0.0814492106437683,1.0,0.0,-0.5149049162864685,-0.5311535596847534
0.0575067512691021,0.0133607722818851,0.0170810110867023,-0.0011919331736862,-0.1088754907250404,0.2560349404811859,1.0,0.0,-0.9282458424568176,-0.4212990403175354
0.0577917098999023,0.0127095319330692,0.0164224226027727,-0.0281093418598175,-0.0968957394361496,0.2395952194929123,1.0,0.0,-0.723734974861145,-0.5674477219581604
0.0580224990844726,0.0114823672920465,0.0096023026853799,-0.0537193603813648,-0.0835435390472412,0.2670442759990692,0.0,0.0,-0.9278751611709596,-0.773927628993988
0.0582473762333393,0.0096806744113564,0.0070102540776133,-0.0792818218469619,-0.068218283355236,0.3065049350261688,0.0,0.0,-0.7259925603866577,0.0166484117507934
0.0585277564823627,0.0072974418289959,0.0121609400957822,-0.1052722483873367,-0.052515685558319,0.3140516877174377,0.0,0.0,-0.3354204893112182,0.2233302593231201
0.0588615424931049,0.0043329214677214,0.017100166529417,-0.1312641948461532,-0.0364336334168911,0.3216410279273987,0.0,0.0,0.1458170413970947,0.5896046161651611
0.0594149604439735,0.0017084336141124,0.0340240336954593,-0.116261638700962,-0.0153698027133941,0.4212822914123535,1.0,0.0,0.2533595561981201,0.269890546798706
0.059996984899044,-0.0005772018339484,0.0367774665355682,-0.1014997214078903,0.005778931081295,0.4229744076728821,1.0,1.0,0.4374697208404541,0.0764394998550415
0.0606057159602642,-0.0023530744947493,0.0465629212558269,-0.0792968198657035,0.0189733169972896,0.2626945376396179,1.0,1.0,0.5160551071166992,0.3922929763793945
