x_pos,y_pos,x_vel,y_vel,angle,ang_vel,leg_1,leg_2,main_booster,lat_booster
-0.001481246901676,1.4031982421875,-0.1493867933750152,-0.3431895673274994,0.0011291223345324,0.0222260374575853,0.0,0.0,-0.93165205605638,0.9631766255518268
-0.0028380393050611,1.3950690031051636,-0.1340539753437042,-0.3613014817237854,-0.0004679302801378,-0.0319435633718967,0.0,0.0,0.6741068638195797,-0.6460969812916113
-0.00405635824427,1.387122392654419,-0.1212305575609207,-0.3531839251518249,-0.0010611092438921,-0.0118650738149881,0.0,0.0,0.7624435504836669,-0.9728265820713412
-0.005450630094856,1.379546046257019,-0.1398768275976181,-0.3367228507995605,-0.0006170977139845,0.0088813845068216,0.0,0.0,-0.2559047545051651,-0.8130500269428713
-0.0068531990982592,1.3715462684631348,-0.1413189470767974,-0.3555502295494079,0.0004230247286614,0.0208045300096273,0.0,0.0,0.675488939613875,0.799755111978123
-0.0079980846494436,1.363945484161377,-0.1135584935545921,-0.3378116190433502,-0.0004957201890647,-0.0183764863759279,0.0,0.0,-0.8378658033009307,-0.8362841752336757
-0.0091698644682765,1.3559184074401855,-0.1172916293144226,-0.3567547500133514,-0.0003891667874995,0.0021312048193067,0.0,0.0,0.6091111666400935,0.9863157540495626
-0.0100582120940089,1.3484132289886477,-0.0864589139819145,-0.3335614204406738,-0.0027302259113639,-0.046825747936964,0.0,0.0,-0.40909364667677,0.6395779859682946
-0.0108565334230661,1.3404887914657593,-0.0754892900586128,-0.3522110879421234,-0.007025365717709,-0.0859110727906227,0.0,0.0,0.7354547802184332,-0.8791695133902052
-0.0116794584318995,1.333289384841919,-0.0789847075939178,-0.319996178150177,-0.0103030940517783,-0.0655601546168327,0.0,0.0,0.9917624058658444,-0.7998611079186704
-0.0124056814238429,1.3267384767532349,-0.0704311579465866,-0.2911667823791504,-0.0124625051394104,-0.0431918576359748,0.0,0.0,-0.7077763103427352,-0.7097222442240985
-0.0131422998383641,1.319761037826538,-0.0719856172800064,-0.3101248741149902,-0.0141214039176702,-0.0331813432276248,0.0,0.0,-0.4327328941751416,-0.7191979919456217
-0.0138851162046194,1.3123621940612793,-0.0729747265577316,-0.32884481549263,-0.0154108516871929,-0.0257915649563074,0.0,0.0,-0.8385639006023906,0.6093170714556082
-0.0145367626100778,1.3045307397842407,-0.0617422834038734,-0.348106324672699,-0.0188033785670995,-0.0678565874695777,0.0,0.0,0.6431401523513958,-0.8029886006439926
-0.0150444032624363,1.2975088357925415,-0.0484564676880836,-0.3121185004711151,-0.0210755560547113,-0.0454478710889816,0.0,0.0,-0.0800470318149388,0.7168019010580965
-0.0154491420835256,1.290050387382507,-0.0357056185603141,-0.3315612077713012,-0.0257991924881935,-0.0944812297821044,0.0,0.0,-0.3090989226509557,0.7556679804099204
-0.0157452579587698,1.282172679901123,-0.02219501696527,-0.3502660691738128,-0.0331374742090702,-0.1467789262533188,0.0,0.0,-0.1327476217231542,0.8133661885599632
-0.0159277915954589,1.2738592624664309,-0.0080318581312894,-0.3697390556335449,-0.0432515628635883,-0.20230033993721,0.0,0.0,-0.8700568991093656,0.6705488352814422
-0.0160152427852153,1.2651243209838867,0.0038290016818791,-0.3886308968067169,-0.0556940771639347,-0.2488726675510406,0.0,0.0,0.1798784974265712,0.6542893029297496
-0.0160605423152446,1.2565724849700928,0.0102454591542482,-0.3807010650634765,-0.0703191384673118,-0.2925279140472412,0.0,0.0,-0.5526141932917152,-0.7371168311527013
-0.0161197669804096,1.247607946395874,0.0084565542638301,-0.3991595804691314,-0.0845775678753852,-0.2851942181587219,0.0,0.0,-0.6814399984737218,-0.943342756658282
-0.0162219051271677,1.238224744796753,0.0030988070648163,-0.4178399443626404,-0.0977915972471237,-0.2643042206764221,0.0,0.0,0.2069124663917887,-0.7874890993441378
-0.0162105560302734,1.2290043830871582,0.0135552641004323,-0.4106495082378387,-0.1101324707269668,-0.246840164065361,0.0,0.0,0.7358217770079305,0.6921250331670353
-0.0160023681819438,1.2198206186294556,0.0352259986102581,-0.4092970490455627,-0.124477244913578,-0.2869207561016083,0.0,0.0,0.2107685167653019,0.7447216617598416
-0.0157677643001079,1.210930109024048,0.0402746014297008,-0.3966212272644043,-0.1412418484687805,-0.3353220820426941,0.0,0.0,-0.837533886387468,-0.6841847072993001
-0.015576553530991,1.2016148567199707,0.0350219160318374,-0.4155910611152649,-0.1571118086576461,-0.3173991739749908,0.0,0.0,0.2470478064874819,0.7166561565000078
-0.0152168273925781,1.1926817893981934,0.0540597066283226,-0.3990340232849121,-0.1752181649208068,-0.3621272444725036,0.0,0.0,-0.5049873015653112,-0.717157444093685
-0.0149026867002248,1.1833540201187134,0.0485069900751113,-0.4166769385337829,-0.1923805177211761,-0.3432471752166748,0.0,0.0,0.6949395181833269,0.7658716334718388
-0.0145009038969874,1.1748077869415283,0.0598290935158729,-0.3825084865093231,-0.2121735662221908,-0.3958612978458404,0.0,0.0,-0.0497014456822573,0.8215530270530267
-0.0140200611203908,1.165820598602295,0.0700217485427856,-0.4027324020862579,-0.2343761324882507,-0.4440515041351318,0.0,0.0,-0.2852195153151167,0.936270202574246
-0.0134466169402003,1.1564009189605713,0.0818539187312126,-0.4227537512779236,-0.2593294978141784,-0.4990674555301666,0.0,0.0,-0.7702531625726883,0.8427331785350647
-0.0128030776977539,0.0,0.0909554213285446,-0.4432167410850525,-0.2865843474864959,-0.5450975298881531,0.0,0.0,0.9233543686468352,-0.8973193584312674
-0.0120499609038233,1.1376900672912598,0.1009104996919632,-0.3985603153705597,-0.3130158185958862,-0.5286294221878052,0.0,0.0,0.7210320155765189,0.6233988008565717
-0.0111921308562159,1.1289687156677246,0.1133236438035965,-0.3938215374946594,-0.3417088091373443,-0.5738606452941895,0.0,0.0,0.1839041087019473,0.9190579428562388
-0.0100922584533691,1.1204301118850708,0.1397942751646042,-0.3868788480758667,-0.3730899393558502,-0.6276233196258545,0.0,0.0,0.3987699220346961,-0.9147254490592028
-0.0087993619963526,1.112411379814148,0.1577009111642837,-0.3640957474708557,-0.4033759534358978,-0.6057201623916626,0.0,0.0,-0.8468699946345231,0.6334430560825927
-0.0074574472382664,1.103951930999756,0.1641601026058197,-0.3848394751548767,-0.4357300400733948,-0.6470828652381897,0.0,0.0,-0.0329731610700134,0.9538697407209642
-0.0060363770462572,1.095041275024414,0.174257606267929,-0.4064263701438904,-0.4709945321083069,-0.7052910327911377,0.0,0.0,0.7999624978039523,-0.8635107036460736
-0.0042947768233716,1.087037205696106,0.2048995047807693,-0.3665694296360016,-0.5053214430809021,-0.6865382790565491,0.0,0.0,-0.1251589178488323,0.6043066453086322
-0.0025084496010094,1.0785915851593018,0.2106602489948272,-0.3876274824142456,-0.5417894721031189,-0.7293601036071777,0.0,0.0,-0.1582540043970586,-0.8101426669246338
-0.0007841110345907,1.0698035955429075,0.2027203291654586,-0.4031742513179779,-0.5770207643508911,-0.7046266198158264,0.0,0.0,-0.9179030060768129,-0.9999738931655884
0.0008844375843182,1.0606575012207031,0.1956994384527206,-0.4194444417953491,-0.6113536953926086,-0.686658501625061,0.0,0.0,-0.9296295642852784,-0.9995684027671814
0.0024894713424146,1.0511507987976074,0.1878674179315567,-0.43571338057518,-0.6446951031684875,-0.6668285727500916,0.0,0.0,-0.9676457643508912,-0.997059404850006
0.0040336609818041,1.041292428970337,0.1803094446659088,-0.4515189230442047,-0.6770266890525818,-0.6466324329376221,0.0,0.0,-0.8974751234054565,-0.9994468092918396
0.0054971696808934,1.0310934782028198,0.170410931110382,-0.4665430784225464,-0.7078365683555603,-0.6161972284317017,0.0,0.0,-0.8005526661872864,-0.9998555779457092
0.0068879127502441,1.0205464363098145,0.1615835130214691,-0.4819441735744476,-0.737420380115509,-0.5916765928268433,0.0,0.0,-0.8439366817474365,-0.982294738292694
0.0082088466733694,0.0,0.1531600356101989,-0.4972178637981415,-0.7658445835113525,-0.5684835910797119,0.0,0.0,-0.5591311454772949,-0.99742192029953
0.0094492910429835,0.9984512329101562,0.1432037502527237,-0.5104586482048035,-0.7923909425735474,-0.5309274196624756,0.0,0.0,-0.4454966783523559,-0.9988864660263062
0.0106051443144679,0.9869424700737,0.132870614528656,-0.5234444737434387,-0.8169648051261902,-0.4914777874946594,0.0,0.0,-0.3389579057693481,-0.9979697465896606
0.0116791725158691,0.9751052856445312,0.1231924667954444,-0.5375497937202454,-0.8399913907051086,-0.460531622171402,0.0,0.0,-0.5187322497367859,-0.990542769432068
0.0126853939145803,0.962918758392334,0.1153966411948204,-0.5528411269187927,-0.8620862364768982,-0.4418981969356537,0.0,0.0,-0.4900592565536499,-0.9920507073402404
0.0136089324951171,0.9504166841506958,0.1056466102600097,-0.5661799907684326,-0.8824645280838013,-0.4075656533241272,0.0,0.0,-0.5610475540161133,-0.9945786595344543
0.0144552234560251,0.9375682473182678,0.0969113409519195,-0.5811693072319031,-0.9017621874809264,-0.3859535455703735,0.0,0.0,-0.6787576079368591,-0.9935566186904908
0.0152218816801905,0.9243992567062378,0.0877209827303886,-0.594771146774292,-0.9195396304130554,-0.3555486798286438,0.0,0.0,-0.6463172435760498,-0.9920464754104614
0.01591157913208,0.9108803272247314,0.0791983902454376,-0.609930694103241,-0.936368763446808,-0.3365829288959503,0.0,0.0,-0.7233612537384033,-0.9792872071266174
0.0165044777095317,0.8970474600791931,0.0681938678026199,-0.6229742169380188,-0.9513369798660278,-0.2993649244308471,0.0,0.0,-0.8595603108406067,-0.9864988923072816
0.0170196536928415,0.8828811049461365,0.0595581457018852,-0.6372336149215698,-0.9651158452033995,-0.2755776047706604,0.0,0.0,-0.8415632843971252,-0.947998344898224
0.0174570083618164,0.8683688044548035,0.0510739162564277,-0.6521404981613159,-0.9779435992240906,-0.2565554678440094,0.0,0.0,-0.8750074505805969,-0.9634701013565063
0.0178132057189941,0.8535251021385193,0.042140282690525,-0.6662367582321167,-0.9895356893539428,-0.2318419963121414,0.0,0.0,-0.9014686942100524,-0.8019179701805115
0.0180825237184762,0.8383542895317078,0.0325791053473949,-0.6800409555435181,-0.9997482895851136,-0.2042516022920608,0.0,0.0,-0.9377084374427797,-0.8337871432304382
0.0182610508054494,0.8228356242179871,0.0228408128023147,-0.6949421167373657,-1.008927583694458,-0.1835850924253463,0.0,0.0,-0.8849048614501953,-0.8335047364234924
0.0183449741452932,0.8069957494735718,0.0124873192980885,-0.7083606719970703,-1.01655113697052,-0.152470201253891,0.0,0.0,-0.8951513767242432,-0.8637834191322327
0.0183404926210641,0.7908039093017578,0.0031281511764973,-0.7235216498374939,-1.0232975482940674,-0.1349277049303054,0.0,0.0,-0.957672655582428,-0.5708616375923157
0.0182531364262104,0.7742481827735901,-0.0054970202036201,-0.7393788695335388,-1.0294816493988037,-0.12368194013834,0.0,0.0,-0.9628844261169434,-0.8800703883171082
0.0180644039064645,0.7573564052581787,-0.0163455568253994,-0.7535682916641235,-1.0343472957611084,-0.0973117798566818,0.0,0.0,-0.9181668162345886,-0.6526961326599121
0.0177799221128225,0.7401239275932312,-0.0265257097780704,-0.7680513262748718,-1.0380691289901731,-0.0744373574852943,0.0,0.0,-0.914070963859558,-0.8480973839759827
0.0174026489257812,0.0,-0.0364616066217422,-0.7821300625801086,-1.040549874305725,-0.0496158078312873,0.0,0.0,-0.9460843205451964,-0.9666821360588074
0.0169178005307912,0.7046513557434082,-0.0478578768670558,-0.7965883016586304,-1.0417741537094116,-0.0244847480207681,0.0,0.0,-0.9337261915206908,-0.9545775055885316
0.0163342468440532,0.6864209175109863,-0.0584883689880371,-0.8100914359092712,-1.0415143966674805,0.0051951087079942,0.0,0.0,-0.9210101366043092,-0.9669103622436525
0.0156337730586528,0.6678797602653503,-0.0711838081479072,-0.8227541446685791,-1.0392944812774658,0.0443983599543571,0.0,0.0,-0.9568274617195128,-0.9288836717605592
0.0148215293884277,0.6490272283554077,-0.083334632217884,-0.8355141282081604,-1.0352057218551636,0.0817750692367553,0.0,0.0,-0.9499117136001588,-0.9723030924797058
0.013900470919907,0.6298474669456482,-0.0950199887156486,-0.8491808772087097,-1.02959406375885,0.1122330278158187,0.0,0.0,-0.9043406248092652,-0.936734676361084
0.0128658292815089,0.6103653311729431,-0.107484221458435,-0.8614426851272583,-1.021926760673523,0.1533454805612564,0.0,0.0,-0.8567628264427185,-0.919719099998474
0.0117231365293264,0.5905433297157288,-0.1190241947770118,-0.8758467435836792,-1.0129934549331665,0.1786651015281677,0.0,0.0,-0.7259955406188965,-0.8247066140174866
0.0104646682739257,0.570383608341217,-0.1314357668161392,-0.8900703191757202,-1.0026440620422363,0.2069873511791229,0.0,0.0,-0.5413262844085693,-0.935512900352478
0.0090887071564793,0.5498802065849304,-0.1440005600452423,-0.9046416878700256,-0.9909704327583312,0.2334721833467483,0.0,0.0,-0.6404661536216736,-0.714941680431366
0.007598876953125,0.5290263295173645,-0.1561652719974517,-0.919615626335144,-0.9781389832496644,0.2566287815570831,0.0,0.0,-0.541095495223999,-0.9147794246673584
0.00599508266896,0.5078464150428772,-0.1686260849237442,-0.9332791566848756,-0.963699758052826,0.2887845337390899,0.0,0.0,-0.2736358642578125,-0.9064297676086426
0.0042823790572583,0.4863268435001373,-0.1804432272911071,-0.9477425813674928,-0.9479706287384032,0.3145824074745178,0.0,0.0,-0.1030757427215576,-0.6555634140968323
0.0024585723876953,0.4644650518894195,-0.1925355046987533,-0.9623575210571288,-0.9309606552124025,0.3401990234851837,0.0,0.0,0.3391833305358886,-0.7256828546524048
0.0006627083057537,0.4426281452178955,-0.1906174272298813,-0.9608100652694702,-0.9129222631454468,0.3607684373855591,0.0,0.0,0.3595194816589355,0.1737332344055175
-0.0006793976062908,0.4209303855895996,-0.145285427570343,-0.9549520611763,-0.8952321410179138,0.3538020253181457,0.0,0.0,0.1112644672393798,0.0502793788909912
-0.00184402463492,0.3992567062377929,-0.1272806227207183,-0.9544200301170348,-0.8783340454101562,0.3379621505737304,0.0,0.0,-0.1185274720191955,0.6079680919647217
-0.0030632973648607,0.3771167397499084,-0.1318326294422149,-0.976155698299408,-0.8631528615951538,0.3036232590675354,0.0,0.0,0.0905162096023559,0.6851950883865356
-0.0039856908842921,0.3549592494964599,-0.1009710878133773,-0.9780396819114684,-0.8499637246131897,0.2637844383716583,0.0,0.0,0.5178368091583252,0.4779709577560425
-0.0045378683134913,0.3328200876712799,-0.0640768781304359,-0.9773176312446594,-0.8367964029312134,0.2633478045463562,0.0,0.0,0.4643480777740478,0.3061857223510742
-0.0049353600479662,0.3105413019657135,-0.0485604219138622,-0.9837302565574646,-0.8238927721977234,0.2580725252628326,0.0,0.0,0.5501916408538818,0.5682432651519775
-0.0050495145842432,0.2880721092224121,-0.0193631630390882,-0.992968499660492,-0.8124119639396667,0.2296155989170074,0.0,0.0,0.5059373378753662,0.4113306999206543
-0.0047790529206395,0.2655718326568603,0.018774626776576,-0.994252622127533,-0.8006043434143066,0.2361523658037185,0.0,0.0,0.6195827722549438,0.4371981620788574
-0.0042216302827,0.2429058700799942,0.0471118614077568,-1.0015006065368652,-0.7884219884872437,0.2436473071575164,0.0,0.0,0.6214412450790405,0.4009184837341308
-0.0032307624351233,0.2206028252840042,0.0905095562338829,-0.9855584502220154,-0.7764849066734314,0.2387413680553436,0.0,0.0,0.7029663324356079,0.4882906675338745
-0.0017552375793457,0.1986798793077469,0.1389140486717224,-0.9687505960464478,-0.7645809054374695,0.2380798310041427,0.0,0.0,0.7946574687957764,0.4709155559539795
0.0002336502075195,0.1769774556159973,0.1897889524698257,-0.9587940573692322,-0.7521917223930359,0.2477838099002838,0.0,0.0,0.8799083232879639,-0.0302903056144714
0.0024744034744799,0.1551405489444732,0.2145300358533859,-0.9646475315093994,-0.7393709421157837,0.256415456533432,0.0,0.0,0.9412741661071776,-0.0921351909637451
0.0049866675399243,0.133605271577835,0.2418469488620758,-0.9514806866645812,-0.7268925309181213,0.2495677024126052,0.0,0.0,0.973710298538208,0.3485186100006103
0.0081737516447901,0.1127001345157623,0.3088658154010772,-0.9233531951904296,-0.7139606475830078,0.2586377263069153,0.0,0.0,0.9609454870224,0.2025842666625976
0.0116965295746922,0.0921632871031761,0.3424015939235687,-0.9071130752563475,-0.7011274695396423,0.2566637396812439,0.0,0.0,0.964246153831482,-0.0951049327850341
0.0156307220458984,0.0724284499883651,0.3839099109172821,-0.8718144297599792,-0.6889055967330933,0.244437500834465,0.0,0.0,0.964275598526001,-0.3848456144332886
0.0200867652893066,0.0531301349401474,0.4355193078517914,-0.8522380590438843,-0.6760888695716858,0.2563351094722748,1.0,0.0,0.972862720489502,0.997714638710022
0.0241168029606342,0.0418606363236904,0.3936330080032348,-0.4966902732849121,-0.6651360988616943,0.2188725471496582,1.0,0.0,0.9205560684204102,-0.1061742305755615
0.0290360450744628,0.0313235633075237,0.4703409671783447,-0.4573249816894531,-0.6383119225502014,0.5365039110183716,1.0,0.0,0.9585516452789308,-0.6898208260536194
0.0341411605477333,0.0223751403391361,0.4772427082061767,-0.3822814226150512,-0.594251275062561,0.8863152265548706,1.0,0.0,0.9813961982727052,-0.992051362991333
0.0396271720528602,0.0147558068856596,0.4936506748199463,-0.3154817223548889,-0.5300447344779968,1.2841646671295166,1.0,0.0,0.9486098289489746,-0.993866801261902
0.0452835075557231,0.0082141850143671,0.4959720075130462,-0.2657813429832458,-0.4517862796783447,1.5653975009918213,1.0,0.0,0.9268988370895386,-0.9962775707244872
0.0514028556644916,0.002479157410562,0.5357910990715027,-0.2326398491859436,-0.3694770932197571,1.6464674472808838,1.0,0.0,0.9055776596069336,-0.9997877478599548
0.0576642043888568,-0.0030456208623945,0.5470696091651917,-0.2274530082941055,-0.2868939936161041,1.6517198085784912,1.0,0.0,0.8562092781066895,-0.9994529485702516
0.0642865151166915,-0.0077064419165253,0.5789781808853149,-0.1931520849466323,-0.202078491449356,1.6963694095611572,0.0,0.0,0.9916870594024658,0.7744693756103516
0.0710533112287521,-0.011324992403388,0.593502402305603,-0.1517068594694137,-0.1188137903809547,1.6653540134429932,0.0,0.0,0.974797248840332,0.9383342266082764
0.0781228095293045,-0.0137897990643978,0.6243011951446533,-0.1051108911633491,-0.0369138121604919,1.6380586624145508,0.0,1.0,0.999671459197998,0.4854251146316528
0.0851136222481727,-0.0150233292952179,0.6341229677200317,-0.0544340535998344,0.0255847685039043,1.24792218208313,0.0,1.0,0.9999163150787354,-0.0142619609832763
0.0918105095624923,-0.01460787281394,0.6269052624702454,0.0171367209404706,0.0677622184157371,0.8434144258499146,0.0,1.0,0.5762968063354492,-0.9930890202522278
0.0982017517089843,-0.0129425786435604,0.6144134998321533,0.0726935341954231,0.0921948477625846,0.4885996282100677,0.0,1.0,-0.9629050493240356,-0.998982310295105
0.1042915359139442,-0.0112069034948945,0.6019185781478882,0.0766898095607757,0.0991815701127052,0.1397268921136856,0.0,0.0,-0.7604138255119324,-0.9968162178993224
0.1100369468331337,-0.0095478324219584,0.5785189867019653,0.0739958956837654,0.0952307134866714,-0.0790228396654129,0.0,0.0,-0.9888674020767212,-0.9918528199195862
0.1155207604169845,-0.0081468252465128,0.5565906167030334,0.0627683699131012,0.0870853140950203,-0.1629196107387542,0.0,0.0,-0.9963706731796264,-0.9916508197784424
0.1208173781633377,-0.0071305893361568,0.5374560356140137,0.0456006079912185,0.0793575420975685,-0.1545691192150116,0.0,0.0,-0.9930641055107116,-0.9769181609153748
0.1259589195251464,-0.0065529132261872,0.5196590423583984,0.0259543098509311,0.0739023014903068,-0.109119214117527,0.0,0.0,-0.9917409420013428,-0.9441370368003844
0.1309555023908615,-0.0064054634422063,0.50368332862854,0.0067466031759977,0.069896250963211,-0.0801364630460739,0.0,0.0,-0.992524027824402,-0.9459248781204224
0.1357801407575607,-0.006625797599554,0.4867205023765564,-0.0096013210713863,0.0656723007559776,-0.0844959467649459,0.0,0.0,-0.9915344715118408,-0.8954671621322632
0.1404039412736892,-0.0071552656590938,0.4686714708805084,-0.0232687704265117,0.0594258829951286,-0.1249468326568603,0.0,0.0,-0.9999153017997742,-0.7212604880332947
0.1448293626308441,-0.0079738041386008,0.4525199830532074,-0.0360143519937992,0.0495466217398643,-0.1976082026958465,0.0,0.0,-0.996697962284088,-0.5999673008918762
