x_pos,y_pos,x_vel,y_vel,angle,ang_vel,leg_1,leg_2,main_booster,lat_booster
-0.0015697479248046,1.4033011198043823,-0.1588294357061386,-0.3386279046535492,0.0016608726000413,0.0327545776963233,0.0,0.0,-0.4576833248138428,0.8615175485610962
-0.0031140327919274,1.3953776359558103,-0.1540545970201492,-0.3521536886692047,0.0012891602236777,-0.007434188388288,0.0,0.0,-0.2051699161529541,0.6245889663696289
-0.0046478272415697,1.3871257305145264,-0.1513282358646392,-0.3667496144771576,-0.0007297531119547,-0.0403820909559726,0.0,0.0,0.6044291257858276,0.4920742511749267
-0.0063475607894361,1.379278302192688,-0.1672406643629074,-0.3487779796123504,-0.0034411384258419,-0.0542328730225563,0.0,0.0,-0.0220113396644592,-0.0665141344070434
-0.0080994609743356,1.3711074590682983,-0.1723193228244781,-0.3631617128849029,-0.0062889377586543,-0.0569611266255378,0.0,0.0,-0.4017987251281738,0.6983726024627686
-0.009837532415986,1.3626116514205933,-0.1690771281719207,-0.377616673707962,-0.0109686255455017,-0.0936020985245704,0.0,0.0,-0.360515832901001,0.0615997314453125
-0.0116303442046046,1.353792667388916,-0.17442187666893,-0.3919955193996429,-0.0157814100384712,-0.0962644666433334,0.0,0.0,-0.0833995938301086,0.893589973449707
-0.0133915897458791,1.344651460647583,-0.1688842475414276,-0.406374990940094,-0.0229345131665468,-0.1430756002664566,0.0,0.0,-0.4879958629608154,0.8403124809265137
-0.0151451108977198,1.33519446849823,-0.1663263738155365,-0.4204749763011932,-0.0318482033908367,-0.1782903671264648,0.0,0.0,-0.5000420808792114,0.4697941541671753
-0.0169569011777639,1.3254151344299316,-0.172029435634613,-0.4348583817481994,-0.0408911928534507,-0.1808768808841705,0.0,0.0,-0.3539420366287231,0.6044747829437256
-0.0187735557556152,1.3153104782104492,-0.1710207015275955,-0.4494094550609588,-0.0514323376119136,-0.2108426839113235,0.0,0.0,-0.4051830172538757,0.4494080543518066
-0.0206506736576557,1.3048840761184692,-0.1769386529922485,-0.4637960195541382,-0.062099777162075,-0.2133678495883941,0.0,0.0,-0.2211111783981323,0.629362940788269
-0.0225287433713674,1.2941337823867798,-0.1753892004489898,-0.4783537685871124,-0.0744111910462379,-0.2462509870529174,0.0,0.0,-0.0762379765510559,0.8676211833953857
-0.0243934635072946,1.2830458879470823,-0.171997457742691,-0.4935768842697143,-0.0887686014175415,-0.2871743142604828,0.0,0.0,0.3984531164169311,0.4602837562561035
-0.0261403080075979,1.272663950920105,-0.1606740057468414,-0.4623070657253265,-0.1026855558156967,-0.2783645391464233,0.0,0.0,-0.5954213738441467,0.5588500499725342
-0.0278996471315622,1.2619470357894895,-0.1604928225278854,-0.4774475693702698,-0.1180412694811821,-0.3071417808532715,0.0,0.0,-0.4988321661949157,-0.4979974031448364
-0.0297234542667865,1.2509099245071411,-0.1668417751789093,-0.4918428957462311,-0.1335162371397018,-0.3095280826091766,0.0,0.0,-0.362160861492157,-0.94926655292511
-0.0316698066890239,1.239555835723877,-0.1804506927728653,-0.5059615969657898,-0.1476685404777526,-0.2830722630023956,0.0,0.0,-0.2396292090415954,-0.375940203666687
-0.0336817726492881,1.2278809547424316,-0.1869372725486755,-0.5203596949577332,-0.1619395613670349,-0.2854459285736084,0.0,0.0,-0.3121746182441711,-0.87833571434021
-0.03583774715662,1.2159037590026855,-0.2032272070646286,-0.5337164402008057,-0.1743361204862594,-0.2479533851146698,0.0,0.0,0.3946917057037353,-0.2493914365768432
-0.0378442779183387,1.204514741897583,-0.1887058466672897,-0.5076252222061157,-0.1863472610712051,-0.2402442246675491,0.0,0.0,-0.1484279036521911,0.0499094724655151
-0.0399181358516216,0.0,-0.1953475177288055,-0.5220273733139038,-0.1984735280275344,-0.2425471544265747,0.0,0.0,-0.4876441955566406,-0.7984741926193237
-0.0421082489192485,1.1807855367660522,-0.2081292122602462,-0.5356503129005432,-0.2094567120075225,-0.2196831405162811,0.0,0.0,-0.1293659210205078,-0.7864172458648682
-0.0444211959838867,1.168453812599182,-0.2217049151659011,-0.5494676828384399,-0.219162255525589,-0.1941282451152801,0.0,0.0,0.8346867561340332,-0.8047075867652893
-0.046877384185791,1.1569254398345947,-0.2371748238801956,-0.5136448740959167,-0.2277077734470367,-0.170925885438919,0.0,0.0,0.3662741184234619,-0.4379367232322693
-0.0493911728262901,1.1459455490112305,-0.2422900199890136,-0.4894233345985412,-0.2369227409362793,-0.1842993199825287,0.0,0.0,-0.2402366995811462,-0.5941384434700012
-0.0520182624459266,1.1346635818481443,-0.2547065019607544,-0.5027302503585815,-0.2450555711984634,-0.1626570075750351,0.0,0.0,-0.144608199596405,-0.6357451677322388
-0.0547721870243549,1.1230878829956057,-0.2688272595405578,-0.5155857801437378,-0.2517317831516266,-0.1335239559412002,0.0,0.0,-0.6147072315216064,-0.4270225763320923
-0.0575944893062114,1.111189603805542,-0.2755877077579498,-0.5299673676490784,-0.258518785238266,-0.1357401907444,0.0,0.0,0.2559889554977417,-0.3697521686553955
-0.0604059211909771,1.0995125770568848,-0.2743242383003235,-0.5201998353004456,-0.265489786863327,-0.1394208967685699,0.0,0.0,-0.4550663232803345,0.5792586803436279
-0.063239000737667,1.087500810623169,-0.2752014994621277,-0.5353392958641052,-0.2737736701965332,-0.1656777560710907,0.0,0.0,-0.7591699957847595,-0.5134550333023071
-0.0661841407418251,1.075182557106018,-0.2874830067157745,-0.5488130450248718,-0.2809939384460449,-0.1444057822227478,0.0,0.0,0.2689805030822754,-0.188939094543457
-0.0690867453813552,1.0634557008743286,-0.2828536629676819,-0.5226404666900635,-0.2886156439781189,-0.1524343192577362,0.0,0.0,0.1453316211700439,-0.3490464687347412
-0.0720273032784462,1.0517851114273071,-0.2863622009754181,-0.5202447772026062,-0.2965490818023681,-0.1586682796478271,0.0,0.0,-0.3303741812705993,-0.7165960073471069
-0.0750862136483192,1.039817452430725,-0.299485981464386,-0.5332151055335999,-0.3031696677207947,-0.132411777973175,0.0,0.0,0.4813427925109863,-0.3940853476524353
-0.077992632985115,1.0284907817840576,-0.2842129170894623,-0.5047581195831299,-0.3098203837871551,-0.1330147236585617,0.0,0.0,-0.0059361457824707,-0.5379226207733154
-0.0810063332319259,1.0168592929840088,-0.295960396528244,-0.5181229114532471,-0.3154348731040954,-0.1122895702719688,0.0,0.0,-0.5689212083816528,-0.3912346363067627
-0.0840838402509689,1.004905104637146,-0.3022523522377014,-0.5325037837028503,-0.3211528360843658,-0.1143591850996017,0.0,0.0,0.1364942789077758,-0.534615695476532
-0.0871081352233886,0.9934929609298706,-0.2978426814079284,-0.508234977722168,-0.3259294629096985,-0.0955327004194259,0.0,0.0,0.3884809017181396,0.0571633577346801
-0.0900081619620323,0.982472598552704,-0.2854268550872803,-0.49083411693573,-0.3306972086429596,-0.0953550711274147,0.0,0.0,0.5191137790679932,-0.7933611869812012
-0.0928970351815223,0.9722349643707277,-0.2856336832046509,-0.4557561874389648,-0.3341021239757538,-0.0680987760424614,0.0,0.0,0.848670244216919,-0.2755990028381347
-0.0955227836966514,0.9624365568161012,-0.2598311305046081,-0.4361212849617004,-0.3369661867618561,-0.0572812929749488,0.0,0.0,0.6451801061630249,0.3005979061126709
-0.0980118736624717,0.9527091979980468,-0.2465080767869949,-0.4328842759132385,-0.3394789397716522,-0.0502547994256019,0.0,0.0,0.943647027015686,0.0951180458068847
-0.1002402305603027,0.9434804320335388,-0.2208574563264846,-0.410641461610794,-0.3415456712245941,-0.0413344055414199,0.0,0.0,0.6564056873321533,-0.0774326920509338
-0.1024627685546875,0.9343661665916444,-0.2200262248516082,-0.4056062400341034,-0.3438930511474609,-0.0469475872814655,0.0,0.0,0.9631749391555786,-0.4589021205902099
-0.1045533195137977,0.925462245941162,-0.2069691717624664,-0.3962337672710418,-0.3460777401924133,-0.0436940863728523,0.0,0.0,0.8735238313674927,-0.2661074995994568
-0.1064581871032714,0.9169151186943054,-0.1886237412691116,-0.3803219497203827,-0.3480297923088074,-0.0390410088002681,0.0,0.0,0.8557631969451904,-0.30612313747406
-0.1082116141915321,0.909430205821991,-0.1728492677211761,-0.3332721292972564,-0.3506504595279693,-0.0524133145809173,0.0,0.0,0.5998842716217041,0.6424593925476074
-0.1098324805498123,0.9027485847473145,-0.1579798758029937,-0.2979649603366852,-0.3549676835536957,-0.0863441973924636,0.0,0.0,0.1922045946121215,-0.4136538505554199
-0.1113850623369216,0.896268367767334,-0.1510260999202728,-0.2890635728836059,-0.3594340085983276,-0.0893261283636093,0.0,0.0,-0.2823036909103393,-0.1549643278121948
-0.1129804626107215,0.8894654512405396,-0.1552387177944183,-0.3034429848194122,-0.363975316286087,-0.0908261388540268,0.0,0.0,0.7787678241729736,-0.277468740940094
-0.114391803741455,0.8834843039512634,-0.1364961564540863,-0.2670071423053741,-0.3688746690750122,-0.097986988723278,0.0,0.0,0.5829968452453613,-0.0940662622451782
-0.1155896186828613,0.8777198195457458,-0.1155477613210678,-0.2572992742061615,-0.3733568489551544,-0.089643657207489,0.0,0.0,0.878216028213501,-0.0669235587120056
-0.1164884567260742,0.8728968501091003,-0.0856077298521995,-0.2154718935489654,-0.3778853416442871,-0.090569868683815,0.0,0.0,0.4584232568740845,-0.7223918437957764
-0.1171788200736045,0.8682994246482849,-0.0663501918315887,-0.2050494998693466,-0.3807474672794342,-0.0572424717247486,0.0,0.0,0.6812478303909302,-0.4473532438278198
-0.1178108230233192,0.8641007542610168,-0.0600358955562114,-0.1874542534351349,-0.3841132223606109,-0.0673159435391426,0.0,0.0,0.7764384746551514,-0.6783155202865601
-0.1180944442749023,0.8607450723648071,-0.0267109926789999,-0.1495943516492843,-0.3858719766139984,-0.0351749658584594,0.0,0.0,0.931955099105835,-0.9106444716453552
-0.1180051788687706,0.8581053614616394,0.0085580227896571,-0.1172167360782623,-0.3854751586914062,0.0079361293464899,0.0,0.0,-0.3802405595779419,-0.9667395949363708
-0.1179949790239334,0.8551889657974243,-0.000968521751929,-0.1290735304355621,-0.383357286453247,0.0423571169376373,0.0,0.0,0.1930934190750122,-0.9588670134544371
-0.1179166808724403,0.8528251647949219,0.0040017031133174,-0.1040370389819145,-0.3792887330055237,0.0813710838556289,0.0,0.0,-0.4922336339950561,-0.9357295036315918
-0.1179162040352821,0.8501681685447693,-0.0054086162708699,-0.1166501343250274,-0.3734930455684662,0.1159139722585678,0.0,0.0,-0.7272608280181885,-0.9679014086723328
-0.1180065125226974,0.8472415804862976,-0.0166913103312253,-0.1280914694070816,-0.3653881549835205,0.1620977073907852,0.0,0.0,-0.6492597460746765,-0.7558332681655884
-0.1181472763419151,0.8440162539482117,-0.0229119546711444,-0.1411298215389251,-0.3560658991336822,0.1864451467990875,0.0,0.0,-0.6219208240509033,-0.7722862362861633
-0.1183445006608963,0.8405000567436218,-0.0300284810364246,-0.1537510603666305,-0.345228761434555,0.2167421132326126,0.0,0.0,-0.897578239440918,-0.820156991481781
-0.1186011284589767,0.8366888761520386,-0.0375904515385627,-0.1665753573179245,-0.3327439427375793,0.2496968060731887,0.0,0.0,-0.996414303779602,0.5017156600952148
-0.1188222914934158,0.8325409293174744,-0.0333153195679187,-0.1818137317895889,-0.3210718333721161,0.2334424257278442,0.0,0.0,-0.7339033484458923,0.8972439765930176
-0.1189621910452842,0.828046441078186,-0.02341865375638,-0.1977009177207946,-0.3112773299217224,0.195889800786972,0.0,0.0,-0.9988273978233336,0.612891435623169
-0.1190379112958908,0.8231973052024841,-0.0156667474657297,-0.2138066291809082,-0.3028967380523681,0.1676118075847625,0.0,0.0,-0.9923930168151855,0.6586015224456787
-0.1190428733825683,0.8180082440376282,-0.0072757638990879,-0.2292234897613525,-0.295890599489212,0.1401229202747345,0.0,0.0,-0.978377640247345,0.1447187662124633
-0.119026280939579,0.8124964833259583,-0.0051576350815594,-0.2436024844646453,-0.2888609170913696,0.1405929028987884,0.0,0.0,-0.9533336758613586,0.6129698753356934
-0.118944264948368,0.8066465258598328,0.0023620736319571,-0.258852481842041,-0.2828556895256042,0.1201043725013732,0.0,0.0,-0.998151421546936,-0.0721855163574218
-0.1188325881958007,0.8004736304283142,0.0052933972328901,-0.2732302248477936,-0.2768175899982452,0.1207622066140174,0.0,0.0,-0.9961429238319396,-0.2127653360366821
-0.1186869591474533,0.7939773797988892,0.0086320042610168,-0.2876079380512237,-0.2707422971725464,0.1215056553483009,0.0,0.0,-0.9434460997581482,0.691519021987915
-0.1184445396065712,0.787133514881134,0.0198044665157794,-0.3033599257469177,-0.2661980092525482,0.0908859297633171,0.0,0.0,-0.9400781989097596,-0.6872544288635254
-0.1182162314653396,0.7799838185310364,0.0169055443257093,-0.3167022168636322,-0.2601442337036133,0.1210754662752151,0.0,0.0,-0.9819973111152648,0.6694966554641724
-0.117886446416378,0.772481381893158,0.0284887459129095,-0.3326532244682312,-0.2555562257766723,0.0917604565620422,0.0,0.0,-0.9966938495635986,-0.7558950185775757
-0.117568589746952,0.764672040939331,0.0256652384996414,-0.3460220992565155,-0.2493147999048233,0.1248284354805946,0.0,0.0,-0.999033272266388,0.1868461370468139
-0.1171966567635536,0.7565397620201111,0.0310057960450649,-0.3603998124599457,-0.2430192232131958,0.1259112656116485,0.0,0.0,-0.9982491135597228,0.5265254974365234
-0.1167202964425087,0.7480723857879639,0.0425677672028541,-0.3755012154579162,-0.237866997718811,0.1030451655387878,0.0,0.0,-0.9943281412124634,-0.7941181659698486
-0.1162530928850174,0.7393158078193665,0.0397042967379093,-0.3880630135536194,-0.2307483553886413,0.1423725932836532,0.0,0.0,-0.9985257983207704,-0.423661470413208
-0.1157204657793045,0.7302362322807312,0.0461810640990734,-0.4024415910243988,-0.2235688716173172,0.1435895562171936,0.0,0.0,-0.998187780380249,-0.1235073804855346
-0.1151186004281044,0.7208338975906372,0.05302045494318,-0.4168203175067901,-0.2163268327713012,0.1448408812284469,0.0,0.0,-0.9506715536117554,0.0989654064178466
-0.1144441589713096,0.711108386516571,0.0602131113409996,-0.4311990439891815,-0.209020733833313,0.1461219787597656,0.0,0.0,-0.9837607145309448,-0.1813994646072387
-0.1136935204267501,0.7010600566864014,0.0677491053938865,-0.4455779194831848,-0.201649323105812,0.1474285274744033,0.0,0.0,-0.994299590587616,0.0684840679168701
-0.1128634437918663,0.6906888484954834,0.0756179392337799,-0.4599568545818329,-0.1942114979028701,0.1487566530704498,0.0,0.0,-0.9724075794219972,0.1152597665786743
-0.1119506806135177,0.6799946427345276,0.0838087052106857,-0.4743359386920929,-0.1867063641548156,0.150102823972702,0.0,0.0,-0.9954601526260376,0.1562204360961914
-0.1109521836042404,0.668977677822113,0.0923101305961608,-0.4887150824069977,-0.1791331619024276,0.1514638066291809,0.0,0.0,-0.9971952438354492,0.19587242603302
-0.1098649054765701,0.6576377749443054,0.1011106595396995,-0.5030944347381592,-0.1714913249015808,0.1528366655111313,0.0,0.0,-0.998529613018036,-0.0443866252899169
-0.1086858734488487,0.6459749341011047,0.1101985797286033,-0.5174739360809326,-0.163780391216278,0.1542188227176666,0.0,0.0,-0.9996222853660583,-0.2603849768638611
-0.1074124351143837,0.6339895129203796,0.1195620745420456,-0.5318534970283508,-0.1559999883174896,0.155607983469963,0.0,0.0,-0.9814404249191284,-0.3750670552253723
-0.1060420051217079,0.6216811537742615,0.1291892677545547,-0.5462331771850586,-0.1481498628854751,0.1570022404193878,0.0,0.0,-0.9972805976867676,0.1520659923553466
-0.1045720130205154,0.6090500950813293,0.1390683352947235,-0.5606130361557007,-0.1402298510074615,0.1584002077579498,0.0,0.0,-0.9919269680976868,-0.5530239939689636
-0.1030340194702148,0.5961057543754578,0.1448934674263,-0.5744958519935608,-0.1313620507717132,0.177355408668518,0.0,0.0,-0.9897878766059875,-0.3028541803359985
-0.1013917922973632,0.5828387141227722,0.1552409529685974,-0.588877260684967,-0.1224243119359016,0.1787547767162323,0.0,0.0,-0.9874004125595092,-0.1167510747909545
-0.0996431335806846,0.569249153137207,0.1658056080341339,-0.6032587885856628,-0.1134166419506073,0.180153340101242,0.0,0.0,-0.9693397879600524,-0.1259757876396179
-0.097786046564579,0.5553372502326965,0.1765762865543365,-0.6176404356956482,-0.1043391302227974,0.1815502792596817,0.0,0.0,-0.9836440682411194,-0.0777823328971862
-0.0958184227347374,0.5411027669906616,0.1875421404838562,-0.6320222616195679,-0.0951918885111808,0.1829447597265243,0.0,0.0,-0.9236605763435364,0.0028740167617797
-0.0937385559082031,0.5265459418296814,0.1986925899982452,-0.6464043259620667,-0.0859750807285308,0.1843362003564834,0.0,0.0,-0.5267243981361389,-0.5823078155517578
-0.0915836319327354,0.5116748809814453,0.2051060199737548,-0.6603733897209167,-0.0756955072283744,0.2055916488170623,0.0,0.0,-0.8868642449378967,-0.1726574897766113
-0.0893131271004676,0.4964816868305206,0.21659517288208,-0.6747573018074036,-0.0653467550873756,0.2069751322269439,0.0,0.0,-0.928828775882721,-0.6480219960212708
-0.0869833007454872,0.480976939201355,0.2209566086530685,-0.6886166334152222,-0.0534606911242008,0.2377213239669799,0.0,0.0,-0.4760652780532837,-0.3631747961044311
-0.084534928202629,0.4651505649089813,0.2327465265989303,-0.7030038237571716,-0.0415059253573417,0.2390951663255691,0.0,0.0,-0.1694763898849487,-0.3120597600936889
-0.0819664001464843,0.4490026533603668,0.2446736842393875,-0.7173911333084106,-0.0294827073812484,0.2404644191265106,0.0,0.0,0.2939245700836181,-0.347208023071289
-0.0793823227286338,0.4331533014774322,0.2467121183872223,-0.7042235732078552,-0.0179363843053579,0.2309266030788421,0.0,0.0,0.0437433719635009,-0.2686753273010254
-0.0766007453203201,0.4176613688468933,0.2660821080207824,-0.6884254813194275,-0.0060125011950731,0.2384777963161468,0.0,0.0,-0.3551409244537353,-0.5099862217903137
-0.0737318024039268,0.4018439948558807,0.2738225758075714,-0.7029929757118225,0.0068898922763764,0.2580478489398956,0.0,0.0,0.256016731262207,0.3412842750549316
-0.0706318840384483,0.3865765631198883,0.2963315546512604,-0.6786683797836304,0.0203698929399251,0.2696000933647156,0.0,0.0,0.2635971307754516,-0.5585891604423523
-0.0674819946289062,0.3718812167644501,0.300190269947052,-0.6533936858177185,0.0349890068173408,0.2923822999000549,0.0,0.0,0.1359764337539672,-0.27055823802948
-0.0641279220581054,0.3577513396739959,0.3200704753398895,-0.6284238696098328,0.0501290000975132,0.3027998507022857,0.0,0.0,0.2554389238357544,-0.088188350200653
-0.0606108680367469,0.3439652919769287,0.3360584378242492,-0.6133084893226624,0.0656040385365486,0.3095008730888366,0.0,0.0,0.2122313976287841,-0.845957338809967
-0.0570782646536827,0.3307574391365051,0.3358661830425262,-0.5878697633743286,0.082823559641838,0.3443904519081116,0.0,0.0,0.3527964353561401,-0.3381381034851074
-0.0534207336604595,0.3182003498077392,0.3480826020240783,-0.5591650605201721,0.1003393828868866,0.3503164649009704,0.0,0.0,0.4243671894073486,-0.6739500761032104
-0.0496500022709369,0.3059144020080566,0.3578676581382751,-0.5474413633346558,0.1194080859422683,0.3813740313053131,0.0,0.0,0.6926321983337402,-0.6906214356422424
-0.0460145957767963,0.2942207455635071,0.3432294726371765,-0.5214692950248718,0.1396213769912719,0.4042657017707824,0.0,0.0,0.7770017385482788,-0.0143165588378906
-0.0424625389277935,0.2830025255680084,0.3355219662189483,-0.5005484819412231,0.1592622548341751,0.3928176760673523,0.0,0.0,0.4356509447097778,0.2752333879470825
-0.0388757698237896,0.2721871435642242,0.3390767872333526,-0.4829014241695404,0.1788828372955322,0.3924121260643005,0.0,0.0,0.2170064449310302,0.3991338014602661
-0.0352087020874023,0.2616386413574219,0.347014844417572,-0.4713147282600403,0.1986582428216934,0.3955084681510925,0.0,0.0,0.5352461338043213,0.2732534408569336
-0.0313570015132427,0.2512994706630707,0.364942729473114,-0.4623627960681915,0.2190613895654678,0.4080632627010345,0.0,0.0,0.4256049394607544,0.3723893165588379
-0.0274194721132516,0.2415337860584259,0.3731735050678253,-0.4372174441814422,0.2399200946092605,0.4171740412712097,0.0,0.0,0.5514217615127563,0.522130012512207
-0.0234658233821392,0.2325825095176696,0.3757908344268799,-0.4011505842208862,0.2598524093627929,0.3986464738845825,0.0,0.0,0.3791550397872925,0.3207640647888183
