x_pos,y_pos,x_vel,y_vel,angle,ang_vel,leg_1,leg_2,main_booster,lat_booster
-0.0015574455028399,1.403419017791748,-0.1583795845508575,-0.3333761394023895,0.0023516658693552,0.0464328452944755,0.0,0.0,-0.2681482369038388,0.535484171479472
-0.0031044005881994,1.3957335948944092,-0.1564214080572128,-0.341580867767334,0.0040563028305768,0.0340968146920204,0.0,0.0,0.6919251439565706,0.5230067126947628
-0.0045017241500318,1.3884601593017578,-0.1414227187633514,-0.3232649564743042,0.0057205511257052,0.0332881547510623,0.0,0.0,0.7273837619100794,-0.1987071608142036
-0.0060631753876805,1.3817640542984009,-0.1578008979558944,-0.2976188361644745,0.0073584243655204,0.0327606387436389,0.0,0.0,-0.1888602633443206,0.3646943747026455
-0.0076617239974439,1.374862551689148,-0.1621003746986389,-0.3067485988140106,0.0095732454210519,0.0443005114793777,0.0,0.0,-0.3104734855841911,-0.2796246096019197
-0.0092982295900583,1.367755889892578,-0.1664701998233795,-0.3158721923828125,0.0123690795153379,0.0559217222034931,0.0,0.0,-0.6240115923214846,0.7296085628244652
-0.0109178544953465,1.3604451417922974,-0.1639708429574966,-0.3249415159225464,0.0143602769821882,0.0398277565836906,0.0,0.0,-0.0289737181047178,-0.8938216004229307
-0.0126293180510401,1.3529306650161743,-0.1751042008399963,-0.3340159356594085,0.018273863941431,0.0782788321375846,0.0,0.0,0.7078046460177916,0.9442802188041116
-0.0143357273191213,1.3465205430984497,-0.1732912957668304,-0.2849318385124206,0.0208872109651565,0.0522717162966728,0.0,0.0,-0.1742956054570004,0.283394403023547
-0.0160820968449115,1.3399051427841189,-0.1778832376003265,-0.2940695881843567,0.0240994244813919,0.0642502754926681,0.0,0.0,-0.0677371685278909,-0.1060743348555837
-0.0178688056766986,1.3330848217010498,-0.1825224012136459,-0.303192526102066,0.0279122628271579,0.0762635171413421,0.0,0.0,0.6529421171750749,-0.8912313181465553
-0.0197021476924419,1.3268507719039917,-0.1897156238555908,-0.2772014737129211,0.0342238992452621,0.1262444257736206,0.0,0.0,-0.5547763459982062,0.6283461381955827
-0.0215165130794048,1.320418119430542,-0.1868956238031387,-0.286023199558258,0.0396255105733871,0.1080420240759849,0.0,0.0,0.3754127825378341,-0.0891604462147873
-0.0233264919370412,1.314227819442749,-0.1873523443937301,-0.2753101289272308,0.0459087416529655,0.1256762892007827,0.0,0.0,0.0643044231505782,-0.3028375161631177
-0.0251117702573537,1.308634877204895,-0.1859328746795654,-0.2488124668598175,0.053230982273817,0.1464585363864898,0.0,0.0,0.1058308756753789,0.5538571631324848
-0.026824664324522,1.303139328956604,-0.1783400326967239,-0.244514912366867,0.0602131411433219,0.1396561712026596,0.0,0.0,-0.9075450126968632,0.5563588510150279
-0.0285262111574411,1.2974509000778198,-0.1764564365148544,-0.2530880272388458,0.0664518550038337,0.124785304069519,0.0,0.0,-0.8876240866591345,0.4034274372985944
-0.0302702896296978,1.2915581464767456,-0.1813256740570068,-0.2622196078300476,0.0733079314231872,0.1371337622404098,0.0,0.0,0.9150829556734013,0.4156164320822265
-0.0320128425955772,1.2868658304214478,-0.1823337823152542,-0.2089625298976898,0.0813086405396461,0.1600289791822433,0.0,0.0,-0.7815910779252022,0.2963639642448028
-0.0337984077632427,1.2819693088531494,-0.1872488558292389,-0.2181094139814376,0.089927889406681,0.1724004596471786,0.0,0.0,-0.5045193244042592,0.790673851699849
-0.0355522148311138,1.2768852710723877,-0.1827582418918609,-0.2264171689748764,0.0972578898072242,0.1466133296489715,0.0,0.0,0.998934360379442,0.0463473616869123
-0.0373869910836219,1.272398591041565,-0.1915594637393951,-0.1999447047710418,0.1052749380469322,0.1603557169437408,0.0,0.0,0.6473513214173867,-0.0075705482394625
-0.0391937270760536,1.268538475036621,-0.1899614036083221,-0.1722320169210434,0.1145138815045356,0.1847954392433166,0.0,0.0,0.3621771755314222,-0.1512906776104815
-0.0410163886845111,1.2648688554763794,-0.1924304068088531,-0.1639114022254943,0.1246399581432342,0.2025396823883056,0.0,0.0,-0.7541886757244367,-0.8127499908038527
-0.0429618842899799,1.260983943939209,-0.2073403298854828,-0.1737816929817199,0.1373901069164276,0.2550255954265594,0.0,0.0,0.1642470212384299,-0.1389851848868408
-0.0451191887259483,1.2575918436050415,-0.2286511957645416,-0.1520025432109832,0.1502847671508789,0.2578933238983154,0.0,0.0,-0.6849561126422667,0.9294026059264784
-0.047247789800167,1.2540199756622314,-0.2245136201381683,-0.1599657833576202,0.1619248539209365,0.2328017503023147,0.0,0.0,-0.0955651208350063,0.7935978693889545
-0.0493729598820209,1.2502660751342771,-0.2235087156295776,-0.1680843532085418,0.1729340553283691,0.2201839983463287,0.0,0.0,0.1866896105115427,-0.2550429753282247
-0.0517302528023719,1.2471076250076294,-0.2468869686126709,-0.141713485121727,0.184125930070877,0.2238375693559646,0.0,0.0,-0.8767551683305583,0.8659555808740654
-0.0540664680302143,1.2437618970870972,-0.2436990439891815,-0.149986445903778,0.1942575126886367,0.2026314288377761,0.0,0.0,0.3471885525758289,-0.5599578686539842
-0.0566081032156944,1.2412282228469849,-0.2659828066825866,-0.114200584590435,0.2061566412448883,0.2379825562238693,0.0,0.0,-0.9369896650314332,0.9918482303619384
-999.0,1.2385079860687256,-0.2625294327735901,-0.1224275827407836,0.2169325202703476,0.215517520904541,0.0,0.0,-0.7393255233764648,0.9904433488845824
-0.0616251938045024,1.2356164455413818,-0.2593989968299866,-0.1299498230218887,0.2265870422124862,0.1930905282497406,0.0,0.0,-0.8955706357955933,0.9931198358535768
-0.0640986412763595,1.2325372695922852,-0.2557010948657989,-0.1381624490022659,0.2350620329380035,0.1695004999637603,0.0,0.0,-0.8748270869255066,0.9955723285675048
-0.0665386170148849,1.2292855978012085,-0.2508908808231354,-0.1456370800733566,0.2420719265937805,0.1401978284120559,0.0,0.0,-0.9762684106826782,0.9855916500091552
-0.0689466446638107,1.2258669137954712,-0.2462541610002517,-0.1528460830450058,0.2476206570863723,0.110974445939064,0.0,0.0,-0.985708475112915,0.993804693222046
-0.0713257789611816,1.2222678661346436,-0.2420581579208374,-0.1606610417366027,0.2518439590930938,0.0844660177826881,0.0,0.0,-0.9893507361412048,0.996119737625122
-0.0736700072884559,1.2185044288635254,-0.2370379865169525,-0.1677204966545105,0.2545052766799927,0.0532266423106193,0.0,0.0,-0.8680775165557861,0.9342103004455566
-0.0759942084550857,1.2145735025405884,-0.2338597327470779,-0.1749545782804489,0.2559719979763031,0.0293343849480152,0.0,0.0,-0.988102912902832,0.9640177488327026
-0.0782865509390831,1.2104707956314087,-0.2292247712612152,-0.1823456138372421,0.25597083568573,-2.334349301236216e-05,0.0,0.0,-0.9943576455116272,0.9336817264556884
-0.0805665031075477,1.2061951160430908,-0.2270180881023407,-0.1898549199104309,0.2549771666526794,-0.0198731943964958,0.0,0.0,-0.9839036464691162,0.995512843132019
-0.0827993378043174,1.2017498016357422,-0.220492273569107,-0.1970838457345962,0.252121090888977,-0.0571217350661754,0.0,0.0,-0.9959179759025574,0.9972646236419678
-0.0849869698286056,1.1971248388290403,-0.214210033416748,-0.2047813087701797,0.2474874407052993,-0.0926730260252952,0.0,0.0,-0.9951184391975404,0.9655539989471436
-0.0871334075927734,1.1923274993896484,-0.2083842009305954,-0.2121786028146743,0.2411292046308517,-0.127164825797081,0.0,0.0,-0.97987562417984,0.7246489524841309
-0.0892717391252517,1.1873379945755005,-0.206765741109848,-0.2206188291311264,0.233951523900032,-0.1435532718896865,0.0,0.0,-0.9672328233718872,0.9373219013214112
-0.091376207768917,1.182163953781128,-0.2019033133983612,-0.228621706366539,0.2252752780914306,-0.1735247820615768,0.0,0.0,-0.9823716282844543,0.8378415107727051
-0.0934544578194618,1.1768072843551636,-0.197929635643959,-0.2365951538085937,0.2152620255947113,-0.2002648115158081,0.0,0.0,-0.9589455723762512,0.7989494800567627
-0.0955293625593185,1.1712729930877686,-0.1967680901288986,-0.2444444000720977,0.2044424414634704,-0.2163915634155273,0.0,0.0,-0.9579092264175416,0.3774154186248779
-0.0976497679948806,1.1655362844467163,-0.2017857134342193,-0.2535863220691681,0.1941197365522384,-0.2064545154571533,0.0,0.0,-0.9611627459526062,0.7094371318817139
-0.0997623428702354,1.159610629081726,-0.2001008093357086,-0.2619416415691376,0.1829086691141128,-0.2242214679718017,0.0,0.0,-0.9348284602165222,0.2990037202835083
-0.1019205078482627,1.1534823179244995,-0.2051062285900116,-0.2710829973220825,0.1721697002649307,-0.2147795706987381,0.0,0.0,-0.8400501608848572,0.4651645421981811
-0.1041242629289627,1.1471514701843262,-0.2101047039031982,-0.2802229821681976,0.1618891805410385,-0.2056103646755218,0.0,0.0,-0.8170685768127441,0.6895773410797119
-0.1063096970319747,1.140629529953003,-0.2070684432983398,-0.2886604964733124,0.1504234969615936,-0.2293139994144439,0.0,0.0,-0.9862159490585328,0.8523510694503784
-0.1084747314453125,1.1339279413223269,-0.2037137746810913,-0.2966046929359436,0.1376680582761764,-0.2551090717315674,0.0,0.0,-0.9481745958328248,0.7845540046691895
-0.1106086745858192,1.1270372867584229,-0.1990304291248321,-0.3049876093864441,0.1233705133199691,-0.2859509587287903,0.0,0.0,-0.9718270897865297,0.9261112213134766
-0.1127269715070724,1.1199523210525513,-0.1962771564722061,-0.3136796355247497,0.1079142838716507,-0.3091248273849487,0.0,0.0,-0.9811037182807922,0.442813515663147
-0.1148910522460937,1.1126655340194702,-0.2012241780757904,-0.3228267431259155,0.0928350016474723,-0.3015854954719543,0.0,0.0,-0.9483277797698976,0.8906126022338867
-0.1170153617858886,1.105193018913269,-0.1953565031290054,-0.3311402499675751,0.0759303644299507,-0.3380928039550781,0.0,0.0,-0.9438657760620116,0.9549081325531006
-0.1191014274954795,1.0975391864776611,-0.1896969527006149,-0.3393150269985199,0.0572228357195854,-0.3741504848003387,0.0,0.0,-0.9449052214622498,0.1646763086318969
-0.1212334632873535,1.0896848440170288,-0.1946005076169967,-0.348469614982605,0.0388318710029125,-0.3678193390369415,0.0,0.0,-0.9555200338363647,0.23291015625
-0.1234115585684776,1.0816298723220823,-0.1994874775409698,-0.3576227128505707,0.0207352526485919,-0.3619325757026672,0.0,0.0,-0.8353185057640076,0.5784530639648438
-0.125597670674324,1.0733784437179563,-0.1995737105607986,-0.366574764251709,0.0019506476819515,-0.3756923675537109,0.0,0.0,-0.9303311705589294,0.8284424543380737
-0.1277506798505783,1.064924955368042,-0.1945085823535919,-0.3758083283901214,-0.0185722187161445,-0.4104577004909515,0.0,0.0,-0.9652751088142396,0.3938655853271484
-0.1299495697021484,1.05627179145813,-0.1993354558944702,-0.3849671483039856,-0.0388729944825172,-0.4060154855251312,0.0,0.0,-0.9706252217292786,0.1952183246612548
-0.1321943253278732,1.0474185943603516,-0.2041386812925338,-0.3941248655319214,-0.0589776188135147,-0.402092695236206,0.0,0.0,-0.9497398734092712,-0.7093775272369385
-0.1345525681972503,1.0383713245391846,-0.2173915356397628,-0.4029302299022674,-0.0772107243537902,-0.3646617829799652,0.0,0.0,-0.9524263143539428,-0.3918520808219909
-0.1369564980268478,1.0291229486465454,-0.2221400737762451,-0.4120809435844421,-0.0953021645545959,-0.3618288040161133,0.0,0.0,-0.945768415927887,0.272398829460144
-0.1394062936305999,1.019673466682434,-0.2268575727939605,-0.4212312400341034,-0.1132801845669746,-0.3595606982707977,0.0,0.0,-0.9604730606079102,0.189016580581665
-0.1419015824794769,1.0100226402282717,-0.2315412312746048,-0.4303812384605407,-0.1311736553907394,-0.3578694462776184,0.0,0.0,-0.77696692943573,-0.2412852644920349
-0.144442468881607,1.0001708269119265,-0.2361880838871002,-0.439531147480011,-0.1490119099617004,-0.3567650616168976,0.0,0.0,-0.8161757588386536,0.0138431787490844
-0.1470285356044769,0.9901177883148192,-0.2407948672771453,-0.4486810863018036,-0.1668246984481811,-0.3562554717063904,0.0,0.0,-0.5547281503677368,0.3130871057510376
-0.1496599167585373,0.9798637628555298,-0.2453579902648925,-0.4578312933444977,-0.1846420168876648,-0.3563466072082519,0.0,0.0,-0.6595869660377502,0.5293941497802734
-0.1523030251264572,0.969405710697174,-0.2457385808229446,-0.467228889465332,-0.2033251971006393,-0.3736636638641357,0.0,0.0,-0.6890183091163635,0.0626453161239624
-0.154990866780281,0.9587470889091492,-0.2502035498619079,-0.4763825237751007,-0.222073346376419,-0.3749629557132721,0.0,0.0,-0.730796754360199,-0.4462581872940063
-0.1577228605747223,0.9478880763053894,-0.2546126246452331,-0.4855369627475738,-0.2409166395664215,-0.3768661916255951,0.0,0.0,-0.8109511733055115,0.2548956871032715
-0.160498708486557,0.9368286728858948,-0.2589609920978546,-0.4946922957897186,-0.2598851323127746,-0.3793697655200958,0.0,0.0,-0.6271113753318787,0.0059417486190795
-0.1633180677890777,0.9255691170692444,-0.2632434964179992,-0.5038487315177917,-0.2790084779262543,-0.3824675679206848,0.0,0.0,-0.0754154920578002,0.0967782735824585
-0.1661802232265472,0.914109706878662,-0.2674545645713806,-0.5130063891410828,-0.2983160614967346,-0.386151373386383,0.0,0.0,-0.3994531631469726,0.6619187593460083
-0.1690267622470855,0.902431309223175,-0.2643377184867859,-0.5233443975448608,-0.3193552196025848,-0.4207835793495178,0.0,0.0,0.1308667659759521,-0.9457935690879822
-0.1718938797712326,0.8914372324943542,-0.2681618928909302,-0.4928321540355682,-0.3386911749839782,-0.3867190480232239,0.0,0.0,-0.376642107963562,-0.366370677947998
-0.1748018264770507,0.8802437782287598,-0.2721202075481415,-0.5019931197166443,-0.3582957684993744,-0.3920919299125671,0.0,0.0,0.3303589820861816,-0.3477905988693237
-0.1774961501359939,0.8697283864021301,-0.2507568001747131,-0.4721393585205078,-0.3780455589294433,-0.3949956893920898,0.0,0.0,-0.5632622838020325,-0.8335816860198975
-0.1803007125854492,0.8590559363365173,-0.2635075449943542,-0.4789250195026397,-0.3961102664470672,-0.361294686794281,0.0,0.0,0.7513692378997803,-0.5610458254814148
-0.1829636543989181,0.8492417335510254,-0.2500806450843811,-0.4408066570758819,-0.4135219752788543,-0.3482333421707153,0.0,0.0,-0.3643585443496704,-0.4645466208457947
-0.1856638938188552,0.8392278552055359,-0.2535916566848755,-0.4499663412570953,-0.4313039183616638,-0.3556385636329651,0.0,0.0,0.3729941844940185,-0.8885931372642517
-0.1881864517927169,0.82966548204422,-0.2373394668102264,-0.4296601414680481,-0.4475628137588501,-0.325177937746048,0.0,0.0,0.525130033493042,-0.926905393600464
-0.1906532347202301,0.8203531503677368,-0.2332595139741897,-0.4182424545288086,-0.4622904360294342,-0.294552594423294,0.0,0.0,0.0883841514587402,-0.9592257142066956
-0.1930397003889084,0.8111918568611145,-0.2267223894596099,-0.4111849069595337,-0.4754835069179535,-0.2638616561889648,0.0,0.0,0.7281265258789062,-0.8579004406929016
-0.1950935423374176,0.8025555610656738,-0.1949878633022308,-0.3874547779560089,-0.487061083316803,-0.2315515726804733,0.0,0.0,0.9738620519638062,-0.5514956712722778
-0.1968414336442947,0.7942454218864441,-0.1654987931251526,-0.3726523518562317,-0.4974586069583893,-0.2079499959945678,0.0,0.0,0.9850873947143556,-0.9234080910682678
-0.1982558220624923,0.7869870066642761,-0.1334787458181381,-0.32550248503685,-0.506405770778656,-0.178943857550621,0.0,0.0,0.8886208534240723,-0.8126723170280457
-0.1992967575788498,0.7806882262229919,-0.0973343402147293,-0.2824717164039612,-0.5140621066093445,-0.1531266719102859,0.0,0.0,0.9366722106933594,-0.9055345058441162
-0.1998997628688812,0.775145947933197,-0.0550301671028137,-0.2483178079128265,-0.5200449824333191,-0.1196566075086593,0.0,0.0,0.8943727016448975,-0.8927660584449768
-0.2002939730882644,0.7698386311531067,-0.0355309322476387,-0.2373782992362976,-0.5244747996330261,-0.0885959416627883,0.0,0.0,0.4417921304702759,-0.8715627789497375
-0.2005921304225921,0.7649945020675659,-0.0270205382257699,-0.2163732498884201,-0.5276671648025513,-0.0638471394777298,0.0,0.0,0.1693346500396728,-0.9007931351661682
-0.2005993425846099,0.7607499957084656,0.000877208833117,-0.1892672330141067,-0.5294921398162842,-0.0364992246031761,0.0,0.0,-0.3993073105812073,-0.977946162223816
-0.2006926089525222,0.7563639283180237,-0.0091100120916962,-0.1950269788503646,-0.5297431945800781,-0.0050213588401675,0.0,0.0,-0.5528414249420166,-0.9841153025627136
-0.2008779942989349,0.7518542408943176,-0.020014863461256,-0.1998518109321594,-0.5280529260635376,0.0338049903512001,0.0,0.0,0.5704145431518555,-0.957544207572937
-0.2007240355014801,0.7479928731918335,0.0125766741111874,-0.1705301702022552,-0.5248391032218933,0.0642768293619155,0.0,0.0,-0.5207931995391846,-0.8853359818458557
-0.2006434500217437,0.743992269039154,0.0039733122102916,-0.1762306988239288,-0.5201861262321472,0.0930600687861442,0.0,0.0,-0.2807856798171997,-0.9645755887031556
-0.2006427347660064,0.7398608326911926,-0.0055336924269795,-0.1814991533756256,-0.5138232111930847,0.127258688211441,0.0,0.0,-0.6224164366722107,-0.945639967918396
-0.200715497136116,0.7355827689170837,-0.0141804497689008,-0.1875652819871902,-0.5060161352157593,0.1561411768198013,0.0,0.0,-0.2513241767883301,-0.8631361126899719
-0.2008613646030426,0.7311634421348572,-0.0228794552385807,-0.1933750212192535,-0.4966743886470794,0.1868349015712738,0.0,0.0,0.1187778711318969,-0.9381064176559448
-0.2010093629360199,0.7271482944488525,-0.024350231513381,-0.17503722012043,-0.4859865009784698,0.2137579619884491,0.0,0.0,-0.0858510136604309,-0.9581367373466492
-0.2012081146240234,0.7229816317558289,-0.0303862988948822,-0.1815274506807327,-0.4742879569530487,0.2339711487293243,0.0,0.0,-0.0379278063774108,-0.8148213028907776
-0.2014556378126144,0.7186486124992371,-0.0361026749014854,-0.1887533515691757,-0.4617300033569336,0.2511587738990783,0.0,0.0,0.3054497241973877,-0.8905927538871765
-0.2013703882694244,0.7148906588554382,-0.004069032613188,-0.1629069745540619,-0.4478894770145416,0.2768105268478393,0.0,0.0,-0.4450055360794067,-0.3476647138595581
-0.2012761533260345,0.7109336256980896,-0.0026309613604098,-0.1720698624849319,-0.4347275495529175,0.2632383704185486,0.0,0.0,-0.0480416417121887,-0.7269725799560547
-0.2012077271938324,0.7068121433258057,-0.0057344818487763,-0.1793421357870102,-0.42108353972435,0.2728803157806396,0.0,0.0,-0.0951623916625976,-0.4264363646507263
-0.2011262476444244,0.7024914622306824,-0.003857698990032,-0.1885038018226623,-0.408129334449768,0.25908362865448,0.0,0.0,-0.2302373647689819,-0.5064753293991089
-0.2010650634765625,0.6979997754096985,-0.0063165454193949,-0.1961085349321365,-0.3948017060756683,0.2665533721446991,0.0,0.0,-0.0683565139770507,0.0403181314468383
-0.2009870111942291,0.6933082938194275,-0.0040364153683185,-0.2052686363458633,-0.382173627614975,0.2525615096092224,0.0,0.0,-0.0983489751815795,-0.2148492336273193
-0.200890302658081,0.6884170770645142,-0.0015683030942454,-0.2144268304109573,-0.3702495098114013,0.2384824007749557,0.0,0.0,-0.1506634354591369,0.1625308990478515
-0.2007733881473541,0.683325469493866,0.0010778496507555,-0.2235832214355468,-0.3590333759784698,0.2243224382400512,0.0,0.0,-0.3138587474822998,-0.1388459801673889
-0.200634628534317,0.6780335307121277,0.003892061766237,-0.2327378392219543,-0.348529040813446,0.2100873738527298,0.0,0.0,-0.0604541897773742,0.1938958168029785
-0.2004725933074951,0.6725408434867859,0.0068644173443317,-0.2418908327817917,-0.3387399017810821,0.195782870054245,0.0,0.0,-0.7481755614280701,-0.2690966129302978
-0.2002860605716705,0.6668471097946167,0.0099851703271269,-0.2510422170162201,-0.3296692073345184,0.1814141720533371,0.0,0.0,-0.752049446105957,0.4087567329406738
-0.2000734359025955,0.6609522700309753,0.0132448021322488,-0.2601921260356903,-0.3213198781013489,0.1669862866401672,0.0,0.0,-0.5565364360809326,-0.1998037099838256
-0.1998336762189865,0.6548558473587036,0.0166340991854667,-0.2693406641483307,-0.3136946856975555,0.1525039076805114,0.0,0.0,-0.3688153624534607,-0.5449551343917847
-0.199603646993637,0.6485819220542908,0.0153152169659733,-0.2771991193294525,-0.3057258427143097,0.1593769490718841,0.0,0.0,-0.7746554613113403,-0.6716033816337585
