x_pos,y_pos,x_vel,y_vel,angle,ang_vel,leg_1,leg_2,main_booster,lat_booster
-0.001537799835205,1.4035226106643677,-0.1558665782213211,-0.3287831842899322,0.0018627792596817,0.0367528721690177,0.0,0.0,-0.1405020952224731,0.404111385345459
-0.0030905723106116,1.396046161651611,-0.157182902097702,-0.3322882354259491,0.0037512020207941,0.0377727076411247,0.0,0.0,-0.1615611910820007,0.6631417274475098
-0.0045946119353175,1.3884629011154177,-0.1507688611745834,-0.3370388448238373,0.0041017341427505,0.0070113176479935,0.0,0.0,-0.3869389295578003,0.8097920417785645
-0.0060630799271166,1.380774974822998,-0.1459516733884811,-0.3416748046875,0.0032233267556875,-0.0175698064267635,0.0,0.0,-0.3359098434448242,0.0907233953475952
-0.0075471876189112,1.3729853630065918,-0.1475716829299926,-0.346207320690155,0.0023933404590934,-0.0166014246642589,0.0,0.0,-0.2807129025459289,0.2176889181137085
-0.0090474132448434,1.3650935888290403,-0.1492185592651367,-0.3507399559020996,0.0016032155836001,-0.0158041380345821,0.0,0.0,0.0300759077072143,0.3778541088104248
-0.0105785373598337,1.357640027999878,-0.1522869020700454,-0.3312707543373108,0.0007779810111969,-0.0165060646831989,0.0,0.0,0.2682160139083862,0.7734222412109375
-0.0119361877441406,1.3508318662643433,-0.1335707008838653,-0.3025888204574585,-0.0013869255781173,-0.0433022305369377,0.0,0.0,-0.3929517269134521,0.5776526927947998
-0.0132661815732717,1.3439277410507202,-0.129688560962677,-0.3068515658378601,-0.0046559562906622,-0.0653866752982139,0.0,0.0,-0.6387277245521545,0.6438717842102051
-0.0145626068115234,1.336925745010376,-0.1250606030225753,-0.3112232983112335,-0.0091893170028924,-0.0906757563352584,0.0,0.0,-0.0777837634086608,-0.4295418858528137
-0.0158763881772756,1.329822063446045,-0.1268024146556854,-0.315757542848587,-0.0137205049395561,-0.0906317010521888,0.0,0.0,-0.3476196527481079,-0.0775725841522216
-0.0172079093754291,1.322616457939148,-0.1285612881183624,-0.320291668176651,-0.018257388845086,-0.0907460302114486,0.0,0.0,-0.6813557744026184,0.4240897893905639
-0.0185573585331439,1.3153092861175537,-0.1303346157073974,-0.3248261213302612,-0.0228068679571151,-0.0909981057047844,0.0,0.0,-0.1655377149581909,-0.4202480316162109
-0.0199247356504201,1.3079004287719729,-0.1321208775043487,-0.3293606340885162,-0.0273759216070175,-0.0913894400000572,0.0,0.0,-0.7397412061691284,0.2398265600204467
-0.0213103294372558,1.3003898859024048,-0.1339183151721954,-0.3338953256607055,-0.0319713242352008,-0.0919161960482597,0.0,0.0,-0.7718706727027893,-0.2456161975860595
-0.022714328020811,1.29277765750885,-0.1357250660657882,-0.3384301960468292,-0.0365996062755584,-0.0925743132829666,0.0,0.0,-0.8163273334503174,0.3172891139984131
-0.0241368301212787,1.285063624382019,-0.137539342045784,-0.3429651856422424,-0.0412671603262424,-0.0933594480156898,0.0,0.0,-0.6527876853942871,0.3597720861434936
-0.0255781169980764,1.2772480249404907,-0.1393592655658722,-0.3475002944469452,-0.0459800772368907,-0.0942670926451683,0.0,0.0,-0.703231692314148,0.0268225669860839
-0.0270380023866891,1.2693307399749756,-0.1411830186843872,-0.3520355522632599,-0.0507442839443683,-0.0952926725149154,0.0,0.0,-0.9068228602409364,0.0934712886810302
-0.0285168644040823,1.2613118886947632,-0.1430086642503738,-0.3565709292888641,-0.0555654317140579,-0.0964314937591552,0.0,0.0,-0.2024967670440673,0.102163553237915
-0.030014419928193,1.2531912326812744,-0.1448342502117157,-0.3611064851284027,-0.0604489594697952,-0.0976790934801101,0.0,0.0,-0.8822023868560791,0.2064660787582397
-0.0315309539437294,1.2449690103530884,-0.1466578841209411,-0.365642249584198,-0.0654000416398048,-0.0990305617451667,0.0,0.0,-0.7525702118873596,0.4417366981506347
-0.0330664627254009,1.2366451025009155,-0.148477554321289,-0.37017822265625,-0.0704236924648284,-0.1004819497466087,0.0,0.0,-0.8598353266716003,0.7605421543121338
-0.0345541946589946,1.2282042503356934,-0.1419283151626587,-0.3754845857620239,-0.0772161558270454,-0.1358615458011627,0.0,0.0,-0.7217314839363098,0.4261865615844726
-0.0360608100891113,1.219662070274353,-0.1437285244464874,-0.3800230622291565,-0.0840894877910614,-0.1374789178371429,0.0,0.0,-0.8496479392051697,-0.1891142725944519
-0.0375874526798725,1.2109973430633545,-0.1456388682126999,-0.3855121731758117,-0.0910495892167091,-0.1392018496990203,0.0,0.0,-0.6155462265014648,0.8268091678619385
-0.039066981524229,1.2022277116775513,-0.1391772180795669,-0.3903201818466186,-0.0997572913765907,-0.174154132604599,0.0,0.0,-0.9520740509033204,0.6091859340667725
-0.04052734375,1.1933581829071045,-0.1362061649560928,-0.3948929607868194,-0.1095088422298431,-0.1950309723615646,0.0,0.0,-0.8800700306892395,0.7556537389755249
-0.0419591888785362,1.1843867301940918,-0.1320860087871551,-0.3995851874351501,-0.1205375790596008,-0.2205746471881866,0.0,0.0,-0.9017786383628844,-0.0063273906707763
-0.0434094443917274,1.1753151416778564,-0.1338357180356979,-0.4041272699832916,-0.1316687166690826,-0.222622662782669,0.0,0.0,-0.8783490657806396,-0.2940137386322021
-0.04487781599164,1.166143536567688,-0.1355646550655365,-0.408669650554657,-0.1429056227207183,-0.2247384041547775,0.0,0.0,-0.9310418367385864,-0.6197338104248047
-0.046419333666563,1.1568796634674072,-0.1441831290721893,-0.4127116799354553,-0.152854323387146,-0.1989744007587433,0.0,0.0,-0.7979003190994263,-0.342275321483612
-0.047978688031435,1.1475155353546145,-0.1458628326654434,-0.4172522127628326,-0.1629150360822677,-0.2012142241001129,0.0,0.0,-0.8962512612342834,-0.0280600190162658
-0.0495553985238075,1.138051152229309,-0.1475144624710083,-0.4217931032180786,-0.1730905175209045,-0.2035096585750579,0.0,0.0,-0.9305191040039062,0.2952429056167602
-0.0511493682861328,1.1284862756729126,-0.149135485291481,-0.4263343214988708,-0.1833833754062652,-0.2058571130037307,0.0,0.0,-0.7101767659187317,-0.0722975730895996
-0.0527602210640907,1.118821144104004,-0.1507232934236526,-0.4308758080005646,-0.1937960237264633,-0.2082529366016388,0.0,0.0,-0.862365186214447,0.2111088037490844
-0.0543875694274902,1.1090561151504517,-0.1522752493619918,-0.4354176521301269,-0.204330712556839,-0.2106935977935791,0.0,0.0,-0.978979468345642,0.338599681854248
-0.0560310371220111,1.099190592765808,-0.1537886559963226,-0.4399598836898803,-0.214989498257637,-0.2131756842136383,0.0,0.0,-0.8218534588813782,-0.3033490180969238
-0.0576902404427528,1.089225172996521,-0.1552607715129852,-0.4445023834705353,-0.2257742881774902,-0.2156958132982254,0.0,0.0,-0.9299882650375366,-0.0988085269927978
-0.0593647956848144,1.0791594982147217,-0.1566887348890304,-0.4490452706813812,-0.2366868406534195,-0.2182506620883941,0.0,0.0,-0.8893001079559326,-0.3979517221450805
-0.0610540397465229,1.0689940452575684,-0.1580697000026703,-0.4535884857177734,-0.2477286905050277,-0.2208369970321655,0.0,0.0,-0.9436081647872924,-0.7864599823951721
-0.0628058463335037,1.0587449073791504,-0.1654509603977203,-0.4571934640407562,-0.2576397061347961,-0.1982200443744659,0.0,0.0,-0.0200306773185729,-0.0991321206092834
-0.0645713806152343,1.0483953952789309,-0.1667282581329345,-0.4617352485656738,-0.2676827013492584,-0.2008605897426605,0.0,0.0,-0.7660703063011169,-0.3068225383758545
-0.0663501769304275,1.0379457473754885,-0.1679495573043823,-0.4662772417068481,-0.2778588831424713,-0.2035234421491623,0.0,0.0,-0.8942356109619141,-0.5072094798088074
-0.068183995783329,1.0274077653884888,-0.1743936836719513,-0.4700932502746582,-0.2870768010616302,-0.1843587905168533,0.0,0.0,-0.972865879535675,-0.6864072680473328
-0.0700789466500282,1.0167838335037231,-0.1816655546426773,-0.473743736743927,-0.295149028301239,-0.1614449769258499,0.0,0.0,-0.0301777720451354,-0.5259495377540588
-0.0720215812325477,1.006072759628296,-0.1872471868991851,-0.4774951040744781,-0.3023988902568817,-0.1449974626302719,0.0,0.0,-0.7199891805648804,-0.4535519480705261
-0.0739749893546104,0.995260775089264,-0.1882114857435226,-0.4820336103439331,-0.3097849786281585,-0.1477217376232147,0.0,0.0,-0.8212546110153198,-0.1600026488304138
-0.0759385079145431,0.9843482375144958,-0.1891042292118072,-0.4865723848342895,-0.3173076808452606,-0.1504541337490081,0.0,0.0,-0.1292229890823364,-0.938750147819519
-0.0779847130179405,0.9733681082725524,-0.1991512179374694,-0.4892176389694214,-0.3229881227016449,-0.1136090904474258,0.0,0.0,0.0074862241744995,-0.9030829071998596
-0.079897403717041,0.9627659916877748,-0.1874173581600189,-0.472068190574646,-0.3269968330860138,-0.0801741480827331,0.0,0.0,0.1025676727294921,-0.6721648573875427
-0.0817501991987228,0.9528116583824158,-0.1825845390558242,-0.4430251121520996,-0.3298111259937286,-0.0562857612967491,0.0,0.0,-0.4154587984085083,-0.593916654586792
-0.0836469680070877,0.94277161359787,-0.1877987831830978,-0.446656733751297,-0.3317726552486419,-0.0392299257218837,0.0,0.0,0.1946243047714233,-0.6593683362007141
-0.0854071602225303,0.933477818965912,-0.1753182560205459,-0.4132132232189178,-0.3325126767158508,-0.0148004544898867,0.0,0.0,-0.0611693859100341,0.137796401977539
-0.0871727019548416,0.9240829348564148,-0.1757153421640396,-0.4177479445934295,-0.3333890438079834,-0.0175275355577468,0.0,0.0,0.6912410259246826,-0.473089337348938
-0.0888772010803222,0.9153183698654176,-0.1690436750650406,-0.3898628950119018,-0.3348537385463714,-0.029294753447175,0.0,0.0,-0.0149675607681274,-0.3765236139297485
-0.0905850380659103,0.906452476978302,-0.1692540198564529,-0.3943977057933807,-0.3364537358283996,-0.0319998897612094,0.0,0.0,-0.329717755317688,-0.3966470956802368
-0.09229526668787,0.8974851965904236,-0.1693673878908157,-0.3989325761795044,-0.3381882607936859,-0.0346905216574668,0.0,0.0,0.3537658452987671,-0.1788787245750427
-0.0937253013253212,0.8893406987190247,-0.1414911746978759,-0.3623301088809967,-0.3397733271121979,-0.0317007340490818,0.0,0.0,0.5612306594848633,-0.2753700017929077
-0.094976045191288,0.8821811079978943,-0.1231223493814468,-0.3186679184436798,-0.3418240547180176,-0.0410146042704582,0.0,0.0,0.2589380741119385,-0.4201047420501709
-0.0960948914289474,0.8752993941307068,-0.1099698767066001,-0.3063103556632995,-0.3438259959220886,-0.0400389209389686,0.0,0.0,0.2619706392288208,-0.8863087892532349
-0.0971789360046386,0.8691570162773132,-0.1080561503767967,-0.2730754613876343,-0.3441897630691528,-0.007275397889316,0.0,0.0,0.6809359788894653,-0.6391593217849731
-0.0980022400617599,0.8636115193367004,-0.0834128111600875,-0.2462149560451507,-0.343062549829483,0.0225441120564937,0.0,0.0,0.3682100772857666,-0.7066454887390137
-0.0986826866865158,0.8586995601654053,-0.0704089999198913,-0.2177414447069168,-0.3405810296535492,0.0496301986277103,0.0,0.0,0.1864271163940429,-0.8255249261856079
-0.0993185043334961,0.8541170954704285,-0.067441388964653,-0.2027607560157776,-0.3365386426448822,0.0808476656675338,0.0,0.0,0.799694299697876,-0.9196446537971495
-0.099945068359375,0.8504554033279419,-0.0679780915379524,-0.1615073382854461,-0.3309758007526397,0.1112565770745277,0.0,0.0,0.8246550559997559,-0.7519749402999878
-0.1002866774797439,0.84805828332901,-0.0409208796918392,-0.1050130799412727,-0.3239341378211975,0.1408324986696243,0.0,0.0,-0.1206032037734985,-0.4767071604728699
-0.1006200760602951,0.8455601930618286,-0.0399864502251148,-0.1095511689782142,-0.3170135021209717,0.1384129375219345,0.0,0.0,-0.5587825179100037,-0.1580390930175781
-0.1009439453482627,0.8429612517356873,-0.0389448888599872,-0.1140890046954155,-0.3102118670940399,0.1360324323177337,0.0,0.0,-0.4057959914207458,-0.9331762790679932
-0.1013391464948654,0.840296745300293,-0.0480881109833717,-0.1166174262762069,-0.3013330101966858,0.1775771975517273,0.0,0.0,-0.95312237739563,-0.2057703733444214
-0.1017227172851562,0.8375318646430969,-0.0468362681567668,-0.1211575120687484,-0.2925690114498138,0.1752802431583404,0.0,0.0,-0.9682933688163756,0.0135424137115478
-0.1020935997366905,0.8346664309501648,-0.0454805083572864,-0.1256972998380661,-0.2839176058769226,0.1730282008647918,0.0,0.0,-0.959672212600708,0.2571661472320556
-0.1024506539106369,0.8317002654075623,-0.0440224632620811,-0.1302368342876434,-0.2753764688968658,0.1708229780197143,0.0,0.0,-0.9513432383537292,0.4860714673995971
-0.1027930229902267,0.8286334872245789,-0.0424640402197837,-0.134776085615158,-0.2669431269168854,0.1686663627624511,0.0,0.0,-0.9251980185508728,0.0838444232940673
-0.1031197533011436,0.8254660964012146,-0.0408073589205741,-0.1393150836229324,-0.2586151361465454,0.1665601134300232,0.0,0.0,-0.9693288803100586,-0.4522441625595093
-0.1034296005964279,0.8221979141235352,-0.0390547588467597,-0.1438538134098053,-0.2503898441791534,0.1645059287548065,0.0,0.0,-0.991098940372467,0.4354158639907837
-0.1037219017744064,0.8188290596008301,-0.0372087694704532,-0.1483922898769378,-0.2422645837068557,0.1625053137540817,0.0,0.0,-0.8915479183197021,0.807701587677002
-0.1039334312081337,0.8153436183929443,-0.027475032955408,-0.153880774974823,-0.2358384579420089,0.1285226047039032,0.0,0.0,-0.9988083839416504,-0.2826641798019409
-0.1041255965828895,0.8117570281028748,-0.0254497826099395,-0.1584169119596481,-0.2295067459344864,0.1266339719295501,0.0,0.0,-0.994038462638855,-0.1810781955718994
-0.1042973548173904,0.8080693483352661,-0.0233396533876657,-0.1629528403282165,-0.2232665866613388,0.1248031109571456,0.0,0.0,-0.9973090291023254,0.3720693588256836
-0.1044479385018348,0.8042804598808289,-0.0211476944386959,-0.1674885749816894,-0.2171150296926498,0.1230312138795852,0.0,0.0,-0.9896677136421204,0.99215567111969
-0.1044937148690223,0.8003717660903931,-0.0084821982309222,-0.1731496900320053,-0.213173359632492,0.0788333415985107,0.0,0.0,-0.998635709285736,-0.7354898452758789
-0.1045830696821212,0.7963832020759583,-0.0144772976636886,-0.1764823645353317,-0.2075854539871215,0.1117581278085708,0.0,0.0,-0.9993448257446288,-0.112665832042694
-0.104648970067501,0.7922932505607605,-0.0120585737749934,-0.181017205119133,-0.202077031135559,0.1101686209440231,0.0,0.0,-0.9977027773857116,0.787838339805603
-0.1046304702758789,0.7880873680114746,-0.002003418514505,-0.1864030361175537,-0.198194071650505,0.077659323811531,0.0,0.0,-0.9957765340805054,-0.5658157467842102
-0.1046245545148849,0.7837914228439331,-0.0041595855727791,-0.1903011351823806,-0.1934121996164322,0.0956373214721679,0.0,0.0,-0.9992702603340148,0.948033332824707
-0.1045180335640907,0.7793623805046082,0.0079425405710935,-0.1964966654777526,-0.1906853914260864,0.0545360073447227,0.0,0.0,-0.9999700784683228,-0.400482177734375
-0.1043852791190147,0.7748317122459412,0.0106194913387298,-0.2010292559862136,-0.1880255490541458,0.053197331726551,0.0,0.0,-0.9987062215805054,-0.2925114631652832
-0.1042259186506271,0.7701992392539978,0.0133531065657734,-0.2055617421865463,-0.1854294836521148,0.0519216544926166,0.0,0.0,-0.9998421669006348,0.914625883102417
-0.1039527878165245,0.7654334902763367,0.0270498543977737,-0.2117757201194763,-0.1851586103439331,0.0054170479997992,0.0,0.0,-0.9741509556770324,-0.3529970645904541
-0.1036518067121505,0.7605660557746887,0.0298880841583013,-0.2163075506687164,-0.1849452853202819,0.0042666094377636,0.0,0.0,-0.999822199344635,-0.5952803492546082
-0.1033657044172287,0.7556135058403015,0.0273167490959167,-0.2199544459581375,-0.1836505085229873,0.0258955210447311,0.0,0.0,-0.999809503555298,-0.2486434578895568
-0.1030509024858474,0.7505590319633484,0.0302481614053249,-0.2244863063097,-0.1824070960283279,0.0248681660741567,0.0,0.0,-0.9995787739753724,-0.0973712801933288
-0.1027067154645919,0.7454029321670532,0.0332222059369087,-0.2290181070566177,-0.1812120527029037,0.0239010378718376,0.0,0.0,-0.9986383318901062,0.3732998371124267
-0.1023328751325607,0.7401449084281921,0.036236360669136,-0.2335498183965683,-0.180062398314476,0.0229931008070707,0.0,0.0,-0.9998360872268676,-0.4496495723724365
-0.1019289046525955,0.7347850799560547,0.0392882227897644,-0.2380814850330352,-0.1789552420377731,0.022143131121993,0.0,0.0,-0.9946847558021544,-0.6042692065238953
-0.1015433296561241,0.7293364405632019,0.0362389646470546,-0.2418826669454574,-0.1766293048858642,0.0465183034539222,0.0,0.0,-0.9999922513961792,-0.7084711790084839
-0.1011924743652343,0.7238103747367859,0.0310768224298954,-0.2451369017362594,-0.1726225018501281,0.0801363214850425,0.0,0.0,-0.9999127984046936,0.0039296150207519
-0.1008106246590614,0.7181824445724487,0.0342280268669128,-0.2496696412563324,-0.1686499565839767,0.0794511288404464,0.0,0.0,-0.998952865600586,0.0761756896972656
-0.1003971099853515,0.7124528288841248,0.0374083295464515,-0.2542023062705993,-0.1647090911865234,0.0788173675537109,0.0,0.0,-0.99844092130661,-0.0186231136322021
-0.0999518409371376,0.7066217660903931,0.0406158380210399,-0.2587349116802215,-0.16079743206501,0.0782331377267837,0.0,0.0,-0.9998883008956908,0.400134801864624
-0.0994744300842285,0.7006890177726746,0.0438487455248832,-0.2632674276828766,-0.1569126099348068,0.0776963457465171,0.0,0.0,-0.9991110563278198,-0.5097075700759888
-0.0990121811628341,0.6946662664413452,0.0411423966288566,-0.2671480476856231,-0.1518343538045883,0.1015648394823074,0.0,0.0,-0.9999980926513672,0.1262407302856445
-0.098517321050167,0.6885419487953186,0.0444208793342113,-0.2716814279556274,-0.1467785388231277,0.1011161655187606,0.0,0.0,-0.9991790056228638,0.542898416519165
-0.0979393944144249,0.6823080778121948,0.0540229156613349,-0.2766917049884796,-0.1430181860923767,0.0752072110772132,0.0,0.0,-0.9995425343513488,0.4042918682098388
-0.0973283797502517,0.6759724617004395,0.0573412589728832,-0.2812240719795227,-0.1392763257026672,0.074837252497673,0.0,0.0,-0.99951434135437,0.3623615503311157
-0.0966842621564865,0.6695351600646973,0.0606773383915424,-0.285756379365921,-0.135551169514656,0.0745027735829353,0.0,0.0,-0.9999399781227112,0.6628828048706055
-0.0959563255310058,0.6629912853240967,0.0703542381525039,-0.2906163036823272,-0.1331126987934112,0.0487690903246402,0.0,0.0,-0.9999805688858032,-0.9162858128547668
-0.0952485054731369,0.656367301940918,0.0669340789318084,-0.2940650284290313,-0.1292860209941864,0.0765335336327552,0.0,0.0,-0.9998627305030824,0.111925721168518
-0.094507023692131,0.6496416330337524,0.0703158229589462,-0.2985973358154297,-0.1254715621471405,0.076289102435112,0.0,0.0,-0.9999611377716064,0.5238907337188721
-0.0936905890703201,0.6428114771842957,0.0788540914654731,-0.3033270239830017,-0.1226993799209594,0.0554437562823295,0.0,0.0,-0.9999759793281556,-0.3820393085479736
-0.0928401947021484,0.6358796954154968,0.0822608023881912,-0.3078587651252746,-0.1199371367692947,0.0552448444068431,0.0,0.0,-0.9995912313461304,-0.4580517411231994
-0.0919557586312294,0.6288458704948425,0.0856784284114837,-0.3123904168605804,-0.117183931171894,0.0550641901791095,0.0,0.0,-0.9999573230743408,0.0997638702392578
-0.0910370796918869,0.6217103004455566,0.0891060307621955,-0.3169220685958862,-0.114438995718956,0.0548985674977302,0.0,0.0,-0.9999887347221376,0.2675701379776001
-0.0900840759277343,0.6144729256629944,0.0925427079200744,-0.3214536905288696,-0.1117017567157745,0.0547448396682739,0.0,0.0,-0.99980628490448,0.424566388130188
-0.0890967398881912,0.607133686542511,0.0959876105189323,-0.3259853422641754,-0.1089717671275138,0.0545997731387615,0.0,0.0,-0.999980926513672,0.4917507171630859
-0.0880748778581619,0.5996925234794617,0.0994399115443229,-0.3305169641971588,-0.1062487661838531,0.0544600673019886,0.0,0.0,-0.9999329447746276,0.3057477474212646
-0.0870184898376464,0.5921496748924255,0.102898821234703,-0.3350486159324646,-0.1035326421260833,0.0543224103748798,0.0,0.0,-0.9998363852500916,-0.3395572304725647
-0.0859275832772255,0.5845048427581787,0.1063635945320129,-0.3395802080631256,-0.1008234694600105,0.054183442145586,0.0,0.0,-0.999939501285553,0.2327684164047241
-0.0848020538687706,0.5767582654953003,0.1098334938287735,-0.344111829996109,-0.0981214791536331,0.0540397390723228,0.0,0.0,-0.999993085861206,0.5545258522033691
