x_pos,y_pos,x_vel,y_vel,angle,ang_vel,leg_1,leg_2,main_booster,lat_booster
-0.0015968322986736,1.4034267663955688,-0.1612826883792877,-0.3330437839031219,0.0014316072920337,0.0282151605933904,0.0,0.0,-0.9035579627196058,-0.8654612475033259
-0.0033296584151685,1.395754337310791,-0.175903171300888,-0.3410043120384216,0.0040285978466272,0.0519453212618827,0.0,0.0,0.9335419020986166,-0.8965295471011886
-0.0050365449860692,1.3885867595672607,-0.1751281917095184,-0.3185690343379974,0.0084221847355365,0.0878797322511673,0.0,0.0,-0.4213901365371115,-0.8990304803362665
-0.0069015501067042,1.3812177181243896,-0.192789226770401,-0.3275623917579651,0.0146386325359344,0.1243407949805259,0.0,0.0,-0.8166000353184473,-0.7223738289666288
-0.0088848117738962,1.3736528158187866,-0.2054655998945236,-0.3363094329833984,0.0217024851590394,0.1412901580333709,0.0,0.0,-0.5833008430980724,-0.6792806163089683
-0.0109826084226369,1.365888237953186,-0.2177320718765258,-0.3452242314815521,0.0295595619827508,0.1571560204029083,0.0,0.0,0.6654973287142705,0.996067907657762
-0.0131182670593261,1.3588014841079712,-0.2192607820034027,-0.3150844871997833,0.0351948477327823,0.1127160936594009,0.0,0.0,0.4072513975158605,-0.8386036474589112
-0.0152687076479196,1.3523502349853516,-0.2224371880292892,-0.2869252860546112,0.0425054132938385,0.1462249308824539,0.0,0.0,0.3263172052505805,0.640383227279625
-0.0174810402095317,1.346717357635498,-0.2271693050861358,-0.2505212724208832,0.0483744256198406,0.1173910498619079,0.0,0.0,0.974662071556784,-0.6242429640329741
-0.0198582652956247,1.3421882390975952,-0.244776576757431,-0.2015391439199447,0.0553625635802745,0.1397753655910492,0.0,0.0,-0.5307945152963132,0.633525861812685
-0.0222509391605854,1.337466835975647,-0.2447849214076995,-0.2100587338209152,0.0608316026628017,0.1093907728791236,0.0,0.0,0.048981214073096,0.8466889314417875
-0.0246168132871389,1.3330591917037964,-0.2403709888458252,-0.1960558891296386,0.0645895227789878,0.075165145099163,0.0,0.0,-0.8390483135829216,-0.8161767604568195
-0.0271048545837402,1.3284530639648438,-0.2538674175739288,-0.2049420326948166,0.0696027055382728,0.1002727895975112,0.0,0.0,0.7921983940797042,-0.943367034545508
-0.0296818725764751,1.324218511581421,-0.2648093700408935,-0.1885566711425781,0.0766489878296852,0.1409385055303573,0.0,0.0,0.6715351695706293,0.6483926724956274
-0.0321891792118549,1.3210642337799072,-0.256966769695282,-0.1405223459005355,0.0828285962343216,0.1236036047339439,0.0,0.0,0.9953031236437192,-0.6966252943877114
-0.0347096435725688,1.3182519674301147,-0.2601382136344909,-0.1254541575908661,0.0908532366156578,0.1605078279972076,0.0,0.0,-0.9535998526167389,0.9607980709656764
-0.0372090339660644,1.315266489982605,-0.2557669281959533,-0.1330516040325164,0.0966445058584213,0.1158358827233314,0.0,0.0,-0.072091671904781,0.8660849682955218
-0.0396942123770713,1.3120886087417605,-0.252362996339798,-0.1414911895990371,0.100460760295391,0.0763319954276084,0.0,0.0,-0.3996286131690534,0.8680499626304896
-0.0421710014343261,1.3087334632873535,-0.2496794760227203,-0.1492575854063034,0.1024512648582458,0.0398135222494602,0.0,0.0,-0.7477613022282241,0.8613745513952396
-0.0446589477360248,1.3051893711090088,-0.2495173215866089,-0.1575679779052734,0.1031708642840385,0.014393238350749,0.0,0.0,0.328351441222436,-0.9691642872711844
-0.0472372062504291,1.3023632764816284,-0.2607989013195038,-0.1258117705583572,0.1061326414346695,0.0592410266399383,0.0,0.0,-0.3244201262782946,0.8147350157832551
-0.0498190894722938,1.2993454933166504,-0.259779155254364,-0.1342381983995437,0.1077125966548919,0.0316016711294651,0.0,0.0,0.7088512817907842,-0.6972535770621519
-0.0524399764835834,1.2969839572906494,-0.2657003998756408,-0.1052190735936164,0.1113097667694091,0.0719497948884964,0.0,0.0,-0.9069969973487472,0.7629641040950823
-0.0550620071589946,1.2944278717041016,-0.2644462585449219,-0.1137731820344924,0.1135383322834968,0.0445751324295997,0.0,0.0,-0.9185274220237658,-0.983519077911414
-0.0578482635319232,1.291661024093628,-0.2836560010910034,-0.1233591213822364,0.1185450628399849,0.1001437157392501,0.0,0.0,0.8865119100526544,0.6681171093652225
-0.0609218589961528,1.2898544073104858,-0.3109855055809021,-0.080582745373249,0.1221466138958931,0.0720310062170028,0.0,0.0,0.4935959113387256,-0.996637761278668
-0.0642181411385536,1.2888214588165283,-0.3356581628322601,-0.0464204549789428,0.1281393319368362,0.1198546662926673,0.0,0.0,0.705862763320477,0.9182126154228086
-0.06776924431324,1.2888537645339966,-0.3594820499420166,0.0010565420379862,0.132490336894989,0.0870202332735061,0.0,0.0,-0.7324326109192854,0.6180176937768425
-0.0713501945137977,1.2887018918991089,-0.3619375824928283,-0.0070932325907051,0.1363151669502258,0.0764964669942855,0.0,0.0,0.22853064435547,-0.8162671802619454
-0.0751288384199142,1.2888723611831665,-0.3837899565696716,0.0070252367295324,0.1422201097011566,0.1180986315011978,0.0,0.0,0.2332328393032512,-0.6691123920783781
-0.0791015625,1.2897846698760986,-0.4050305485725403,0.0397805012762546,0.1499630808830261,0.154859572649002,0.0,0.0,-0.7305789092457615,-0.923851871011796
-0.0832219123840332,1.2904773950576782,-0.422368437051773,0.029708843678236,0.1602942049503326,0.2066221237182617,0.0,0.0,-0.1355327102999992,-0.7026485120928423
-0.0874716788530349,1.2909663915634155,-0.4374054968357086,0.0203467831015586,0.1727358400821685,0.2488326728343963,0.0,0.0,-0.2042233519623799,-0.8066306919530798
-0.0918560996651649,1.2912359237670898,-0.4531684815883636,0.010198681615293,0.1874996274709701,0.2952761054039001,0.0,0.0,-0.4137810156177433,0.6630011911905676
-0.0962539687752723,1.291327953338623,-0.4536434710025787,0.0022813796531409,0.2014402151107788,0.2788119912147522,0.0,0.0,0.8205381489340988,0.6285752969968367
-0.1008151993155479,1.292477011680603,-0.4692905843257904,0.0492216758430004,0.2147263884544372,0.2657232880592346,0.0,0.0,0.709224437258962,0.7225514045725853
-0.1055148094892501,1.2941274642944336,-0.4821612238883972,,0.2270690947771072,0.2468539476394653,0.0,0.0,-0.9893548966209732,0.6095327834422022
-0.1102303490042686,1.2956055402755735,-0.4830038547515869,0.0638881102204322,0.238683745265007,0.2322930991649627,0.0,0.0,0.2407727416021319,0.6389955528317383
-0.1151443496346473,1.2978246212005615,-0.5020676851272583,0.0968627482652664,0.2495430707931518,0.2171862423419952,0.0,0.0,0.61793252424415,-0.9037157874657916
-0.1203088760375976,1.300701379776001,-0.5295159220695496,0.1255811750888824,0.2628723382949829,0.2665848135948181,0.0,0.0,-0.939975047709282,-0.8348738990420049
-0.1256136000156402,1.303361892700195,-0.5460304021835327,0.1153724864125251,0.2787963151931762,0.3184803426265716,0.0,0.0,-0.8471813797950745,0.9955315589904784
-0.1308911293745041,1.3058665990829468,-0.5414629578590393,0.108636274933815,0.2929094433784485,0.2822632193565368,0.0,0.0,-0.8140692114830017,0.9812779426574708
-0.1361437737941742,1.3082064390182495,-0.5373135805130005,0.1015309393405914,0.3053455352783203,0.2487216889858245,0.0,0.0,-0.8629837036132812,0.9940497875213624
-0.1413721144199371,1.310392141342163,-0.5331622362136841,0.0949304103851318,0.3160615563392639,0.2143202275037765,0.0,0.0,-0.640625,0.9957720041275024
-0.1465905159711837,1.3124068975448608,-0.5309722423553467,0.0875256061553955,0.3255387842655182,0.1895444840192794,0.0,0.0,-0.9072877168655396,0.9595744609832764
-0.1517917662858963,1.314257264137268,-0.5278205871582031,0.0804851949214935,0.3335658609867096,0.1605419814586639,0.0,0.0,-0.9557401537895204,0.943928599357605
-0.1569759398698806,1.315948486328125,-0.5246796607971191,0.0737082138657569,0.340127021074295,0.131223052740097,0.0,0.0,-0.8191951513290405,0.9784971475601196
-0.1621640175580978,1.3174867630004885,-0.5241360068321228,0.0670944154262542,0.3457061946392059,0.1115828305482864,0.0,0.0,-0.8100544214248657,0.9809174537658693
-0.1673576384782791,1.3188691139221191,-0.5238029360771179,0.0603608526289463,0.3503721356391907,0.0933189541101455,0.0,0.0,-0.9560924172401428,0.9639339447021484
-0.1725412309169769,1.320091724395752,-0.5216203927993774,0.053547129034996,0.3538023829460144,0.0686041265726089,0.0,0.0,-0.9108319878578186,0.9625654220581056
-0.1776954680681228,1.321168303489685,-0.516998827457428,0.0474600382149219,0.3554595410823822,0.0331422686576843,0.0,0.0,-0.897085428237915,0.9841902256011964
-0.1828435957431793,1.3220930099487305,-0.5152803063392639,0.0409746654331684,0.3559574782848358,0.0099588939920067,0.0,0.0,-0.7828059792518616,0.9941861629486084
-0.1879608184099197,0.0,-0.5105546116828918,0.0346444472670555,0.3547293543815613,-0.0245627146214246,0.0,0.0,-0.9166696071624756,0.9813497066497804
-0.1930636465549469,1.323493242263794,-0.5078279376029968,0.0284809097647666,0.3521469831466675,-0.0516475364565849,0.0,0.0,-0.99575674533844,0.9463425874710084
-0.1981337517499923,1.3239706754684448,-0.5029016733169556,0.0222177151590585,0.3478306233882904,-0.0863274484872818,0.0,0.0,-0.9880422353744508,0.9908713102340698
-0.2031954228878021,1.324283242225647,-0.5010805726051331,0.0151030849665403,0.3424957394599914,-0.1066974252462387,0.0,0.0,-0.9973310828208924,0.9807311296463012
-0.2082283496856689,1.3244547843933103,-0.4966277182102203,0.0091905584558844,0.3355151712894439,-0.1396119594573974,0.0,0.0,-0.9312102794647216,0.7879015207290649
-0.2132422029972076,1.3244729042053225,-0.4934541583061218,0.0026229992508888,0.3272377550601959,-0.1655482947826385,0.0,0.0,-0.9945374131202698,0.8358007669448853
-0.2182388305664062,1.3243409395217896,-0.4905164241790771,-0.0038294452242553,0.3177202641963959,-0.1903498321771621,0.0,0.0,-0.991029679775238,0.9467322826385498
-0.2232249230146408,1.3240535259246826,-0.4884669184684753,-0.0105857253074646,0.3071961998939514,-0.2104812860488891,0.0,0.0,-0.97477388381958,0.7773115634918213
-0.2281944304704666,1.3235963582992554,-0.4857870638370514,-0.0180003959685564,0.2956510782241821,-0.2309024780988693,0.0,0.0,-0.9963930249214172,0.7483247518539429
-0.2331643998622894,1.3229708671569824,-0.4852239489555359,-0.0254504363983869,0.2835233211517334,-0.2425546944141388,0.0,0.0,-0.9659162163734436,0.302278995513916
-0.2381792962551117,1.3221521377563477,-0.490351527929306,-0.0342700220644474,0.2720846831798553,-0.228772833943367,0.0,0.0,-0.7790367603302002,0.9197041988372804
-0.2431652545928955,1.321171522140503,-0.4861864447593689,-0.0413280874490737,0.2593962252140045,-0.2537692785263061,0.0,0.0,-0.8918523788452148,0.2562286853790283
-0.2481925040483474,1.3199971914291382,-0.4909581542015075,-0.050147496163845,0.2473949640989303,-0.2400252372026443,0.0,0.0,-0.9076257348060608,0.8423280715942383
-0.2532081007957458,1.3186492919921875,-0.4890992641448974,-0.0578590258955955,0.2347271591424942,-0.253356009721756,0.0,0.0,-0.6936830878257751,0.7935781478881836
-0.2581995129585266,1.3171396255493164,-0.4856747984886169,-0.0650109350681305,0.2210779637098312,-0.2729842960834503,0.0,0.0,-0.905678391456604,-0.217959463596344
-0.263226181268692,1.3154362440109253,-0.4898317456245422,-0.0738302916288375,0.2081106305122375,-0.259346455335617,0.0,0.0,-0.7019047141075134,0.9154994487762452
-0.2682133615016937,1.313573122024536,-0.4846111238002777,-0.0808777585625648,0.193891167640686,-0.284389317035675,0.0,0.0,-0.6005794405937195,0.6292848587036133
-0.2731897234916687,1.3115262985229492,-0.4830948710441589,-0.089139275252819,0.1792840808629989,-0.2921417653560638,0.0,0.0,-0.7987972497940063,0.95325767993927
-0.278131902217865,1.309307098388672,-0.4786927103996277,-0.0968304798007011,0.1637279540300369,-0.3111224770545959,0.0,0.0,-0.5127354860305786,0.7127377986907959
-0.2830414772033691,1.3069108724594116,-0.4745557904243469,-0.1047839447855949,0.1473410874605178,-0.3277376294136047,0.0,0.0,-0.2069737911224365,0.5322656631469727
-0.2879418432712555,1.30433452129364,-0.4734267294406891,-0.1129374057054519,0.130780816078186,-0.3312054574489593,0.0,0.0,-0.4850361347198486,0.6964929103851318
-0.2928012013435364,1.3015774488449097,-0.4683819711208343,-0.1210843026638031,0.1133220121264457,-0.3491761982440948,0.0,0.0,-0.5473467707633972,0.9346988201141356
-0.2976080477237701,1.2986326217651367,-0.4619894623756408,-0.129569336771965,0.0947637408971786,-0.3711653351783752,0.0,0.0,-0.8063744306564331,-0.2543028593063354
-0.3024294972419739,1.2954950332641602,-0.4640699923038482,-0.1383948475122451,0.0768590196967125,-0.3580944240093231,0.0,0.0,-0.6156746745109558,0.8862769603729248
-0.3071957528591156,1.2921638488769531,-0.457498699426651,-0.147182285785675,0.0579326748847961,-0.3785270154476166,0.0,0.0,-0.5558731555938721,0.9618351459503174
-0.3118960261344909,1.2886555194854736,-0.4496200680732727,-0.1552576273679733,0.0377598814666271,-0.4034558832645416,0.0,0.0,-0.5268895626068115,0.9432775974273682
-0.3165176808834076,1.2849698066711426,-0.4402297437191009,-0.1633999049663543,0.0160975269973278,-0.4332470893859863,0.0,0.0,-0.8291621208190918,0.2813665866851806
-0.3211418986320495,1.2810925245285034,-0.4411182403564453,-0.1722316890954971,-0.0049329460598528,-0.4206095337867737,0.0,0.0,-0.74953293800354,0.3065098524093628
-0.3257656991481781,1.277023196220398,-0.4417046010494232,-0.1810601204633712,-0.0253378394991159,-0.408097892999649,0.0,0.0,-0.3294177055358886,0.6532275676727295
-0.3303306698799133,1.2727652788162231,-0.4350605905056,-0.1897431313991546,-0.0465094856917858,-0.4234331548213959,0.0,0.0,-0.3476195335388183,-0.75184166431427
-0.3349584937095642,1.2683191299438477,-0.4437580704689026,-0.1983023732900619,-0.0653213188052177,-0.3762366473674774,0.0,0.0,-0.5403334498405457,0.9903299808502196
-0.3395056128501892,1.2636768817901611,-0.4345077574253082,-0.2073246389627456,-0.085319384932518,-0.3999614715576172,0.0,0.0,0.1449818611145019,0.915802001953125
-0.3439361453056335,1.259562611579895,-0.4216514229774475,-0.1842098236083984,-0.1065451875329017,-0.4245161116123199,0.0,0.0,-0.3879194259643554,0.7993819713592529
-0.3482794165611267,1.2552446126937866,-0.4117227494716644,-0.1936716735363006,-0.1290061324834823,-0.4492196142673492,0.0,0.0,-0.6555201411247253,0.7993876934051514
-0.3525399565696716,1.2507145404815674,-0.4024359285831451,-0.2035539150238037,-0.1525479853153228,-0.4708370268344879,0.0,0.0,-0.5590762495994568,0.580511212348938
-0.3567275404930115,1.2459766864776611,-0.3944583833217621,-0.2132450938224792,-0.1768583804368972,-0.4862082898616791,0.0,0.0,0.0796536207199096,0.0616235733032226
-0.3607310652732849,1.241572618484497,-0.3771614134311676,-0.1986621171236038,-0.2001583874225616,-0.4660002589225769,0.0,0.0,-0.6381629109382629,-0.8770543932914734
-0.3647615015506744,1.2369849681854248,-0.3818435072898865,-0.2068950682878494,-0.2215519994497299,-0.4278720915317535,0.0,0.0,-0.7251970171928406,0.0233566761016845
-0.3687632977962494,1.2322039604187012,-0.3796255588531494,-0.2157141417264938,-0.2423980087041854,-0.4169205129146576,0.0,0.0,0.0710202455520629,-0.1240632534027099
-0.3725967407226562,1.2279376983642578,-0.3635067641735077,-0.1930122375488281,-0.2626130282878876,-0.404301255941391,0.0,0.0,-0.8191543221473694,-0.9063758850097656
-0.3764511942863464,1.2235019207000732,-0.3676567077636719,-0.2004434913396835,-0.2808414101600647,-0.3645675778388977,0.0,0.0,-0.4747920036315918,0.1466691493988037
-0.3802706301212311,1.2188706398010254,-0.3647458851337433,-0.2092499136924743,-0.2985513210296631,-0.3541982769966125,0.0,0.0,0.1091253757476806,-0.6195723414421082
-0.3840373158454895,1.2145702838897705,-0.3612123429775238,-0.1943752020597458,-0.3145477771759033,-0.3199289441108703,0.0,0.0,0.3561878204345703,-0.4742166399955749
-0.3874799311161041,1.2110512256622314,-0.3296771645545959,-0.1596417725086212,-0.3297252953052521,-0.3035503327846527,0.0,0.0,0.0836968421936035,-0.6992353796958923
-0.3908298015594482,1.207899570465088,-0.3222858905792236,-0.1430295258760452,-0.3430027067661285,-0.2655478417873382,0.0,0.0,-0.845707356929779,0.0624072551727294
-0.3941375315189361,1.20455002784729,-0.3185876905918121,-0.1518217176198959,-0.3558044731616974,-0.2560354769229889,0.0,0.0,-0.5215884447097778,-0.5861314535140991
-0.3974379003047943,1.2010257244110107,-0.319320410490036,-0.1593323051929474,-0.367109477519989,-0.2261000573635101,0.0,0.0,0.0406066179275512,0.3368809223175049
-0.4005550444126129,1.197982668876648,-0.3013246655464172,-0.1379466652870178,-0.3781179785728454,-0.2201701700687408,0.0,0.0,0.4180953502655029,-0.9147895574569702
-0.4035287499427795,1.1957274675369265,-0.2891492843627929,-0.1024311482906341,-0.3868627250194549,-0.1748949587345123,0.0,0.0,-0.632291853427887,-0.3856470584869385
-0.4064548015594482,1.1932733058929443,-0.2848179936408996,-0.11121516674757,-0.3951793611049652,-0.1663328260183334,0.0,0.0,-0.9439864158630372,-0.3565067648887634
-0.4093320965766907,1.190619945526123,-0.280351310968399,-0.1199987456202507,-0.4030804932117462,-0.1580225974321365,0.0,0.0,-0.2338984012603759,0.0182437896728515
-0.4121594429016113,1.1877673864364624,-0.2757574915885925,-0.1287819594144821,-0.410578966140747,-0.1499697118997573,0.0,0.0,-0.6282633543014526,-0.0156741142272949
-0.414935827255249,1.184715747833252,-0.2710444927215576,-0.1375648528337478,-0.4176879525184631,-0.1421795338392257,0.0,0.0,-0.3775328397750854,-0.2672390937805176
-0.4176602959632873,1.181464910507202,-0.266219824552536,-0.1463475227355957,-0.4244208037853241,-0.134657084941864,0.0,0.0,-0.2581983804702759,0.2239513397216797
-0.4203320145606994,1.1780145168304443,-0.2612907588481903,-0.1551300883293151,-0.4307911694049835,-0.1274072229862213,0.0,0.0,0.0330382585525512,0.2881916761398315
-0.422760397195816,1.1750352382659912,-0.2372390031814575,-0.1341404318809509,-0.4368790686130523,-0.1217578649520874,0.0,0.0,-0.1432409286499023,0.1547449827194214
-0.4251343309879303,1.1718566417694092,-0.232121542096138,-0.1429229825735092,-0.4426323771476745,-0.1150660067796707,0.0,0.0,0.5527669191360474,0.0144541263580322
-0.4271551072597503,1.1691712141036987,-0.1974091082811355,-0.1208409145474433,-0.4477337300777435,-0.1020267382264137,0.0,0.0,0.205401062965393,0.0882726907730102
-0.4288669228553772,1.1670950651168823,-0.1667886674404144,-0.0936803296208381,-0.4525534808635711,-0.0963949039578437,0.0,0.0,-0.147341251373291,-0.0353838205337524
-0.4305225014686584,1.1648199558258057,-0.1614341288805008,-0.1024630144238472,-0.4570818245410919,-0.090566873550415,0.0,0.0,0.5062522888183594,-0.0380088686943054
-0.4318707883358001,1.1628596782684326,-0.1312799006700515,-0.0883005186915397,-0.4609937071800232,-0.0782373994588851,0.0,0.0,0.0538233518600463,-0.0228258967399597
-0.4330562055110931,1.161281943321228,-0.1149093508720398,-0.0713305175304412,-0.4650044441223144,-0.0802146270871162,0.0,0.0,-0.2968834638595581,-0.1456107497215271
-0.4341839253902435,1.1595051288604736,-0.1093660145998001,-0.0801140442490577,-0.4687680006027221,-0.0752711594104766,0.0,0.0,-0.5583530068397522,-0.4028322100639343
-0.4352535307407379,1.1575292348861694,-0.1037691608071327,-0.0888979285955429,-0.4722992181777954,-0.0706245675683021,0.0,0.0,-0.2321678400039672,-0.446326732635498
-0.4362646043300628,1.1553544998168943,-0.0981230959296226,-0.0976821929216384,-0.4756129384040832,-0.066274918615818,0.0,0.0,-0.3440959453582763,-0.3137428760528564
-0.4372169077396393,1.1529806852340698,-0.0924319475889206,-0.1064668521285057,-0.4787240326404571,-0.0622216761112213,0.0,0.0,-0.4226506948471069,-0.0362017154693603
-0.4381101727485657,1.1504079103469849,-0.0866996198892593,-0.1152519285678863,-0.4816472232341766,-0.0584637112915515,0.0,0.0,-0.5693302154541016,-0.684506356716156
-0.4389874935150146,1.1476777791976929,-0.08650903403759,-0.121763676404953,-0.483008861541748,-0.0272325817495584,0.0,0.0,-0.3588922619819641,-0.3468514680862427
-0.4398053288459778,1.1447488069534302,-0.0807050615549087,-0.1305492520332336,-0.4842118620872497,-0.0240599382668733,0.0,0.0,-0.1437243819236755,-0.6158522963523865
