x_pos,y_pos,x_vel,y_vel,angle,ang_vel,leg_1,leg_2,main_booster,lat_booster
-0.001563835190609,1.4032329320907593,-0.1584239602088928,-0.3416534960269928,0.0018253101734444,0.0360106937587261,0.0,0.0,-0.7029032648075815,0.2604935831519074
-0.0031680106185376,1.3951772451400757,-0.1622483879327774,-0.3580288290977478,0.0036313342861831,0.0361246243119239,0.0,0.0,-0.391162297853348,0.2403285144496948
-0.004812145140022,1.386729717254639,-0.1662661731243133,-0.3754550516605377,0.005463785957545,0.0366524457931518,0.0,0.0,-0.0050956402077548,0.2099800037113699
-0.0064957616850733,1.3778905868530271,-0.1702538877725601,-0.3928622603416443,0.0073238951154053,0.037205871194601,0.0,0.0,-0.0688360182482872,-0.4304094481378987
-0.0082186702638864,1.368659734725952,-0.1742090135812759,-0.4102659523487091,0.0092120757326483,0.0377672836184501,0.0,0.0,0.9651959042833425,0.8918354553987026
-0.0097371097654104,1.360008716583252,-0.1523822247982025,-0.38449826836586,0.009742877446115,0.0106172189116477,0.0,0.0,0.5532306150927211,0.0990877827471317
-0.0113204959779977,1.351779818534851,-0.158806711435318,-0.3657300770282745,0.0102016618475317,0.0091764722019433,0.0,0.0,0.8078062338396852,-0.4734605255296169
-0.0127857206389307,1.3442237377166748,-0.1477972120046615,-0.3358368575572967,0.0114686535671353,0.0253420732915401,0.0,0.0,-0.5644174502151478,-0.6470792946750716
-0.0143404006958007,1.3362821340560913,-0.1581107974052429,-0.3529827296733856,0.0140711441636085,0.0520546846091747,0.0,0.0,-0.5585107256598587,0.1514454891707357
-0.0159323699772357,1.327949285507202,-0.1618517637252807,-0.3703818619251251,0.0167024563997983,0.0526313297450542,0.0,0.0,0.2235280333739615,-0.1077599422453348
-0.0175043102353811,1.319886565208435,-0.1601925790309906,-0.3583717346191406,0.0196658037602901,0.0592723786830902,0.0,0.0,0.1433886664610095,-0.3940415786253227
-0.0190705303102731,1.311982274055481,-0.1598750948905944,-0.3513526320457458,0.0228894781321287,0.0644791796803474,0.0,0.0,-0.855254746504075,-0.2620373359754019
-0.0206719394773244,1.3036863803863523,-0.1634328514337539,-0.368758350610733,0.0261416789144277,0.0650499761104583,0.0,0.0,0.8373271571446212,-0.7669269525386501
-0.0222949031740427,1.2955851554870603,-0.1673420965671539,-0.3601461350917816,0.0311321504414081,0.0998186469078064,0.0,0.0,0.4102116119558296,-0.0055528783194769
-0.0238533020019531,1.2881534099578855,-0.1614779233932495,-0.3304289877414703,0.0367165319621562,0.1116978302597999,0.0,0.0,-0.2376327245638672,0.3648170663629078
-0.0254446025937795,1.2803304195404053,-0.164803147315979,-0.347840815782547,0.0423277840018272,0.112234927713871,0.0,0.0,0.7127300271581747,0.6692083806721544
-0.026898194104433,1.2734662294387815,-0.150076225399971,-0.3052141964435577,0.0470026433467865,0.0935057625174522,0.0,0.0,-0.5915196779108891,-0.0544325738565958
-0.028382683172822,1.266210675239563,-0.1532027423381805,-0.3226301372051239,0.0517031848430633,0.094019316136837,0.0,0.0,0.937894799231336,0.5553984481086898
-0.0297813415527343,1.259992241859436,-0.1438804715871811,-0.2765147984027862,0.0556791312992572,0.0795259252190589,0.0,0.0,0.484920808193557,-0.4236313566452064
-0.0313094146549701,1.2541381120681765,-0.1565027087926864,-0.2603264451026916,0.0593399889767169,0.0732239708304405,0.0,0.0,-0.946532807687019,-0.2435617027045888
-0.0328650474548339,1.2478926181793213,-0.1592712104320526,-0.2777316272258758,0.063023641705513,0.073679395020008,0.0,0.0,0.5150410224914768,-0.4362992396211365
-0.0344615951180458,1.2418640851974487,-0.1634363681077957,-0.2680937647819519,0.0667782798409462,0.075099304318428,0.0,0.0,0.034548307184991,-0.1866044077069466
-0.0360242836177349,1.2359626293182373,-0.1604672521352768,-0.2624800503253937,0.0709304958581924,0.0830517560243606,0.0,0.0,-0.1414168281320986,0.6522073265393968
-0.0375524535775184,1.2296686172485352,-0.1555599272251129,-0.2798674404621124,0.0736534744501113,0.0544640943408012,0.0,0.0,0.1546945333049307,-0.1203604912900221
-0.0392340645194053,1.2236450910568235,-0.1704676300287246,-0.2678276598453522,0.0759333819150924,0.0456023141741752,0.0,0.0,-0.624692103219672,0.9385351309892254
-0.0408785827457904,1.2172199487686155,-0.1653262376785278,-0.2856074869632721,0.0768098384141922,0.0175291858613491,0.0,0.0,0.7972235083127146,0.0458526857406602
-0.042597196996212,1.211585521697998,-0.1727897822856903,-0.2504605650901794,0.0777181163430213,0.0181654132902622,0.0,0.0,0.251941968730061,0.8649464800267755
-0.0444262512028217,1.206498622894287,-0.1819987744092941,-0.2260378450155258,0.0768271535634994,-0.0178191270679235,0.0,0.0,-0.854078761774349,0.1023878609310717
-0.046269129961729,1.2010202407836914,-0.1834023594856262,-0.2434391677379608,0.0759441182017326,-0.0176605805754661,0.0,0.0,-0.0865496827193814,0.7569654496897675
-0.0480661392211914,1.1951539516448977,-0.1773497611284256,-0.2605998814105987,0.0736122652888298,-0.0466371104121208,0.0,0.0,-0.2434117188788729,0.839444393199974
-0.0498051643371582,1.1889135837554932,-0.1698048710823059,-0.2771604359149933,0.0695569887757301,-0.0811054185032844,0.0,0.0,-0.92152202129364,0.5657727718353271
-0.0515128150582313,1.182282567024231,-0.1656693518161773,-0.2944826781749725,0.0645216107368469,-0.100707784295082,0.0,0.0,-0.7675939798355103,0.2881499528884887
-0.0532258041203022,1.1752604246139526,-0.1662047952413559,-0.3118859529495239,0.0594834573566913,-0.1007629409432411,0.0,0.0,-0.629152238368988,0.7850114107131958
-0.0548862442374229,1.1678450107574463,-0.1595266759395599,-0.3293294012546539,0.053044106811285,-0.1287871748208999,0.0,0.0,-0.7145532369613647,0.7923927307128906
-0.0564832687377929,1.160045504570007,-0.151540607213974,-0.3463750183582306,0.044976357370615,-0.1613548547029495,0.0,0.0,-0.8146275877952576,0.7599654197692871
-0.0580172538757324,1.1518656015396118,-0.1436385810375213,-0.3632956445217132,0.0353384427726268,-0.1927585005760193,0.0,0.0,-0.8828326463699341,0.8983571529388428
-0.0594794265925884,1.1432945728302002,-0.1347195357084274,-0.3807078599929809,0.0239774212241172,-0.2272203266620636,0.0,0.0,-0.9150331616401672,0.495041012763977
-0.0609358772635459,1.134333610534668,-0.1341107636690139,-0.3981198072433471,0.0125989075750112,-0.227570578455925,0.0,0.0,-0.8940956592559814,0.5365991592407227
-0.0623445510864257,1.1249899864196775,-0.1283039599657058,-0.4152250587940216,0.000202134338906,-0.247935488820076,0.0,0.0,-0.4236087799072265,0.8273049592971802
-0.0636743530631065,1.115257740020752,-0.1186532005667686,-0.4325910806655884,-0.0139406053349375,-0.2828548848628998,0.0,0.0,-0.9216583967208862,-0.0636230111122131
-0.064991757273674,1.1051368713378906,-0.1173906102776527,-0.4500089883804321,-0.0281099155545234,-0.2833862602710724,0.0,0.0,-0.961520254611969,0.8287835121154785
-0.0662157088518142,1.0946223735809326,-0.1060137748718261,-0.4676961302757263,-0.0442952997982502,-0.3237077593803406,0.0,0.0,-0.8962214589118958,0.6498222351074219
-0.0673638358712196,1.0837090015411377,-0.0968832895159721,-0.4856595695018768,-0.0620157942175865,-0.3544098734855652,0.0,0.0,-0.8651744723320007,0.2387139797210693
-0.0684935599565506,1.0724084377288818,-0.0950293093919754,-0.5030872225761414,-0.0797716081142425,-0.3551165461540222,0.0,0.0,-0.618014931678772,-0.5032974481582642
-0.0696457847952842,1.0607192516326904,-0.0983448103070259,-0.5204960703849792,-0.0964972302317619,-0.3345123827457428,0.0,0.0,-0.3479499816894531,-0.3821215629577636
-0.0707760825753212,1.0486422777175903,-0.0961396843194961,-0.5379209518432617,-0.1132639721035957,-0.3353350758552551,0.0,0.0,0.7120614051818848,-0.8275296688079834
-0.0718266516923904,1.0368624925613403,-0.0899223908782005,-0.5247682929039001,-0.1283002644777298,-0.3007257282733917,0.0,0.0,-0.9150793552398682,-0.9932210445404052
-0.072943590581417,1.0247219800949097,-0.0989203006029129,-0.5407202839851379,-0.1410246044397354,-0.2544871568679809,0.0,0.0,-0.3124363422393799,-0.987498700618744
-0.0741276741027832,1.012220859527588,-0.1080242618918418,-0.5566304922103882,-0.1513852924108505,-0.2072136849164962,0.0,0.0,0.0609643459320068,-0.8715552091598511
-0.075319193303585,0.9998305439949036,-0.1104625687003135,-0.5515943765640259,-0.1600575596094131,-0.173445463180542,0.0,0.0,0.7247805595397949,-0.6287482976913452
-0.0762763991951942,0.9879053831100464,-0.0886437371373176,-0.5307854413986206,-0.1671330779790878,-0.1415106207132339,0.0,0.0,-0.8467479944229126,-0.7190840244293213
-0.0772645026445388,0.975609540939331,-0.0932675153017044,-0.5471136569976807,-0.1726848483085632,-0.1110353022813797,0.0,0.0,-0.8934875130653381,-0.9020198583602904
-0.0782797783613205,0.9629326462745668,-0.0974016040563583,-0.5638984441757202,-0.1768197417259216,-0.0826976671814918,0.0,0.0,-0.807266116142273,-0.9672171473503112
-0.0793368369340896,0.9498935341835022,-0.1034578457474708,-0.5797910690307617,-0.1790821999311447,-0.0452489629387855,0.0,0.0,-0.997986376285553,-0.9267524480819702
-0.0804158225655555,0.9364742040634156,-0.1069775968790054,-0.5965239405632019,-0.1800124943256378,-0.0186062511056661,0.0,0.0,-0.9613991379737854,-0.9215652346611024
-0.0815448760986328,0.9226823449134828,-0.1140379682183265,-0.6128399968147278,-0.1788704693317413,0.0228406507521867,0.0,0.0,-0.993279218673706,-0.9278010725975036
-0.0826993957161903,0.9085238575935364,-0.1180897206068039,-0.628946840763092,-0.1762216091156005,0.0529771372675895,0.0,0.0,-0.9922299981117249,-0.8009738326072693
-0.083866499364376,0.8939902782440186,-0.1205182299017906,-0.6454906463623047,-0.1724035888910293,0.0763604864478111,0.0,0.0,-0.9037604928016664,0.394377589225769
-0.0849978476762771,0.8790654540061951,-0.1168826073408126,-0.662894070148468,-0.1686581373214721,0.0749092996120452,0.0,0.0,-0.9284446835517884,-0.6298531889915466
-0.0861476883292198,0.863768994808197,-0.1200720518827438,-0.6792680621147156,-0.1635625213384628,0.1019123196601867,0.0,0.0,-0.7395367622375488,0.0595824718475341
-0.0872606262564659,0.8480817675590515,-0.1163217425346374,-0.6966724991798401,-0.1585432887077331,0.1003846377134323,0.0,0.0,-0.6259233355522156,0.3501111268997192
-0.0883364677429199,0.8320032358169556,-0.1125210896134376,-0.7140767574310303,-0.1536022424697876,0.0988207310438156,0.0,0.0,-0.2521684765815735,0.1868753433227539
-0.0893744453787803,0.8155338764190674,-0.10867440700531,-0.7314808964729309,-0.1487411558628082,0.0972219258546829,0.0,0.0,-0.4431227445602417,-0.1356704235076904
-0.09037446975708,0.7986734509468079,-0.104785606265068,-0.7488850951194763,-0.1439616680145263,0.0955896154046058,0.0,0.0,-0.2523100972175598,0.3574385643005371
-0.0913359671831131,0.7814217805862427,-0.1008583530783653,,-0.1392654180526733,0.0939250439405441,0.0,0.0,-0.0565947294235229,0.3176954984664917
-0.0922586470842361,0.7637791037559509,-0.0968959257006645,-0.7836931943893433,-0.1346539407968521,0.0922295227646827,0.0,0.0,0.5626729726791382,0.0280069112777709
-0.0930133834481239,0.7469446063041687,-0.0801140144467353,-0.7477949261665344,-0.1300348788499832,0.0923812612891197,0.0,0.0,0.0309463739395141,0.1190201044082641
-0.0936543494462966,0.7299802899360657,-0.0688823089003562,-0.7535577416419983,-0.1252665668725967,0.0953661054372787,0.0,0.0,0.2441005706787109,0.5072588920593262
-0.0941129699349403,0.7135756015777588,-0.0496020168066024,-0.7287825345993042,-0.1215489357709884,0.0743525698781013,0.0,0.0,-0.672958493232727,0.1796197891235351
-0.0945318192243576,0.6967798471450806,-0.0455268807709217,-0.7461857199668884,-0.1179216429591178,0.0725456774234771,0.0,0.0,0.2419005632400512,0.3879431486129761
-0.0949191078543663,0.6803632974624634,-0.04197309166193,-0.7293760776519775,-0.11470527946949,0.0643272101879119,0.0,0.0,-0.1617720127105713,0.2663667201995849
-0.0952662453055381,0.6635553240776062,-0.0378553196787834,-0.7467790842056274,-0.1115816980600357,0.0624718777835369,0.0,0.0,0.4398002624511719,0.114542007446289
-0.0956025123596191,0.647472083568573,-0.036155205219984,-0.714626669883728,-0.1090713515877723,0.0502068325877189,0.0,0.0,0.0106241703033447,0.1559237241744995
-0.0958149880170822,0.6315168738365173,-0.023896936327219,-0.7089306116104126,-0.106448084115982,0.0524651892483234,0.0,0.0,-0.0103042721748352,-0.3791145086288452
-0.0959868431091308,0.615170419216156,-0.019728410989046,-0.7263332605361938,-0.1039207875728607,0.0505456924438476,0.0,0.0,0.626924991607666,-0.729880690574646
-0.0960695296525955,0.5989001393318176,-0.0123237427324056,-0.7228487730026245,-0.0998924598097801,0.0805666521191597,0.0,0.0,0.5890607833862305,0.2721140384674072
-0.0961088165640831,0.5827304720878601,-0.0077543491497635,-0.7184033989906311,-0.0961026102304458,0.0757971778512001,0.0,0.0,0.3193879127502441,0.4958813190460205
-0.0960529297590255,0.5671162605285645,0.0018984552007168,-0.693731427192688,-0.0924424082040786,0.0732037052512168,0.0,0.0,0.0617130994796752,-0.1354594230651855
-0.0958561897277832,0.5518867373466492,0.0158381275832653,-0.6766361594200134,-0.0886438861489296,0.0759705603122711,0.0,0.0,-0.3661261200904846,0.4891042709350586
-0.0956182479858398,0.5362659096717834,0.0200644582509994,-0.6940393447875977,-0.0849456712603569,0.0739642456173896,0.0,0.0,0.3358514308929443,0.0336463451385498
-0.0954204574227333,0.5206674933433533,0.0166368056088686,-0.6930884122848511,-0.0818324461579322,0.0622644834220409,0.0,0.0,0.5180505514144897,-0.3556046485900879
-0.0950849503278732,0.5057591199874878,0.030340040102601,-0.6624229550361633,-0.0786494985222816,0.0636588558554649,0.0,0.0,0.0259867906570434,-0.4685207009315491
-0.0947425812482833,0.4910012483596802,0.0314192362129688,-0.6557588577270508,-0.0758599936962127,0.0557899363338947,0.0,0.0,0.625838041305542,-0.1703735589981079
-0.0943619757890701,0.4768559336662292,0.0356047675013542,-0.6285609602928162,-0.0734230428934097,0.0487391427159309,0.0,0.0,-0.6986710429191589,-0.5525140166282654
-0.0939840301871299,0.4623269438743591,0.0342987887561321,-0.645564615726471,-0.0699667707085609,0.0691255927085876,0.0,0.0,0.2072479724884033,-0.068306028842926
-0.0934712439775466,0.4480361342430115,0.0475956238806247,-0.6349775195121765,-0.0663197934627533,0.0729396566748619,0.0,0.0,0.04115891456604,-0.3013327121734619
-0.092887595295906,0.4336755275726318,0.054715372622013,-0.6380937695503235,-0.0627082139253616,0.0722315162420272,0.0,0.0,0.4518060684204101,0.0242673158645629
-0.0921586975455284,0.4194456338882446,0.0689606219530105,-0.6322794556617737,-0.0588245093822479,0.0776741877198219,0.0,0.0,0.4475709199905395,-0.3268271684646606
-0.0912300124764442,0.4055624008178711,0.0884444564580917,-0.6168657541275024,-0.0544498488306999,0.0874932557344436,0.0,0.0,-0.1226405501365661,-0.3958891034126282
-0.0902595520019531,0.3912879526615143,0.0927214622497558,-0.6342689394950867,-0.0501808524131774,0.0853797867894172,0.0,0.0,0.662527322769165,-0.2978907823562622
-0.0892151817679405,0.3777553141117096,0.100251592695713,-0.6013181209564209,-0.0460442826151847,0.0827313810586929,0.0,0.0,0.2819859981536865,-0.2893141508102417
-0.0880780220031738,0.3647117018699646,0.1095284223556518,-0.5795928835868835,-0.0419029593467712,0.0828263834118843,0.0,0.0,0.1977312564849853,-0.1080590486526489
-0.0867885574698448,0.3519959449768066,0.1244340538978576,-0.5650246143341064,-0.0374505743384361,0.0890477076172828,0.0,0.0,0.0276128053665161,-0.60630863904953
-0.0854272842407226,0.3391858041286468,0.1304256319999694,-0.5692088007926941,-0.0318115465342998,0.1127805933356285,0.0,0.0,-0.0971683263778686,-0.0943388938903808
-0.0840241461992263,0.3259845972061157,0.1347051560878753,-0.58661288022995,-0.0262794587761163,0.1106418520212173,0.0,0.0,0.4219233989715576,0.1386008262634277
-0.0824870094656944,0.3135029077529907,0.1478779017925262,-0.5546515583992004,-0.020517561584711,0.1152378171682357,0.0,0.0,0.3403818607330322,-0.1744438409805297
-0.0809176415205001,0.3013231754302978,0.1513009071350097,-0.5412548780441284,-0.0149504225701093,0.1113427057862281,0.0,0.0,0.2691938877105713,-0.1683586835861206
-0.0793930068612098,0.2896710038185119,0.1473806202411651,-0.5178311467170715,-0.0099327946081757,0.1003526449203491,0.0,0.0,-0.2139956355094909,0.2180578708648681
-0.0778267830610275,0.2776276767253876,0.1516525745391845,-0.5352345108985901,-0.0050224657170474,0.0982065349817276,0.0,0.0,0.4740951061248779,-0.4352397918701172
-0.0762632340192794,0.2661975920200348,0.1517068743705749,-0.5079951286315918,-0.0004404445644468,0.0916404575109481,0.0,0.0,0.128293752670288,-0.2099924087524414
-0.0747143775224685,0.255143404006958,0.1506106853485107,-0.4913049042224884,0.0037729181349277,0.0842673480510711,0.0,0.0,0.1203711032867431,-0.8666223287582397
-0.0732136741280555,0.244201123714447,0.1441772878170013,-0.4863497912883758,0.0095955301076173,0.1164523959159851,0.0,0.0,-0.068472146987915,-0.2776181697845459
-0.0716714859008789,0.2328677475452423,0.1484323590993881,-0.5037537813186646,0.0153110586106777,0.1143102422356605,0.0,0.0,0.1760072708129882,-0.7783294320106506
-0.0702775940299034,0.221696600317955,0.1322473585605621,-0.4965869784355163,0.022358788177371,0.1409544497728347,0.0,0.0,0.4099229574203491,0.1065741777420044
-0.0687657371163368,0.2110571712255478,0.1437349617481231,-0.4729897677898407,0.0297178160399198,0.147180750966072,0.0,0.0,-0.0603821873664855,-0.5574827194213867
-0.0672520622611045,0.2000204920768737,0.143010601401329,-0.4907101392745971,0.0379666723310947,0.1649770438671112,0.0,0.0,0.7835782766342163,-0.0062748789787292
-0.0655720680952072,0.1898365318775177,0.159029334783554,-0.4528705179691314,0.0468335077166557,0.1773365437984466,0.0,0.0,-0.1143651604652404,-0.095840036869049
-0.0638507828116417,0.1792621165513992,0.1632478237152099,-0.47027787566185,0.0555943325161933,0.1752165257930755,0.0,0.0,0.8762897253036499,-0.4318145513534546
-0.0619808211922645,0.1697640269994735,0.1774889528751373,-0.4225168228149414,0.0649990066885948,0.1880936920642852,0.0,0.0,-0.2739439010620117,-0.6069727540016174
-0.0601119026541709,0.1598716080188751,0.1764343678951263,-0.4401504099369049,0.0753536596894264,0.2070929706096649,0.0,0.0,0.1508820056915283,0.2889890670776367
-0.0582499504089355,0.1504390984773636,0.1758633553981781,-0.4197742044925689,0.0855802297592163,0.2045318782329559,0.0,0.0,0.3376502990722656,-0.1893205642700195
-0.0563529953360557,0.1415756493806839,0.1792527884244918,-0.3945616781711578,0.0959297195076942,0.2069898396730423,0.0,0.0,0.0525300502777099,-0.7421961426734924
-0.0544428825378418,0.1327546238899231,0.1791543662548065,-0.3928470611572265,0.1076956912875175,0.2353195697069168,0.0,0.0,0.0465511083602905,-0.1070246696472168
-0.0526116378605365,0.1241154074668884,0.1717474609613418,-0.3848279416561126,0.1190001592040062,0.2260891944169998,0.0,0.0,-0.2889409065246582,-0.7115113139152527
-0.0508078560233116,0.1150723546743393,0.1673782765865326,-0.4029997587203979,0.1319258511066436,0.2585138976573944,0.0,0.0,0.6112744808197021,0.4678655862808227
-0.0490573868155479,0.1064530909061431,0.1622728258371353,-0.3842554092407226,0.144652709364891,0.2545370459556579,0.0,0.0,0.6442278623580933,0.5222295522689819
-0.0472755432128906,0.0982461795210838,0.1665112674236297,-0.3659310936927795,0.1563095152378082,0.2331361323595047,0.0,0.0,0.4307161569595337,-0.0279854536056518
-0.0453909859061241,0.0901371091604232,0.1763797104358673,-0.3617163002490997,0.168389543890953,0.2416005134582519,0.0,0.0,0.6780722141265869,-0.4202833175659179
-0.0434859283268451,0.0826902985572815,0.1780885010957718,-0.3324278593063354,0.1808285117149353,0.2487793266773224,0.0,0.0,0.3204927444458008,0.2842156887054443
-0.0416382774710655,0.075810395181179,0.1723918914794922,-0.3073308765888214,0.1932622641324997,0.2486749142408371,0.0,0.0,0.1766455173492431,0.3858287334442138
-0.0397500991821289,0.0688808560371398,0.1763571202754974,-0.3096532821655273,0.2058090418577194,0.2509354054927826,0.0,0.0,0.4220529794692993,0.3574389219284057
