x_pos,y_pos,x_vel,y_vel,angle,ang_vel,leg_1,leg_2,main_booster,lat_booster
-0.0015267372364178,1.403395414352417,-0.1543698608875274,-0.3344331979751587,0.0015161841874942,0.0298898331820964,0.0,0.0,-0.4311217069625854,0.400945782661438
-0.0030569075606763,1.3956646919250488,-0.1542181968688964,-0.3435883224010467,0.0026979122776538,0.0236374735832214,0.0,0.0,0.0786869525909423,0.8598272800445557
-0.0044216155074536,1.388094425201416,-0.135647565126419,-0.3364540636539459,0.0018895996036008,-0.0161679275333881,0.0,0.0,-0.1004528403282165,-0.3993639945983886
-0.0057898522354662,1.380294919013977,-0.1356296241283416,-0.3466433584690094,0.0007151933968998,-0.0234903637319803,0.0,0.0,-0.2501571774482727,0.2637422084808349
-0.0071617127396166,1.3722662925720217,-0.1355917751789093,-0.3568253219127655,-0.0008594780811108,-0.031496487557888,0.0,0.0,-0.1648416519165039,0.0883729457855224
-0.0085373874753713,1.3640086650848389,-0.1355346143245697,-0.367008239030838,-0.0028655531350523,-0.0401254370808601,0.0,0.0,0.0095981359481811,0.5018737316131592
-0.0098917009308934,1.356051325798035,-0.131900817155838,-0.3536721765995025,-0.0063548726029694,-0.0697931125760078,0.0,0.0,0.2314810752868652,0.0471717119216918
-0.0111354831606149,1.3485872745513916,-0.1208953037858009,-0.3317555785179138,-0.0098016820847988,-0.0689425468444824,0.0,0.0,-0.1962028741836547,-0.3095906376838684
-0.0123833660036325,1.3408942222595217,-0.1207853928208351,-0.3419432640075683,-0.0137639045715332,-0.0792516320943832,0.0,0.0,-0.4817841649055481,0.4258205890655517
-0.0136354444548487,1.332972288131714,-0.1206601709127426,-0.3521259427070617,-0.0182649325579404,-0.0900286510586738,0.0,0.0,-0.3293591737747192,0.275653600692749
-0.014891910366714,1.324821949005127,-0.1205217093229293,-0.3623110055923462,-0.0233274586498737,-0.1012600064277648,0.0,0.0,-0.3396250605583191,-0.0254493355751037
-0.0161526687443256,1.3164429664611816,-0.1203710585832595,-0.372497022151947,-0.0289724431931972,-0.1129101291298866,0.0,0.0,-0.5116193890571594,0.15084969997406
-0.0174180027097463,1.3078356981277466,-0.1202094331383705,-0.3826838135719299,-0.0352191850543022,-0.1249463558197021,0.0,0.0,-0.2911110520362854,-0.0881854891777038
-0.0186877250671386,1.2990001440048218,-0.1200381740927696,-0.3928716778755188,-0.0420855283737182,-0.1373392045497894,0.0,0.0,-0.1396586894989013,-0.0980334281921386
-0.0199621208012104,1.2899364233016968,-0.1198586821556091,-0.4030605852603912,-0.0495878495275974,-0.150060161948204,0.0,0.0,-0.2575911283493042,0.0531208515167236
-0.021241283044219,1.280644774436951,-0.1196723207831382,-0.4132508337497711,-0.0577412359416484,-0.163082867860794,0.0,0.0,-0.5368189215660095,0.1621272563934326
-0.0225251205265522,1.2711254358291626,-0.1194804683327674,-0.4234426617622375,-0.0665595531463623,-0.1763822883367538,0.0,0.0,-0.6315441727638245,-0.3412789702415466
-0.0238137245178222,1.2613787651062012,-0.1192845106124877,-0.4336362183094024,-0.0760554373264312,-0.1899351626634597,0.0,0.0,-0.6688432097434998,-0.2646790742874145
-0.0251072887331247,1.2514050006866455,-0.1190859302878379,-0.4438317716121673,-0.0862405598163604,-0.2037205249071121,0.0,0.0,-0.8188682794570923,0.4012327194213867
-0.0264057163149118,1.2412041425704956,-0.118886187672615,-0.4540294706821441,-0.0971254557371139,-0.2177176028490066,0.0,0.0,-0.5511951446533203,-0.1731048822402954
-0.0277091972529888,1.2307770252227783,-0.1186867803335189,-0.4642294347286224,-0.1087198257446289,-0.2319079339504242,0.0,0.0,-0.5536502599716187,-0.1198445558547973
-0.0290178302675485,1.220123529434204,-0.1184891685843467,-0.4744317829608917,-0.1210324540734291,-0.2462743818759918,0.0,0.0,-0.5506887435913086,-0.6624290943145752
-0.030372429639101,1.209250569343567,-0.1234200596809387,-0.4842627346515655,-0.1330349594354629,-0.2400718033313751,0.0,0.0,-0.7267847061157227,-0.7865696549415588
-0.0317876823246479,1.198153734207153,-0.130149707198143,-0.4942436516284942,-0.144387200474739,-0.2270648926496505,0.0,0.0,-0.1759065389633178,-0.6174466609954834
-0.0332678779959678,1.1868454217910769,-0.1374525129795074,-0.5036473274230957,-0.154954046010971,-0.2113559246063232,0.0,0.0,0.3570320606231689,-0.3878231048583984
-0.0347850807011127,1.176174879074097,-0.1398540735244751,-0.4755281209945678,-0.1668226718902588,-0.2373722344636917,0.0,0.0,-0.7393492460250854,-0.7976604104042053
-0.0363696105778217,1.1652990579605105,-0.1474366188049316,-0.4846418797969818,-0.1778549253940582,-0.2206452786922454,0.0,0.0,-0.2748616933822632,-0.7765296697616577
-0.0380328185856342,1.15422523021698,-0.1564674228429794,-0.4933846294879913,-0.1877467036247253,-0.1978356540203094,0.0,0.0,-0.8092852234840393,-0.614596426486969
-0.0397598259150981,1.14294695854187,-0.1636025160551071,-0.5024400353431702,-0.1968985497951507,-0.1830370277166366,0.0,0.0,-0.0897992253303527,-0.6397374868392944
-0.0415452942252159,1.131455659866333,-0.1699992418289184,-0.5118882656097412,-0.2054906338453292,-0.1718417406082153,0.0,0.0,-0.5095915794372559,-0.2301180362701416
-0.043337345123291,1.1197383403778076,-0.1699332743883133,-0.5220887064933777,-0.2148549556732177,-0.1872868686914444,0.0,0.0,-0.3638373613357544,-0.4281859993934631
-0.0451365485787391,1.1077953577041626,-0.1698860377073288,-0.5322909355163574,-0.2249950766563415,-0.202802300453186,0.0,0.0,-0.1451592445373535,-0.1338355541229248
-0.0469428077340126,1.0956270694732666,-0.1698589324951172,-0.54249507188797,-0.2359141111373901,-0.2183810472488403,0.0,0.0,0.6202754974365234,-0.8443619012832642
-0.048807431012392,1.0837897062301636,-0.1765151172876358,-0.5277314186096191,-0.2460269033908844,-0.202255442738533,0.0,0.0,-0.4376153945922851,-0.7673513293266296
-0.0507365241646766,1.0717501640319824,-0.1836985200643539,-0.536663830280304,-0.2554147839546203,-0.1877576410770416,0.0,0.0,-0.1233327984809875,-0.6772320866584778
-0.0527228340506553,1.0595097541809082,-0.1899652332067489,-0.5455516576766968,-0.2642568945884704,-0.1768418699502945,0.0,0.0,0.1458032131195068,-0.6138144135475159
-0.0547016151249408,1.04752516746521,-0.1896514892578125,-0.5341611504554749,-0.2726781666278839,-0.1684257239103317,0.0,0.0,-0.5479223728179932,-0.7041448354721069
-0.0567378029227256,1.0353412628173828,-0.1959545463323593,-0.5429572463035583,-0.2805483341217041,-0.1574035584926605,0.0,0.0,0.8289786577224731,-0.9206562638282776
-0.058638572692871,1.024336338043213,-0.1834048181772232,-0.4904055297374725,-0.2874127924442291,-0.1372887641191482,0.0,0.0,-0.0693228244781494,-0.778728723526001
-0.0606042854487896,1.0131317377090454,-0.1905999779701233,-0.4991737306118011,-0.2935630083084106,-0.1230045780539512,0.0,0.0,-0.7966318726539612,-0.4767324328422546
-0.0625792518258094,1.001701593399048,-0.1907715201377868,-0.5093772411346436,-0.3005084991455078,-0.1389099508523941,0.0,0.0,0.6013431549072266,-0.3545100688934326
-0.064299389719963,0.9907202124595642,-0.1650609523057937,-0.4895214140415191,-0.3076970279216766,-0.1437707394361496,0.0,0.0,0.5579378604888916,-0.9236444234848022
-0.0659127235412597,0.0,-0.155553251504898,-0.4815796911716461,-0.3136921226978302,-0.1199019327759742,0.0,0.0,-0.2321516871452331,-0.6485786437988281
-0.0675771683454513,0.9688978791236876,-0.1609628647565841,-0.4907335638999939,-0.3193826973438263,-0.1138115674257278,0.0,0.0,-0.5962934494018555,-0.4650472402572632
-0.0692520141601562,0.9576579332351683,-0.1612586081027984,-0.5009382963180542,-0.3258722424507141,-0.1297906786203384,0.0,0.0,-0.5458058714866638,-0.8182670474052429
-0.0709960013628006,0.9462136626243592,-0.1688796728849411,-0.5098930597305298,-0.3316267728805542,-0.1150897592306137,0.0,0.0,-0.7198935151100159,-0.9558565616607666
-0.072816178202629,0.9345720410346984,-0.1774255335330963,-0.518466055393219,-0.3364310264587402,-0.0960850194096565,0.0,0.0,0.3584741353988647,-0.670863926410675
-0.07456636428833,0.923759400844574,-0.1708113849163055,,-0.3408263623714447,-0.0879069119691848,0.0,0.0,-0.0308781266212463,-0.6373825669288635
-0.0763846412301063,0.9127573370933532,-0.1784019768238067,-0.4897939264774322,-0.3444234728813171,-0.0719423443078994,0.0,0.0,-0.7760545015335083,-0.7305005788803101
-0.078271672129631,0.9015581011772156,-0.1859877258539199,-0.4983956515789032,-0.3472746908664703,-0.0570244900882244,0.0,0.0,0.4539880752563476,0.0755853652954101
-0.0798816680908203,0.8907780647277832,-0.1580692678689956,-0.479826807975769,-0.3503426313400268,-0.0613590292632579,0.0,0.0,-0.6150782108306885,-0.9181584119796752
-0.0815773010253906,0.8798189163208008,-0.1678559780120849,-0.4874886870384216,-0.3521413803100586,-0.0359747968614101,0.0,0.0,0.3544508218765259,-0.810224175453186
-0.0831264480948448,0.8691241145133972,-0.1541272401809692,-0.4755241274833679,-0.352971076965332,-0.0165938921272754,0.0,0.0,0.5067980289459229,-0.9756189584732056
-0.084504410624504,0.0,-0.1381664425134658,-0.437684029340744,-0.3525861203670501,0.007699133362621,0.0,0.0,0.2447444200515747,-0.8972428441047668
-0.0857149139046669,0.8496820330619812,-0.1224576234817504,-0.4259653985500335,-0.3511004745960235,0.0297131948173046,0.0,0.0,0.0707525014877319,-0.8413006663322449
-0.0869657546281814,0.8403628468513489,-0.1273584365844726,-0.4136351943016052,-0.3487057387828827,0.0478939972817897,0.0,0.0,0.0651048421859741,-0.9142420291900636
-0.0880538001656532,0.8315504789352417,-0.1121035069227218,-0.3908660113811493,-0.3452379107475281,0.0693561509251594,0.0,0.0,0.5764590501785278,-0.8672276735305786
-0.0888637527823448,0.8233842253684998,-0.0854367315769195,-0.3618852198123932,-0.3405852019786834,0.0930540710687637,0.0,0.0,0.0811221599578857,-0.6587685346603394
-0.0895042419433593,0.8157590627670288,-0.0690888464450836,-0.3377123773097992,-0.3353143334388733,0.1054180637001991,0.0,0.0,-0.3549156188964844,-0.3709452748298645
-0.0901605635881424,0.8079085350036621,-0.069913849234581,-0.3479177355766296,-0.3308394253253937,0.0894973650574684,0.0,0.0,-0.0223935842514038,-0.6450627446174622
-0.0908781066536903,0.7998501658439636,-0.0764406025409698,-0.3570877015590668,-0.3259593248367309,0.0976017564535141,0.0,0.0,-0.2420401573181152,-0.9013370275497437
-0.0916894897818565,0.7916107177734375,-0.0871323347091674,-0.3648646771907806,-0.319720447063446,0.124777540564537,0.0,0.0,-0.2949351072311401,-0.7123024463653564
-0.0925602912902832,0.7831652760505676,-0.0934392213821411,-0.3739670515060425,-0.3131206929683685,0.1319949775934219,0.0,0.0,-0.8518210649490356,-0.2805019617080688
-0.0934483557939529,0.7744943499565125,-0.0944015905261039,-0.3841721415519714,-0.3073119819164276,0.1161736994981765,0.0,0.0,-0.9388197660446168,-0.3788545131683349
-0.0943537726998329,0.7655979990959167,-0.095396414399147,-0.3943759799003601,-0.3022928237915039,0.1003840193152427,0.0,0.0,-0.9816625714302064,-0.2685115337371826
-0.095277115702629,0.756476104259491,-0.0964231565594673,-0.40457883477211,-0.298061341047287,0.0846287757158279,0.0,0.0,-0.7074341773986816,-0.4444445371627807
-0.0962185859680175,0.7471282482147217,-0.0974812135100364,-0.4147807657718658,-0.294615775346756,0.068911001086235,0.0,0.0,-0.7530195713043213,-0.8469972014427185
-0.097235582768917,0.7375699877738953,-0.1057192832231521,-0.4240055978298187,-0.2904771268367767,0.0827728286385536,0.0,0.0,-0.9803088903427124,-0.49350106716156
-0.098271369934082,0.7277857661247253,-0.1068383455276489,-0.4342069029808044,-0.2871201336383819,0.0671399384737014,0.0,0.0,-0.9731321930885316,-0.3147534132003784
-0.0993261337280273,0.7177755832672119,-0.1079865545034408,-0.4444074630737304,-0.2845423817634582,0.051555048674345,0.0,0.0,-0.991304099559784,-0.8546205163002014
-0.10047397762537,0.7075753211975098,-0.1184881925582885,-0.4526239931583404,-0.2807384431362152,0.0760789141058921,0.0,0.0,-0.9756735563278198,-0.5302817821502686
-0.101679228246212,0.6971666216850281,-0.1244776844978332,-0.4618584215641022,-0.2766864597797394,0.0810396149754524,0.0,0.0,-0.959082305431366,-0.6360244154930115
-0.1029615402221679,0.6865635514259338,-0.1329586505889892,-0.4703573286533355,-0.2718329131603241,0.0970708727836608,0.0,0.0,-0.9666358232498168,-0.5408044457435608
-0.1042998284101486,0.6757497191429138,-0.138760045170784,-0.4797134101390838,-0.2667846381664276,0.1009648591279983,0.0,0.0,-0.9134671092033386,-0.3507525324821472
-0.105658434331417,0.6647096276283264,-0.1400429755449295,-0.4899134933948517,-0.2625003159046173,0.0856871679425239,0.0,0.0,-0.9940786361694336,-0.7148710489273071
-0.1070870384573936,0.653455376625061,-0.1475635468959808,-0.4993476569652557,-0.2576993703842163,0.0960189625620842,0.0,0.0,-0.995507836341858,-0.5877273678779602
-0.1085845008492469,0.641988217830658,-0.154934674501419,-0.5087549686431885,-0.252408355474472,0.1058210581541061,0.0,0.0,-0.9546842575073242,-0.3402538299560547
-0.1101028472185134,0.630294680595398,-0.1562876552343368,-0.5189541578292847,-0.2478685826063156,0.090795449912548,0.0,0.0,-0.7590734958648682,-0.5836019515991211
-0.1116798371076583,0.6183950901031494,-0.1624400913715362,-0.528079092502594,-0.2430479377508163,0.0964132398366928,0.0,0.0,-0.910561501979828,-0.5898743867874146
-0.1133306473493576,0.6062948107719421,-0.1704874336719513,-0.5369060635566711,-0.2375504970550537,0.1099487096071243,0.0,0.0,-0.8947955369949341,-0.5221889019012451
-0.1150522232055664,0.5939807295799255,-0.1781109273433685,-0.546348512172699,-0.2315129041671753,0.1207519397139549,0.0,0.0,-0.2077808380126953,0.0315485000610351
-0.1167953461408615,0.5814401507377625,-0.1795451343059539,-0.5565467476844788,-0.226204439997673,0.106169119477272,0.0,0.0,-0.3100776672363281,-0.8113374710083008
-0.1186328902840614,0.5686982274055481,-0.1901730000972747,-0.5653391480445862,-0.2197086215019226,0.1299168020486831,0.0,0.0,0.1960645914077758,0.3873039484024048
-0.1204238906502723,0.5564610362052917,-0.184638112783432,-0.5430601239204407,-0.2141115516424179,0.1119410023093223,0.0,0.0,0.3572460412979126,0.6321858167648315
-0.1220760345458984,0.544829785823822,-0.1687716543674469,-0.5164331197738647,-0.2105118483304977,0.071994349360466,0.0,0.0,-0.8467122912406921,0.5714066028594971
-0.1236994713544845,0.5329552888870239,-0.1639171540737152,-0.5275281667709351,-0.2089268863201141,0.0316992290318012,0.0,0.0,-0.9265245199203492,-0.0998364686965942
-0.1253449469804763,0.5208537578582764,-0.1654327809810638,-0.537721574306488,-0.2080318033695221,0.0179012268781662,0.0,0.0,-0.9574228525161744,-0.1859207153320312
-0.1270123422145843,0.508525013923645,-0.1669625341892242,-0.5479146242141724,-0.207816869020462,0.004298607353121,0.0,0.0,-0.7856842875480652,-0.6240094900131226
-0.1287384033203125,0.4959803819656372,-0.1730906516313552,-0.5574705600738525,-0.2073234468698501,0.0098683359101414,0.0,0.0,0.036300778388977,-0.1230171918869018
-0.1303500235080719,0.483544647693634,-0.1613976806402206,-0.5526679158210754,-0.2070838510990142,0.004791890271008,0.0,0.0,0.6790022850036621,-0.36220383644104
-0.1318323165178299,0.4720040559768677,-0.1478025764226913,-0.5129740238189697,-0.2075170278549194,-0.0086635751649737,0.0,0.0,-0.6194549798965454,-0.642310619354248
-0.1333830803632736,0.4602557122707367,-0.1552368104457855,-0.5221229791641235,-0.2073545753955841,0.0032489844597876,0.0,0.0,-0.8866216540336609,-0.1254152059555053
-0.134955883026123,0.4482800364494324,-0.1568263322114944,-0.5323148369789124,-0.2078112959861755,-0.0091340374201536,0.0,0.0,0.8626432418823242,0.4420499801635742
-0.1363634169101715,0.4365819692611694,-0.1402268260717392,-0.5199898481369019,-0.2083462476730346,-0.0106990030035376,0.0,0.0,0.179451584815979,0.9972801208496094
-0.1376845389604568,0.4251765012741089,-0.1290060132741928,-0.507347047328949,-0.2114756852388382,-0.0625887587666511,0.0,0.0,0.3387812376022339,0.575824499130249
-0.1387618035078048,0.4145379960536957,-0.103080615401268,-0.4734966456890106,-0.2161752730607986,-0.0939917415380477,0.0,0.0,-0.0454015135765075,0.6089577674865723
-0.1398157179355621,0.4036573767662048,-0.0990300625562667,-0.4845303297042846,-0.2226064503192901,-0.1286235749721527,0.0,0.0,0.4062731266021728,-0.9087494015693665
-0.1409280747175216,0.3936120271682739,-0.1060599535703659,-0.4472485184669494,-0.2278465330600738,-0.1048015356063842,0.0,0.0,-0.3717484474182129,-0.698201060295105
-0.1421072036027908,0.3833589255809784,-0.1134262233972549,-0.4563958346843719,-0.232393741607666,-0.0909445285797119,0.0,0.0,0.697123646736145,0.6681810617446899
-0.1431360244750976,0.374010682106018,-0.0964616760611534,-0.4165041744709015,-0.2389112263917923,-0.1303497552871704,0.0,0.0,-0.1617800593376159,-0.9099650979042052
-0.1442642211914062,0.364470511674881,-0.1079991683363914,-0.4247941374778747,-0.243804320693016,-0.0978622063994407,0.0,0.0,0.4119725227355957,-0.2908945679664612
-0.1453310996294021,0.3553303480148315,-0.1013463586568832,-0.4071272313594818,-0.2492415755987167,-0.1087448969483375,0.0,0.0,0.5378295183181763,-0.7596026062965393
-0.1464550048112869,0.3468438982963562,-0.1079430803656578,-0.3779374063014984,-0.2537692785263061,-0.0905540585517883,0.0,0.0,0.2947312593460083,-0.2252647876739502
-0.1476103812456131,0.3387703001499176,-0.110180377960205,-0.3597606718540191,-0.2592374086380005,-0.1093626618385315,0.0,0.0,-0.4251830577850342,-0.4837988018989563
-0.1487859785556793,0.330469399690628,-0.1118464916944503,-0.3699521720409393,-0.2650734484195709,-0.1167207360267639,0.0,0.0,0.3519402742385864,-0.673132598400116
-0.1499010026454925,0.3223713636398315,-0.1068839281797409,-0.3607572019100189,-0.2697985470294952,-0.0945018678903579,0.0,0.0,0.3751156330108642,-0.7510787844657898
-0.1507922112941742,0.3149388432502746,-0.0858906656503677,-0.3309338688850403,-0.2731155753135681,-0.066340684890747,0.0,0.0,0.6874446868896484,-0.6655357480049133
-0.1515630781650543,0.308459997177124,-0.0748320668935775,-0.2883691191673279,-0.2754164338111877,-0.0460169836878776,0.0,0.0,0.1582072973251342,-0.4279018640518188
-0.152093693614006,0.3025770187377929,-0.051033217459917,-0.2618545889854431,-0.2775049805641174,-0.0417711958289146,0.0,0.0,0.2606679201126098,0.0307409763336181
-0.1524660140275955,0.2970798313617706,-0.0352463647723197,-0.2446978986263275,-0.2795433700084686,-0.0407679677009582,0.0,0.0,0.784363865852356,-0.31760174036026
-0.1526209861040115,0.2926289439201355,-0.0132915498688817,-0.1982417404651641,-0.2818050384521484,-0.0452334731817245,0.0,0.0,-0.0966500639915466,-0.5953718423843384
-0.1528335511684417,0.2879721224308014,-0.019966498017311,-0.2072170674800872,-0.2831302285194397,-0.0265040751546621,0.0,0.0,0.686870813369751,-0.7726143598556519
-0.1529054641723632,0.2837449014186859,-0.007471936289221,-0.1878227293491363,-0.282842755317688,0.0057494910433888,0.0,0.0,-0.6721331477165222,-0.592870831489563
-0.1530485153198242,0.2793134450912475,-0.0159113891422748,-0.1966443359851837,-0.2811963260173797,0.0329294428229332,0.0,0.0,-0.1898062825202942,-0.5806416273117065
-0.1532622277736663,0.2746748924255371,-0.0243102665990591,-0.2055976688861847,-0.2781787812709808,0.060350626707077,0.0,0.0,-0.5721988677978516,-0.668851375579834
-0.1535450965166092,0.2698296010494232,-0.0325757749378681,-0.2145367562770843,-0.27378049492836,0.0879654362797737,0.0,0.0,-0.6217430233955383,-0.5975020527839661
-0.1538877487182617,0.2647728025913238,-0.039696667343378,-0.2237428128719329,-0.2682157456874847,0.1112951785326004,0.0,0.0,-0.8537755608558655,-0.1296032071113586
-0.1542461365461349,0.2594870626926422,-0.0413205288350582,-0.2339256256818771,-0.2626100778579712,0.1121133342385292,0.0,0.0,-0.629236102104187,0.2586179971694946
-0.154619887471199,0.253972440958023,-0.0429335683584213,-0.2441077977418899,-0.2569316923618316,0.1135678440332412,0.0,0.0,-0.8098397850990295,0.3076751232147217
-0.1550085991621017,0.2482288628816604,-0.0445344075560569,-0.2542894184589386,-0.2511492967605591,0.1156475320458412,0.0,0.0,-0.6181989312171936,0.2408230304718017
