x_pos,y_pos,x_vel,y_vel,angle,ang_vel,leg_1,leg_2,main_booster,lat_booster
-0.0014489174354821,1.402922511100769,-0.1468261778354644,-0.3554555475711822,0.0017293194541707,0.0341096445918083,0.0,0.0,-0.303668737411499,0.8410546779632568
-0.0027512549422681,1.3942418098449707,-0.1301154941320419,-0.3858046531677246,0.0016156127676367,-0.0022736901883035,0.0,0.0,-0.1043027639389038,0.2389473915100097
-0.0039787292480468,1.3848586082458496,-0.1226293593645095,-0.4170331060886383,0.0015087417559698,-0.0021379836834967,0.0,0.0,0.6428382396697998,0.4278274774551391
-0.0052506448701024,1.3755180835723877,-0.1265127956867218,-0.4151314496994018,0.0008398156496696,-0.0133798345923423,0.0,0.0,0.315517783164978,0.7943886518478394
-0.0062699317932128,1.3662569522857666,-0.099826656281948,-0.4116047024726867,-0.0012378259561955,-0.0415571257472038,0.0,0.0,-0.0302023291587829,0.1662359237670898
-0.0072150230407714,1.356293559074402,-0.0924077928066253,-0.4428134262561798,-0.0033085672184824,-0.0414188168942928,0.0,0.0,-0.6609477400779724,-0.4680683612823486
-0.0080862045288085,1.3456283807754517,-0.0850217342376709,-0.4740162789821625,-0.0053730164654552,-0.0412929095327854,0.0,0.0,-0.6171010732650757,-0.6455526351928711
-0.008922005072236,1.3342632055282593,-0.0824690908193588,-0.505121111869812,-0.006469246931374,-0.0219270475208759,0.0,0.0,0.440420389175415,-0.4733835458755493
-0.0096904756501317,1.323290467262268,-0.0756930559873581,-0.4876837730407715,-0.0076100430451333,-0.02281797491014,0.0,0.0,-0.7122157216072083,0.4022703170776367
-0.0103863719850778,1.3116153478622437,-0.0684340149164199,-0.5188981294631958,-0.0087447362020611,-0.0226959642022848,0.0,0.0,-0.3419002294540405,-0.6558278799057007
-0.0110544208437204,1.2992392778396606,-0.06678207218647,-0.5500459671020508,-0.0087599987164139,-0.0003055867855437,0.0,0.0,-0.5660813450813293,-0.5559638738632202
-0.0116894720122218,1.286160588264465,-0.0644871965050697,-0.5812739133834839,-0.007797872647643,0.0192441325634717,0.0,0.0,-0.7388496994972229,-0.8043035268783569
-0.0123034473508596,1.2723842859268188,-0.0636375099420547,-0.6122642159461975,-0.0055810040794312,0.0443415716290473,0.0,0.0,-0.1737829446792602,-0.7756061553955078
-0.0129014011472463,1.2578994035720823,-0.0634220689535141,-0.6437662839889526,-0.0019984231330454,0.0716581717133522,0.0,0.0,-0.3181816339492798,-0.3850222826004028
-0.0134300235658884,1.2427124977111816,-0.0564859025180339,-0.674972414970398,0.0015876210527494,0.0717273503541946,0.0,0.0,-0.2713866233825683,-0.3812880516052246
-0.0138900754973292,1.2268236875534058,-0.0496287904679775,-0.706178605556488,0.0051774471066892,0.0718027576804161,0.0,0.0,-0.0633518695831298,-0.4536353945732116
-0.0142823215574026,1.210232853889465,-0.0428576283156871,-0.7373849749565125,0.0087704733014106,0.071866825222969,0.0,0.0,-0.2365354895591735,0.2529304027557373
-0.0146078113466501,1.19294011592865,-0.036179170012474,-0.7685912847518921,0.0123663712292909,0.0719242841005325,0.0,0.0,-0.1391811966896057,0.441646933555603
-0.014867496676743,1.1749454736709597,-0.029600616544485,-0.7997978329658508,0.0159648209810256,0.0719753727316856,0.0,0.0,-0.5290466547012329,0.3176496028900146
-0.0150624271482229,1.1562488079071045,-0.0231295395642519,-0.8310044407844543,0.0195655021816492,0.0720200091600418,0.0,0.0,0.5605562925338745,0.5933881998062134
-0.015030289068818,1.1379247903823853,0.000441405136371,-0.8144372701644897,0.0223015304654836,0.0547252409160137,0.0,0.0,0.6503500938415527,0.2355788946151733
-0.0149340629577636,1.1195619106292725,0.006806518882513,-0.8161762356758118,0.0250938422977924,0.0558514185249805,0.0,0.0,0.1723901033401489,0.2380670309066772
-0.0146943088620901,1.1010797023773191,0.0207154005765914,-0.821488082408905,0.0283157993108034,0.0644446611404419,0.0,0.0,0.0898652076721191,0.3682177066802978
-0.0143548967316746,1.0822062492370603,0.0304818954318761,-0.8388913869857788,0.0317523851990699,0.0687377974390983,0.0,0.0,0.2427411079406738,0.7021278142929077
-0.0140369413420557,1.063355565071106,0.0298935566097497,-0.8378565907478333,0.0336270593106746,0.0374968461692333,0.0,0.0,-0.3850959539413452,0.2291463613510131
-0.0136619564145803,1.0437811613082886,0.035591997206211,-0.8700174689292908,0.0355031788349151,0.0375222824513912,0.0,0.0,0.7424184083938599,0.7056756019592285
-0.0131993293762207,1.024660587310791,0.0457781068980693,-0.8498051166534424,0.0359858013689518,0.0096523659303784,0.0,0.0,0.6198170185089111,0.1007887125015258
-0.0128408428281545,1.0060442686080933,0.0359653048217296,-0.8273932337760925,0.0358770452439785,-0.002175296889618,0.0,0.0,0.0146963596343994,-0.2163563966751098
-0.0125283244997262,0.9874345660209656,0.0317322202026844,-0.827083945274353,0.035399030894041,-0.0095604164525866,0.0,0.0,0.6345603466033936,0.4483518600463867
-0.0122046470642089,0.9688449501991272,0.0329478308558464,-0.8261947631835938,0.0348265618085861,-0.0114493649452924,0.0,0.0,0.4601585865020752,0.5049549341201782
-0.0118025783449411,0.9506837725639344,0.0417572520673275,-0.8071351647377014,0.0332960188388824,-0.0306107066571712,0.0,0.0,0.2898224592208862,-0.6201779842376709
-0.0114832874387502,0.932323694229126,0.0323462784290313,-0.8159863352775574,0.0328799448907375,-0.0083214724436402,0.0,0.0,0.6699361801147461,0.7695493698120117
-0.0111795421689748,0.9144822359085084,0.0325222238898277,-0.7929104566574097,0.0307582598179578,-0.0424336045980453,0.0,0.0,0.2555358409881592,-0.2276042103767395
-0.0108930589631199,0.8963474631309509,0.0310239195823669,-0.8059447407722473,0.0284149106591939,-0.0468670241534709,0.0,0.0,0.2997885942459106,-0.0759827494621276
-0.0105708120390772,0.8782510757446289,0.0345354303717613,-0.8042417168617249,0.0261333677917718,-0.0456309244036674,0.0,0.0,0.2262086868286132,-0.576071560382843
-0.0102599142119288,0.860297441482544,0.0322175994515419,-0.7979171872138977,0.0250277463346719,-0.0221125911921262,0.0,0.0,-0.3197265267372131,0.7625789642333984
-0.0098598478361964,0.8416401743888855,0.042587149888277,-0.8291734457015991,0.022474855184555,-0.0510577633976936,0.0,0.0,0.2857505083084106,-0.0946030020713806
-0.0094152446836233,0.8231701254844666,0.0469009354710578,-0.8208522796630859,0.0200621411204338,-0.0482542663812637,0.0,0.0,0.0158017873764038,0.068796157836914
-0.0089801792055368,0.8047744631767273,0.046063520014286,-0.8175563216209412,0.0175408478826284,-0.0504257902503013,0.0,0.0,0.1208518743515014,-0.0647943019866943
-0.0085112573578953,0.7862958312034607,0.04934898391366,-0.8212501406669617,0.0151117630302906,-0.0485815741121768,0.0,0.0,-0.1023309826850891,-0.7151172757148743
-0.008090591058135,0.7671195268630981,0.0428288727998733,-0.8522704839706421,0.0143602546304464,-0.015030063688755,0.0,0.0,0.2384617328643798,0.3438456058502197
-0.0075679779984056,0.7478316426277161,0.0525829270482063,-0.8572309017181396,0.0140405660495162,-0.0063938410021364,0.0,0.0,0.5580012798309326,0.6673715114593506
-0.006884956266731,0.7282812595367432,0.069747157394886,-0.8688940405845642,0.0126077281311154,-0.0286564622074365,0.0,0.0,0.3351567983627319,-0.1919323205947876
-0.0061192512512207,0.7086710929870605,0.0776396989822387,-0.8715555667877197,0.0115501293912529,-0.0211516954004764,0.0,0.0,0.2710521221160888,-0.5215016603469849
-0.005427265074104,0.6886911392211914,0.0692899525165557,-0.8879961371421814,0.011459382250905,-0.0018151698168367,0.0,0.0,0.6690924167633057,-0.5844330191612244
-0.0047348975203931,0.6685094833374023,0.0680125206708908,-0.8969676494598389,0.0126612829044461,0.0240384452044963,0.0,0.0,0.8549211025238037,-0.0412538647651672
-0.0039837835356593,0.6483797430992126,0.073569118976593,-0.8946694135665894,0.0141843017190694,0.0304601304233074,0.0,0.0,0.8472013473510742,-0.6460062861442566
-0.0034394264221191,0.6289491057395935,0.0519386306405067,-0.8636081218719482,0.0166542325168848,0.0493985787034034,0.0,0.0,0.6327775716781616,0.7102537155151367
-0.0030062675941735,0.6099888682365417,0.0425408035516738,-0.8426910638809204,0.0174200218170881,0.0153158102184534,0.0,0.0,0.759749174118042,-0.4300049543380737
-0.0026197433471679,0.5911383628845215,0.0379712991416454,-0.837807297706604,0.0180855207145214,0.0133101372048258,0.0,0.0,0.2885578870773315,0.0866948366165161
-0.0021480559371411,0.5722568035125732,0.0459711328148841,-0.8391949534416199,0.0192724093794822,0.0237375292927026,0.0,0.0,0.8348548412322998,-0.1726138591766357
-0.0017783164512366,0.5538983941078186,0.03607027977705,-0.8159420490264893,0.0201670210808515,0.0178922899067401,0.0,0.0,0.5279757976531982,-0.490602433681488
-0.001341724419035,0.5354576110839844,0.0422744862735271,-0.8196108341217041,0.0215326119214296,0.0273118913173675,0.0,0.0,0.805598258972168,0.153799295425415
-0.0009500503656454,0.5176222324371338,0.0377668105065822,-0.7927042245864868,0.0229172594845294,0.0276928059756755,0.0,0.0,0.6622858047485352,0.4077577590942383
-0.0004528999270405,0.499825656414032,0.0476078018546104,-0.7909936308860779,0.0249978639185428,0.0416121259331703,0.0,0.0,0.485436201095581,-0.2442474961280822
-8.888244337867945e-05,0.4819590747356415,0.0346951223909854,-0.7940991520881653,0.0266829840838909,0.0337024740874767,0.0,0.0,0.6622136831283569,-0.2189158797264099
0.0003083228948526,0.4645966589450836,0.0375650003552436,-0.7717046737670898,0.0288070160895586,0.0424806848168373,0.0,0.0,0.443479061126709,0.0137785673141479
0.0007658004760742,0.4474209547042846,0.0430254116654396,-0.7634197473526001,0.0314895324409008,0.0536504015326499,0.0,0.0,0.8855109214782715,0.5424740314483643
0.0012804984580725,0.4309639036655426,0.0495878234505653,-0.7314664125442505,0.0333529487252235,0.0372686348855495,0.0,0.0,0.8468136787414551,-0.2797269821166992
0.0016313552623614,0.4151173532009125,0.0336026214063167,-0.7043241858482361,0.0348217524588108,0.0293759852647781,0.0,0.0,0.8283243179321289,-0.41248619556427
0.001972293946892,0.3991860151290893,0.0323356539011001,-0.7080987691879272,0.0365509949624538,0.0345847383141517,0.0,0.0,0.6731650829315186,-0.0285666584968566
0.0021305084228515,0.3836119771003723,0.0145548973232507,-0.6922127604484558,0.0378079749643802,0.0251393802464008,0.0,0.0,0.8775458335876465,-0.0722150802612304
0.0023489953018724,0.3682248294353485,0.0199269894510507,-0.6839247941970825,0.0397107675671577,0.03805598244071,0.0,0.0,0.5310368537902832,0.1587564945220947
0.0025065422523766,0.3529882431030273,0.013726944103837,-0.6772353649139404,0.0417101643979549,0.0399878993630409,0.0,0.0,0.9885363578796388,0.4844863414764404
0.0025906562805175,0.3377733826637268,0.0063503636047244,-0.6762773990631104,0.0437476597726345,0.040750179439783,0.0,0.0,0.9301269054412842,-0.0581464767456054
0.0024351119063794,0.3228816986083984,-0.01692421361804,-0.6618958115577698,0.0451096966862678,0.0272405296564102,0.0,0.0,0.9278855323791504,0.7607259750366211
0.0022546767722815,0.3087990880012512,-0.0179457031190395,-0.6258899569511414,0.0450109727680683,-0.0019744629971683,0.0,0.0,0.9620105028152466,0.7553393840789795
0.0021551132667809,0.2945369482040405,-0.0085772518068552,-0.6338298916816711,0.0436483062803745,-0.0272531602531671,0.0,0.0,0.9692604541778564,0.7559425830841064
0.0020346641540527,0.2811126708984375,-0.0092129036784172,-0.5965557098388672,0.0408519878983497,-0.0559263713657856,0.0,0.0,0.9598902463912964,0.197324514389038
0.0017072677146643,0.2678211629390716,-0.029387068003416,-0.5906451344490051,0.0375283807516098,-0.0664717853069305,0.0,0.0,0.8272683620452881,0.5613133907318115
0.0012134552234783,0.2549491226673126,-0.0445655062794685,-0.5719778537750244,0.0327763445675373,-0.0950405672192573,0.0,0.0,0.9385659694671632,-0.1030266880989074
0.0006561279296875,0.242471843957901,-0.0510805957019329,-0.5544509291648865,0.0281782038509845,-0.0919628143310546,0.0,0.0,0.9334056377410888,0.5551812648773193
-0.0001225471496582,0.2307760566473007,-0.0716081112623214,-0.5197072625160217,0.0219999328255653,-0.1235655918717384,0.0,0.0,0.2685056924819946,0.4897242784500122
-0.0009330749744549,0.2190454304218292,-0.0750399678945541,-0.5212833285331726,0.0160675030201673,-0.1186487898230552,0.0,0.0,0.5266871452331543,0.0910038948059082
-0.0018602370982989,0.2071545273065567,-0.0865439474582672,-0.5284316539764404,0.0099747693166136,-0.1218547821044921,0.0,0.0,0.2461996078491211,-0.3971107602119446
-0.0028194426558911,0.1949305087327957,-0.0899666249752044,-0.5432601571083069,0.0041021252982318,-0.117452934384346,0.0,0.0,0.7453732490539551,-0.4890985488891601
-0.0038953782059252,0.1825426369905471,-0.1014663577079773,-0.5505697727203369,-0.0019430939573794,-0.1209043636918068,0.0,0.0,0.7736465930938721,0.0660003423690795
-0.0050615309737622,0.1707304120063781,-0.1104227751493454,-0.5250065922737122,-0.0080490373075008,-0.1221190840005874,0.0,0.0,0.8319168090820312,0.1139630079269409
-0.0062152864411473,0.159572347998619,-0.1095905900001525,-0.4959576427936554,-0.0137645928189158,-0.114310897886753,0.0,0.0,0.6618525981903076,-0.0416822433471679
-0.0075552938506007,0.1489480882883072,-0.1276544034481048,-0.472260981798172,-0.020023338496685,-0.1251751333475113,0.0,0.0,0.7467801570892334,0.4607678651809692
-0.0091103557497262,0.1381516605615615,-0.1485048979520797,-0.4799517393112182,-0.0269368048757314,-0.1382694393396377,0.0,0.0,0.8972815275192261,0.6175403594970703
-0.0106285093352198,0.1280165463685989,-0.1436793208122253,-0.4506135582923889,-0.0349687747657299,-0.1606391668319702,0.0,0.0,0.6295871734619141,0.7361865043640137
-0.0122649194672703,0.1180340871214866,-0.1537886559963226,-0.4439244270324707,-0.0447046868503093,-0.1947185695171356,0.0,0.0,0.8725361824035645,0.8449316024780273
-0.0139555931091308,0.1085058748722076,-0.1573515832424163,-0.4238640964031219,-0.056279893964529,-0.2315041273832321,0.0,0.0,0.9358320236206056,0.4329266548156738
-0.0157019607722759,0.0995056703686714,-0.1628412008285522,-0.400492399930954,-0.0679450035095214,-0.2333022803068161,0.0,0.0,0.6954772472381592,0.2795726060867309
-0.0174068454653024,0.0906895697116851,-0.1590942740440368,-0.3923810720443725,-0.079221986234188,-0.2255395203828811,0.0,0.0,0.9251059293746948,0.2590752840042114
-0.0191414840519428,0.0817661881446838,-0.1621773838996887,-0.3972269892692566,-0.0903977453708648,-0.2235153615474701,0.0,0.0,0.9825788736343384,0.0838873386383056
-0.0208107940852642,0.0728491619229316,-0.1561550199985504,-0.3969993889331817,-0.1010857969522476,-0.2137612402439117,0.0,0.0,0.9929673671722412,-0.029971957206726
-0.0223236083984375,0.064232550561428,-0.1413190364837646,-0.3836617767810821,-0.1109808012843132,-0.1979000568389892,0.0,0.0,0.9961894750595092,-0.0944008827209472
-0.0237063411623239,0.0555975548923015,-0.1290684640407562,-0.3844863474369049,-0.1201252341270446,-0.1828886866569519,0.0,0.0,0.9991016387939452,-0.1705399751663208
-0.0250772479921579,0.0476166568696498,-0.1278380155563354,-0.3554792702198028,-0.129330575466156,-0.1841068565845489,0.0,0.0,0.9884841442108154,-0.0603076219558715
-0.0263840667903423,0.0402855724096298,-0.1215879917144775,-0.3266385495662689,-0.1383934020996093,-0.1812565475702285,0.0,0.0,0.9956610202789308,-0.3651398420333862
-0.0275217052549123,0.0334194041788578,-0.1053435653448104,-0.3059635758399963,-0.1467906981706619,-0.1679458618164062,0.0,0.0,0.9742112159729004,-0.0718933343887329
-0.028574276715517,0.0264046043157577,-0.0973745137453079,-0.312568187713623,-0.1546613723039627,-0.1574134230613708,0.0,0.0,0.997089982032776,-0.5223807096481323
-0.0297307968139648,0.0196244101971387,-0.1085842028260231,-0.3020943105220794,-0.1617215871810913,-0.1412042379379272,0.0,0.0,0.9980456829071044,0.3419568538665771
-0.0307098384946584,0.0136627526953816,-0.0912959426641464,-0.2656959593296051,-0.1683402508497238,-0.1323729455471038,1.0,0.0,0.8828277587890625,0.7845927476882935
-0.0315027236938476,0.0086747026070952,-0.0855901688337326,-0.2215632647275924,-0.1601733714342117,0.1658430993556976,1.0,0.0,0.8286764621734619,0.2719819545745849
-0.0321476943790912,0.0050076935440301,-0.0911438316106796,-0.1603424251079559,-0.1335246115922927,0.533049464225769,1.0,0.0,0.5123567581176758,0.542412519454956
-0.032487966120243,0.0020998215768486,-0.0743544995784759,-0.1261431574821472,-0.093355044722557,0.8035072088241577,1.0,0.0,0.9086238145828248,0.9672565460205078
-0.0327018722891807,1.113176313083386e-05,-0.0654340609908104,-0.0906851962208747,-0.0496741347014904,0.8737331628799438,1.0,0.0,0.9218790531158448,0.9989817142486572
-0.0329216010868549,-0.0014747047098353,-0.0626626163721084,-0.065186396241188,-0.0094488216564059,0.8045467138290405,1.0,0.0,0.7631280422210693,0.999626874923706
-0.0330893509089946,-0.0028516077436506,-0.0553142838180065,-0.0614017732441425,0.0286259427666664,0.7615262269973755,0.0,1.0,0.0699014663696289,0.9973762035369872
-0.0333423614501953,-0.0037830495275557,-0.0480157658457756,-0.0423263385891914,0.0493434816598892,0.4121574461460113,0.0,1.0,-0.8547974824905396,0.8872640132904053
-0.0336765274405479,-0.0047649885527789,-0.0340548306703567,-0.0436688549816608,0.049954630434513,0.0121796363964676,0.0,1.0,0.0214049816131591,0.8039035797119141
-0.0339953415095806,-0.0052227522246539,-0.0149500500410795,-0.0198680404573678,0.0331815518438816,-0.3355203866958618,0.0,1.0,0.0177252292633056,0.3285912275314331
-0.0343362800776958,-0.0057348394766449,-0.0086272275075316,-0.02238604798913,0.0079864636063575,-0.5039698481559753,1.0,1.0,0.5776842832565308,0.2289302349090576
-0.0344307906925678,-0.0054475925862789,0.0060824481770396,0.0126030128449201,-0.0064089857041835,-0.2867168486118316,1.0,1.0,0.0697144269943237,-0.2551472187042236
-0.0343768112361431,-0.0047265435568988,0.0074655646458268,0.0320271961390972,-0.0084424698725342,-0.0406533069908618,1.0,1.0,-0.3493152260780334,-0.0979090929031372
-0.0342453941702842,-0.0042804386466741,0.0087518906220793,0.0198393445461988,-0.0041130846366286,0.0865877121686935,1.0,1.0,-0.7320345640182495,-0.133298635482788
-0.0341382026672363,-0.0040015960112214,0.0064509115181863,0.0123931169509887,9.141188638750464e-05,0.0840802937746048,1.0,1.0,-0.8609790205955505,0.5643138885498047
-0.0340466499328613,-0.0037755751982331,0.0080895163118839,0.0100415544584393,0.0011467788135632,0.021105820313096,1.0,1.0,-0.3982741832733154,0.2995979785919189
-0.0339749343693256,-0.0035284543409943,0.0070869564078748,0.0109841544181108,0.0012258784845471,0.0015701191732659,1.0,1.0,-0.218323528766632,0.1752841472625732
-0.0339075103402137,-0.0031851315870881,0.0070278914645314,0.0152555219829082,0.0009431727230548,-0.0056498129852116,1.0,1.0,-0.5850280523300171,-0.0145942568778991
-0.0338399894535541,-0.002692820969969,0.0070299198850989,0.0218786019831895,0.0006728363223373,-0.0054030129685997,1.0,1.0,-0.6625832319259644,0.2050601243972778
-0.0337704643607139,-0.0020301365293562,0.0070625119842588,0.0294523313641548,0.0005645486526191,-0.0021627326495945,1.0,1.0,-0.0102482438087463,-0.0512948036193847
-0.0336994156241416,-0.0012058758875355,0.0070888409391045,0.0366350300610065,0.0005864096456207,0.0004388979286886,1.0,1.0,-0.3201406598091125,-0.0355933904647827
-0.0336283668875694,-0.0011064553400501,0.0070869796909391,0.0044172550551593,0.0006053266697563,0.0003781324194278,1.0,1.0,-0.5002263784408569,0.095007300376892
-0.0336054787039756,-0.0011107468744739,0.0023327390663325,-0.0001904888340504,0.0005717061576433,-0.000653063878417,1.0,1.0,-0.6428184509277344,0.0531882047653198
-0.0336132049560546,-0.0011115336092188,-0.0007857173914089,-3.50829322997015e-05,0.0005835733609274,0.0002307548420503,1.0,1.0,-0.6944148540496826,0.081706166267395
-0.0336256995797157,-0.0011115336092188,-0.0012671391014009,-2.468518971454614e-07,0.000602385145612,0.000365935760783,1.0,1.0,-0.3620071411132812,0.1502583026885986
-0.0336313247680664,-0.0011115336092188,-0.0005675380234606,-2.495534658919496e-07,0.0006108260713517,0.0001639424299355,1.0,1.0,-0.3255109190940857,0.1149193048477172
