x_pos,y_pos,x_vel,y_vel,angle,ang_vel,leg_1,leg_2,main_booster,lat_booster
-0.0015798568492755,1.4029496908187866,-0.1594540476799011,-0.354245126247406,0.0013158975634723,0.025924202054739,0.0,0.0,-0.3649924899844401,0.6687109599944386
-0.0031588554847985,1.3943243026733398,-0.1572389900684356,-0.3833504915237427,0.0006672883755527,-0.0129726696759462,0.0,0.0,-0.1270366453548801,-0.577350046632753
-0.0048285485245287,1.3850191831588743,-0.1667098701000213,-0.4135573208332062,0.0004122368991374,-0.0051015871576964,0.0,0.0,0.7102169122426876,-0.9118519797312452
-0.0067624091170728,1.3758118152618408,-0.1942078471183776,-0.4092138409614563,0.0012265746481716,0.0162882264703512,0.0,0.0,-0.5614354854851671,0.5549599605588683
-0.0086973188444972,1.365931510925293,-0.1924653947353363,-0.4391320049762726,0.0002082036226056,-0.0203691683709621,0.0,0.0,0.3217405668564512,0.5452327722119026
-0.0105231283232569,1.356027126312256,-0.180239126086235,-0.4401897490024566,-0.0021100456360727,-0.0463693104684352,0.0,0.0,-0.9949190822908762,-0.956134355756204
-0.0124794961884617,1.3454482555389404,-0.194766566157341,-0.470176488161087,-0.0029674558900296,-0.0171500630676746,0.0,0.0,-0.1365091381725269,-0.5477799035400317
-0.0145198823884129,1.3341963291168213,-0.2034894526004791,-0.5000898838043213,-0.0035138472449034,-0.0109286466613411,0.0,0.0,0.271126741487615,-0.989733046053038
-0.0166975017637014,1.3232464790344238,-0.2186773717403412,-0.4866589307785034,-0.0026103372219949,0.0180716309696435,0.0,0.0,0.2197629316249474,-0.9554411565908232
-0.0189994815737009,1.3124322891235352,-0.2325135022401809,-0.4806276857852936,-0.0003218695346731,0.0457737855613231,0.0,0.0,-0.5232681567132533,0.842618404003753
-0.021274471655488,1.3009437322616575,-0.2273649871349334,-0.5106008648872375,-0.0004501403309404,-0.0025660411920398,0.0,0.0,-0.9727779586414538,0.5445388024231422
-0.0235491748899221,1.2887792587280271,-0.2256063967943191,-0.5406442284584045,-0.0022917457390576,-0.036835853010416,0.0,0.0,-0.4337335364086057,-0.9973787363041524
-0.0259322170168161,1.2759453058242798,-0.2374821603298187,-0.5704010725021362,-0.0030924160964787,-0.0160150788724422,0.0,0.0,-0.2715028794084735,0.6718674655570438
-0.0283015258610248,1.2624300718307495,-0.2341074049472808,-0.6006895303726196,-0.0058892290107905,-0.0559415891766548,0.0,0.0,0.2175982783383252,0.653895092124054
-0.0305438041687011,1.2491567134857178,-0.219765231013298,-0.5899507999420166,-0.0103063033893704,-0.0883496180176734,0.0,0.0,0.5333943766591513,-0.8437610271224817
-0.0327790267765522,1.2356116771697998,-0.2204116135835647,-0.6020229458808899,-0.0133866919204592,-0.061612993478775,0.0,0.0,0.3353856792528555,-0.7018389928124797
-0.0349781028926372,1.2224358320236206,-0.2178896218538284,-0.5856107473373413,-0.0153822526335716,-0.039914421737194,0.0,0.0,-0.6401718814878432,-0.7158524124529859
-0.0372610092163085,1.2085802555084229,-0.2268457859754562,-0.6158284544944763,-0.0168058220297098,-0.0284743942320346,0.0,0.0,0.8328408071217748,0.7656773865516182
-0.0393900871276855,1.1953881978988647,-0.2096704542636871,-0.5863519310951233,-0.0200029648840427,-0.0639488920569419,0.0,0.0,-0.6760125350901138,-0.502766195358197
-0.0416019447147846,1.1815223693847656,-0.2185853272676468,-0.616294801235199,-0.0225805230438709,-0.0515555255115032,0.0,0.0,-0.5484379804257273,-0.5530567530931216
-0.0438848510384559,1.166987061500549,-0.2260315418243408,-0.646041750907898,-0.0248057786375284,-0.0445090197026729,0.0,0.0,0.7130381578897176,-0.8148881132945226
-0.0462425239384174,1.1524624824523926,-0.2346570193767547,-0.6455555558204651,-0.0259008985012769,-0.0219045244157314,0.0,0.0,0.6432508395681982,0.774190335925532
-0.0484164245426654,1.138066291809082,-0.2144774198532104,-0.6398875117301941,-0.0287806466221809,-0.0576003566384315,0.0,0.0,-0.8414125741955032,-0.5959073366220653
-0.0506644248962402,1.122990369796753,-0.2224217653274536,-0.6700825095176697,-0.0311268810182809,-0.0469288378953933,0.0,0.0,-0.864577783862863,0.6435848777069997
-0.052904225885868,1.1072402000427246,-0.2201027870178222,-0.70009845495224,-0.0349653214216232,-0.0767757892608642,0.0,0.0,-0.2338366610861739,0.7796408759834665
-0.0551270470023155,1.0907957553863523,-0.2166922986507415,-0.7310028076171875,-0.0404921174049377,-0.1105358004570007,0.0,0.0,0.4805140523030038,-0.862718236780726
-0.057415772229433,1.0746619701385498,-0.2244990170001983,-0.7171764373779297,-0.0448109395802021,-0.0863764733076095,0.0,0.0,-0.9991265233123934,0.5272339713023463
-0.0596981048583984,1.0578575134277344,-0.2225209176540374,-0.7470522522926331,-0.0504641495645046,-0.1130640357732772,0.0,0.0,-0.5756650875636731,0.5017477678533984
-0.0619743354618549,1.040380835533142,-0.2205965965986251,-0.776997447013855,-0.0574123114347457,-0.1389633119106292,0.0,0.0,0.3199566715999453,-0.520337407847596
-0.0643112212419509,1.02281653881073,-0.2271438539028167,-0.7808912992477417,-0.0638800114393234,-0.1293541342020034,0.0,0.0,0.3758461068474885,0.8704729772552877
-0.0665383338928222,1.0056358575820925,-0.2139188051223755,-0.7639902234077454,-0.0725727677345275,-0.1738554537296295,0.0,0.0,-0.2881439328193664,-0.802939772605896
-0.06885776668787,0.9877848029136658,-0.2244719713926315,-0.7937652468681335,-0.079973354935646,-0.1480118185281753,0.0,0.0,0.718268871307373,-0.8808044791221619
-0.0712940245866775,0.9705345034599304,-0.2372451573610305,-0.7670311331748962,-0.0862849652767181,-0.1262320727109909,0.0,0.0,0.1595104932785034,-0.4359756708145141
-0.0737706199288368,0.9529947638511658,-0.2405768185853958,-0.7799737453460693,-0.0933136492967605,-0.1405736953020095,0.0,0.0,0.1148308515548706,-0.6154621243476868
-0.0762603729963302,0.9354196190834044,-0.2426279485225677,-0.7815206050872803,-0.0996065363287925,-0.1258576810359954,0.0,0.0,-0.1309855580329895,0.2754073143005371
-0.0787650123238563,0.9171711802482604,-0.2436148822307586,-0.8115211725234985,-0.1064069494605064,-0.1360080242156982,0.0,0.0,0.1037040948867797,-0.4589124917984009
-0.0812684074044227,0.8987055420875549,-0.2428961545228958,-0.8212412595748901,-0.1137943193316459,-0.1477475464344024,0.0,0.0,-0.1911923289299011,-0.5201369524002075
-0.0838219672441482,0.8795770406723022,-0.2483912706375122,-0.8507004976272583,-0.1207119226455688,-0.1383522450923919,0.0,0.0,0.7570987939834595,-0.8191525340080261
-0.0863876342773437,0.8611385822296143,-0.2506752014160156,-0.819977879524231,-0.1265792548656463,-0.1173464506864547,0.0,0.0,0.0890693664550781,-0.1729785799980163
-0.0888938903808593,0.8426191806793213,-0.2443148642778396,-0.8236287236213684,-0.1328600943088531,-0.1256168186664581,0.0,0.0,0.3740992546081543,-0.5258889198303223
-0.0914587974548339,0.8244209289550781,-0.2505168318748474,-0.8093529343605042,-0.1388098895549774,-0.1189960837364196,0.0,0.0,0.5696636438369751,-0.5576791167259216
-0.0938806533813476,0.8062698841094971,-0.2371546030044555,-0.8071961998939514,-0.1438260674476623,-0.1003233790397644,0.0,0.0,0.1768226623535156,-0.2788573503494262
-0.0962079018354415,0.7877618074417114,-0.2275265157222747,-0.8230887055397034,-0.1490132957696914,-0.1037441939115524,0.0,0.0,0.5996334552764893,-0.3721710443496704
-0.0983688384294509,0.7693180441856384,-0.2108567208051681,-0.8202534914016724,-0.1542435735464096,-0.104605421423912,0.0,0.0,0.971041202545166,-0.713898241519928
-0.1005878448486328,0.7507383227348328,-0.2174747288227081,-0.826233983039856,-0.1586619615554809,-0.088367685675621,0.0,0.0,0.8579001426696777,-0.5487985610961914
-0.1027391403913497,0.7320331931114197,-0.2114875316619873,-0.8317325115203857,-0.162309780716896,-0.072956345975399,0.0,0.0,0.9417306184768676,-0.349470317363739
-0.1047365218400955,0.7134145498275757,-0.1959417015314102,-0.827914834022522,-0.1661014556884765,-0.0758335515856742,0.0,0.0,0.9955847263336182,-0.7602229118347168
-0.1067711859941482,0.6956713199615479,-0.2003910094499588,-0.7889277935028076,-0.1691803038120269,-0.0615769028663635,0.0,0.0,0.8128705024719238,-0.7788189053535461
-0.1088767051696777,0.6785959005355835,-0.2082421034574508,-0.7591784596443176,-0.1714899688959121,-0.0461936593055725,0.0,0.0,0.5972675085067749,-0.4654825925827026
-0.1109172850847244,0.6615785360336304,-0.2012007236480713,-0.7566548585891724,-0.1743543595075607,-0.0572875328361988,0.0,0.0,-0.3997762799263,-0.8390780687332153
-0.1130057349801063,0.6439005732536316,-0.2068113982677459,-0.785930871963501,-0.1763918101787567,-0.0407493188977241,0.0,0.0,0.9393711090087892,-0.2965788841247558
-0.1150062531232833,0.6268436908721924,-0.1972639113664627,-0.7584202289581299,-0.1791896522045135,-0.0559567399322986,0.0,0.0,0.968841314315796,-0.3552262187004089
-0.1167808547616005,0.6098601222038269,-0.1748272180557251,-0.7551420331001282,-0.1818257570266723,-0.0527220293879509,0.0,0.0,0.9249403476715088,-0.3456225395202636
-0.1183796897530555,0.5935730338096619,-0.1568395942449569,-0.7242463231086731,-0.1848782747983932,-0.0610499680042266,0.0,0.0,0.8922693729400635,-0.7164663076400757
-0.1197457313537597,0.5773975849151611,-0.1350008845329284,-0.7191073894500732,-0.1864872723817825,-0.0321800448000431,0.0,0.0,0.9323431253433228,-0.869651198387146
-0.1211929321289062,0.5614101886749268,-0.1442086994647979,-0.7106189727783203,-0.1870116293430328,-0.0104870814830064,0.0,0.0,0.8619265556335449,-0.3362693786621094
-0.1223636642098426,0.5460430979728699,-0.1166261583566665,-0.6830349564552307,-0.1874548494815826,-0.0088642854243516,0.0,0.0,0.542677640914917,-0.5448271632194519
-0.1233166679739952,0.5309057831764221,-0.0959050580859184,-0.6726970672607422,-0.1868576109409332,0.0119446655735373,0.0,0.0,0.8685299158096313,-0.5350940227508545
-0.1240431815385818,0.5164591670036316,-0.0741868019104003,-0.6418793201446533,-0.1853155493736267,0.0308413468301296,0.0,0.0,0.5268697738647461,-0.4111507534980774
-0.1246986389160156,0.5024287104606628,-0.0663745105266571,-0.6234694719314575,-0.1844791173934936,0.0167286749929189,0.0,0.0,0.2578824758529663,-0.9459022283554076
-0.1253256797790527,0.4881401658058166,-0.0650682970881462,-0.6347529888153076,-0.1821007877588272,0.0475662723183631,0.0,0.0,0.7388162612915039,-0.5320168137550354
-0.1259637773036956,0.4743114709854126,-0.0665865167975425,-0.6142712831497192,-0.1793223470449447,0.0555686727166175,0.0,0.0,0.4177511930465698,-0.0082091093063354
-0.1264117211103439,0.4604355096817016,-0.0477041080594062,-0.6163589954376221,-0.1764001995325088,0.0584429986774921,0.0,0.0,0.6918638944625854,-0.6420926451683044
-0.1267667710781097,0.4468200504779815,-0.0394326262176036,-0.6046721339225769,-0.1724634170532226,0.0787355899810791,0.0,0.0,0.6645097732543945,-0.0233603119850158
-0.1270380914211273,0.4331253468990326,-0.0307714454829692,-0.6082329154014587,-0.1688119620084762,0.0730288475751876,0.0,0.0,0.9177265167236328,-0.3372331857681274
-0.1273291558027267,0.4198073446750641,-0.0317838229238987,-0.5916121006011963,-0.1661339104175567,0.0535610541701316,0.0,0.0,0.7687880992889404,-0.7251659631729126
-0.1274932920932769,0.4071869552135467,-0.020300630480051,-0.5604742169380188,-0.1622390300035476,0.0778973177075386,0.0,0.0,0.6876083612442017,-0.533015251159668
-0.1275569945573806,0.3943170607089996,-0.0112869665026664,-0.5714665055274963,-0.1573194116353988,0.0983925014734268,0.0,0.0,0.5853559970855713,0.4648396968841553
-0.1274610459804535,0.381980687379837,0.004820441827178,-0.5477861762046814,-0.152546614408493,0.0954560041427612,0.0,0.0,0.7650051116943359,0.0298831462860107
-0.1273823678493499,0.3697428107261657,0.0038049619179219,-0.5434921979904175,-0.1484908610582351,0.0811146423220634,0.0,0.0,0.8637129068374634,0.3288121223449707
-0.1272884309291839,0.3579870164394378,0.0060469638556241,-0.5221539735794067,-0.1451511532068252,0.0667938739061355,0.0,0.0,0.8870339393615723,-0.1105387210845947
-0.1270527839660644,0.3466042280197143,0.0202743969857692,-0.505582869052887,-0.1418703347444534,0.0656165331602096,0.0,0.0,0.3593331575393677,-0.3169360756874084
-0.126820370554924,0.3356014490127563,0.0206486731767654,-0.4887685775756836,-0.139285460114479,0.0516974627971649,0.0,0.0,0.644413948059082,0.0200738906860351
-0.1264330893754959,0.3247628211975097,0.0359927043318748,-0.4814625382423401,-0.1365519613027572,0.0546701177954673,0.0,0.0,0.3972334861755371,-0.4698600769042969
-0.1260270178318023,0.3137471675872803,0.0381660163402557,-0.4893667995929718,-0.1341238915920257,0.048561792820692,0.0,0.0,0.4953497648239136,-0.70304936170578
-0.125569149851799,0.3024845123291015,0.0419700667262077,-0.5002222657203674,-0.1303257793188095,0.0759619399905204,0.0,0.0,0.7080650329589844,-0.0908114910125732
-0.1250980347394943,0.2910758256912231,0.0435912013053894,-0.506752073764801,-0.12681944668293,0.0701265707612037,0.0,0.0,0.6951969861984253,-0.3262998461723327
-0.1245333701372146,0.2802051603794098,0.0531044006347656,-0.4828564822673797,-0.1234768629074096,0.066851332783699,0.0,0.0,0.4504187107086181,-0.6113196015357971
-0.1238538771867752,0.26972696185112,0.0633031353354454,-0.4653190374374389,-0.1188557296991348,0.0924227088689804,0.0,0.0,0.4738197326660156,-0.017764925956726
-0.1231904998421669,0.2596781849861145,0.0622470863163471,-0.44629567861557,-0.1147884577512741,0.0813452526926994,0.0,0.0,0.005388855934143,-0.4338395595550537
-0.1225866302847862,0.2492686361074447,0.0567318499088287,-0.4623686075210571,-0.1111596450209617,0.0725764334201812,0.0,0.0,0.4144725799560547,-0.2294511795043945
-0.1218791007995605,0.2391876727342605,0.0669981464743614,-0.4477664232254028,-0.1074287369847297,0.0746180266141891,0.0,0.0,0.3740829229354858,-0.2908166646957397
-0.1212110519409179,0.2291595041751861,0.0634778589010238,-0.4454607665538788,-0.1041289865970611,0.0659950226545333,0.0,0.0,0.3887964487075805,-0.2082585096359253
-0.1205381378531456,0.2193139344453811,0.0642069950699806,-0.437371164560318,-0.1010674685239791,0.0612305104732513,0.0,0.0,0.458219051361084,0.1187844276428222
-0.1198233589529991,0.2097162157297134,0.0684435293078422,-0.4263611733913421,-0.0980638414621353,0.0600727386772632,0.0,0.0,0.4393517971038818,-0.5766745805740356
-0.1190338134765625,0.2001952230930328,0.0745786949992179,-0.4228744208812713,-0.093718834221363,0.0869000926613807,0.0,0.0,0.298459529876709,-0.5495620369911194
-0.118255615234375,0.1903993636369705,0.0722734034061431,-0.4350359141826629,-0.0882149785757064,0.1100771054625511,0.0,0.0,0.4887222051620483,0.8099603652954102
-0.117303654551506,0.1804442256689071,0.0910985469818115,-0.4422131776809692,-0.0841513946652412,0.0812716111540794,0.0,0.0,0.4658362865447998,-0.2359879612922668
-0.1161954849958419,0.1705553084611892,0.1060501709580421,-0.4392470419406891,-0.0794315040111541,0.0943977981805801,0.0,0.0,0.4031909704208374,-0.3383020162582397
-0.114960953593254,0.1604785770177841,0.1180608421564102,-0.4475778937339782,-0.0740968734025955,0.1066927909851074,0.0,0.0,0.5041830539703369,-0.4971325993537903
-0.1137010604143142,0.1507510989904403,0.1205430403351783,-0.4320745468139648,-0.0687047913670539,0.1078415960073471,0.0,0.0,0.4646046161651611,0.1328551769256591
-0.1123895645141601,0.1413524895906448,0.1254778504371643,-0.4174650013446808,-0.0630906745791435,0.1122821941971778,0.0,0.0,0.6649472713470459,-0.8533217310905457
-0.1109874695539474,0.1322823315858841,0.1324686110019683,-0.4028114676475525,-0.0554394088685512,0.1530253589153289,0.0,0.0,0.5819306373596191,-0.3322731256484985
-0.1094973534345626,0.1229981780052185,0.1406912952661514,-0.4123431444168091,-0.0472198352217674,0.1643915474414825,0.0,0.0,0.8208514451980591,-0.6073724627494812
-0.1081186309456825,0.1138871014118194,0.1283646076917648,-0.4046639800071716,-0.0378203205764293,0.1879902780055999,0.0,0.0,0.873898983001709,0.780633807182312
-0.1065658554434776,0.1055688932538032,0.1469503045082092,-0.3695101141929626,-0.0296003483235836,0.1643995493650436,0.0,0.0,0.4821226596832275,-0.1443822979927063
-0.1050506606698036,0.097343236207962,0.1431387811899185,-0.3654460906982422,-0.0213190130889415,0.1656266897916793,0.0,0.0,0.8294060230255127,0.8932998180389404
-0.103631779551506,0.0897750481963157,0.135391503572464,-0.3362843692302704,-0.0149145582690835,0.128088966012001,0.0,0.0,0.2612364292144775,0.5733745098114014
-0.1021224036812782,0.0823317393660545,0.1452796459197998,-0.3307680785655975,-0.0093274312093853,0.1117427125573158,0.0,0.0,0.8264851570129395,0.6487104892730713
-0.1006553620100021,0.0754628479480743,0.1423125565052032,-0.3052621483802795,-0.0049986988306045,0.0865749344229698,0.0,0.0,0.4068596363067627,-0.6380702257156372
-0.0993529334664344,0.0688814222812652,0.124525561928749,-0.2924986779689789,0.0006479246658273,0.1129321455955505,0.0,0.0,0.6428968906402588,0.915070414543152
-0.0980480164289474,0.0623653046786785,0.1264455169439315,-0.2896145582199096,0.0046455808915197,0.0799532681703567,0.0,0.0,0.8640275001525879,-0.5013306140899658
-0.0969691276550293,0.0561915747821331,0.1030278801918029,-0.274408757686615,0.0094433519989252,0.0959554463624954,0.0,0.0,0.8095226287841797,0.9758672714233398
-0.0960485488176345,0.0501999482512474,0.0892208889126777,-0.2663131952285766,0.0122506162151694,0.0561451129615306,0.0,0.0,0.3711646795272827,0.9488506317138672
-0.0950070396065712,0.0444370619952678,0.1029057875275611,-0.2561414539813995,0.0134810404852032,0.0246084667742252,0.0,0.0,0.5251462459564209,0.9375027418136596
-0.0938817039132118,0.0385048016905784,0.1128619685769081,-0.2636525332927704,0.0131628196686506,-0.0063645029440522,0.0,0.0,0.6807308197021484,0.7927713394165039
-0.0925930961966514,0.0330724343657493,0.1302163004875183,-0.2414255738258361,0.0118210632354021,-0.0268350392580032,0.0,0.0,0.5088591575622559,0.0668872594833374
-0.0913877487182617,0.0280279498547315,0.1217344775795936,-0.2241895645856857,0.0106399618089199,-0.0236222632229328,0.0,0.0,0.5997951030731201,0.7377138137817383
-0.0900366753339767,0.0235617496073246,0.1372258365154266,-0.1984855979681015,0.0085465591400861,-0.041867833584547,0.0,0.0,0.4715516567230224,0.52115797996521
-0.0886334404349327,0.0191966872662305,0.1430436223745346,-0.1939909607172012,0.005869367159903,-0.053544282913208,0.0,0.0,0.2624608278274536,0.7760651111602783
-0.0872381180524826,0.0151010612025856,0.1435236781835556,-0.1820188611745834,0.0019166594138368,-0.079053983092308,0.0,0.0,0.6047537326812744,-0.0878572463989257
-0.0858469977974891,0.0114784333854913,0.1425669640302658,-0.1610071808099746,-0.0014833504101261,-0.0680002197623252,0.0,0.0,0.0823897123336792,-0.4090501070022583
-0.0844657868146896,0.0076314662583172,0.1410318166017532,-0.1709812432527542,-0.0043544503860175,-0.0574220195412635,0.0,0.0,0.4450271129608154,-0.6454408764839172
-0.0833155661821365,0.0039231157861649,0.1165715679526329,-0.1648208945989608,-0.0058872876688838,-0.0306568630039691,0.0,0.0,0.4515947103500366,0.5425631999969482
-0.0823084861040115,0.000217661858187,0.1033638715744018,-0.1647003293037414,-0.0084979739040136,-0.0522139556705951,0.0,0.0,0.6611063480377197,0.6472377777099609
-0.0812387466430664,-0.0026116394437849,0.09139184653759,-0.1257272362709045,0.0068728527985513,0.307397186756134,1.0,1.0,-0.1204195022583007,-0.0892279744148254
-0.0802196487784385,-0.0049053933471441,0.0858681946992874,-0.10225261002779,0.0219791401177644,0.3012068271636963,1.0,1.0,-0.1216525435447692,0.0796674489974975
-0.0793200507760047,-0.0067312265746295,0.0752623453736305,-0.0814327970147132,0.0364847034215927,0.2900914251804352,1.0,1.0,-0.136727750301361,-0.1588311195373535
-0.0785307884216308,-0.0080967927351593,0.0647179707884788,-0.061102457344532,0.0505054891109466,0.2804005146026611,1.0,1.0,-0.3271490335464477,0.1033219099044799
-0.0778523460030555,-0.0090174339711666,0.0543129034340381,-0.0414320193231105,0.0638746097683906,0.2673691809177398,1.0,1.0,-0.3600127696990967,0.1192290782928466
