x_pos,y_pos,x_vel,y_vel,angle,ang_vel,leg_1,leg_2,main_booster,lat_booster
-0.0015362739795818,1.4031143188476562,-0.1556116640567779,-0.3469259440898895,0.0017748761456459,0.0350120216608047,0.0,0.0,-0.9888256182852287,0.8939181261950967
-0.0030096054542809,1.394817352294922,-0.1471322327852249,-0.3687557578086853,0.0015783421695232,-0.0039305468089878,0.0,0.0,0.4720600262493866,-0.1569262380442293
-0.0043779374100267,1.3865498304367063,-0.1372049897909164,-0.3674448728561401,0.0019450307590886,0.007334616035223,0.0,0.0,-0.5164386276676012,0.8880723497072172
-0.0057041170075535,1.3777692317962646,-0.1315483003854751,-0.3902480006217956,0.0008907990995794,-0.0210867822170257,0.0,0.0,0.9595739992772474,-0.576401237938918
-0.0069277761504054,1.369640588760376,-0.1229353100061416,-0.3612711727619171,0.0014554930385202,0.0112949237227439,0.0,0.0,-0.3162457452448362,-0.1544436773944311
-0.0081660272553563,1.3610016107559204,-0.1243772357702255,-0.383956104516983,0.0020060550887137,0.0110123641788959,0.0,0.0,0.1794611483849002,0.9779583496640908
-0.0093619348481297,1.3524712324142456,-0.1181698590517044,-0.379132330417633,0.0006022125598974,-0.0280792824923992,0.0,0.0,0.6876701652094881,0.4717265141624266
-0.0104206083342432,1.3444218635559082,-0.1051708832383155,-0.3577481210231781,-8.894268103176728e-05,-0.0138244600966572,0.0,0.0,-0.1073153693672326,-0.0155360070935459
-0.0114947315305471,1.3358622789382937,-0.1066915020346641,-0.3804292678833008,-0.0007982028764672,-0.0141863469034433,0.0,0.0,-0.0172495616773742,0.4283227867637056
-0.0125844003632664,1.3267924785614014,-0.1082353591918945,-0.4031015336513519,-0.0015257531777024,-0.0145522849634289,0.0,0.0,0.1958688640801777,-0.3659617064297422
-0.0136269573122262,1.31785786151886,-0.1037933453917503,-0.397096574306488,-0.0019774730317294,-0.0090354178100824,0.0,0.0,0.6961762333081898,0.9330282085385256
-0.0145297050476074,1.309224009513855,-0.0880512371659278,-0.3837302625179291,-0.004173394292593,-0.0439225360751152,0.0,0.0,0.8682274464186936,0.7792036209450198
-0.0152233121916651,1.3012690544128418,-0.0659156963229179,-0.3535673916339874,-0.0075734672136604,-0.0680077075958252,0.0,0.0,0.7194763982988557,-0.8336900623403539
-0.0159168243408203,1.293350338935852,-0.0677129179239273,-0.3519520461559295,-0.0091949021443724,-0.0324315913021564,0.0,0.0,0.5532195789221581,-0.3511587719908002
-0.0164871215820312,1.2860820293426514,-0.056003451347351,-0.3230381608009338,-0.0102184293791651,-0.0204722322523593,0.0,0.0,0.1958767768706584,-0.8164049399615865
-0.0170455928891897,1.2786163091659546,-0.0564965531229972,-0.331809937953949,-0.0095712635666131,0.0129445819184184,0.0,0.0,0.7377630138314744,-0.6977142768343034
-0.0175097472965717,1.2719964981079102,-0.0488217622041702,-0.2941933870315552,-0.0072048553265631,0.047332789748907,0.0,0.0,0.8053569546536454,0.1684958291729914
-0.0178326610475778,1.2654790878295898,-0.0353856086730957,-0.2896553575992584,-0.0041399886831641,0.0613029673695564,0.0,0.0,0.0016416306212549,0.7375355306055461
-0.0180441848933696,1.2591875791549685,-0.0227851215749979,-0.2796162962913513,-0.0025320572312921,0.0321615561842918,0.0,0.0,0.3524263948377961,-0.6575406353547206
-0.0183968544006347,1.2530810832977295,-0.0380525216460228,-0.2713996767997741,0.0002153141394956,0.0549525618553161,0.0,0.0,0.5988504940177373,-0.6312606314335785
-0.0186831466853618,1.2475606203079224,-0.0329530723392963,-0.2453637421131134,0.0044916872866451,0.0855350643396377,0.0,0.0,0.746456421521706,-0.2848971895817067
-0.0189767833799123,1.2422317266464231,-0.0337119773030281,-0.2368617802858352,0.008788663893938,0.0859471708536148,0.0,0.0,0.4695624066002808,-0.6353112709135245
-0.0192164424806833,1.2371193170547483,-0.0298129227012395,-0.2272581309080124,0.0145759265869855,0.1157558187842369,0.0,0.0,-0.6627047697622586,-0.6992201950734432
-0.0195227619260549,1.2314884662628174,-0.0376854203641414,-0.2503451108932495,0.0215525478124618,0.1395444571971893,0.0,0.0,0.2635614811520939,-0.532742127004389
-0.0200182907283306,1.2260825634002686,-0.0573870427906513,-0.2403924465179443,0.0292942188680171,0.1548475474119186,0.0,0.0,-0.8738506219750932,-0.7214113231144228
-0.0206023212522268,1.2201467752456665,-0.0680051818490028,-0.2640336751937866,0.0387769900262355,0.1896552592515945,0.0,0.0,-0.8522803883887697,-0.0935107951041354
-0.0212041847407817,1.213701844215393,-0.0697464346885681,-0.2867149412631988,0.0482180565595626,0.1888214647769928,0.0,0.0,-0.1361684681961994,0.211454504924204
-0.0218239780515432,1.2067480087280271,-0.0714897364377975,-0.3093959987163543,0.0576162636280059,0.1879640817642212,0.0,0.0,0.9526142274763374,-0.5610972259556567
-0.0227225311100482,1.200642704963684,-0.0999640673398971,-0.2717655897140503,0.067614734172821,0.1999692469835281,0.0,0.0,0.2920564090632074,-0.804541467663819
-0.0237467773258686,1.1945881843566897,-0.1140808835625648,-0.2696620523929596,0.0791504606604576,0.2307146042585373,0.0,0.0,-0.3107149502083888,-0.90849761978057
-0.0248589515686035,1.1880275011062622,-0.1245918422937393,-0.2923535108566284,0.0923903658986091,0.2647983133792877,0.0,0.0,-0.955273985862732,0.9791824817657472
-0.0259217265993356,1.180962085723877,-0.1178679317235946,-0.3147736191749573,0.103885531425476,0.2299036532640457,0.0,0.0,-0.9708844423294068,0.9837487936019896
-0.0269364360719919,1.1734076738357544,-0.1112876757979393,-0.3364667594432831,0.1136363297700882,0.1950159817934036,0.0,0.0,-0.9478742480278016,0.8919250965118408
-0.0279057510197162,1.1653467416763306,-0.1050965338945388,-0.3589071631431579,0.1217502504587173,0.162278801202774,0.0,0.0,-0.9374125003814696,0.9816135168075562
-0.0288140289485454,1.1567926406860352,-0.0969107896089553,-0.3806850016117096,0.1278010606765747,0.1210165172815322,0.0,0.0,-0.9730713367462158,0.8609974384307861
-0.0296711921691894,1.147748589515686,-0.0899597257375717,-0.4023283123970032,0.1320271044969558,0.0845207944512367,0.0,0.0,-0.9476030468940736,0.6390988826751709
-0.030497932806611,1.138200759887695,-0.085640400648117,-0.4246144890785217,0.13498255610466,0.0591094680130481,0.0,0.0,-0.9834270477294922,0.9703116416931152
-0.031262207776308,1.1281665563583374,-0.0772757679224014,-0.4460402429103851,0.1358214318752288,0.0167771913111209,0.0,0.0,-0.9932727813720704,0.7188458442687988
-0.0319923385977745,1.1176408529281616,-0.0724508017301559,-0.4677595198154449,0.1352616250514984,-0.0111956968903541,0.0,0.0,-0.9865914583206176,0.2967731952667236
-0.0327401161193847,1.1066049337387085,-0.0741579011082649,-0.4904327392578125,0.1346491873264312,-0.0122488681226968,0.0,0.0,-0.9905290007591248,0.7498273849487305
-0.0334575660526752,1.0950746536254885,-0.0698421075940132,-0.5122792720794678,0.1327480226755142,-0.0380231514573097,0.0,0.0,-0.6840834021568298,0.7072174549102783
-0.0341256149113178,1.0830464363098145,-0.0631296783685684,-0.5342766046524048,0.129091739654541,-0.0731252580881118,0.0,0.0,-0.5587499141693115,-0.4926502704620361
-0.0348110198974609,1.0705077648162842,-0.0648095533251762,-0.5569508671760559,0.1253817826509475,-0.0741990506649017,0.0,0.0,-0.1538633704185485,-0.6894612312316895
-0.0355586037039756,1.0574491024017334,-0.0721398890018463,-0.5801642537117004,0.1227682307362556,-0.0522709488868713,0.0,0.0,-0.9525439143180848,0.3563821315765381
-0.0363234505057334,1.0438804626464844,-0.0737977623939514,-0.6028381586074829,0.1201006323099136,-0.053351767361164,0.0,0.0,-0.9825404286384584,0.3891172409057617
-0.0371052734553813,1.0298014879226685,-0.0754433050751686,-0.6255121231079102,0.1173789352178573,-0.0544339530169963,0.0,0.0,-0.9854338765144348,-0.3949359655380249
-0.0379039756953716,1.0152124166488647,-0.0770756676793098,-0.6481860280036926,0.1146031320095062,-0.0555160567164421,0.0,0.0,-0.8343136310577393,0.5686373710632324
-0.0386835113167762,1.000125527381897,-0.0741772130131721,-0.6702402234077454,0.1108478382229805,-0.0751059278845787,0.0,0.0,-0.8289037942886353,0.946901559829712
-0.0394223220646381,0.9845466613769532,-0.0685548931360244,-0.6920047998428345,0.1055623963475227,-0.1057089790701866,0.0,0.0,-0.3532224893569946,0.8570809364318848
-0.0401123985648155,0.9684659838676452,-0.0619584508240222,-0.7142130136489868,0.0985749363899231,-0.1397493034601211,0.0,0.0,0.1767247915267944,-0.0356937646865844
-0.0407569892704486,0.9524980783462524,-0.0578394643962383,-0.7092679142951965,0.0920067429542541,-0.1313638985157013,0.0,0.0,-0.5547308325767517,-0.3089144229888916
-0.0414177887141704,0.9360204339027404,-0.0593922138214111,-0.7319449782371521,0.0853856205940246,-0.1324225217103958,0.0,0.0,0.2497912645339965,-0.8694232702255249
-0.0420964248478412,0.9195340871810912,-0.0629525631666183,-0.7324514985084534,0.0805137604475021,-0.097437247633934,0.0,0.0,-0.3868265151977539,-0.8687101602554321
-0.0428594574332237,0.90253746509552,-0.0730624571442604,-0.7552319169044495,0.077308788895607,-0.0640994161367416,0.0,0.0,0.7304990291595459,-0.4039310812950134
-0.0435216911137104,0.8858126401901245,-0.0636682137846946,-0.7431955933570862,0.0747744441032409,-0.0506867058575153,0.0,0.0,-0.8650790452957153,0.3059854507446289
-0.044199276715517,0.8685775399208069,-0.0651415362954139,-0.765869677066803,0.0721895396709442,-0.0516984350979328,0.0,0.0,0.4544178247451782,-0.1137506961822509
-0.0448598861694335,0.851891040802002,-0.0637824982404708,-0.7415120005607605,0.0699376687407493,-0.0450374409556388,0.0,0.0,0.1573121547698974,-0.7627599835395813
-0.0455183014273643,0.8354097008705139,-0.0651565119624137,-0.7324720621109009,0.0692539066076278,-0.0136752054095268,0.0,0.0,0.5904436111450195,0.8627722263336182
-0.0460982322692871,0.8196284174919128,-0.0556358620524406,-0.7012782692909241,0.0669216811656951,-0.0466446429491043,0.0,0.0,-0.2715637683868408,-0.5557278394699097
-0.0467421524226665,0.803337037563324,-0.0632377862930297,-0.7240143418312073,0.0657877400517463,-0.0226792991161346,0.0,0.0,-0.4809032678604126,0.5841751098632812
-0.0473496429622173,0.7865352630615234,-0.0582877770066261,-0.7466371655464172,0.0633474662899971,-0.0488054826855659,0.0,0.0,0.3425216674804687,-0.0171189308166503
-0.0480883605778217,0.7700689435005188,-0.0709705278277397,-0.731716513633728,0.0604858919978141,-0.0572318024933338,0.0,0.0,-0.7233333587646484,-0.2272135615348816
-0.0488404259085655,0.7530926465988159,-0.0722680687904357,-0.7543908953666687,0.0575813017785549,-0.0580917075276374,0.0,0.0,0.0791859626770019,0.8642988204956055
-0.0495423302054405,0.7362144589424133,-0.0654762238264083,-0.7499619126319885,0.0529185533523559,-0.0932551771402359,0.0,0.0,0.6102882623672485,-0.4392092227935791
-0.0502700805664062,0.7194123864173889,-0.0680550187826156,-0.7466015219688416,0.0482511296868324,-0.0933486297726631,0.0,0.0,0.2192195653915405,0.6226978302001953
-0.0510835647583007,0.7027506232261658,-0.0751578137278556,-0.7403402924537659,0.0421384274959564,-0.1222540140151977,0.0,0.0,0.1892857551574707,0.0590744018554687
-0.051919650286436,0.6865033507347107,-0.0774567723274231,-0.721942126750946,0.0360607542097568,-0.1215534433722496,0.0,0.0,-0.447297990322113,-0.2033639550209045
-0.052767563611269,0.6697463393211365,-0.0786023288965225,-0.7446189522743225,0.0299485269933938,-0.1222442165017128,0.0,0.0,-0.404750108718872,-0.5171112418174744
-0.0536661148071289,0.6524837613105774,-0.0846288651227951,-0.7671278119087219,0.0247854590415954,-0.1032613962888717,0.0,0.0,0.6970715522766113,0.694904088973999
-0.0546380057930946,0.635435938835144,-0.0902977883815765,-0.7575891017913818,0.0179789550602436,-0.136130154132843,0.0,0.0,0.2774420976638794,0.3035378456115722
-0.0557010658085346,0.6186617612838745,-0.0990493297576904,-0.7454499006271362,0.0108158215880393,-0.1432624906301498,0.0,0.0,-0.0401987433433532,0.7127411365509033
-0.0567152015864849,0.6013805866241455,-0.0926229655742645,-0.7680148482322693,0.0021370293106883,-0.1735759377479553,0.0,0.0,0.675686240196228,-0.5044439435005188
-0.0579202659428119,0.5848800539970398,-0.1123137921094894,-0.7333659529685974,-0.0059519386850297,-0.1617790162563324,0.0,0.0,0.1838818788528442,-0.3286764025688171
-0.0590798370540142,0.5684905052185059,-0.107988491654396,-0.7284787893295288,-0.0138181149959564,-0.1573233902454376,0.0,0.0,-0.5358638167381287,0.3782294988632202
-0.06024856492877,0.5515915155410767,-0.1088935509324073,-0.7511579394340515,-0.0217023883014917,-0.1576854735612869,0.0,0.0,0.2336452007293701,-0.0462676882743835
-0.0613701827824115,0.5345456004142761,-0.1043963581323623,-0.757729172706604,-0.0293671004474163,-0.1532942801713943,0.0,0.0,0.6623886823654175,0.1556260585784912
-0.0625219345092773,0.5175037980079651,-0.1072543114423751,-0.7575894594192505,-0.037191342562437,-0.1564845144748687,0.0,0.0,0.9089826345443726,0.0646332502365112
-0.0636572837829589,0.5013269782066345,-0.1055605411529541,-0.7191874384880066,-0.0450697690248489,-0.1575683653354644,0.0,0.0,0.6567606925964355,0.3171818256378174
-0.0646831542253494,0.485861212015152,-0.094989113509655,-0.6876146197319031,-0.0525832772254943,-0.1502699553966522,0.0,0.0,-0.0535560846328735,-0.4927001595497131
-0.06571626663208,0.4698860645294189,-0.0957119986414909,-0.710293173789978,-0.0600999370217323,-0.1503330916166305,0.0,0.0,0.8068175315856934,0.8182687759399414
-0.0668252930045127,0.4539437890052795,-0.1013496145606041,-0.7089563012123108,-0.0695516318082809,-0.1890341937541961,0.0,0.0,0.2132912874221801,-0.5953783392906189
-0.0679144859313964,0.4383678734302521,-0.1006244421005249,-0.6926692724227905,-0.0777555108070373,-0.1640775203704834,0.0,0.0,0.0567221641540527,0.4388264417648315
-0.069045640528202,0.4228408336639404,-0.1045363694429397,-0.6905630230903625,-0.0862522795796394,-0.1699353158473968,0.0,0.0,0.7322750091552734,-0.1935192942619323
-0.0701784119009971,0.4078740179538727,-0.1044477075338363,-0.6657246947288513,-0.0950044691562652,-0.1750442683696746,0.0,0.0,0.2520073652267456,-0.3207881450653076
-0.0712752342224121,0.3931906223297119,-0.1008215919137001,-0.6531819701194763,-0.1037846207618713,-0.1756030917167663,0.0,0.0,0.17489755153656,-0.2910770177841186
-0.072272203862667,0.3786056935787201,-0.0911625549197197,-0.648836076259613,-0.1122602820396423,-0.1695132851600647,0.0,0.0,0.2710843086242676,-0.5276035070419312
-0.0732663124799728,0.3639024496078491,-0.0919968038797378,-0.6540529727935791,-0.1196211725473404,-0.1472181230783462,0.0,0.0,0.6847677230834961,-0.5299342274665833
-0.0741570442914962,0.3492866456508636,-0.0830322951078414,-0.6500881910324097,-0.1256263554096222,-0.1201036348938942,0.0,0.0,0.7565362453460693,-0.5695189833641052
-0.0748539939522743,0.3350413143634796,-0.0652771443128585,-0.6335036158561707,-0.1300199776887893,-0.0878721103072166,0.0,0.0,0.9886577129364014,-0.9696075916290284
-0.0753853768110275,0.320963442325592,-0.0510349087417125,-0.6258683800697327,-0.1321200728416443,-0.0420020036399364,0.0,0.0,0.9941086769104004,-0.9269521832466124
-0.0758799538016319,0.3077462911605835,-0.0492241755127906,-0.5874475240707397,-0.1323433071374893,-0.0044647743925452,0.0,0.0,0.9706301689147948,-0.8939927816390991
-0.0762868896126747,0.2953769564628601,-0.0423918291926384,-0.5495995879173279,-0.1306585520505905,0.033695138990879,0.0,0.0,0.8331019878387451,-0.509730339050293
-0.076494313776493,0.2835793197154999,-0.0239303298294544,-0.52406245470047,-0.1274824142456054,0.0635228902101516,0.0,0.0,0.9177737236022948,0.101961612701416
-0.0765394195914268,0.2718130648136139,-0.0082926815375685,-0.5226259231567383,-0.1237172558903694,0.0753031820058822,0.0,0.0,0.6261210441589355,-0.6999279856681824
-0.0766354575753212,0.2603016793727875,-0.0147341638803482,-0.511202335357666,-0.1186217218637466,0.101910687983036,0.0,0.0,0.4263591766357422,0.6385319232940674
-0.0765143409371376,0.2493742108345031,0.0080468235537409,-0.4853515326976776,-0.1145837381482124,0.0807598084211349,0.0,0.0,0.3012168407440185,-0.5449921488761902
-0.0764058083295822,0.238615334033966,0.0056809303350746,-0.477785587310791,-0.1094427928328514,0.1028188839554786,0.0,0.0,0.5376935005187988,0.4129836559295654
-0.0763322860002517,0.228469431400299,0.0026545866858214,-0.4505925178527832,-0.1047756671905517,0.0933426842093467,0.0,0.0,-0.4473219513893127,0.4415394067764282
-0.0762592330574989,0.2178135514259338,0.0025358381681144,-0.4732676148414612,-0.1000430881977081,0.0946515947580337,0.0,0.0,0.1494864225387573,-0.0047101974487304
-0.076171301305294,0.2074324041604995,0.0041225655004382,-0.4610799551010132,-0.0954139903187751,0.0925815925002098,0.0,0.0,0.3201380968093872,0.0300406217575073
-0.0760921463370323,0.1974440664052963,0.0034779391717165,-0.4436480700969696,-0.0910185724496841,0.0879086405038833,0.0,0.0,-0.2899495363235473,0.1599676609039306
-0.0760128051042556,0.1869457513093948,0.0034234970808029,-0.4663229584693908,-0.086547777056694,0.0894159823656082,0.0,0.0,0.3606977462768554,0.3749951124191284
-0.0759859085083007,0.1766900569200515,-0.001452827360481,-0.4555727839469909,-0.0824429541826248,0.0820963755249977,0.0,0.0,0.4764177799224853,0.2370527982711792
-0.0760537162423133,0.1666406542062759,-0.0103885810822248,-0.4464467465877533,-0.0788786634802818,0.0712857842445373,0.0,0.0,0.2924889326095581,0.5956480503082275
-0.0759384185075759,0.1569089442491531,0.0088676018640398,-0.4323830008506775,-0.0762407556176185,0.0527581796050071,0.0,0.0,0.2329781055450439,0.1067245006561279
-0.0757554024457931,0.1470736861228943,0.0153305334970355,-0.4369741976261139,-0.0733038112521171,0.0587391555309295,0.0,0.0,0.7634720802307129,0.2693415880203247
-0.0753571540117263,0.1379294991493225,0.0360421612858772,-0.406225711107254,-0.0695606991648674,0.0748621076345443,0.0,0.0,0.1742668151855468,-0.6700757145881653
-0.0749900788068771,0.1291137486696243,0.0315069928765296,-0.3915793001651764,-0.0644140243530273,0.1029335707426071,0.0,0.0,0.5128990411758423,0.0266776084899902
-0.0744406729936599,0.1209468245506286,0.0490249507129192,-0.3627317249774933,-0.058567889034748,0.1169228106737136,0.0,0.0,-0.0551128387451171,-0.6976279020309448
-0.0739377960562706,0.1122744902968406,0.0430460050702095,-0.3851691484451294,-0.0514116697013378,0.1431245058774948,0.0,0.0,0.5985124111175537,0.6653060913085938
-0.0733473747968673,0.1042790710926055,0.053053755313158,-0.3551566302776336,-0.0454948358237743,0.118336521089077,0.0,0.0,0.4812054634094238,0.2639760971069336
-0.0726687461137771,0.0968283265829086,0.0615210905671119,-0.3309664130210876,-0.0392244681715965,0.1254075169563293,0.0,0.0,-0.192428708076477,0.1705324649810791
-0.0719882026314735,0.0888678133487701,0.0616017058491706,-0.3536432087421417,-0.0328499898314476,0.1274893879890442,0.0,0.0,0.7500835657119751,-0.5680311322212219
-0.0714676827192306,0.0813896730542182,0.044716976583004,-0.332217276096344,-0.0256093703210353,0.1448124051094055,0.0,0.0,0.5896867513656616,0.6064273118972778
-0.0710182189941406,0.0741463527083396,0.0390398204326629,-0.3218365609645843,-0.0197813250124454,0.1165611371397972,0.0,0.0,0.2698017358779907,0.9817469120025636
-0.0704998970031738,0.0670406445860862,0.0478075928986072,-0.3157623708248138,-0.0158027820289134,0.079570896923542,0.0,0.0,0.4569717645645141,0.7676467895507812
-0.0698857307434082,0.0601269826292991,0.0587732307612896,-0.3072487413883209,-0.013199396431446,0.0520679727196693,0.0,0.0,0.8297320604324341,0.5921211242675781
-0.0690628066658973,0.0532911382615566,0.0803224667906761,-0.3037997484207153,-0.0112469820305705,0.039047934114933,0.0,0.0,0.7962601184844971,-0.1785751581192016
-0.0681234374642372,0.0470583997666835,0.0913467854261398,-0.2769910097122192,-0.0086897565051913,0.0511444732546806,0.0,0.0,0.51316237449646,0.6027514934539795
-0.0671029090881347,0.0414286218583583,0.1004984006285667,-0.2502064108848572,-0.0071586086414754,0.0306228511035442,0.0,0.0,0.1962766647338867,-0.4263961315155029
