x_pos,y_pos,x_vel,y_vel,angle,ang_vel,leg_1,leg_2,main_booster,lat_booster
-0.0015839576954022,1.402949571609497,-0.1603400111198425,-0.3542509377002716,0.0017453467007726,0.0344270542263984,0.0,0.0,0.744502108635754,0.9904753982153812
-0.0030901909340173,1.3950532674789429,-0.1503963470458984,-0.3509483933448791,0.0015178921166807,-0.0045490553602576,0.0,0.0,-0.3829842857961489,-0.8538949367119966
-0.0047094346955418,1.386474847793579,-0.1629665046930313,-0.3812606930732727,0.0025412503164261,0.0204691346734762,0.0,0.0,-0.0757884261488688,-0.6667066771787113
-0.0064523695036768,1.3772192001342771,-0.1768655478954315,-0.4113717377185821,0.0050788703374564,0.0507573895156383,0.0,0.0,0.8824403410611712,0.7512400362422187
-0.0080415727570652,1.368407130241394,-0.1603003591299057,-0.3916569054126739,0.0064529427327215,0.0274840258061885,0.0,0.0,0.8536554215918755,0.9365149687866612
-0.0094511033967137,1.3598347902297974,-0.1407344341278076,-0.3809917867183685,0.0062275193631649,-0.0045089395716786,0.0,0.0,0.4746450525250141,0.7639340113281177
-0.0108873369172215,1.35136079788208,-0.1417556703090667,-0.3766108453273773,0.0043904902413487,-0.0367438457906246,0.0,0.0,-0.6981170373860395,0.8443058504617129
-0.0123014450073242,1.342215061187744,-0.1373965740203857,-0.4064745604991913,0.0004099970974493,-0.0796172618865966,0.0,0.0,0.2887592077702612,-0.8430038873953469
-0.0138541217893362,1.3333826065063477,-0.1528534889221191,-0.392550379037857,-0.0019684801809489,-0.0475738607347011,0.0,0.0,0.5590056831615084,0.7298508103346004
-0.0154097555205225,1.3249077796936035,-0.1516319960355758,-0.3766702711582184,-0.0058510024100542,-0.0776577293872833,0.0,0.0,0.9490789859214684,0.5664589214135483
-0.0168694499880075,1.3168091773986816,-0.1411798447370529,-0.3599675297737121,-0.0105868158861994,-0.0947249829769134,0.0,0.0,-0.148317036187932,0.7507361878597674
-0.0183239933103323,1.308033108711243,-0.1389281749725341,-0.390101283788681,-0.0170371402055025,-0.1290184557437896,0.0,0.0,0.9222136865614112,0.9541137137490296
-0.0195822715759277,1.2998021841049194,-0.1176589131355285,-0.3659311234951019,-0.0251203160732984,-0.1616782695055008,0.0,0.0,-0.1149415535488771,0.7764779491747992
-0.0208332054316997,1.2908873558044434,-0.1151375994086265,-0.3964112401008606,-0.0349682532250881,-0.1969766914844513,0.0,0.0,0.6710655365787657,0.9467614297479032
-0.0218805316835641,1.2825466394424438,-0.0930768027901649,-0.3710107505321502,-0.0465059205889701,-0.2307744920253753,0.0,0.0,-0.1577205832647035,0.7817650610920349
-0.0229159351438283,1.273518443107605,-0.0899752378463745,-0.4017234444618225,-0.059922520071268,-0.2683562040328979,0.0,0.0,-0.3698777610174839,-0.8598086409657406
-0.0240632053464651,1.2638323307037354,-0.1024860590696334,-0.431027740240097,-0.0720600336790084,-0.242772176861763,0.0,0.0,0.0633385707019453,-0.7706540325129914
-0.0252086631953716,1.2538223266601562,-0.1038748249411583,-0.4454360902309418,-0.0826397389173507,-0.2116131782531738,0.0,0.0,0.5362628911201825,-0.5326344102129354
-0.0262974742799997,1.2442524433135986,-0.0995054990053176,-0.4258645474910736,-0.0919444039463996,-0.1861100047826767,0.0,0.0,-0.9663851930504684,-0.6084718194199495
-0.0275007244199514,1.234015703201294,-0.1122944504022598,-0.455475777387619,-0.0999113470315933,-0.159353494644165,0.0,0.0,0.5035120011264043,0.856289606247979
-0.0284979827702045,1.2241029739379885,-0.0901477634906768,-0.4412330687046051,-0.1094339191913604,-0.1904687881469726,0.0,0.0,0.5517105405525564,0.882331909157072
-0.0294282920658588,1.2141177654266355,-0.0816823542118072,-0.4446585476398468,-0.1207293346524238,-0.2259282618761062,0.0,0.0,-0.3988423920611863,-0.6359134674330024
-0.0304571148008108,1.203465223312378,-0.0925297364592552,-0.4743147194385528,-0.1310562789440155,-0.2065574377775192,0.0,0.0,0.2779897666538735,0.8027922318041529
-0.0313907638192176,1.1924651861190796,-0.0814400017261505,-0.4899809956550598,-0.142950490117073,-0.2379055470228195,0.0,0.0,0.5090353593948063,0.6354164917200382
-0.0323896408081054,1.181686282157898,-0.0864018872380256,-0.480415403842926,-0.1564361453056335,-0.2697372138500213,0.0,0.0,0.0716853082426485,0.5764822913787191
-0.0334373489022254,1.170907497406006,-0.0899513214826583,-0.4806839823722839,-0.1712505519390106,-0.2962881922721863,0.0,0.0,0.49483082909394,-0.5344904398126973
-0.034468937665224,1.1604409217834473,-0.089456558227539,-0.4668153822422027,-0.1849995553493499,-0.2749800384044647,0.0,0.0,-0.2901915816536131,0.7994680065002404
-0.0355092994868755,1.149296760559082,-0.0890889912843704,-0.4972295463085174,-0.2000130116939544,-0.3002693653106689,0.0,0.0,0.0609606690038033,0.919756023395317
-0.0365336425602436,1.138227939605713,-0.0857348144054412,-0.4943053126335144,-0.2168672680854797,-0.3370853066444397,0.0,0.0,-0.621070415749208,0.8961858978346684
-0.037549115717411,1.1264628171920776,-0.0831765681505203,-0.5257063508033752,-0.2354727089405059,-0.3721091449260711,0.0,0.0,-0.2818407225802843,-0.6438623919048749
-0.0386680588126182,1.114051342010498,-0.0948390588164329,-0.5544556975364685,-0.2528180181980133,-0.3469060063362121,0.0,0.0,-0.9807472825050354,-0.8346987366676331
-0.0399163253605365,1.100991129875183,-0.1096929907798767,-0.5831273198127747,-0.2682632207870483,-0.3089040219783783,0.0,0.0,-0.8704100847244263,-0.9865639805793762
-0.0413040146231651,1.0873029232025146,-0.1259386837482452,-0.6107787489891052,-0.2814250588417053,-0.263236939907074,0.0,0.0,-0.9841293096542358,-0.9912125468254088
-0.0428321845829486,1.0729687213897705,-0.1421787738800048,-0.6391597390174866,-0.2923652231693268,-0.2188034951686859,0.0,0.0,-0.9839827418327332,-0.997148871421814
-0.0444883331656456,1.0579957962036133,-0.1569283008575439,-0.6672273278236389,-0.3013217151165008,-0.1791290491819381,0.0,0.0,0.3419628143310547,-0.9884118437767028
-0.0460731498897075,1.0432627201080322,-0.1517992466688156,-0.6562010645866394,-0.3082378804683685,-0.1383231431245803,0.0,0.0,0.4561208486557007,-0.9941137433052064
-0.0476912483572959,1.0284714698791504,-0.1570868194103241,-0.6583969593048096,-0.3131352365016937,-0.0979473739862442,0.0,0.0,0.0895355939865112,-0.973617136478424
-0.0492509827017784,1.0137505531311035,-0.1531842499971389,-0.6548721194267273,-0.3160273134708404,-0.0578413419425487,0.0,0.0,0.81354820728302,-0.989814043045044
-0.0506934151053428,0.9997424483299256,-0.1433775573968887,-0.6227750182151794,-0.316930741071701,-0.018068354576826,0.0,0.0,0.5573421716690063,-0.918827474117279
-0.0520490631461143,0.9858967661857604,-0.1365668773651123,-0.6151467561721802,-0.3158929646015167,0.0207553915679454,0.0,0.0,-0.3263685703277588,-0.961283564567566
-0.0535386092960834,0.9714252948760986,-0.1522203385829925,-0.6424733996391296,-0.3125036358833313,0.0677858889102935,0.0,0.0,0.0048701763153076,-0.8922402858734131
-0.0549623481929302,0.9567224979400636,-0.1474093049764633,-0.6523807048797607,-0.3072840869426727,0.1043912023305893,0.0,0.0,0.3623185157775879,-0.8499788045883179
-0.0563358291983604,0.941694974899292,-0.1441873610019683,-0.6664581298828125,-0.3002083003520965,0.1415154486894607,0.0,0.0,0.106729507446289,-0.6444286108016968
-0.0576295852661132,0.9264886379241944,-0.1376244723796844,-0.674159824848175,-0.2916833758354187,0.170498251914978,0.0,0.0,-0.7308991551399231,0.3952974081039428
-0.0589696876704692,0.9106079936027528,-0.1423403769731521,-0.7041629552841187,-0.2831063270568847,0.1715412735939026,0.0,0.0,-0.2571128606796264,0.5113625526428223
-0.0603142753243446,0.8940297961235046,-0.1417760848999023,-0.7354071736335754,-0.2755951583385467,0.1502241641283035,0.0,0.0,-0.1371625661849975,-0.1067269444465637
-0.0617026314139366,0.8767772316932678,-0.1462287455797195,-0.7654089331626892,-0.2680236995220184,0.1514290869235992,0.0,0.0,-0.1580983996391296,0.0457786321640014
-0.0631333366036415,0.858850359916687,-0.1505350172519683,-0.7954108119010925,-0.2603881955146789,0.152710348367691,0.0,0.0,0.7265961170196533,0.8403995037078857
-0.06447534263134,0.8414832353591919,-0.1398292481899261,-0.7708834409713745,-0.2546456158161163,0.1148514598608017,0.0,0.0,-0.2900012135505676,0.1866593360900879
-0.065856359899044,0.8234413266181946,-0.1438092589378357,-0.8008832335472107,-0.2488318979740142,0.1162742525339126,0.0,0.0,0.5420297384262085,0.2956573963165283
-0.067013643682003,0.8054500818252563,-0.1221136003732681,-0.7985401153564453,-0.242324560880661,0.1301468759775161,0.0,0.0,0.0277904272079467,0.5082170963287354
-0.0680951103568077,0.7874546647071838,-0.1135515719652175,-0.7989183068275452,-0.2368306964635849,0.1098773330450058,0.0,0.0,0.1185410022735595,0.2948802709579468
-0.0690670982003212,0.7691971659660339,-0.1030356064438819,-0.8105157017707825,-0.2309144288301468,0.1183257550001144,0.0,0.0,0.6364846229553223,0.3399050235748291
-0.0698862075805664,0.7514176368713379,-0.0878441557288169,-0.7892846465110779,-0.2249009311199188,0.1202696934342384,0.0,0.0,-0.2625684738159179,0.4898329973220825
-0.0707340240478515,0.7329633235931396,-0.0908041521906852,-0.8192846775054932,-0.2188026160001754,0.1219660639762878,0.0,0.0,0.5575006008148193,0.4170631170272827
-0.0715994834899902,0.7145140171051025,-0.0922611802816391,-0.8191347122192383,-0.2130342274904251,0.1153680831193924,0.0,0.0,0.7877938747406006,0.4888248443603515
-0.072206974029541,0.6966220736503601,-0.0670131742954254,-0.7943059802055359,-0.2067066878080368,0.126550406217575,0.0,0.0,0.387690782546997,0.0485039949417114
-0.0726058036088943,0.6788515448570251,-0.0467743352055549,-0.7888563275337219,-0.199753001332283,0.1390730887651443,0.0,0.0,-0.6122366189956665,0.4093732833862304
-0.0730228424072265,0.6604063510894775,-0.048702422529459,-0.8188574314117432,-0.1927081644535064,0.1408965289592743,0.0,0.0,0.6472312211990356,0.5285751819610596
-0.073343276977539,0.6424558758735657,-0.0378824472427368,-0.7970554828643799,-0.1868464946746826,0.1172334551811218,0.0,0.0,-0.1314345598220825,-0.6677117943763733
-0.0737243667244911,0.623838484287262,-0.0452645197510719,-0.8265572786331177,-0.1796698421239853,0.1435332000255584,0.0,0.0,0.5425400733947754,0.0922685861587524
-0.0740900039672851,0.6055381894111633,-0.0433860383927822,-0.8125388622283936,-0.1728329211473465,0.1367384493350982,0.0,0.0,0.8223061561584473,0.133679986000061
-0.0742298141121864,0.5873710513114929,-0.021520797163248,-0.8065659999847412,-0.1652722209692001,0.1512138545513153,0.0,0.0,0.4529536962509155,-0.0084182024002075
-0.0742635726928711,0.5693220496177673,-0.0111266728490591,-0.8013378977775574,-0.157521978020668,0.1550048887729644,0.0,0.0,0.7108794450759888,-0.1403540968894958
-0.0742242783308029,0.5512117147445679,-0.0039582611061632,-0.804090142250061,-0.1496406644582748,0.1576263010501861,0.0,0.0,0.7894659042358398,-0.273959219455719
-0.0742189437150955,0.5334064364433289,-0.0068376883864402,-0.7906230092048645,-0.1422861963510513,0.1470889151096344,0.0,0.0,0.7874658107757568,0.1665915250778198
-0.074052907526493,0.5162966251373291,0.0090185860171914,-0.7597313523292542,-0.1347313821315765,0.1510966718196869,0.0,0.0,0.8295145034790039,0.0511918067932128
-0.0737438201904296,0.4989755153656006,0.0228048674762249,-0.7691157460212708,-0.1266636401414871,0.161354660987854,0.0,0.0,0.858004093170166,0.3629064559936523
-0.0732706040143966,0.482403039932251,0.0389747358858585,-0.7358721494674683,-0.1183634623885154,0.1660035848617553,0.0,0.0,0.7273399829864502,0.2044435739517212
-0.0728209465742111,0.465910792350769,0.0369824469089508,-0.7323747277259827,-0.1104273051023483,0.1587234437465667,0.0,0.0,0.9369367361068726,0.3278766870498657
-0.0723718628287315,0.4499456584453583,0.037312876433134,-0.7090234160423279,-0.1028987765312194,0.1505704820156097,0.0,0.0,0.8397198915481567,-0.5606118440628052
-0.0718377083539962,0.4343425035476684,0.0445080026984214,-0.6928848028182983,-0.0940610989928245,0.1767534762620926,0.0,0.0,0.4791393280029297,0.0058553218841552
-0.0713227242231369,0.41921067237854,0.0430281125009059,-0.6720171570777893,-0.0856682360172271,0.1678573787212371,0.0,0.0,0.9416607618331908,0.4142476320266723
-0.0706363692879676,0.4044078290462494,0.0596748888492584,-0.6574118733406067,-0.0767880976200103,0.1776025593280792,0.0,0.0,0.3545337915420532,0.734663724899292
-0.0698685646057128,0.3894016742706299,0.0692483931779861,-0.6665751338005066,-0.0693318024277687,0.1491261720657348,0.0,0.0,0.9091503620147704,-0.1159937977790832
-0.068963810801506,0.3742750883102417,0.0824799239635467,-0.6719416379928589,-0.061425931751728,0.1581175178289413,0.0,0.0,0.8198151588439941,-0.3841837644577026
-0.0680360794067382,0.3590373694896698,0.0848624259233474,-0.6769311428070068,-0.0535958223044872,0.1566019654273986,0.0,0.0,0.9201955795288086,0.3328084945678711
-0.0670313835144043,0.3445069491863251,0.0925046205520629,-0.6455305218696594,-0.0457263700664043,0.1573890745639801,0.0,0.0,0.6966708898544312,-0.3723344802856445
-0.0658669471740722,0.3305521607398987,0.1080053895711898,-0.6199802756309509,-0.037393145263195,0.1666646301746368,0.0,0.0,0.5716710090637207,0.3368550539016723
-0.0647388473153114,0.3170946836471557,0.1047919765114784,-0.5979321599006653,-0.0294708628207445,0.1584454923868179,0.0,0.0,0.5542318820953369,0.621300220489502
-0.0636415481567382,0.3034273087978363,0.1031795516610145,-0.6073237657546997,-0.0230004675686359,0.1294077634811401,0.0,0.0,0.9073941707611084,0.0701086521148681
-0.0624316222965717,0.2904524207115173,0.1141332015395164,-0.5765679478645325,-0.0162332635372877,0.1353443413972854,0.0,0.0,0.5625231266021729,0.3944758176803589
-0.0612621307373046,0.2776219546794891,0.1104651317000389,-0.5701900720596313,-0.0098285609856247,0.1280940175056457,0.0,0.0,0.5699062347412109,0.1901109218597412
-0.0600902549922466,0.2650837898254394,0.110869288444519,-0.5572227835655212,-0.0035846587270498,0.1248779296875,0.0,0.0,0.7279860973358154,0.6425697803497314
-0.0588287338614463,0.2529712319374084,0.1210728883743286,-0.5383331775665283,0.0014285139041021,0.1002630814909935,0.0,0.0,0.8740189075469971,-0.3239883184432983
-0.0574183464050293,0.2411741614341735,0.1354172676801681,-0.5243290662765503,0.0069782081991434,0.1109941229224205,0.0,0.0,0.5066943168640137,-0.4736132621765136
-0.0559363365173339,0.229171022772789,0.1423918902873993,-0.5335100293159485,0.0127064371481537,0.1145645156502723,0.0,0.0,0.7480230331420898,-0.3730700016021728
-0.0543084144592285,0.2171342670917511,0.1564502120018005,-0.5350335836410522,0.0189667530357837,0.1252064108848571,0.0,0.0,0.8587558269500732,-0.6425952911376953
-0.0525113120675087,0.2053902000188827,0.1715351492166519,-0.5220816731452942,0.0270360838621854,0.1613867729902267,0.0,0.0,0.8878114223480225,-0.748878538608551
-0.0505575165152549,0.1936468482017517,0.1852360367774963,-0.5221381783485413,0.0370647013187408,0.200572207570076,0.0,0.0,0.8640611171722412,-0.938118815422058
-0.0486603751778602,0.1825031638145446,0.1776065826416015,-0.495619386434555,0.04902333766222,0.239172413945198,0.0,0.0,0.8334221839904785,-0.4543328285217285
-0.0467134490609169,0.1719500571489334,0.1823645830154419,-0.4694717228412628,0.0612172819674015,0.2438790053129196,0.0,0.0,0.7784204483032227,-0.629612147808075
-0.0446586608886718,0.1618105322122573,0.1914540231227874,-0.4512785077095032,0.0751010328531265,0.2776747345924377,0.0,0.0,0.0969468355178833,-0.3991713523864746
-0.042495060712099,0.1513304561376571,0.2019463777542114,-0.466565877199173,0.0893704071640968,0.2853875756263733,0.0,0.0,0.8776078224182129,0.1217941045761108
-0.0403838157653808,0.1410348564386367,0.1969292908906936,-0.458492249250412,0.1034392118453979,0.2813764214515686,0.0,0.0,0.8303430080413818,-0.0685102343559265
-0.0382187850773334,0.1315077096223831,0.2018246203660965,-0.4245100617408752,0.1180172115564346,0.2915599942207336,0.0,0.0,0.5219278335571289,0.1751527786254882
-0.0360770225524902,0.122085653245449,0.1995447129011154,-0.4199788272380829,0.1325711458921432,0.2910791039466858,0.0,0.0,0.9117100238800048,0.3157448768615722
-0.0341395363211631,0.1133314967155456,0.1797485649585724,-0.3903773427009582,0.146534264087677,0.2792623043060303,0.0,0.0,0.6286813020706177,0.3892343044281006
-0.0321568474173545,0.1049448326230049,0.1838121861219406,-0.3742255568504333,0.1609693169593811,0.2887006402015686,0.0,0.0,0.5742883682250977,0.3042272329330444
-0.0302781108766794,0.0969322547316551,0.1736119389533996,-0.3577166497707367,0.1752433180809021,0.2854800224304199,0.0,0.0,0.4247617721557617,0.540179967880249
-0.0284852031618356,0.089196115732193,0.166263610124588,-0.345425546169281,0.1883256435394287,0.2616464793682098,0.0,0.0,0.3339102268218994,0.2519651651382446
-0.0267254821956157,0.0813741534948349,0.1629814356565475,-0.3493483662605285,0.2013898491859436,0.2612845301628113,0.0,0.0,0.7038902044296265,0.580756664276123
-0.0251096729189157,0.0737665519118309,0.1500438451766967,-0.3397319912910461,0.2130308449268341,0.2328197211027145,0.0,0.0,0.9044220447540284,0.4717390537261963
-0.0237286575138568,0.0663159489631652,0.1273032128810882,-0.3327341973781585,0.2239442318677902,0.2182676792144775,0.0,0.0,0.9224908351898192,0.5641629695892334
-0.0223001483827829,0.0594767443835735,0.1327722370624542,-0.3055287003517151,0.2341633141040802,0.2043817788362503,0.0,0.0,0.931504487991333,0.4993246793746948
-0.0208391193300485,0.0526185147464275,0.1356421560049057,-0.3065067231655121,0.2447887510061264,0.2125087082386016,0.0,0.0,0.9407023191452026,0.6843504905700684
-0.0193029399961233,0.0464826188981533,0.1440304815769195,-0.2743352949619293,0.254557341337204,0.1953716576099395,0.0,0.0,0.8121864795684814,0.2132244110107422
-0.0179421417415142,0.0408993326127529,0.1265513300895691,-0.2498262524604797,0.2642843425273895,0.1945403516292572,0.0,0.0,0.6350085735321045,0.4478411674499511
-0.0166027061641216,0.0359224416315555,0.1237410083413124,-0.2230709195137024,0.2747389376163482,0.2090914696455001,0.0,0.0,0.2991559505462646,-0.0903964638710022
-0.0152656557038426,0.0309547763317823,0.1231822520494461,-0.2227999866008758,0.2855453491210937,0.2161286175251007,0.0,0.0,0.1027514934539794,-0.0305006504058837
-0.014044570736587,0.0270897485315799,0.1289310157299041,-0.1704539954662323,0.278579831123352,-0.1392553746700287,0.0,1.0,0.9378516674041748,0.9365233182907104
-0.0130443572998046,0.0247864108532667,0.1268624067306518,-0.0975110232830047,0.2510866522789001,-0.5499261021614075,0.0,1.0,0.6051332950592041,-0.6770937442779541
-0.0121904369443655,0.0230250936001539,0.1231310814619064,-0.0722975581884384,0.2127533257007599,-0.7667290568351746,0.0,1.0,0.4370241165161133,-0.6396626830101013
-0.0116394041106104,0.0215382203459739,0.0964989066123962,-0.0606626905500888,0.1710580587387085,-0.8339617848396301,0.0,1.0,0.3527836799621582,-0.9145505428314208
-0.0113167762756347,0.0199294667690992,0.0704426616430282,-0.0675518438220024,0.1329299807548523,-0.7625628709793091,0.0,1.0,0.5352938175201416,-0.8622562885284424
-0.0111547466367483,0.018424354493618,0.0528504736721515,-0.064032644033432,0.0964956507086753,-0.7286876440048218,0.0,0.0,-0.8606236577033997,-0.9506871104240416
-0.0110014919191598,0.0162486881017684,0.0502113290131092,-0.0948037132620811,0.0619511567056179,-0.6908907890319824,0.0,0.0,0.0398694276809692,-0.9152446985244752
-0.0107729909941554,0.0137460092082619,0.0559063330292701,-0.1101867780089378,0.0292881410568952,-0.6532613635063171,0.0,0.0,0.3239372968673706,-0.908089280128479
-0.0104788783937692,0.0114080524072051,0.0605325512588024,-0.1035865694284439,-0.0014299721224233,-0.6143630146980286,0.0,0.0,0.540726900100708,-0.8974046111106873
-0.01016406994313,0.0095439171418547,0.0606855265796184,-0.0831285789608955,-0.0302603840827941,-0.576609194278717,0.0,0.0,0.5703821182250977,-0.9290552735328674
-0.0097811697050929,0.0074495766311883,0.0654411166906356,-0.0938486829400062,-0.0570887699723243,-0.5365682244300842,0.0,0.0,0.6028976440429688,-0.9913007020950316
