x_pos,y_pos,x_vel,y_vel,angle,ang_vel,leg_1,leg_2,main_booster,lat_booster
-0.0015127181541174,1.403185248374939,-0.1536733210086822,-0.3437685370445251,0.0021509134676307,0.0424577966332435,0.0,0.0,0.7012728929759198,0.7493757625330921
-0.0028983117081224,1.395743727684021,-0.1396854221820831,-0.3307358920574188,0.003256767289713,0.0221201088279485,0.0,0.0,-0.0189796255158294,0.96436785049492
-0.0041808127425611,1.387855887413025,-0.1273515820503235,-0.3505695164203644,0.0023676638957113,-0.0177835710346698,0.0,0.0,0.3270966082583229,-0.5897114564220266
-0.0056052207946777,1.3801283836364746,-0.1427913755178451,-0.3434433937072754,0.0027240007184445,0.0071272170171141,0.0,0.0,-0.647158334536831,0.6474323844278064
-0.0069576264359056,1.3719640970230105,-0.1343163400888443,-0.3628621697425842,0.0018033990636467,-0.0184137970209121,0.0,0.0,-0.7239310171020321,-0.9274931889920792
-0.0083567621186375,1.363358974456787,-0.1406624466180801,-0.3824458122253418,0.0025508692488074,0.0149506051093339,0.0,0.0,0.5669915414442508,0.6365937259330376
-0.0097209932282567,1.355136513710022,-0.1360672861337661,-0.3654424846172333,0.0021997187286615,-0.0070239179767668,0.0,0.0,-0.5349595527302686,-0.637354914563713
-0.011113834567368,1.3464765548706057,-0.1400771290063858,-0.3848921656608581,0.0029848476406186,0.0157041270285844,0.0,0.0,0.4585192780445815,0.852955022491606
-0.0124449729919433,1.338495135307312,-0.1323314309120178,-0.3547307252883911,0.0022152925375849,-0.015392686240375,0.0,0.0,0.1149314052487429,-0.5536694108649429
-0.0138128278777003,1.3308128118515017,-0.137239933013916,-0.3414327800273895,0.0026610395871102,0.008915627375245,0.0,0.0,-0.3731411293312443,-0.705954456368583
-0.0152203561738133,1.322691798210144,-0.1424964070320129,-0.360940933227539,0.0043886294588446,0.0345548391342163,0.0,0.0,-0.37974495779871,-0.5075534586226711
-0.0166554450988769,1.3141303062438965,-0.146204873919487,-0.3805161118507385,0.0070521044544875,0.0532744899392128,0.0,0.0,-0.2796858947705865,0.6244301937197518
-0.0180233959108591,1.3051337003707886,-0.1379769146442413,-0.3998577296733856,0.0082221999764442,0.0234041288495063,0.0,0.0,-0.7062592820792561,-0.639809268513899
-0.0194288250058889,1.2956914901733398,-0.1428549736738205,-0.4196718633174896,0.0104931434616446,0.0454233139753341,0.0,0.0,-0.6179139438779053,0.5551847714756433
-0.0207737926393747,1.285816669464111,-0.1353593319654464,-0.4388879835605621,0.0113443601876497,0.0170261301100254,0.0,0.0,-0.5265731182639368,-0.613891428944555
-0.0221520420163869,1.2754948139190674,-0.1396017968654632,-0.4587643444538116,0.0130976494401693,0.0350690297782421,0.0,0.0,0.6987558859239784,-0.976966517363324
-0.0234539024531841,1.2660661935806274,-0.1340076625347137,-0.4190902411937713,0.0168792717158794,0.0756392478942871,0.0,0.0,0.0601826170017927,0.6591526191364162
-0.0245984084904193,1.2565571069717407,-0.1169153600931167,-0.4226534068584442,0.0193044822663068,0.048508882522583,0.0,0.0,0.48920418941486,0.634992823061385
-0.0256061553955078,1.247704267501831,-0.1019567102193832,-0.3934726417064667,0.0204751268029212,0.0234149433672428,0.0,0.0,0.615891890910889,-0.8423885836649949
-0.0267746932804584,1.2392371892929075,-0.1193494573235511,-0.3763515055179596,0.0229401793330907,0.0493056327104568,0.0,0.0,-0.7319647790442756,-0.6121212256520625
-0.0279770847409963,1.2303340435028076,-0.1234268695116043,-0.3957467377185821,0.0260962527245283,0.0631269663572311,0.0,0.0,-0.9482473810208378,-0.6734070857677517
-0.0292275436222553,1.2209858894348145,-0.1292590498924255,-0.4155456125736236,0.0302666686475276,0.0834155827760696,0.0,0.0,-0.7249018363794135,0.947599333232666
-0.0303831100463867,1.2112014293670654,-0.1171336993575096,-0.4348928034305572,0.0318191275000572,0.0310520827770233,0.0,0.0,0.4764810753231627,0.5859655051763601
-0.0314299575984478,1.201395034790039,-0.1048672571778297,-0.4358473718166351,0.032006662338972,0.003751132171601,0.0,0.0,-0.8611568779245369,0.9090131118000452
-0.0324186310172081,1.1911542415618896,-0.0972759574651718,-0.4551092982292175,0.0304285921156406,-0.0315642431378364,0.0,0.0,-0.5237959701226897,0.9753810550653872
-0.0333456024527549,1.180460810661316,-0.0891994684934616,-0.4751999080181122,0.0269701797515153,-0.0691681280732154,0.0,0.0,0.1979347126317683,-0.9923791872235512
-0.0343596450984478,1.1701210737228394,-0.0994589403271675,-0.4595093429088592,0.0250511560589075,-0.0383805520832538,0.0,0.0,-0.2807610256291608,-0.7734466447553263
-0.0354460701346397,1.1593472957611084,-0.1081284433603286,-0.4788244366645813,0.02454649284482,-0.0100933033972978,0.0,0.0,-0.2491927097395523,-0.600700707112345
-0.0365883819758892,1.148137092590332,-0.1147119551897049,-0.498238205909729,0.0250164270401,0.0093990731984376,0.0,0.0,-0.6965465985584978,0.5478919568457916
-0.0376872047781944,1.1364871263504028,-0.108788713812828,-0.5177577137947083,0.0239362567663192,-0.021603463217616,0.0,0.0,-0.3598847724491498,0.9553798334258694
-0.0387067794799804,1.1244115829467771,-0.0983655080199241,-0.5366384387016296,0.0203785430639982,-0.0711540207266807,0.0,0.0,-0.94740092754364,0.7246085405349731
-0.0396754257380962,1.1118943691253662,-0.0914440527558326,-0.5562576651573181,0.0150314196944236,-0.1069425493478775,0.0,0.0,-0.830473005771637,-0.9567051529884338
-0.0407294258475303,1.098945140838623,-0.1016129106283187,-0.5754848718643188,0.0112961558625102,-0.074705570936203,0.0,0.0,-0.98289692401886,-0.3980731964111328
-0.0417828559875488,1.085556983947754,-0.1009841710329055,-0.5950019359588623,0.0069949398748576,-0.0860241502523422,0.0,0.0,-0.9853519797325134,-0.9700365662574768
-0.0429106727242469,1.0717312097549438,-0.1097401157021522,-0.6144734025001526,0.0039907456375658,-0.0600836984813213,0.0,0.0,-0.9395112991333008,-0.2490190267562866
-0.0440384857356548,1.0574662685394287,-0.1091373115777969,-0.6339904069900513,0.0003941316972486,-0.0719324722886085,0.0,0.0,-0.858643651008606,-0.5625826120376587
-0.0452129356563091,1.0427594184875488,-0.1143779978156089,-0.6536374688148499,-0.0026391935534775,-0.0606663152575492,0.0,0.0,-0.8810485005378723,-0.9907955527305604
-0.0464613921940326,1.0276216268539429,-0.1230187267065048,-0.6727996468544006,-0.0044416966848075,-0.0360500700771808,0.0,0.0,-0.9146421551704408,-0.273339569568634
-0.0477106086909771,1.0120446681976318,-0.1224607825279235,-0.6923166513442993,-0.0068689160980284,-0.0485442355275154,0.0,0.0,-0.7146894335746765,-0.8453349471092224
-0.0490245819091796,0.9960303902626038,-0.1299181878566742,-0.7117494940757751,-0.0083277756348252,-0.029177377000451,0.0,0.0,-0.913062572479248,-0.5550880432128906
-0.0503914840519428,0.9795824885368348,-0.1358799338340759,-0.7310225963592529,-0.0091290101408958,-0.0160243399441242,0.0,0.0,0.3313591480255127,-0.5347487330436707
-0.0516901984810829,0.9633261561393738,-0.1297297179698944,-0.7225027084350586,-0.0092743523418903,-0.0029068146832287,0.0,0.0,-0.8692474961280823,0.6073483228683472
-0.0529349334537982,0.9466235041618348,-0.1222427934408187,-0.7423613667488098,-0.0114789614453911,-0.0440921410918235,0.0,0.0,-0.4585533142089844,0.097571849822998
-0.0541817657649517,0.9294818639755248,-0.1217744722962379,-0.7618787884712219,-0.0143462708219885,-0.0573460832238197,0.0,0.0,-0.7483837604522705,-0.6309290528297424
-0.0554841980338096,0.9118948578834534,-0.1280199885368347,-0.7816652059555054,-0.0165430381894111,-0.0439354702830314,0.0,0.0,0.789332389831543,-0.4335435628890991
-0.0567335113883018,0.8944105505943298,-0.1222502812743187,-0.7771118879318237,-0.0191833339631557,-0.0528057627379894,0.0,0.0,0.4162806272506714,-0.9221314191818236
-0.0579915046691894,0.8770571947097778,-0.1243569701910018,-0.7712780237197876,-0.0206124726682901,-0.0285828653723001,0.0,0.0,-0.1775120496749878,-0.0263053774833679
-0.0592526420950889,0.8592650294303894,-0.1239712834358215,-0.7907957434654236,-0.0227243658155202,-0.042237713932991,0.0,0.0,0.7096089124679565,-0.3898353576660156
-0.0606356635689735,0.8422617316246033,-0.1348337978124618,-0.7557589411735535,-0.0261581167578697,-0.0686748996376991,0.0,0.0,0.0525039434432983,-0.6668637990951538
-0.062082003802061,0.8253062963485718,-0.1417832225561142,-0.7536268830299377,-0.0289718061685562,-0.0562737509608268,0.0,0.0,-0.6282774209976196,-0.7428888082504272
-0.0635769814252853,0.8079138398170471,-0.147081196308136,-0.7730461359024048,-0.0313534438610076,-0.047632984817028,0.0,0.0,-0.017407476902008,-0.1536700129508972
-0.065075971186161,0.7900826334953308,-0.1467845439910888,-0.7925648093223572,-0.0344315618276596,-0.0615623779594898,0.0,0.0,0.4442974328994751,0.4506385326385498
-0.0664704293012619,0.7723903656005859,-0.1360678374767303,-0.7863988280296326,-0.0377667807042598,-0.0667044520378112,0.0,0.0,0.0816200971603393,0.5537149906158447
-0.0678034797310829,0.7550449967384338,-0.1281075626611709,-0.7710450291633606,-0.0429006442427635,-0.1026773825287818,0.0,0.0,-0.4942100048065185,-0.6742441654205322
-0.0691815391182899,0.7372614741325378,-0.1329203397035598,-0.790535032749176,-0.0477292202413082,-0.0965713635087013,0.0,0.0,0.7641772031784058,-0.9244166016578674
-0.0707273483276367,0.7198023200035095,-0.1506631523370742,-0.776086151599884,-0.051605150103569,-0.0775185674428939,0.0,0.0,-0.2093114256858825,0.0675961971282959
-0.0722785964608192,0.7019049525260925,-0.1504805982112884,-0.7956068515777588,-0.0561886243522167,-0.0916696339845657,0.0,0.0,0.9201869964599608,-0.736144483089447
-0.0736758261919021,0.6847363710403442,-0.136266142129898,-0.7631818056106567,-0.0596095286309719,-0.068418301641941,0.0,0.0,0.8725883960723877,0.154942512512207
-0.0749387741088867,0.6685191988945007,-0.1225080639123916,-0.7209209203720093,-0.0633493885397911,-0.0747971162199974,0.0,0.0,0.1589616537094116,-0.1351268291473388
-0.0762261375784874,0.652694046497345,-0.1239830628037452,-0.703552782535553,-0.068048357963562,-0.093979574739933,0.0,0.0,-0.5915815830230713,-0.4262398481369018
-0.0775197967886924,0.636430561542511,-0.1238891258835792,-0.7230750322341919,-0.0734604224562645,-0.1082414016127586,0.0,0.0,-0.0632693171501159,-0.627382755279541
-0.0788773521780967,0.619738757610321,-0.1310480237007141,-0.7420982718467712,-0.0781284421682357,-0.0933601185679435,0.0,0.0,0.7045495510101318,-0.5046470165252686
-0.0801046341657638,0.6033942699432373,-0.118698701262474,-0.7266389727592468,-0.0821235105395317,-0.079901322722435,0.0,0.0,0.5733883380889893,-0.0781992673873901
-0.0812685936689376,0.5874816179275513,-0.1117449775338172,-0.7074944376945496,-0.0867306962609291,-0.0921436995267868,0.0,0.0,0.2871891260147095,-0.2128745913505554
-0.0824065208435058,0.5715968012809753,-0.1084484681487083,-0.7063092589378357,-0.0920262932777404,-0.1059121713042259,0.0,0.0,0.3362545967102051,-0.946360170841217
-0.0836973190307617,0.5560148358345032,-0.1248423904180526,-0.6927980184555054,-0.0962283834815025,-0.084042027592659,0.0,0.0,0.0408113002777099,0.0082205533981323
-0.084930419921875,0.540798008441925,-0.1184038892388343,-0.6766281127929688,-0.101085677742958,-0.0971459671854972,0.0,0.0,-0.033884584903717,-0.8189411163330078
-0.0862274169921875,0.5251420140266418,-0.1255016177892685,-0.6961126327514648,-0.1052543967962265,-0.0833744332194328,0.0,0.0,0.6383171081542969,0.2123794555664062
-0.0874166488647461,0.510306715965271,-0.1141263842582702,-0.6596922278404236,-0.1100176945328712,-0.0952658802270889,0.0,0.0,0.1532161235809326,0.2686066627502441
-0.088642880320549,0.495537132024765,-0.116799809038639,-0.6568647623062134,-0.1158036515116691,-0.1157192811369896,0.0,0.0,-0.4308139085769653,-0.5370138883590698
-0.0899257659912109,0.4803407192230224,-0.1229825988411903,-0.6758186221122742,-0.1210726499557495,-0.1053799837827682,0.0,0.0,0.690871000289917,-0.5755808353424072
-0.0911515206098556,0.4656582474708557,-0.1177948713302612,-0.6529499292373657,-0.1258244663476944,-0.0950362309813499,0.0,0.0,-0.0154941082000732,0.2008517980575561
-0.0923856720328331,0.450538158416748,-0.1179206222295761,-0.6724757552146912,-0.1312954425811767,-0.1094196438789367,0.0,0.0,0.8844635486602783,-0.8013033270835876
-0.0935142487287521,0.4359545409679413,-0.1084417253732681,-0.6485562920570374,-0.1356926560401916,-0.0879444181919097,0.0,0.0,0.6843351125717163,-0.481442928314209
-0.0946316719055175,0.4215329885482788,-0.1064465269446373,-0.6414505243301392,-0.1409680098295211,-0.1055071502923965,0.0,0.0,0.9095685482025146,-0.7592365145683289
-0.0956808105111122,0.4072186350822449,-0.1006124839186668,-0.6366071105003357,-0.1452565789222717,-0.0857710316777229,0.0,0.0,0.90526282787323,-0.6907768249511719
-0.0967759117484092,0.3930612802505493,-0.1057707890868187,-0.6295844316482544,-0.1489823162555694,-0.0745151489973068,0.0,0.0,0.6445263624191284,-0.7545333504676819
-0.0978301018476486,0.3796596229076385,-0.1024701222777366,-0.5959281325340271,-0.1519314795732498,-0.0589829757809639,0.0,0.0,0.5818967819213867,-0.7821393013000488
-0.0987517386674881,0.3669809997081756,-0.0902054458856582,-0.563696026802063,-0.1538833379745483,-0.0390374734997749,0.0,0.0,0.3761715888977051,-0.8981893658638
-0.0997529029846191,0.3549235761165619,-0.0991485342383384,-0.5359830260276794,-0.154848426580429,-0.0193015504628419,0.0,0.0,-0.5922698378562927,-0.0770805478096008
-0.1007634177803993,0.3424286246299743,-0.0993695631623268,-0.5555087327957153,-0.1565306484699249,-0.0336444564163684,0.0,0.0,0.4351320266723633,0.6111385822296143
-0.1015901565551757,0.3304985761642456,-0.0791403204202652,-0.5305973887443542,-0.1600694060325622,-0.0707751736044883,0.0,0.0,-0.0363406538963317,-0.7801756858825684
-0.102497674524784,0.3181483447551727,-0.0883156433701515,-0.5491654276847839,-0.1624995172023773,-0.048602145165205,0.0,0.0,0.4386156797409057,-0.7797561883926392
-0.1034322753548622,0.3062653541564941,-0.0918034315109252,-0.5283170938491821,-0.16416035592556,-0.0332166366279125,0.0,0.0,-0.0014329552650451,0.0373550653457641
-0.1043765991926193,0.2939448058605194,-0.092057317495346,-0.5478435754776001,-0.1665354520082473,-0.0475020185112953,0.0,0.0,0.1335421800613403,-0.3378911018371582
-0.1052055358886718,0.281762421131134,-0.0800761133432388,-0.5417568683624268,-0.1693471521139145,-0.0562340542674064,0.0,0.0,0.544642448425293,-0.7720576524734497
-0.1060270294547081,0.2696174383163452,-0.0802114903926849,-0.5399970412254333,-0.1712872833013534,-0.0388026051223278,0.0,0.0,0.6217629909515381,-0.8844477534294128
-0.1067602187395095,0.257604718208313,-0.0725883170962333,-0.53398597240448,-0.1720220893621444,-0.014695780351758,0.0,0.0,0.3073089122772217,-0.927226722240448
-0.1073658019304275,0.2458062916994094,-0.0610557869076728,-0.5243165493011475,-0.1715242266654968,0.0099571822211146,0.0,0.0,0.7292077541351318,-0.7835596799850464
-0.1078145951032638,0.2341494113206863,-0.0465486831963062,-0.5178931355476379,-0.16985684633255,0.0333475470542907,0.0,0.0,0.9138073921203612,-0.566262423992157
-0.1081767082214355,0.2233587801456451,-0.0382868759334087,-0.4793472588062286,-0.1677790135145187,0.0415567643940448,0.0,0.0,0.7645635604858398,-0.1744494438171386
-0.108380988240242,0.2133205235004425,-0.0219393707811832,-0.4459719657897949,-0.1662533581256866,0.030512735247612,0.0,0.0,-0.0362243056297302,-0.8535187244415283
-0.1086474433541297,0.2028612047433853,-0.0288279689848423,-0.4646162092685699,-0.1640730053186416,0.0436072573065757,0.0,0.0,0.332903504371643,0.084202766418457
-0.1088006049394607,0.1923341304063797,-0.0171700436621904,-0.4676656126976013,-0.1622172892093658,0.0371142998337745,0.0,0.0,0.8497626781463623,-0.4106649160385132
-0.1089296340942382,0.1822277158498764,-0.0137918489053845,-0.4490770697593689,-0.1613324880599975,0.0176961775869131,0.0,0.0,0.784124493598938,-0.8180050253868103
-0.1088825240731239,0.1730641424655914,0.002689320128411,-0.40705206990242,-0.1593080908060073,0.0404876917600631,0.0,0.0,-0.4344910383224487,-0.9364224672317504
-0.1089212447404861,0.1634809374809265,-0.0071526616811752,-0.4255709946155548,-0.1560303121805191,0.0655558928847312,0.0,0.0,0.4841649532318115,-0.6035820841789246
-0.1090254783630371,0.1545640528202057,-0.0139609677717089,-0.3959390819072723,-0.1524996012449264,0.070614255964756,0.0,0.0,-0.1418626308441162,-0.7273327112197876
-0.1091877967119216,0.145224466919899,-0.0203341580927371,-0.4146784543991089,-0.1484092026948928,0.0818079710006713,0.0,0.0,0.8120753765106201,0.6599240303039551
-0.1092489212751388,0.1366751492023468,-0.0080494722351431,-0.3797746300697326,-0.1464739888906479,0.0387038774788379,0.0,0.0,-0.2278007864952087,-0.5390588045120239
-0.1093673706054687,0.1277026236057281,-0.0143381133675575,-0.398537129163742,-0.1439902335405349,0.0496753267943859,0.0,0.0,0.8525023460388184,-0.1380831003189087
-0.1094430908560752,0.1191272139549255,-0.0092570874840021,-0.3809688687324524,-0.1423106491565704,0.0335917696356773,0.0,0.0,0.8383123874664307,-0.4593256711959839
-0.1095621138811111,0.1111351549625396,-0.0123127857223153,-0.3551631569862366,-0.1419019401073455,0.0081741549074649,0.0,0.0,0.739112138748169,-0.4345224499702453
-0.1097696274518966,0.1035575270652771,-0.0197596903890371,-0.3368785679340362,-0.1428911387920379,-0.0197842977941036,0.0,0.0,0.8182430267333984,0.0052628517150878
-0.1097587570548057,0.0966912806034088,0.002205173484981,-0.3052709698677063,-0.1440005451440811,-0.0221884883940219,0.0,0.0,0.4415985345840454,-0.6526395678520203
-0.1097045913338661,0.0898580178618431,0.0057646892964839,-0.3037360310554504,-0.1443465799093246,-0.0069207265041768,0.0,0.0,0.5506782531738281,-0.7752714157104492
-0.1094676032662391,0.0836363658308982,0.0228889975696802,-0.2764378786087036,-0.1435294896364212,0.0163418482989072,0.0,0.0,0.5839638710021973,0.2731093168258667
-0.1091550812125206,0.0780860483646392,0.0311728566884994,-0.2466727197170257,-0.1434528231620788,0.0015333802439272,0.0,0.0,0.2095444202423095,-0.3395923376083374
-0.1086588874459266,0.0730041563510894,0.0496844798326492,-0.2258682399988174,-0.1435237526893615,-0.0014183288440108,0.0,0.0,-0.0681065917015075,-0.5716239809989929
-0.1082109436392784,0.0674929022789001,0.0444931723177433,-0.2449171692132949,-0.1432184427976608,0.0061061950400471,0.0,0.0,0.1017930507659912,-0.3141502737998962
-0.107698917388916,0.0623530708253383,0.0515309050679206,-0.2284691333770752,-0.1435475498437881,-0.0065821050666272,0.0,0.0,0.3590860366821289,0.1130590438842773
-0.1070536598563194,0.0577263683080673,0.0652305334806442,-0.2056992202997207,-0.144247367978096,-0.0139963254332542,0.0,0.0,-0.0511752963066101,-0.5166308879852295
-0.1064523681998252,0.0526667200028896,0.0605336427688598,-0.2249102741479873,-0.1446437835693359,-0.0079284347593784,0.0,0.0,0.3785206079483032,-0.4386721849441528
-0.1058860793709755,0.0479569770395755,0.0580751374363899,-0.2094643414020538,-0.1460898518562317,-0.0289210621267557,0.0,0.0,0.0152459144592285,-0.3422614336013794
-0.1053600311279296,0.0432958714663982,0.0549763031303882,-0.2073946446180343,-0.1484647095203399,-0.0474967136979103,0.0,0.0,0.6498682498931885,-0.8616671562194824
-0.1048500090837478,0.0390518270432949,0.0522458553314209,-0.1887469887733459,-0.1497035026550293,-0.024775955826044,0.0,0.0,0.4068267345428467,0.0766475200653076
-0.1042583435773849,0.0350385271012783,0.0608489699661731,-0.1785358041524887,-0.1513732075691223,-0.0333944782614707,0.0,0.0,0.4126923084259033,-0.5100088119506836
-0.1035491004586219,0.0310204364359378,0.0717887133359909,-0.1786706894636154,-0.15224589407444,-0.017453659325838,0.0,0.0,0.758453369140625,-0.4528799057006836
-0.1026345267891883,0.027619682252407,0.0923545807600021,-0.1512361615896225,-0.1531361639499664,-0.0178055819123983,0.0,0.0,0.2404942512512207,-0.7337439656257629
-0.1016702651977539,0.0246939286589622,0.0962948650121688,-0.1300170719623565,-0.153006225824356,0.0025986812543123,0.0,0.0,-0.0733086466789245,-0.8172441124916077
