x_pos,y_pos,x_vel,y_vel,angle,ang_vel,leg_1,leg_2,main_booster,lat_booster
-0.001591968582943,1.4029560089111328,-0.1608363091945648,-0.3539594113826751,0.0014708923408761,0.0289931558072567,0.0,0.0,0.0254834316123147,0.9923529196811705
-0.003136444138363,1.3947714567184448,-0.1535463631153106,-0.3637543022632599,0.0005832120659761,-0.0177548844367265,0.0,0.0,-0.9863836982723782,0.6389065610539623
-0.0046884538605809,1.3859132528305054,-0.1523992270231247,-0.3936932682991028,-0.00219112704508,-0.0554919019341468,0.0,0.0,0.6530730650744025,-0.7669515343193531
-0.0064998627640306,1.3771347999572754,-0.1792458295822143,-0.3901576995849609,-0.0040638078935444,-0.0374569706618785,0.0,0.0,0.2099415853830675,-0.784236771363517
-0.0083324434235692,1.3684062957763672,-0.1827151775360107,-0.3879337906837463,-0.0046072276309132,-0.0108693828806281,0.0,0.0,0.196389854679124,-0.7633324279345648
-0.0101796146482229,1.3595975637435913,-0.1854791045188903,-0.3914869427680969,-0.0038510297890752,0.0151252103969454,0.0,0.0,0.4634587463032464,-0.8722811759760181
-0.012185382656753,1.35088849067688,-0.2027138471603393,-0.3870682120323181,-0.0017408849671483,0.0422070696949958,0.0,0.0,0.56255019356706,-0.7522118050126825
-0.0141628263518214,1.3424307107925415,-0.2013488709926605,-0.3759006261825561,0.0018224528757855,0.0712734013795852,0.0,0.0,0.8322425534585216,0.6487901857849313
-0.0161748882383108,1.3347036838531494,-0.2031258344650268,-0.3434252142906189,0.0037221589591354,0.0379977039992809,0.0,0.0,-0.8125054527343731,-0.949102901033042
-0.0183314327150583,1.3263137340545654,-0.2191324532032013,-0.3729016482830047,0.0071670040488243,0.068903237581253,0.0,0.0,-0.344388526053673,0.7284352150260989
-0.020491886883974,1.3172566890716553,-0.2175256758928299,-0.4025433361530304,0.0086234211921691,0.0291311629116535,0.0,0.0,0.543926522424766,-0.7631888219017197
-0.0227131843566894,1.3082702159881592,-0.224934846162796,-0.3994153141975403,0.011393142864108,0.055399727076292,0.0,0.0,0.9037018822116432,-0.9284923341411172
-0.0249206535518169,1.2998305559158323,-0.2253791838884353,-0.3751364052295685,0.0159793458878994,0.0917323678731918,0.0,0.0,-0.4131537738400492,0.8551127075433775
-0.0271224025636911,1.290716290473938,-0.2225687801837921,-0.4051073789596557,0.0183415710926055,0.0472487695515155,0.0,0.0,0.6242817885513154,-0.6346786230449759
-0.0293083190917968,1.282158374786377,-0.2222810089588165,-0.3803930878639221,0.0219907220453023,0.0729896426200866,0.0,0.0,-0.6794293714149031,-0.9405467976297148
-0.0316244140267372,1.2729191780090332,-0.2364989817142486,-0.4107146561145782,0.0268360003829002,0.0969143062829971,0.0,0.0,0.3464684245088403,0.6287512787174836
-0.0338555350899696,1.264071345329285,-0.2266556322574615,-0.3933050036430359,0.0303457677364349,0.0702015683054924,0.0,0.0,0.6587079720306601,-0.8176395072590994
-0.036073587834835,1.2551162242889404,-0.2269523441791534,-0.3981141149997711,0.0354403778910636,0.1019012182950973,0.0,0.0,0.2663644650621697,-0.9631242672647476
-0.0383723266422748,1.2464251518249512,-0.2366675585508346,-0.3864483535289764,0.0421607382595539,0.1344193071126938,0.0,0.0,0.2373585163674942,0.748759629500862
-0.0407672896981239,1.2376999855041504,-0.244378849864006,-0.3879284858703613,0.046986948698759,0.0965329483151435,0.0,0.0,-0.8579411237431023,0.6623913872521338
-0.0431682579219341,1.2283157110214231,-0.2430272400379181,-0.4171761274337768,0.0498980283737182,0.0582268722355365,0.0,0.0,-0.1089360862360233,-0.6404530747653951
-0.045687485486269,1.218255639076233,-0.2558021545410156,-0.4472506940364837,0.0537410527467727,0.0768673568964004,0.0,0.0,-0.4363247436448356,-0.8347142566501122
-0.0483271591365337,1.2075217962265017,-0.2688414454460144,-0.4772441685199737,0.0585708320140838,0.0966040417551994,0.0,0.0,-0.4250237321038861,0.928332272299606
-0.0509531013667583,1.1961162090301514,-0.2650831043720245,-0.5070114731788635,0.0610289685428142,0.0491671077907085,0.0,0.0,0.380214650535466,-0.6618125663139076
-0.0538634285330772,1.1848320960998535,-0.2942826151847839,-0.501650869846344,0.0642566457390785,0.0645594298839569,0.0,0.0,0.0251831037810148,0.6051738497752205
-0.056923009455204,1.173509955406189,-0.3075722754001617,-0.5032798647880554,0.065846100449562,0.031789269298315,0.0,0.0,-0.1839628722236803,-0.969712918404424
-0.0601268783211708,1.16151762008667,-0.3236244320869446,-0.5331368446350098,0.069050021469593,0.0640785992145538,0.0,0.0,-0.4619501175568681,0.6842953347809866
-0.063356302678585,1.1488680839538574,-0.3248071372509002,-0.5622832775115967,0.0708862468600273,0.0367248244583606,0.0,0.0,-0.1758188995149128,-0.7966404513392125
-0.0667300224304199,1.1355485916137695,-0.3408738970756531,-0.5921517610549927,0.0743551701307296,0.0693784654140472,0.0,0.0,0.6471213497661499,-0.9879617476184448
-0.0703082084655761,1.1222727298736572,-0.3629906773567199,-0.5903075337409973,0.079472504556179,0.102346621453762,0.0,0.0,0.2263506942351723,-0.8895468992926648
-0.0740576758980751,1.109271764755249,-0.381626546382904,-0.5781894326210022,0.0860802829265594,0.1321557462215423,0.0,0.0,0.435733905493002,0.944098747262614
-0.0779086127877235,1.096165895462036,-0.38950976729393,-0.5827484130859375,0.0904558077454567,0.0875105708837509,0.0,0.0,0.5688225701406959,-0.78432587372174
-0.082043170928955,1.083515763282776,-0.419014036655426,-0.5625731348991394,0.0959652289748191,0.1101884245872497,0.0,0.0,-0.8539935405767451,-0.7845932886436916
-0.0863113403320312,1.0701805353164673,-0.4338354170322418,-0.5931464433670044,0.1029335856437683,0.1393670886754989,0.0,0.0,0.9840944410537448,-0.6692432660567187
-0.090753935277462,1.0572975873947144,-0.4524161219596863,-0.5731580853462219,0.1110228449106216,0.1617851704359054,0.0,0.0,0.8268445478801287,0.6600980529249352
-0.0952811241149902,1.0450105667114258,-0.4593144953250885,-0.5465975403785706,0.1175852194428443,0.1312476098537445,0.0,0.0,0.7188492277887908,-0.7742729578286937
-0.1000184044241905,1.0327410697937012,-0.4815651774406433,-0.5459505319595337,0.1253809779882431,0.155915156006813,0.0,0.0,-0.5418210399318713,-0.9190634067330145
-0.1048876792192459,1.0197978019714355,-0.4962341785430908,-0.576060950756073,0.1346452236175537,0.185284823179245,0.0,0.0,-0.61075698949504,-0.7330920254101048
-0.1098822578787803,1.0061826705932615,-0.5100711584091187,-0.6061078310012817,0.1452261805534362,0.2116192877292633,0.0,0.0,-0.0103313612611957,-0.7901156486242316
-0.1149986237287521,0.991888463497162,-0.5235074758529663,-0.636498749256134,0.1570808440446853,0.2370933592319488,0.0,0.0,-0.2298895121348869,0.6686104788972412
-0.1201347336173057,0.976942777633667,-0.5241414904594421,-0.6653975248336792,0.1676088124513626,0.2105592936277389,0.0,0.0,0.3927152156829834,0.9933435916900636
-0.1252098083496093,0.9620296955108644,-0.5158915519714355,-0.6637763977050781,0.1760086566209793,0.1679973602294922,0.0,0.0,0.4136382341384887,0.9962799549102784
-0.1302193701267242,0.946879744529724,-0.5071974992752075,-0.6740888357162476,0.1822777688503265,0.1253819763660431,0.0,0.0,0.4058903455734253,0.9946599006652832
-0.1351967751979828,0.9317705035209656,-0.501873254776001,-0.6720291376113892,0.1864230930805206,0.0829064548015594,0.0,0.0,0.5142185688018799,0.9975194931030272
-0.1402460038661956,0.9163891077041626,-0.506853461265564,-0.6838664412498474,0.1883572190999984,0.0386825203895568,0.0,0.0,0.1903474330902099,0.994006872177124
-0.1452815979719162,0.9007165431976318,-0.5033353567123413,-0.6965271234512329,0.1881362944841385,-0.0044185477308928,0.0,0.0,-0.3561030626296997,0.9930416345596312
-0.1502886712551117,0.8843942880630493,-0.4981540143489837,-0.7251148223876953,0.1855694651603698,-0.0513365678489208,0.0,0.0,-0.5412921905517578,0.9945623874664308
-0.1552904099225998,0.8674314022064209,-0.4958581030368805,-0.7533653378486633,0.1812316626310348,-0.0867553949356079,0.0,0.0,-0.6781228184700012,0.988805055618286
-0.1602885276079177,0.849825382232666,-0.493809163570404,-0.7817703485488892,0.1752158105373382,-0.1203172653913497,0.0,0.0,-0.5960606336593628,0.9982678890228271
-0.1652652770280838,0.8315683603286743,-0.4896381497383117,-0.8104931712150574,0.1671601086854934,-0.1611140668392181,0.0,0.0,-0.1513042449951172,0.970283031463623
-0.170201301574707,0.8126675486564636,-0.483049064874649,-0.8388922810554504,0.1566030830144882,-0.2111402451992035,0.0,0.0,0.5725257396697998,0.9935252666473388
-0.1752830445766449,0.7941490411758423,-0.4954671263694763,-0.8217570781707764,0.1439122706651687,-0.2538163065910339,0.0,0.0,0.0437889099121093,0.9787440299987792
-0.1802962273359298,0.7754105925559998,-0.4865182936191559,-0.8314577341079712,0.1291705518960952,-0.2948344945907593,0.0,0.0,0.1313421726226806,0.989091157913208
-0.185349553823471,0.7568439841270447,-0.4884672164916992,-0.8238016366958618,0.1124053448438644,-0.3353043496608734,0.0,0.0,-0.4776911735534668,0.9968434572219848
-0.1903524398803711,0.7376262545585632,-0.4808787703514099,-0.8527743220329285,0.0931354835629463,-0.3853976130485534,0.0,0.0,0.0371065139770507,0.9990898370742798
-0.1954223662614822,0.7181838750839233,-0.4855604767799377,-0.8629124164581299,0.0719076469540596,-0.4245565533638,0.0,0.0,0.9156407117843628,0.9988856315612792
-0.2004038393497467,0.6994929313659668,-0.4748787879943847,-0.8297548890113831,0.0488942041993141,-0.4602690637111664,0.0,0.0,0.3198293447494507,0.9920532703399658
-0.2052482664585113,0.680967390537262,-0.4592303335666656,-0.8227143883705139,0.0239947214722633,-0.4979900419712066,0.0,0.0,0.2277232408523559,0.9990832805633544
-0.2100042402744293,0.662715494632721,-0.4484209418296814,-0.8109761476516724,-0.0028323610313236,-0.5365419387817383,0.0,0.0,0.9316439628601074,0.995824098587036
-0.2148169577121734,0.645192563533783,-0.4519990980625152,-0.7791091203689575,-0.0317320488393306,-0.5779940485954285,0.0,0.0,0.8094764947891235,0.9999949932098388
-0.2195122689008712,0.6276057362556458,-0.4384535849094391,-0.7825875878334045,-0.0624436438083648,-0.6142324209213257,0.0,0.0,0.9737802743911744,0.99997878074646
-0.2242437899112701,0.6106283068656921,-0.4400059282779693,-0.7562553286552429,-0.0952608734369278,-0.6563452482223511,0.0,0.0,0.969713568687439,0.9936058521270752
-0.2287085950374603,0.5938811898231506,-0.4118485450744629,-0.7468872666358948,-0.1296599507331848,-0.6879822015762329,0.0,0.0,0.9759572744369508,0.9988415241241456
-0.2329993695020675,0.5775522589683533,-0.3927991390228271,-0.7292842268943787,-0.1658587008714676,-0.7239755988121033,0.0,0.0,0.9902733564376832,0.7147418260574341
-0.2371730357408523,0.5612650513648987,-0.3800583481788635,-0.7284691333770752,-0.2033074498176574,-0.7489758133888245,0.0,0.0,0.9926685094833374,0.9866728782653807
-0.2413132637739181,0.5454025864601135,-0.3749414682388305,-0.7108533382415771,-0.2428458034992218,-0.7907676100730896,0.0,0.0,0.9820024967193604,0.9938902854919434
-0.2451228648424148,0.53035968542099,-0.3405494093894958,-0.675780713558197,-0.2841412425041199,-0.8259096145629883,0.0,0.0,0.9836617708206176,0.030980110168457
-0.2487587928771972,0.5151331424713135,-0.3242958486080169,-0.6849070191383362,-0.324773222208023,-0.8126404881477356,0.0,0.0,0.994347095489502,-0.9821870923042296
-0.2521193027496338,0.5007522702217102,-0.2994707226753235,-0.6478318572044373,-0.3631048798561096,-0.7666337490081787,0.0,0.0,0.9824264049530028,-0.9873026013374328
-0.255483478307724,0.4866195917129516,-0.302276074886322,-0.6371957659721375,-0.3993842601776123,-0.7255879044532776,0.0,0.0,0.982318639755249,-0.9991275668144226
-0.2587282061576843,0.4730758666992187,-0.2928012609481811,-0.6112374663352966,-0.4335407614707947,-0.6831299066543579,0.0,0.0,0.9909851551055908,-0.9896745681762696
-0.2617014050483703,0.4599209725856781,-0.2683058381080627,-0.593951940536499,-0.4653117656707763,-0.6354201436042786,0.0,0.0,0.9942343235015868,-0.9997591376304626
-0.2644465863704681,0.4476522505283355,-0.2478461265563964,-0.5545035004615784,-0.4949765801429748,-0.5932964086532593,0.0,0.0,0.9351434707641602,-0.9973353743553162
-0.2668623030185699,0.435602992773056,-0.2175352126359939,-0.5444254279136658,-0.5221211910247803,-0.542892575263977,0.0,0.0,0.991612195968628,-0.9991094470024108
-0.2691578269004822,0.4235894680023193,-0.2078961580991745,-0.5424570441246033,-0.5469438433647156,-0.4964531064033508,0.0,0.0,0.9931118488311768,-0.9999561309814452
-0.2712461352348327,0.4113951623439789,-0.1896735876798629,-0.5499206185340881,-0.5692194700241089,-0.4455126225948334,0.0,0.0,0.9940603971481324,-0.9998282194137572
-0.2732207775115967,0.3991416096687317,-0.1805678904056549,-0.5519508123397827,-0.5891321897506714,-0.3982542753219604,0.0,0.0,0.9786407947540284,-0.9999242424964904
-0.274738609790802,0.3874872922897339,-0.1371597945690155,-0.5245935320854187,-0.6065859794616699,-0.3490753769874573,0.0,0.0,0.9843511581420898,-0.9998294115066528
-0.2756692767143249,0.3763560056686401,-0.0808062925934791,-0.5004789233207703,-0.6213899254798889,-0.2960792779922485,0.0,0.0,0.9696574211120604,-0.9973426461219788
-0.2762095034122467,0.3659491539001465,-0.0437503047287464,-0.467486709356308,-0.633909285068512,-0.2503866255283355,0.0,0.0,0.7812494039535522,-0.9986087679862976
-0.2767261862754822,0.355503648519516,-0.0433647371828556,-0.4683585166931152,-0.6441270709037781,-0.2043554484844207,0.0,0.0,0.8549323081970215,-0.9985944032669068
-0.2767218947410583,0.3454835414886474,0.0066000767983496,-0.448442667722702,-0.6517572402954102,-0.152603730559349,0.0,0.0,-0.1616988182067871,-0.9956775903701782
-0.2767815589904785,0.3348747491836548,-0.002144354628399,-0.4734572470188141,-0.6565111875534058,-0.0950802490115165,0.0,0.0,0.4041476249694824,-0.9789196252822876
-0.2765809595584869,0.3244008123874664,0.0218947827816009,-0.4664493501186371,-0.6587980389595032,-0.0457368418574333,0.0,0.0,0.4383018016815185,-0.9950017929077148
-0.2760648131370544,0.3140634298324585,0.0514239445328712,-0.4593424201011657,-0.6585599780082703,0.0047607314772903,0.0,0.0,0.205843448638916,-0.9418547749519348
-0.2752748429775238,0.3035574853420257,0.0768743902444839,-0.4658407866954803,-0.655917227268219,0.052855372428894,0.0,0.0,0.2245174646377563,-0.9862062931060792
-0.2743638455867767,0.2927254438400268,0.0869727730751037,-0.4793163537979126,-0.6507880091667175,0.1025848761200904,0.0,0.0,0.1736809015274047,-0.8837541937828064
-0.2732595801353454,0.2815515697002411,0.1044424325227737,-0.4935967326164245,-0.6433785557746887,0.1481889635324478,0.0,0.0,0.2132825851440429,-0.9472776651382446
-0.2718436121940613,0.270162969827652,0.1336062252521515,-0.5022003650665283,-0.6335526704788208,0.1965174674987793,0.0,0.0,0.6492786407470703,-0.9510585069656372
-0.2701111435890198,0.2585014402866363,0.1630779206752777,-0.5133690237998962,-0.6211472749710083,0.2481083124876022,0.0,0.0,0.7942401170730591,-0.9248216152191162
-0.2679433226585388,0.24723981320858,0.2045506983995437,-0.4947616159915924,-0.6063737869262695,0.2954695224761963,0.0,0.0,0.7824563980102539,-0.9518247246742249
-0.265313059091568,0.2363558411598205,0.2485897988080978,-0.4771660268306732,-0.5891200304031372,0.3450756371021271,0.0,0.0,0.8375177383422852,-0.9866231679916382
-0.2621793150901794,0.2256682068109512,0.2964730560779571,-0.4676230847835541,-0.5691708922386169,0.3989823758602142,0.0,0.0,0.9177052974700928,-0.949426531791687
-0.2587713301181793,0.2147400230169296,0.3214493691921234,-0.4776220321655273,-0.546637773513794,0.4506621360778808,0.0,0.0,0.9492132663726808,-0.9959297776222228
-0.2551484704017639,0.2040289938449859,0.3405831158161163,-0.4674608409404754,-0.521721363067627,0.4983279109001159,0.0,0.0,0.8345484733581543,-0.988300085067749
-0.2509896755218506,0.1938903927803039,0.391520231962204,-0.4415393471717834,-0.4941839277744293,0.5507487654685974,0.0,0.0,0.8369395732879639,-0.9941712021827698
-0.2465929538011551,0.1840018332004547,0.4127649664878845,-0.43013396859169,-0.4642227292060852,0.5992237329483032,0.0,0.0,0.7891135215759277,-0.9894422292709352
-0.2419784516096115,0.1747708916664123,0.4320572912693023,-0.4008053243160248,-0.4320029020309448,0.6443967819213867,0.0,0.0,0.8771970272064209,-0.9979683756828308
-0.2369668036699295,0.1659475713968277,0.4688918590545654,-0.3826331198215484,-0.3971737623214721,0.6965833902359009,0.0,0.0,0.791451096534729,-0.9941287040710448
-0.2317346036434173,0.157684713602066,0.4882486462593078,-0.3579114377498626,-0.3599973618984222,0.7435285449028015,0.0,0.0,0.8575716018676758,-0.9981023073196412
-0.2263378202915191,0.1500549465417862,0.5020266771316528,-0.3301571905612945,-0.3205426931381225,0.789094090461731,0.0,0.0,0.8966617584228516,-0.9979195594787598
-0.2208286821842193,0.1426388770341873,0.5104725360870361,-0.3212074339389801,-0.2787351310253143,0.8361522555351257,0.0,0.0,0.8589475154876709,-0.9951940178871156
-0.2153110951185226,0.1356464028358459,0.5086925625801086,-0.3031730353832245,-0.2347565293312072,0.8795726895332336,0.0,0.0,0.8175368309020996,-0.98611980676651
-0.2098766863346099,0.1289406567811966,0.4978373050689697,-0.2914222180843353,-0.1886924505233764,0.9212825894355774,0.0,0.0,0.6565284729003906,-0.9939336180686952
-0.2042267769575119,0.1226507052779197,0.5164765119552612,-0.2741074860095978,-0.1401235312223434,0.971379280090332,0.0,0.0,0.756209135055542,-0.979549527168274
-0.1984883248805999,0.1162993013858795,0.5225414037704468,-0.2782562375068664,-0.0891340300440788,1.0197913646697998,0.0,0.0,0.8172976970672607,-0.7951180934906006
-0.1925249993801117,0.1105601638555526,0.5424538254737854,-0.2527271509170532,-0.0358383543789386,1.0659148693084717,0.0,0.0,0.5775138139724731,-0.5174752473831177
-0.1865616738796234,0.1053096130490303,0.5409998893737793,-0.2329366207122802,0.0187880080193281,1.0925288200378418,0.0,0.0,0.405102014541626,0.0332552194595336
-0.1804540604352951,0.1005244851112365,0.5545540452003479,-0.2143098711967468,0.0743373557925224,1.110988736152649,0.0,0.0,0.1199791431427002,-0.0080432891845703
-0.1742883622646331,0.0957062318921089,0.559966504573822,-0.2179122120141983,0.1304874271154403,1.1230032444000244,0.0,0.0,-0.2755767107009887,0.0829483270645141
-0.1680884361267089,0.0902619957923889,0.5634377598762512,-0.2478872239589691,0.1869990229606628,1.130233883857727,0.0,0.0,-0.0790210962295532,0.7776985168457031
-0.1617898941040039,0.0842165797948837,0.575234055519104,-0.2765125632286072,0.2421496361494064,1.1030142307281494,0.0,0.0,0.0438913106918334,0.7525976896286011
-0.1554131507873535,0.0780030786991119,0.5848592519760132,-0.2857592403888702,0.296178787946701,1.080585479736328,0.0,0.0,-0.2169314622879028,0.7029244899749756
-0.148963451385498,0.0711796134710311,0.593769371509552,-0.3145783245563507,0.3494316041469574,1.065058350563049,0.0,0.0,-0.1729485392570495,0.7508487701416016
-0.1424392759799957,0.0637462437152862,0.6029753088951111,-0.3432650566101074,0.4018402695655823,1.0481749773025513,0.0,0.0,-0.1685034036636352,0.9189105033874512
-0.1358212530612945,0.0557193607091903,0.6147688627243042,-0.3709248006343841,0.4527820646762848,1.0188380479812622,0.0,0.0,0.0017356872558593,0.9374344348907472
-0.1292323172092437,0.0475516431033611,0.6144564151763916,-0.3782500922679901,0.5021232962608337,0.9868260622024536,0.0,1.0,0.999808430671692,0.8803565502166748
-0.12261962890625,0.0404117442667484,0.63018798828125,-0.3298254907131195,0.5330443382263184,0.61225426197052,0.0,1.0,0.9996660947799684,0.9706599712371826
-0.1164602264761924,0.0345829091966152,0.6069940328598022,-0.2625886797904968,0.5435469150543213,0.2103550434112548,0.0,1.0,0.980493426322937,0.975332736968994
-0.1109543815255165,0.0299692247062921,0.5595287084579468,-0.2014836519956588,0.5329441428184509,-0.2124449461698532,0.0,1.0,0.7614278793334961,0.0618748664855957
-0.1057892814278602,0.0256956443190574,0.541880190372467,-0.1802593916654586,0.5041631460189819,-0.5755383968353271,0.0,1.0,0.922022819519043,-0.993416428565979
