x_pos,y_pos,x_vel,y_vel,angle,ang_vel,leg_1,leg_2,main_booster,lat_booster
-0.0016376494895666,1.4034606218338013,-0.1653679013252258,-0.3315339386463165,0.001432622084394,0.02823550067842,0.0,0.0,-0.3887683153152466,0.9149601459503174
-0.003312301589176,1.3958561420440674,-0.1664731204509735,-0.3379785120487213,0.0004533627943601,-0.019586231559515,0.0,0.0,0.162081241607666,0.2963728904724121
-0.0050080297514796,1.3885135650634766,-0.1686283648014068,-0.3263379633426666,-0.0004801967006642,-0.0186729822307825,0.0,0.0,-0.4672811031341553,-0.2282603979110717
-0.0068187713623046,1.381006956100464,-0.1797174513339996,-0.3336287438869476,-0.0018160392064601,-0.0267193801701068,0.0,0.0,-0.2183477878570556,0.683786153793335
-0.0086790081113576,1.3733384609222412,-0.1826200187206268,-0.3408253490924835,-0.0051905927248299,-0.0674974247813224,0.0,0.0,-0.4872602224349975,0.7390174865722656
-0.0105828288942575,1.3655049800872805,-0.1847513169050216,-0.3481879234313965,-0.0107513843104243,-0.111226238310337,0.0,0.0,-0.7580275535583496,0.6200752258300781
-0.0125541687011718,1.3575074672698977,-0.1899280250072479,-0.3555160164833069,-0.017879856750369,-0.1425826102495193,0.0,0.0,-0.6195002794265747,0.2506811618804931
-0.0146399494260549,1.3493468761444092,-0.2009815424680709,-0.3628035187721252,-0.0253890361636877,-0.150197297334671,0.0,0.0,-0.7692753672599792,0.5372488498687744
-0.0167983062565326,1.3410277366638184,-0.2068087756633758,-0.3699203431606293,-0.0343159027397632,-0.1785537898540496,0.0,0.0,-0.777317225933075,0.61374831199646
-0.019021987915039,1.332547307014465,-0.2117577344179153,-0.3771792352199554,-0.0448251329362392,-0.2102039754390716,0.0,0.0,-0.8945317268371582,0.1438860893249511
-0.0213591568171978,1.3239048719406128,-0.2227379977703094,-0.3844723403453827,-0.0556958429515361,-0.217434287071228,0.0,0.0,-0.5776649713516235,0.5746464729309082
-0.0237589832395315,1.3150954246520996,-0.2273533642292022,-0.3920549154281616,-0.0681953430175781,-0.2500129342079162,0.0,0.0,-0.8160123825073242,-0.2891926765441894
-0.0262711532413959,1.306124210357666,-0.2382619380950927,-0.3993527293205261,-0.0810412615537643,-0.2569420635700226,0.0,0.0,-0.6339747905731201,0.2476426362991333
-0.0288953781127929,1.296991944313049,-0.249129444360733,-0.40665203332901,-0.0942263677716255,-0.2637264728546142,0.0,0.0,-0.765494704246521,-0.3590471744537353
-0.0316308960318565,1.2876986265182495,-0.2599509656429291,-0.4139527380466461,-0.1077418401837349,-0.2703340649604797,0.0,0.0,-0.4846394062042236,-0.5040911436080933
-0.0345099456608295,1.2782434225082395,-0.2748235762119293,-0.4212239682674408,-0.1207600831985473,-0.260388433933258,0.0,0.0,-0.7604896426200867,0.0625379085540771
-0.0374991409480571,1.2686271667480469,-0.2855415940284729,-0.4285259544849396,-0.1340903043746948,-0.2666285932064056,0.0,0.0,-0.809390664100647,0.5900446176528931
-0.0405409820377826,1.258833885192871,-0.2890809178352356,-0.4366945028305053,-0.1491787731647491,-0.3017968535423279,0.0,0.0,-0.4991199374198913,-0.910861611366272
-0.0437500961124897,1.2489017248153689,-0.307070791721344,-0.4428748190402984,-0.1630260050296783,-0.2769698202610016,0.0,0.0,-0.5340886116027832,-0.4698801636695862
-0.0470669753849506,1.2388088703155518,-0.3175918459892273,-0.450181096792221,-0.1771524250507354,-0.2825539708137512,0.0,0.0,-0.5750066041946411,0.4740561246871948
-0.0504905693233013,1.2285552024841309,-0.3280356228351593,-0.4574886560440063,-0.1915440708398819,-0.2878592908382416,0.0,0.0,-0.7145852446556091,-0.9177982807159424
-0.0540902130305767,1.218155860900879,-0.3472279906272888,-0.4638914465904236,-0.2043862491846084,-0.2568666040897369,0.0,0.0,-0.5067529678344727,-0.6152526140213013
-0.0578321442008018,1.207606077194214,-0.3622104823589325,-0.4705861508846283,-0.2164983600378036,-0.242263838648796,0.0,0.0,-0.7959416508674622,-0.0385577678680419
-0.06167783588171,1.196894645690918,-0.3724012970924377,-0.4778906404972076,-0.2288337647914886,-0.2467300444841385,0.0,0.0,-0.8042007684707642,-0.4173723459243774
-0.0656261444091796,1.18602192401886,-0.3824934661388397,-0.4851959645748138,-0.2413761615753173,-0.2508701086044311,0.0,0.0,-0.8215027451515198,-0.3771018385887146
-0.0696794539690017,1.1749670505523682,-0.392824649810791,-0.4934281408786773,-0.2541099786758423,-0.2546765208244324,0.0,0.0,-0.8342168927192688,-0.2447618842124939
-0.0738331824541091,1.1637510061264038,-0.4027397632598877,-0.5007268190383911,-0.2670189440250397,-0.2581786513328552,0.0,0.0,-0.7736779451370239,-0.4680895805358886
-0.0780859962105751,1.1523737907409668,-0.4125407338142395,-0.5080255270004272,-0.2800850868225097,-0.2613220810890198,0.0,0.0,-0.7684974670410156,-0.6913381814956665
-0.0824992209672927,1.1408681869506836,-0.4301474988460541,-0.5135403871536255,-0.2915776073932647,-0.2298502922058105,0.0,0.0,-0.514502763748169,-0.0266083478927612
-0.0870086699724197,1.1292011737823486,-0.4397008419036865,-0.5208355784416199,-0.3031887412071228,-0.2322229146957397,0.0,0.0,-0.7980403900146484,-0.6740724444389343
-0.0916604027152061,1.1174023151397705,-0.4551646113395691,-0.5265164375305176,-0.3135607540607452,-0.2074404954910278,0.0,0.0,-0.787136435508728,-0.1383047699928283
-0.0964054092764854,1.1054412126541138,-0.4644467234611511,-0.5338088274002075,-0.324009507894516,-0.2089751064777374,0.0,0.0,-0.578608512878418,0.3812639713287353
-0.1012419685721397,1.0933178663253784,-0.4735847413539886,-0.5411006808280945,-0.3345129191875458,-0.2100679874420166,0.0,0.0,-0.9082015156745912,-0.3282884359359741
-0.1061682701110839,1.0810322761535645,-0.4825724959373474,-0.548392117023468,-0.3450483083724975,-0.2107069492340088,0.0,0.0,-0.8725867867469788,0.0043060779571533
-0.1111825928092002,1.0685842037200928,-0.4914041459560394,-0.5556828379631042,-0.3555923700332641,-0.210881307721138,0.0,0.0,-0.7082926034927368,0.4477734565734863
-0.1162831336259841,1.0559736490249634,-0.5000736117362976,-0.5629728436470032,-0.3661215305328369,-0.2105830907821655,0.0,0.0,-0.8691530227661133,-0.4700069427490234
-0.1214679703116417,1.0432006120681765,-0.508574903011322,-0.57026207447052,-0.3766118586063385,-0.2098063975572586,0.0,0.0,-0.4987229108810425,-0.066879391670227
-0.1267350167036056,1.0302644968032837,-0.5169022083282471,-0.57755047082901,-0.3870392739772796,-0.2085479497909546,0.0,0.0,-0.844815194606781,0.1668251752853393
-0.1320822685956955,1.0171656608581543,-0.5250498056411743,-0.5848379135131836,-0.3973796665668487,-0.2068071067333221,0.0,0.0,-0.5230531096458435,-0.3719187378883362
-0.1375077217817306,1.00390362739563,-0.5330119132995605,-0.5921242833137512,-0.4076089560985565,-0.2045858204364776,0.0,0.0,-0.4240508079528808,0.1665811538696289
-0.1430091857910156,0.9904782772064208,-0.5407831072807312,-0.5994096398353577,-0.4177034199237823,-0.2018887102603912,0.0,0.0,-0.4681452512741089,0.2582979202270508
-0.1485846489667892,0.976889431476593,-0.548358142375946,-0.6066938042640686,-0.4276395738124847,-0.1987230628728866,0.0,0.0,0.340789794921875,0.6586464643478394
-0.1540019065141677,0.9633915424346924,-0.5316181778907776,-0.6030124425888062,-0.4386300444602966,-0.2198093682527542,0.0,0.0,-0.1443004012107849,0.270409345626831
-0.1594884842634201,0.9497301578521729,-0.5387870073318481,-0.6102961897850037,-0.4494169652462005,-0.2157378196716308,0.0,0.0,-0.3588482141494751,0.0032507181167602
-0.1650421172380447,0.9359049797058104,-0.5457450151443481,-0.6175785660743713,-0.4599786400794983,-0.2112336605787277,0.0,0.0,0.6495094299316406,-0.5429542660713196
-0.1705081015825271,0.9223548769950868,-0.5383901000022888,-0.6049691438674927,-0.4690407812595367,-0.1812429726123809,0.0,0.0,-0.3004138469696045,0.0062044858932495
-0.1760366410017013,0.9086403250694276,-0.5449126362800598,-0.6122469305992126,-0.4778368771076202,-0.1759223788976669,0.0,0.0,-0.5971075892448425,0.7084975242614746
-0.1815828382968902,0.8947365880012512,-0.5458918213844299,-0.6209795475006104,-0.4875467419624328,-0.1941971182823181,0.0,0.0,0.4751527309417724,0.464647889137268
-0.1869614571332931,0.8816841840744019,-0.5289740562438965,-0.5832828283309937,-0.4975012540817261,-0.1990911215543747,0.0,0.0,0.6220829486846924,0.4795693159103393
-0.1921751946210861,0.8691401481628418,-0.5127277374267578,-0.5606730580329895,-0.5072315335273743,-0.1946060955524444,0.0,0.0,0.4218237400054931,0.2971339225769043
-0.1970951110124588,0.8569855093955994,-0.484184980392456,-0.5431211590766907,-0.5160543918609619,-0.1764567345380783,0.0,0.0,0.825955867767334,0.8097816705703735
-0.2016672194004058,0.8457373976707458,-0.4481508135795593,-0.5033751130104065,-0.526361882686615,-0.2061498463153839,0.0,0.0,0.7461442947387695,0.6725897789001465
-0.2058988064527511,0.8347968459129333,-0.4134615957736969,-0.4900452494621277,-0.5374610424041748,-0.2219834774732589,0.0,0.0,0.0779651403427124,-0.4006854891777038
-0.2099073380231857,0.8243601322174072,-0.3915590941905975,-0.4675823450088501,-0.548171877861023,-0.2142165452241897,0.0,0.0,0.9013497829437256,-0.4197356104850769
-0.2135199010372162,0.8143424391746521,-0.3530454337596893,-0.448607474565506,-0.5576987266540527,-0.1905364990234375,0.0,0.0,0.8813724517822266,-0.5024362802505493
-0.2170206606388092,0.8049623966217041,-0.3428801000118255,-0.4199090600013733,-0.5660871863365173,-0.1677676141262054,0.0,0.0,0.900104284286499,-0.155377447605133
-0.2199767082929611,0.7964896559715271,-0.2892232835292816,-0.379288375377655,-0.5735631585121155,-0.1495193988084793,0.0,0.0,0.712621808052063,-0.458461046218872
-0.2224690467119217,0.7886149287223816,-0.2438007295131683,-0.3523381948471069,-0.5799556374549866,-0.1278498470783233,0.0,0.0,0.9367706775665284,-0.6489050984382629
-0.2244271337985992,0.7817544937133789,-0.1921471655368805,-0.3065153658390045,-0.5842813849449158,-0.0865145772695541,0.0,0.0,0.967914581298828,-0.8712431192398071
-0.2260365486145019,0.7760424613952637,-0.1590986996889114,-0.2546790838241577,-0.5864669680595398,-0.0437120907008647,0.0,0.0,0.9798851013183594,-0.84711092710495
-0.2274312525987625,0.7707109451293945,-0.1396359652280807,-0.2368846237659454,-0.586269199848175,0.00395531905815,0.0,0.0,0.8546833992004395,0.1256181001663208
-0.228510707616806,0.7662894129753113,-0.1080564111471176,-0.1964602768421173,-0.5861397981643677,0.0025879363529384,0.0,0.0,0.7226042747497559,-0.7139392495155334
-0.2292464226484298,0.762302815914154,-0.0755998343229293,-0.1762842983007431,-0.5837395191192627,0.0480053722858428,0.0,0.0,0.6990193128585815,-0.9294818639755248
-0.229693979024887,0.7589767575263977,-0.0489043369889259,-0.1460142582654953,-0.5788423418998718,0.0979433208703994,0.0,0.0,-0.066081166267395,-0.8639177680015564
-0.2302193641662597,0.7555328011512756,-0.0586370229721069,-0.1504206359386444,-0.5716571807861328,0.1437039077281952,0.0,0.0,0.3031818866729736,-0.8850542902946472
-0.2306616306304931,0.7526575922966003,-0.0523428693413734,-0.1243428513407707,-0.5621635317802429,0.1898727715015411,0.0,0.0,-0.5463046431541443,-0.7452866435050964
-0.23116335272789,0.749668300151825,-0.0600770190358161,-0.1287416070699691,-0.5506418347358704,0.2304335832595825,0.0,0.0,-0.159538984298706,-0.6736482381820679
-0.2317195385694503,0.7465424537658691,-0.0670859292149543,-0.134298175573349,-0.5374115109443665,0.2646063864231109,0.0,0.0,0.014556884765625,-0.3232146501541137
-0.2320040166378021,0.7439143061637878,-0.0404974780976772,-0.1120897680521011,-0.5236203074455261,0.2758237421512604,0.0,0.0,0.0355263948440551,-0.2592509984970093
-0.2322002351284027,0.741550862789154,-0.0319544151425361,-0.1003618612885475,-0.5096149444580078,0.2801068723201751,0.0,0.0,-0.4947869777679443,-0.6010197997093201
-0.2324499189853668,0.7390647530555725,-0.0391319766640663,-0.1053000763058662,-0.4936520457267761,0.3192576766014099,0.0,0.0,0.128294825553894,0.2403233051300048
-0.2324846684932708,0.736961305141449,-0.0183047410100698,-0.0882620885968208,-0.477100133895874,0.3310374617576599,0.0,0.0,-0.5279402732849121,0.1059803962707519
-0.2325228154659271,0.734694242477417,-0.0192176755517721,-0.0955451652407646,-0.4600544273853302,0.3409141898155212,0.0,0.0,-0.4798240065574646,0.4077035188674927
-0.2325626909732818,0.7322641015052795,-0.0199737176299095,-0.1028302162885665,-0.4425130784511566,0.350827008485794,0.0,0.0,-0.4320532083511352,0.3868293762207031
-0.2326027899980545,0.7296710014343262,-0.0205803681164979,-0.1101173534989357,-0.4244745075702667,0.3607715964317322,0.0,0.0,-0.3350530862808227,0.7185595035552979
-0.2325866222381591,0.7268696427345276,-0.0140084503218531,-0.1198975518345832,-0.4076092839241028,0.3373046219348907,0.0,0.0,-0.3317301273345947,0.8577978610992432
-0.2325118482112884,0.7238592505455017,-0.0071439696475863,-0.1296692043542862,-0.3919388651847839,0.3134081661701202,0.0,0.0,-0.5334070920944214,0.7131655216217041
-0.2323808223009109,0.7206596732139587,-0.0007201381376944,-0.1384689211845398,-0.3772115707397461,0.2945457100868225,0.0,0.0,-0.1658388376235962,0.482930064201355
-0.2322450131177902,0.7172965407371521,-0.0007999108056537,-0.1457520425319671,-0.3619820773601532,0.3045895993709564,0.0,0.0,-0.488741397857666,0.7136209011077881
-0.2320589125156402,0.713752269744873,0.0047947270795702,-0.1541010290384292,-0.3474339544773102,0.2909623682498932,0.0,0.0,-0.2280219793319702,0.7696588039398193
-0.2318231612443924,0.7100127935409546,0.0103940423578023,-0.1630803495645523,-0.3336297571659088,0.2760841250419616,0.0,0.0,-0.4038535356521606,0.7688355445861816
-0.2315172255039215,0.7060843110084534,0.0184714682400226,-0.1718545854091644,-0.3209909200668335,0.2527770400047302,0.0,0.0,-0.5724592804908752,0.4176369905471802
-0.2312027513980865,0.7019917368888855,0.0187834221869707,-0.1791356652975082,-0.3078467845916748,0.262882649898529,0.0,0.0,-0.6733108162879944,0.6978088617324829
-0.2308308184146881,0.6977155208587646,0.0252358019351959,-0.1875671446323394,-0.2954857647418976,0.2472203969955444,0.0,0.0,-0.3102129697799682,0.7312889099121094
-0.2303943186998367,0.6932540535926819,0.0325761660933494,-0.1960725635290146,-0.2840719521045685,0.2282760888338089,0.0,0.0,-0.8386353254318237,0.553523063659668
-0.2298994064331054,0.6886076331138611,0.0391363054513931,-0.2045249342918396,-0.2734374701976776,0.2126894742250442,0.0,0.0,-0.8471667766571045,0.4325248003005981
-0.2293936312198639,0.6837970614433289,0.0397018268704414,-0.2118043452501297,-0.2622956335544586,0.2228367775678634,0.0,0.0,-0.9710789322853088,0.5696911811828613
-0.2288270890712738,0.6787983179092407,0.0465445555746555,-0.2203933894634246,-0.2519804835319519,0.2063033133745193,0.0,0.0,-0.9133918285369872,0.6458770036697388
-0.2281876057386398,0.6736114025115967,0.0549130737781524,-0.2290076911449432,-0.2427817583084106,0.1839745789766311,0.0,0.0,-0.7065849304199219,0.5141124725341797
-0.2274884730577469,0.6682382822036743,0.0616196282207965,-0.2374642640352249,-0.2343560308218002,0.1685144454240799,0.0,0.0,-0.9493584036827089,0.5266573429107666
-0.226736694574356,0.662689745426178,0.0673998445272445,-0.2453783601522445,-0.2264704555273056,0.1577114164829254,0.0,0.0,-0.94265615940094,0.3814270496368408
-0.2259728461503982,0.6569769978523254,0.0680875927209854,-0.2526556253433227,-0.2180755138397216,0.167898803949356,0.0,0.0,-0.9571768641471864,0.8510074615478516
-0.2251173555850982,0.6510762572288513,0.0787791535258293,-0.2612666189670563,-0.2112360298633575,0.1367897987365722,0.0,0.0,-0.8831486701965332,-0.1358721852302551
-0.2242499887943267,0.6450110673904419,0.0794560462236404,-0.2685432434082031,-0.2038864344358444,0.1469918191432953,0.0,0.0,-0.9568134546279908,0.6764116287231445
-0.2233233451843261,0.6387645602226257,0.0860940366983413,-0.2767327725887298,-0.1972688734531402,0.1323515623807907,0.0,0.0,-0.980113923549652,0.3035322427749634
-0.2223852127790451,0.6323534846305847,0.0867265313863754,-0.2840097844600677,-0.1901404708623886,0.1425679326057434,0.0,0.0,-0.966645121574402,0.7044990062713623
-0.2213834822177887,0.625762403011322,0.0939265415072441,-0.2921459078788757,-0.1838605403900146,0.1255986094474792,0.0,0.0,-0.988974928855896,0.4002257585525512
-0.2203709632158279,0.6190069317817688,0.0944822579622268,-0.2994231283664703,-0.1770690530538559,0.1358294039964676,0.0,0.0,-0.982811152935028,0.901247501373291
-0.2192674577236175,0.6120696663856506,0.1051253899931907,-0.307705283164978,-0.1718309670686721,0.1047616750001907,0.0,0.0,-0.9942914843559264,-0.0269875526428222
-0.2181543409824371,0.6049679517745972,0.1055729612708091,-0.314981997013092,-0.1660805940628051,0.1150071397423744,0.0,0.0,-0.9646725654602052,0.1171473264694213
-0.2170321941375732,0.5977016687393188,0.1059547215700149,-0.3222594261169433,-0.1598176062107086,0.1252597868442535,0.0,0.0,-0.9651387333869934,-0.0211295485496521
-0.2159017622470855,0.5902710556983948,0.1062631979584693,-0.3295376598834991,-0.1530416309833526,0.1355195343494415,0.0,0.0,-0.9951847195625304,0.6895530223846436
-0.2147203385829925,0.5826666951179504,0.1119552478194236,-0.3373474776744842,-0.1468643695116043,0.1235453486442565,0.0,0.0,-0.9989586472511292,0.0263900756835937
-0.2135322988033294,0.5748980641365051,0.1120957881212234,-0.3446261286735534,-0.1401734054088592,0.1338192522525787,0.0,0.0,-0.9992390275001526,0.8304338455200195
-0.21226167678833,0.5669537782669067,0.1217900514602661,-0.3525927364826202,-0.1349178850650787,0.105110302567482,0.0,0.0,-0.998638153076172,0.6415054798126221
-0.2109315395355224,0.5588282346725464,0.1286412924528122,-0.3607473373413086,-0.1305630952119827,0.0870958343148231,0.0,0.0,-0.9992210865020752,0.2551617622375488
-0.2095978260040283,0.5505382418632507,0.128478854894638,-0.368025004863739,-0.1256936192512512,0.0973894596099853,0.0,0.0,-0.9912627935409546,0.8268369436264038
-0.2081986367702484,0.5420787334442139,0.1360966712236404,-0.375660240650177,-0.1218944862484932,0.0759826675057411,0.0,0.0,-0.988630712032318,-0.1974081993103027
-0.2067982703447342,0.5334547758102417,0.1357003301382064,-0.3829379677772522,-0.1175801232457161,0.0862873345613479,0.0,0.0,-0.9996883273124696,0.0860830545425415
-0.2053978890180587,0.5246664881706238,0.1351781785488128,-0.3902162611484527,-0.1127502992749214,0.0965964794158935,0.0,0.0,-0.9997063279151917,0.7598496675491333
-0.2039392441511154,0.5157114267349243,0.1419897526502609,-0.3977182507514953,-0.1088997200131416,0.077011227607727,0.0,0.0,-0.998262345790863,-0.10718435049057
-0.2024832218885421,0.5065919160842896,0.1411998867988586,-0.4049966037273407,-0.1045333743095398,0.0873269736766815,0.0,0.0,-0.999234974384308,0.7846943140029907
-0.2009616792201995,0.4972931444644928,0.1490284204483032,-0.4130630195140838,-0.1014269515872001,0.0621282346546649,0.0,0.0,-0.9988231658935548,0.7147700786590576
-0.199400708079338,0.4878243207931518,0.1535867750644683,-0.4206689596176147,-0.0989400073885917,0.0497392527759075,0.0,0.0,-0.999683916568756,0.552764892578125
-0.1978126466274261,0.4781845211982727,0.1566477715969085,-0.4282956421375274,-0.0968048796057701,0.0427023917436599,0.0,0.0,-0.9972487688064576,0.0657593011856079
-0.1962332725524902,0.4683802127838135,0.1552658379077911,-0.4355736076831817,-0.0941540524363517,0.0530164912343025,0.0,0.0,-0.9931949377059937,-0.068525493144989
-0.1946640908718109,0.4584116339683532,0.1537259221076965,-0.4428519010543823,-0.0909877568483352,0.063325896859169,0.0,0.0,-0.9900564551353456,0.639981746673584
-0.1930457055568695,0.4482644498348236,0.1596910953521728,-0.4508576989173889,-0.0888602882623672,0.0425491891801357,0.0,0.0,-0.9696342945098876,-0.0546178221702575
-0.1914407759904861,0.4379528760910034,0.1578257977962494,-0.4581360518932342,-0.0862181782722473,0.0528423301875591,0.0,0.0,-0.9720777869224548,0.1943187713623047
-0.1898510009050369,0.4274769723415375,0.1557937264442443,-0.4654147028923034,-0.0830620154738426,0.0631233304738998,0.0,0.0,-0.962038278579712,0.3319630622863769
