x_pos,y_pos,x_vel,y_vel,angle,ang_vel,leg_1,leg_2,main_booster,lat_booster
-0.0015750884776934,1.4033520221710205,-0.1595195531845092,-0.3363514542579651,0.0018085269257426,0.0356779024004936,0.0,0.0,-0.2786356806755066,0.893649697303772
-0.0031260489486157,1.3955309391021729,-0.1549472063779831,-0.3476065099239349,0.0016576356720179,-0.0030171896796673,0.0,0.0,0.3958938121795654,-0.2770729064941406
-0.0046171187423169,1.3879492282867432,-0.1495188027620315,-0.3369629979133606,0.0020572608336806,0.0079934056848287,0.0,0.0,-0.447852075099945,0.1811511516571045
-0.0061611174605786,1.38009512424469,-0.1548118591308593,-0.3490716516971588,0.002467896323651,0.0082136150449514,0.0,0.0,-0.0115188360214233,0.7928473949432373
-0.0076826093718409,1.371971607208252,-0.1506472080945968,-0.3610445261001587,0.0009904989274218,-0.029550913721323,0.0,0.0,-0.2783955335617065,0.886319637298584
-0.0091716768220067,1.363574743270874,-0.1452666074037552,-0.3731952309608459,-0.0026190439239144,-0.072197638452053,0.0,0.0,0.0914676189422607,0.589907169342041
-0.0106836315244436,1.355478048324585,-0.1463589072227478,-0.3598704636096954,-0.0073990607634186,-0.0956091433763504,0.0,0.0,-0.4651293754577636,0.0680031776428222
-0.0122492788359522,1.3471091985702517,-0.1517615616321563,-0.3719775974750519,-0.0121500436216592,-0.0950282961130142,0.0,0.0,0.4350804090499878,0.2494707107543945
-0.0138704301789402,1.3395588397979736,-0.1573020219802856,-0.3356142044067383,-0.0169176924973726,-0.0953615233302116,0.0,0.0,-0.3473473787307739,0.4093539714813232
-0.0155457500368356,1.3317363262176514,-0.1627495735883712,-0.3477257192134857,-0.0216468144208192,-0.0945913046598434,0.0,0.0,-0.2934207320213318,0.2622318267822265
-0.017275333404541,1.323642015457153,-0.1682152152061462,-0.3598247170448303,-0.026332514360547,-0.0937225148081779,0.0,0.0,-0.1607838273048401,0.5233414173126221
-0.0190131179988384,1.3152728080749512,-0.1679191142320633,-0.3720771074295044,-0.0321286730468273,-0.1159338504076004,0.0,0.0,0.2006288766860962,0.823559045791626
-0.0206152908504009,1.307389736175537,-0.1528540104627609,-0.3505285084247589,-0.039407905191183,-0.1455983072519302,0.0,0.0,-0.1166164278984069,0.073319673538208
-0.0222717281430959,1.2992351055145264,-0.1583519577980041,-0.3626398742198944,-0.0466266795992851,-0.1443884670734405,0.0,0.0,-0.5375872254371643,0.1686718463897705
-0.0239826198667287,1.290808916091919,-0.1638582050800323,-0.3747429251670837,-0.0537796430289745,-0.1430724263191223,0.0,0.0,-0.3241775035858154,0.1522272825241089
-0.0257478710263967,1.2821109294891355,-0.1693706661462783,-0.3868476450443268,-0.060860589146614,-0.1416318416595459,0.0,0.0,-0.7351692318916321,0.539262056350708
-0.0275150295346975,1.27314293384552,-0.1683128029108047,-0.3989406228065491,-0.0691780373454094,-0.1663641482591629,0.0,0.0,-0.767530083656311,0.8516383171081543
-0.0292537696659564,1.2638877630233765,-0.1634551584720611,-0.4118494093418121,-0.0795046389102935,-0.206551045179367,0.0,0.0,-0.7496309876441956,0.423504114151001
-0.0310464855283498,1.2543617486953735,-0.168963223695755,-0.423959881067276,-0.0897392109036445,-0.2047098875045776,0.0,0.0,-0.5375728607177734,0.8153581619262695
-0.0328377708792686,1.2445570230484009,-0.1674993485212326,-0.4365061223506927,-0.101281888782978,-0.2308742702007293,0.0,0.0,-0.621036946773529,0.2585992813110351
-0.0346827507019043,1.2344814538955688,-0.1729964166879654,-0.4486191570758819,-0.1127190813422203,-0.2287645787000656,0.0,0.0,-0.1436003446578979,0.8271486759185791
-0.0365155227482318,1.2241195440292358,-0.1702115982770919,-0.4615664780139923,-0.1257278323173523,-0.2601985335350036,0.0,0.0,-0.4158303737640381,0.5837867259979248
-0.0383461005985736,1.2134764194488523,-0.1687105447053909,-0.4743074476718902,-0.1400334984064102,-0.2861396372318268,0.0,0.0,-0.7859117984771729,0.0283195972442626
-0.0402297973632812,1.2025631666183472,-0.1741735637187957,-0.4864278137683868,-0.154213011264801,-0.2836152911186218,0.0,0.0,0.0688625574111938,-0.5160744190216064
-0.0422428138554096,1.1920311450958252,-0.1881240159273147,-0.4695108830928802,-0.1674091070890426,-0.2639454305171966,0.0,0.0,-0.0952291488647461,-0.2874975204467773
-0.0443110466003418,1.181207537651062,-0.19379922747612,-0.4825715720653534,-0.1804666519165039,-0.2611505687236786,0.0,0.0,-0.1115229129791259,0.1052770614624023
-0.046432115137577,1.170113444328308,-0.1992541551589965,-0.4946827888488769,-0.193379670381546,-0.2582599818706512,0.0,0.0,-0.3428188562393188,-0.314106822013855
-0.0486056320369243,1.1587488651275637,-0.2046883553266525,-0.5067933201789856,-0.2061414718627929,-0.2552357017993927,0.0,0.0,0.3764537572860718,-0.6276451945304871
-0.0508641228079795,1.148118019104004,-0.2143852263689041,-0.4741169512271881,-0.2177091836929321,-0.2313540279865265,0.0,0.0,-0.767878532409668,-0.801773726940155
-0.0532388687133789,1.1372345685958862,-0.2278601229190826,-0.4851687550544739,-0.2274443060159683,-0.1947027891874313,0.0,0.0,-0.7571630477905273,-0.593132734298706
-0.0557085983455181,1.1261008977890017,-0.2386774122714996,-0.4961247444152832,-0.2358447313308715,-0.168008416891098,0.0,0.0,0.2305274009704589,-0.1748266816139221
-0.0582097060978412,1.11519193649292,-0.2417444884777069,-0.4862083494663238,-0.2443352788686752,-0.169811338186264,0.0,0.0,-0.2002366185188293,-0.2956265807151794
-0.0607616417109966,1.104011058807373,-0.2470366954803466,-0.4983097612857818,-0.2526413202285766,-0.1661206930875778,0.0,0.0,-0.0704050660133361,-0.5648462176322937
-0.0634127631783485,1.092571496963501,-0.2583861649036407,-0.509597659111023,-0.2594981491565704,-0.1371364295482635,0.0,0.0,-0.22968590259552,-0.4427086114883423
-0.0661139488220214,1.0808595418930054,-0.2636041641235351,-0.5216965079307556,-0.2661573886871338,-0.1331850737333297,0.0,0.0,0.1344275474548339,-0.0287660360336303
-0.0687161460518837,1.0696219205856323,-0.2539716958999634,-0.5006004571914673,-0.2725549638271332,-0.1279512196779251,0.0,0.0,-0.1962117552757263,0.1128264665603637
-0.0713674575090408,1.0581119060516355,-0.2591055035591125,-0.5126983523368835,-0.278742253780365,-0.1237455159425735,0.0,0.0,0.1787209510803222,0.0717254877090454
-0.0738920196890831,1.0471010208129885,-0.2467600852251052,-0.490462988615036,-0.284587413072586,-0.1169037446379661,0.0,0.0,0.2528848648071289,-0.6463966965675354
-0.076364517211914,1.036779761314392,-0.2430188655853271,-0.4595556855201721,-0.2889432609081268,-0.0871166139841079,0.0,0.0,0.0626075267791748,0.0926532745361328
-0.0787557587027549,1.0267401933670044,-0.2352031171321869,-0.4469965100288391,-0.2929865419864654,-0.0808655470609664,0.0,0.0,0.2995481491088867,-0.2712060213088989
-0.0810976028442382,1.017343282699585,-0.2301083356142044,-0.4184601604938507,-0.297184020280838,-0.0839503109455108,0.0,0.0,-0.4941210150718689,-0.2156028747558593
-0.0834857001900672,1.0076736211776731,-0.2349822223186493,-0.430554986000061,-0.3011415600776672,-0.0791509971022605,0.0,0.0,0.2526277303695678,0.1608539819717407
-0.0857787132263183,0.9980387091636658,-0.226036787033081,-0.4288994669914245,-0.3045129477977752,-0.0674270838499069,0.0,0.0,0.7492027282714844,0.441838264465332
-0.0878486633300781,0.9888841509819032,-0.2044451236724853,-0.4074010252952575,-0.3071472942829132,-0.0526866726577281,0.0,0.0,0.3541831970214844,-0.2472573518753051
-0.0899216681718826,0.9798168540000916,-0.2048557698726654,-0.4035154283046722,-0.3096798062324524,-0.0506500117480754,0.0,0.0,0.7497936487197876,0.2249109745025634
-0.0918840393424034,0.9709595441818236,-0.1942650079727172,-0.3940797746181488,-0.3117263317108154,-0.040930338203907,0.0,0.0,0.6151348352432251,0.1183105707168579
-0.0936985984444618,0.9624252319335938,-0.1799939125776291,-0.3796134293079376,-0.3132312297821045,-0.0300987362861633,0.0,0.0,0.5337527990341187,-0.5029855966567993
-0.0954593643546104,0.9547973275184632,-0.1755971908569336,-0.3391253054141998,-0.3137261271476745,-0.0098982211202383,0.0,0.0,0.2639138698577881,0.2587299346923828
-0.0971716865897178,0.9478031396865844,-0.1705747693777084,-0.3109932839870453,-0.3144158124923706,-0.013793846592307,0.0,0.0,0.6361827850341797,0.1649205684661865
-0.0987886413931846,0.9412639737129213,-0.1611972153186798,-0.2907385230064392,-0.314923495054245,-0.0101536270231008,0.0,0.0,0.2836735248565674,0.6243104934692383
-0.100143626332283,0.935003936290741,-0.1342697292566299,-0.2784927487373352,-0.316209077835083,-0.0257117543369531,0.0,0.0,0.0530586242675781,0.4692873954772949
-0.1014261245727539,0.9291571378707886,-0.1271201074123382,-0.2601075172424316,-0.3173775672912597,-0.0233705826103687,0.0,0.0,-0.1046127676963806,-0.0184122920036315
-0.1027462035417556,0.923036813735962,-0.1311579495668411,-0.2721993327140808,-0.3182556331157684,-0.0175611525774002,0.0,0.0,0.0474092960357666,-0.1407059431076049
-0.1039426773786544,0.9173625707626344,-0.1190922707319259,-0.2523104548454284,-0.3188304305076599,-0.0114956712350249,0.0,0.0,0.1760619878768921,0.3256659507751465
-0.1049652099609375,0.911859393119812,-0.1024583131074905,-0.2445426732301712,-0.318617433309555,0.0042599635198712,0.0,0.0,0.854362964630127,0.5153529644012451
-0.1059266105294227,0.9068681597709656,-0.095300368964672,-0.2220125496387481,-0.3194873929023742,-0.0173991229385137,0.0,0.0,-0.0954363942146301,0.3132085800170898
-0.1069214791059494,0.901603639125824,-0.0989448577165603,-0.2341039180755615,-0.3200542628765106,-0.0113374991342425,0.0,0.0,0.6613500118255615,0.1398588418960571
-0.1076037436723709,0.8969656229019165,-0.0685891285538673,-0.2060524374246597,-0.319673478603363,0.0076159695163369,0.0,0.0,0.2045518159866333,0.2747741937637329
-0.1080769523978233,0.8928832411766052,-0.0482257977128028,-0.1812404841184616,-0.3187324404716491,0.0188206285238266,0.0,0.0,0.2161184549331665,-0.6806386709213257
-0.1085083037614822,0.8894115090370178,-0.0456066541373729,-0.1537549197673797,-0.3161695897579193,0.0512572452425956,0.0,0.0,0.6014032363891602,-0.3766692876815796
-0.108810044825077,0.8861550688743591,-0.0331612490117549,-0.1440839022397995,-0.3130644857883453,0.0621023699641227,0.0,0.0,0.6328740119934082,-0.8379466533660889
-0.1090926155447959,0.8837000727653503,-0.0330446697771549,-0.1080884486436843,-0.3081060349941253,0.0991687551140785,0.0,0.0,0.3386218547821045,-0.4851012825965881
-0.1091794967651367,0.8815253973007202,-0.0142302606254816,-0.0954902395606041,-0.3023681640625,0.1147576719522476,0.0,0.0,-0.2792710065841675,-0.4958429336547851
-0.1092918366193771,0.8790774941444397,-0.0170975215733051,-0.1075842306017875,-0.2963120937347412,0.1211216896772384,0.0,0.0,0.0827609300613403,0.0828727483749389
-0.109346866607666,0.8767314553260803,-0.0117080295458436,-0.103023387491703,-0.2899125814437866,0.1279897689819336,0.0,0.0,-0.6013849973678589,-0.024409532546997
-0.1094250679016113,0.8741123080253601,-0.0143388081341981,-0.1151182726025581,-0.2831920385360718,0.1344106644392013,0.0,0.0,-0.5200542211532593,-0.4368218183517456
-0.1095249205827713,0.8712204098701477,-0.0168500281870365,-0.1272136569023132,-0.2761492729187011,0.140855386853218,0.0,0.0,-0.7602055072784424,0.4190319776535034
-0.1096455603837966,0.8680559992790222,-0.0192411411553621,-0.1393095552921295,-0.2687832415103912,0.1473208665847778,0.0,0.0,-0.9717897176742554,0.7861894369125366
-0.1097213774919509,0.8646015524864197,-0.0134836751967668,-0.1524607241153717,-0.2627486884593963,0.1206910982728004,0.0,0.0,-0.9952179789543152,0.4721198081970215
-0.1098154038190841,0.8608742356300354,-0.0156331397593021,-0.1645558625459671,-0.256389170885086,0.1271897703409195,0.0,0.0,-0.974920928478241,-0.4638360738754272
-0.1099265068769455,0.8568741083145142,-0.0176623221486806,-0.1766515225172042,-0.2497041374444961,0.1337006390094757,0.0,0.0,-0.9816390872001648,0.0261719226837158
-0.1100533455610275,0.8526014685630798,-0.0195716880261898,-0.1887476742267608,-0.2426930963993072,0.1402211338281631,0.0,0.0,-0.9958699345588684,0.7663674354553223
-0.1101471930742263,0.8480469584465027,-0.0154162943363189,-0.2014330327510833,-0.2365647554397583,0.1225669384002685,0.0,0.0,-0.99934583902359,0.4430444240570068
-0.110254481434822,0.8432199954986572,-0.0170879401266574,-0.213528960943222,-0.2301097810268402,0.129099041223526,0.0,0.0,-0.996531903743744,0.2041302919387817
-0.1103739738464355,0.8381202220916748,-0.0186426732689142,-0.2256254106760025,-0.2233281284570694,0.1356331557035446,0.0,0.0,-0.9999821186065674,0.4622375965118408
-0.1105045303702354,0.8327479362487793,-0.0200819633901119,-0.2377223670482635,-0.2162197679281234,0.1421668231487274,0.0,0.0,-0.9848207831382751,0.6944832801818848
-0.1105953231453895,0.8270795345306396,-0.0151219610124826,-0.2510555684566498,-0.2101146429777145,0.1221024766564369,0.0,0.0,-0.982700526714325,0.2488292455673217
-0.110694982111454,0.8211386203765869,-0.0163352377712726,-0.2631522119045257,-0.2036832273006439,0.1286284029483795,0.0,0.0,-0.9988994598388672,0.9128732681274414
-0.1107210144400596,0.814909040927887,-0.0072566801682114,-0.2762376964092254,-0.1989982426166534,0.0936995521187782,0.0,0.0,-0.998798370361328,0.3693274259567261
-0.1107537299394607,0.80840665102005,-0.0082524213939905,-0.2883334159851074,-0.1939878314733505,0.1002085357904434,0.0,0.0,-0.9988901019096376,0.4607264995574951
-0.1107921600341796,0.8016316294670105,-0.0091434279456734,-0.3004295229911804,-0.1886525452136993,0.1067055091261863,0.0,0.0,-0.9995028376579284,0.0185191631317138
-0.1108350753784179,0.7945839166641235,-0.0099324705079197,-0.3125261068344116,-0.1829931437969207,0.1131882295012474,0.0,0.0,-0.9988699555397034,0.912367820739746
-0.1108227744698524,0.7872471213340759,-0.0032122158445417,-0.3255407214164734,-0.1785327345132827,0.0892077758908271,0.0,0.0,-0.9932843446731568,0.0081768035888671
-0.1108130440115928,0.7796375155448914,-0.0038059365469962,-0.3376368880271911,-0.1737499684095382,0.0956553742289543,0.0,0.0,-0.9987912774086,0.3992527723312378
-0.1108052283525466,0.7717553973197937,-0.0043069683015346,-0.3497334122657776,-0.1686458736658096,0.1020818725228309,0.0,0.0,-0.9999310374259948,0.1510696411132812
-0.1107982620596885,0.7636005878448486,-0.0047187088057398,-0.3618303537368774,-0.1632216274738311,0.1084849461913108,0.0,0.0,-0.9997104406356812,0.8124769926071167
-0.1107262596487999,0.7551490068435669,0.0031443978659808,-0.375187486410141,-0.1591741740703582,0.0809491649270057,0.0,0.0,-0.9990831613540648,0.6716909408569336
-0.1105936989188194,0.746405303478241,0.0104503938928246,-0.3883133828639984,-0.156363770365715,0.0562080070376396,0.0,0.0,-0.9987159371376038,-0.7729364037513733
-0.1105052009224891,0.7373993396759033,0.0045536570250988,-0.3998162150382995,-0.1520686745643615,0.0859018862247467,0.0,0.0,-0.9990238547325134,0.0624237060546875
-0.110414408147335,0.7281209230422974,0.0044632474891841,-0.4119130969047546,-0.1474593430757522,0.0921864807605743,0.0,0.0,-0.998939335346222,0.3686530590057373
-0.1103205680847168,0.718569815158844,0.0044435178861021,-0.4240103363990783,-0.1425376087427139,0.0984347611665725,0.0,0.0,-0.996218740940094,0.5564489364624023
-0.1101770401000976,0.7087406516075134,0.0102814938873052,-0.4364724159240722,-0.1384729146957397,0.0812941864132881,0.0,0.0,-0.9982039332389832,0.5791664123535156
-0.1099741905927658,0.6986293196678162,0.0172860566526651,-0.4491125047206878,-0.1354957073926925,0.0595442056655883,0.0,0.0,-0.9994024634361268,-0.4595803022384643
-0.1097667664289474,0.6882455348968506,0.0174546763300895,-0.4612091183662414,-0.1322124153375625,0.0656659454107284,0.0,0.0,-0.9972748160362244,-0.1648728251457214
-0.1095539107918739,0.677588939666748,0.0176777839660644,-0.4733059704303741,-0.1286254525184631,0.071738913655281,0.0,0.0,-0.9980786442756652,0.6743685007095337
-0.1092742905020713,0.6666561365127563,0.0255950801074504,-0.4857008159160614,-0.126269981265068,0.0471098683774471,0.0,0.0,-0.9666110277175904,-0.2933863401412964
-0.1089884787797927,0.6554506421089172,0.0259148366749286,-0.4977974891662597,-0.1236162409186363,0.0530746467411518,0.0,0.0,-0.9947834610939026,0.3113342523574829
-0.1086960807442665,0.643972635269165,0.0262765735387802,-0.5098943114280701,-0.1206672638654708,0.0589794740080833,0.0,0.0,-0.9937621355056764,0.3008685111999511
-0.1083967238664627,0.6322219967842102,0.0266760922968387,-0.5219914317131042,-0.1174262464046478,0.0648201331496238,0.0,0.0,-0.9914947748184204,0.7101762294769287
-0.1080389022827148,0.6201949715614319,0.033530555665493,-0.5343636870384216,-0.115185871720314,0.0448074899613857,0.0,0.0,-0.8350898027420044,-0.8646858334541321
-0.1077503189444542,0.6079148650169373,0.0243391282856464,-0.5454384088516235,-0.1106955334544181,0.0898064151406288,0.0,0.0,-0.978787899017334,0.8907299041748047
-0.1073870658874511,0.5953481793403625,0.0332332886755466,-0.5582923889160156,-0.1076290160417556,0.0613304376602172,0.0,0.0,-0.986637532711029,0.1572206020355224
-0.1070159897208213,0.5825091004371643,0.0337420925498008,-0.5703898668289185,-0.1042856648564338,0.0668669119477272,0.0,0.0,-0.9801153540611268,0.4096177816390991
-0.1066369041800499,0.5693974494934082,0.0342677868902683,-0.5824877619743347,-0.1006699725985527,0.072313979268074,0.0,0.0,-0.9924888014793396,0.410527229309082
-0.1062496155500412,0.5560134053230286,0.0348062478005886,-0.5945858359336853,-0.0967866852879524,0.0776656419038772,0.0,0.0,-0.9900241494178772,0.2354984283447265
-0.1058543175458908,0.5423570275306702,0.035353384912014,-0.6066843271255493,-0.0926409065723419,0.0829154849052429,0.0,0.0,-0.9639049172401428,0.3142404556274414
-0.1054508239030838,0.5284284353256226,0.0359051376581192,-0.6187830567359924,-0.0882380828261375,0.0880567878484726,0.0,0.0,-0.9046418070793152,0.712975263595581
-0.1049848571419715,0.5142261981964111,0.0432768464088439,-0.6310195922851562,-0.0849488675594329,0.0657845437526702,0.0,0.0,-0.8022019267082214,-0.3123787641525268
-0.1045109778642654,0.4997515678405761,0.0438259579241275,-0.6431179642677307,-0.0814145058393478,0.0706871300935745,0.0,0.0,-0.2344144582748413,-0.2967287302017212
-0.1040291786193847,0.4850046336650848,0.044367779046297,-0.655216634273529,-0.077641561627388,0.0754588469862937,0.0,0.0,-0.2468692064285278,0.1593661308288574
-0.1035397499799728,0.4699854850769043,0.0448984317481517,-0.667315661907196,-0.0736370012164115,0.0800912529230117,0.0,0.0,0.8496134281158447,-0.3129006624221802
-0.1029103249311447,0.4560055136680603,0.0583596900105476,-0.6211112141609192,-0.0690940618515014,0.0908587351441383,0.0,0.0,0.1240086555480957,-0.34805428981781
-0.102197453379631,0.4422145187854767,0.0662235915660858,-0.6127063035964966,-0.0640811771154403,0.1002575606107711,0.0,0.0,-0.6587567925453186,0.5059847831726074
-0.101445771753788,0.4281492233276367,0.0706975311040878,-0.6249390840530396,-0.0596627183258533,0.0883691161870956,0.0,0.0,0.2539970874786377,-0.02854585647583
-0.1007615104317665,0.4144055247306824,0.0642069429159164,-0.6106687188148499,-0.0554956458508968,0.0833415165543556,0.0,0.0,0.5267539024353027,0.632443904876709
-0.1000140160322189,0.4011672139167785,0.0716680735349655,-0.5882624387741089,-0.052444364875555,0.0610255524516105,0.0,0.0,0.3760524988174438,0.4205126762390136
-0.0992157906293869,0.3883204460144043,0.076443113386631,-0.570854127407074,-0.0491128340363502,0.0666307508945465,0.0,0.0,-0.0180478692054748,0.3729361295700073
-0.0984125137329101,0.3752014338970184,0.0767925530672073,-0.5829536318778992,-0.0456113144755363,0.0700301900506019,0.0,0.0,0.7568666934967041,0.3951812982559204
-0.0974677056074142,0.3628928065299988,0.0902886837720871,-0.5469293594360352,-0.0414712727069854,0.0828009098768234,0.0,0.0,-0.5398322939872742,0.2480748891830444
-0.09651879966259,0.3503121137619018,0.0905553922057151,-0.5590295195579529,-0.0371833778917789,0.0857578366994857,0.0,0.0,-0.0041806101799011,0.7031822204589844
