x_pos,y_pos,x_vel,y_vel,angle,ang_vel,leg_1,leg_2,main_booster,lat_booster
-0.0015467643970623,1.4031528234481812,-0.1564267128705978,-0.3452124297618866,0.0015697319759055,0.0309499613940715,0.0,0.0,-0.3592110872268677,0.4654973745346069
-0.0031172751914709,1.3949369192123413,-0.1583794355392456,-0.3651468157768249,0.0028801634907722,0.0262121893465518,0.0,0.0,-0.0209056138992309,0.6879775524139404
-0.004645824432373,1.386244297027588,-0.1522732526063919,-0.3863388895988464,0.0023080925457179,-0.0114424582570791,0.0,0.0,0.0736254453659057,0.4106173515319824
-0.0062768934294581,1.377566695213318,-0.161923736333847,-0.3856698274612427,0.0011437414214015,-0.0232892967760562,0.0,0.0,-0.0228216648101806,0.501206636428833
-0.0078846933320164,1.3684189319610596,-0.1581616699695587,-0.4065617620944977,-0.001446841051802,-0.0518163666129112,0.0,0.0,0.48349130153656,0.3611987829208374
-0.0093935010954737,1.3595309257507324,-0.1486280858516693,-0.3950223326683044,-0.0036712368018925,-0.0444920808076858,0.0,0.0,-0.0404969453811645,0.3811156749725342
-0.0109275821596384,1.3501713275909424,-0.1509253084659576,-0.4159904420375824,-0.0061202221550047,-0.0489844344556331,0.0,0.0,-0.082288920879364,0.616605281829834
-0.0124265672639012,1.3403414487838743,-0.1456511169672012,-0.4369013011455536,-0.0103162378072738,-0.0839287638664245,0.0,0.0,0.73748779296875,0.9040369987487792
-0.0138849262148141,1.331369400024414,-0.1395348012447357,-0.3988129496574402,-0.0165504571050405,-0.1246956810355186,0.0,0.0,-0.2654461860656738,-0.3929885625839233
-0.0153692243620753,1.321926236152649,-0.141895592212677,-0.4197892546653747,-0.0230076126754283,-0.1291550248861313,0.0,0.0,0.0961863994598388,0.3353059291839599
-0.0168131832033395,1.3126015663146973,-0.137923926115036,-0.4145448803901672,-0.0294170398265123,-0.128200277686119,0.0,0.0,0.4840352535247803,0.2736818790435791
-0.0182061195373535,1.3035143613815308,-0.1328813135623932,-0.4040141403675079,-0.0357483625411987,-0.1266383081674575,0.0,0.0,0.2272512912750244,0.4612675905227661
-0.019509982317686,1.294729709625244,-0.1242291778326034,-0.3905850350856781,-0.041844006627798,-0.1219238266348838,0.0,0.0,-0.5403569340705872,0.067051887512207
-0.0208403579890728,1.2854740619659424,-0.1266617476940155,-0.4115543663501739,-0.048160471022129,-0.1263408362865448,0.0,0.0,-0.2518731355667114,0.4282333850860595
-0.0221974365413188,1.275747537612915,-0.1291052997112274,-0.43251833319664,-0.0546960458159446,-0.1307234913110733,0.0,0.0,-0.7080308198928833,0.6512055397033691
-0.0235209465026855,1.2655375003814695,-0.123978354036808,-0.4541023075580597,-0.0629789754748344,-0.1656738370656967,0.0,0.0,-0.7869879007339478,-0.7029383182525635
-0.0249134059995412,1.2548691034317017,-0.1317588984966278,-0.4744831621646881,-0.0703980475664138,-0.1483950912952423,0.0,0.0,0.2384430170059204,-0.0308795571327209
-0.0262063983827829,1.2441389560699463,-0.122099757194519,-0.4772506654262543,-0.0775313898921012,-0.1426798850297927,0.0,0.0,-0.6418382525444031,0.1585115194320678
-0.0275261886417865,1.2329378128051758,-0.1245674937963485,-0.4982223510742187,-0.0848769769072532,-0.1469250619411468,0.0,0.0,0.6395518779754639,-0.1101672649383544
-0.0289047248661518,1.2221158742904663,-0.1298704892396927,-0.4814488589763641,-0.0928061753511428,-0.1585984528064727,0.0,0.0,-0.6412330865859985,-0.8387612700462341
-0.0303616523742675,1.2108362913131714,-0.1388242691755294,-0.5017494559288025,-0.0996238812804222,-0.1363666951656341,0.0,0.0,0.4297324419021606,-0.7731406688690186
-0.0318569168448448,1.1996606588363647,-0.1440260559320449,-0.4970736503601074,-0.105091281235218,-0.1093574911355972,0.0,0.0,0.1242133378982544,0.5238220691680908
-0.0332021713256835,1.1885440349578855,-0.127949833869934,-0.4945449531078338,-0.1116196811199188,-0.1305799335241317,0.0,0.0,-0.2753372192382812,-0.2836290597915649
-0.0345736518502235,1.1769564151763916,-0.1303961277008056,-0.5155161023139954,-0.118346557021141,-0.1345493644475937,0.0,0.0,-0.0529292225837707,-0.6845507025718689
-0.0360377319157123,1.1649119853973389,-0.1411538422107696,-0.5357390642166138,-0.1235801950097084,-0.1046820878982544,0.0,0.0,-0.0449802875518798,-0.1791468858718872
-0.0375298485159873,1.152375102043152,-0.1437522917985916,-0.557653546333313,-0.1290072649717331,-0.1085410267114639,0.0,0.0,0.2591066360473633,-0.6720094084739685
-0.0390258803963661,1.1402047872543335,-0.1453121304512024,-0.5412864685058594,-0.133275419473648,-0.0853631198406219,0.0,0.0,0.5936541557312012,-0.5931165218353271
-0.0406228080391883,1.128789305686951,-0.1560881286859512,-0.507678747177124,-0.1368684023618698,-0.0718592330813407,0.0,0.0,0.5575578212738037,0.091796875
-0.0422675125300884,1.1180131435394287,-0.1601134836673736,-0.4793475568294525,-0.1412135064601898,-0.0869021862745285,0.0,0.0,-0.5211380124092102,0.5658228397369385
-0.0438949577510356,1.1067547798156738,-0.157112643122673,-0.5009142160415649,-0.1468305885791778,-0.1123413890600204,0.0,0.0,0.7563794851303101,-0.6068097949028015
-0.0454412475228309,1.0963735580444336,-0.1500950753688812,-0.4618362486362457,-0.1513516455888748,-0.0904215797781944,0.0,0.0,-0.7666051387786865,-0.0388692021369934
-0.047011949121952,1.0855214595794678,-0.1523815989494323,-0.4828004539012909,-0.1560440063476562,-0.0938471481204032,0.0,0.0,0.0716567039489746,-0.8110125064849854
-0.0486501678824424,1.0750058889389038,-0.1605610251426696,-0.4677090942859649,-0.1593014895915985,-0.0651496201753616,0.0,0.0,-0.6996005773544312,0.5998901128768921
-999.0,1.0640037059783936,-0.1575700342655182,-0.4894749820232391,-0.1637986004352569,-0.089941881597042,0.0,0.0,0.7214114665985107,0.472567081451416
-0.0517913810908794,1.0534934997558594,-0.1474864780902862,-0.4676298797130584,-0.168375626206398,-0.0915401130914688,0.0,0.0,-0.958137273788452,-0.2557450532913208
-0.0533347129821777,1.04251229763031,-0.1496096402406692,-0.488594114780426,-0.1731064021587371,-0.0946157574653625,0.0,0.0,-0.152894377708435,0.8868801593780518
-0.054834745824337,1.031038522720337,-0.1434366255998611,-0.5107246041297913,-0.1796891242265701,-0.1316545605659485,0.0,0.0,0.4253427982330322,0.7542438507080078
-0.0561435706913471,1.0200433731079102,-0.122733749449253,-0.4896832108497619,-0.1878687888383865,-0.1635935604572296,0.0,0.0,-0.8982882499694824,-0.3731372952461242
-0.0574732795357704,1.0085779428482056,-0.1246985644102096,-0.5106512308120728,-0.1961880028247833,-0.1663843244314193,0.0,0.0,-0.4903489351272583,-0.7066229581832886
-0.0588753707706928,0.9966582655906676,-0.1331515312194824,-0.5307109951972961,-0.2032886147499084,-0.1420124173164367,0.0,0.0,-0.5029422640800476,-0.5769912004470825
-0.0603487975895404,0.984289050102234,-0.1415336430072784,-0.5505579113960266,-0.2091501355171203,-0.1172303557395935,0.0,0.0,-0.8700034618377686,-0.8538263440132141
-0.061893843114376,0.9714636206626892,-0.1499260514974594,-0.5706740617752075,-0.2137725353240966,-0.0924478843808174,0.0,0.0,-0.7137212753295898,-0.3029263019561767
-0.0634570121765136,0.9581671953201294,-0.1516239196062088,-0.5916383862495422,-0.218514546751976,-0.0948403626680374,0.0,0.0,-0.4734758138656616,-0.4730046391487121
-0.0650375336408615,0.9443997740745544,-0.1532453149557113,-0.6126025915145874,-0.2233710885047912,-0.0971308499574661,0.0,0.0,-0.7553192973136902,-0.9350287318229676
-0.0667128562927246,0.9301766753196716,-0.1646166145801544,-0.6325836181640625,-0.2263351678848266,-0.0592812821269035,0.0,0.0,0.0851794481277465,0.4115270376205444
-0.068325325846672,0.915793001651764,-0.1583433896303177,-0.6397180557250977,-0.2292639315128326,-0.0585751645267009,0.0,0.0,-0.0752961635589599,-0.7764633893966675
-0.0700065642595291,0.9009528756141664,-0.1665237993001938,-0.6598147749900818,-0.2308887094259262,-0.0324956253170967,0.0,0.0,-0.8701701760292053,-0.4942527413368225
-0.0717014297842979,0.8856413960456848,-0.1677972972393036,-0.6807771325111389,-0.2326075285673141,-0.0343762375414371,0.0,0.0,-0.635646402835846,-0.884889543056488
-0.0734906196594238,0.8698954582214355,-0.1792910993099212,-0.6997533440589905,-0.2322315275669098,0.0075200544670224,0.0,0.0,-0.1146913170814514,-0.3253604173660278
-0.0752914398908615,0.8536783456802368,-0.1803658604621887,-0.7207152247428894,-0.231939435005188,0.005841976031661,0.0,0.0,-0.8483870029449463,-0.8299359679222107
-0.0771512985229492,0.8370068669319153,-0.1874502301216125,-0.7407244443893433,-0.2304516434669494,0.0297555122524499,0.0,0.0,0.3366131782531738,-0.5052065253257751
-0.0789716690778732,0.8207685351371765,-0.1843185126781463,-0.7213444113731384,-0.2281347662210464,0.0463373064994812,0.0,0.0,-0.5095633864402771,-0.5201370716094971
-0.0808332413434982,0.8040676116943359,-0.1892273426055908,-0.7417945265769958,-0.2250313758850097,0.062068223953247,0.0,0.0,-0.4557919502258301,-0.351894736289978
-0.0827018767595291,0.7868953347206116,-0.1898568570613861,-0.7627569437026978,-0.2219922989606857,0.0607812516391277,0.0,0.0,0.1401746273040771,-0.10916668176651
-0.0844016075134277,0.7697101831436157,-0.1733952462673187,-0.763276219367981,-0.2185372561216354,0.069100946187973,0.0,0.0,-0.0855365395545959,-0.1818761825561523
-0.0861058235168457,0.7520537972450256,-0.1737797558307647,-0.7842385768890381,-0.2151373475790023,0.067998357117176,0.0,0.0,0.7707395553588867,-0.466945469379425
-0.0875322371721267,0.7351454496383667,-0.1464152038097381,-0.7509338855743408,-0.2113220244646072,0.0763065963983535,0.0,0.0,0.0449438095092773,-0.1680221557617187
-0.0887854546308517,0.7183641195297241,-0.1294583678245544,-0.7452543377876282,-0.2071493417024612,0.0834537297487258,0.0,0.0,-0.593084990978241,0.1195627450942993
-0.0900390595197677,0.7011114358901978,-0.1294518113136291,-0.7662168145179749,-0.2030189037322998,0.0826088711619377,0.0,0.0,0.7328481674194336,0.0522799491882324
-0.0912034958600997,0.6846224665641785,-0.1201468110084533,-0.7323394417762756,-0.199296236038208,0.0744530707597732,0.0,0.0,-0.6274172067642212,0.1931771039962768
-0.0923655480146408,0.6676623225212097,-0.1198666915297508,-0.7533014416694641,-0.1956079751253128,0.0737652257084846,0.0,0.0,0.4598340988159179,-0.1252894401550293
-0.0934900268912315,0.6511684060096741,-0.1156828179955482,-0.732638418674469,-0.1923602968454361,0.0649535208940506,0.0,0.0,-0.1396560072898864,-0.3882336616516113
-0.0946091637015342,0.6342031359672546,-0.1151220574975013,-0.7536001205444336,-0.1891398429870605,0.0644091516733169,0.0,0.0,0.892956018447876,-0.1622250080108642
-0.095563031733036,0.6177934408187866,-0.0986851975321769,-0.7289000749588013,-0.1858183741569519,0.066429428756237,0.0,0.0,0.4551448822021484,-0.523452639579773
-0.0964771285653114,0.6014384627342224,-0.0957607477903366,-0.7263479828834534,-0.1814517229795456,0.0873330906033515,0.0,0.0,0.4235870838165283,-0.0523357987403869
-0.0973944664001464,0.585392415523529,-0.095580905675888,-0.7126938104629517,-0.1775963306427002,0.0771078318357467,0.0,0.0,0.7402200698852539,-0.5540341734886169
-0.0981598868966102,0.570217490196228,-0.0815473571419715,-0.6738518476486206,-0.1725762486457824,0.1004016771912574,0.0,0.0,-0.4204975366592407,0.2685458660125732
-0.0989125221967697,0.554571270942688,-0.080274298787117,-0.6948144435882568,-0.1675687581300735,0.1001500636339187,0.0,0.0,0.6476019620895386,-0.3042738437652588
-0.0994826331734657,0.5397062301635742,-0.0621247887611389,-0.6601020097732544,-0.1624468117952346,0.102439060807228,0.0,0.0,-0.7001908421516418,0.2906351089477539
-0.1000370979309082,0.5243699550628662,-0.0605706870555877,-0.6810646653175354,-0.1573330163955688,0.1022758036851883,0.0,0.0,0.7022180557250977,-0.4182624816894531
-0.1005588546395301,0.5096181035041809,-0.0568515360355377,-0.6551502346992493,-0.1526631563901901,0.0933975875377655,0.0,0.0,-0.6704689264297485,0.1385549306869506
-0.1010623946785926,0.4943949282169342,-0.0550232529640197,-0.6761124730110168,-0.1479978859424591,0.0933053269982338,0.0,0.0,0.6275043487548828,0.3602263927459717
-0.1015491485595703,0.4799627959728241,-0.0527542755007743,-0.6410293579101562,-0.1439228057861328,0.0815013423562049,0.0,0.0,0.6280484199523926,-0.0639134645462036
-0.1018615737557411,0.4658884108066559,-0.0356679484248161,-0.6251066327095032,-0.13951475918293,0.0881609544157981,0.0,0.0,0.3635408878326416,-0.54259192943573
-0.1021798104047775,0.4518332779407501,-0.0372582636773586,-0.624172568321228,-0.1340933293104171,0.1084282994270324,0.0,0.0,0.7633309364318848,0.5955862998962402
-0.1023047417402267,0.4377913177013397,-0.0169509090483188,-0.6236942410469055,-0.1296637803316116,0.0885909348726272,0.0,0.0,0.590003490447998,-0.1500388383865356
-0.1023929566144943,0.4237697124481201,-0.0131349582225084,-0.6228116750717163,-0.1253746300935745,0.0857832431793212,0.0,0.0,0.7714117765426636,0.0942323207855224
-0.1023579612374305,0.4105441570281982,-0.0007634724024683,-0.5874503254890442,-0.1211263909935951,0.0849644914269447,0.0,0.0,0.7443158626556396,0.3260605335235595
-0.1021078079938888,0.3981143534183502,0.0203375481069087,-0.5520626902580261,-0.1164867579936981,0.0927928164601326,0.0,0.0,0.3321313858032226,0.1350049972534179
-0.1018429771065712,0.3862108588218689,0.0222378969192504,-0.5287196040153503,-0.1122652813792228,0.0844296291470527,0.0,0.0,0.0221463441848754,-0.058563232421875
-0.101605512201786,0.3741548657417297,0.0198620855808258,-0.5355360507965088,-0.1084141582250595,0.0770226046442985,0.0,0.0,0.4241652488708496,-0.447811484336853
-0.1012296676635742,0.3626378774642944,0.0335428938269615,-0.5115755200386047,-0.1044029220938682,0.0802247449755668,0.0,0.0,-0.7348262071609497,-0.3428492546081543
-0.1008228287100792,0.3506495654582977,0.0366497263312339,-0.5325372219085693,-0.1003933846950531,0.080190822482109,0.0,0.0,0.3799604177474975,0.1302523612976074
-0.1003727912902832,0.3390416800975799,0.0411826521158218,-0.5156539082527161,-0.0965985357761383,0.0758970230817794,0.0,0.0,0.0165650844573974,-0.2467539310455322
-0.0998556166887283,0.3276058137416839,0.047922745347023,-0.5080199837684631,-0.0928420722484588,0.0751292631030082,0.0,0.0,-0.3884553909301758,-0.7388773560523987
-0.099354550242424,0.3157057464122772,0.0450470298528671,-0.5285878777503967,-0.0878322497010231,0.1001965850591659,0.0,0.0,0.5350242853164673,0.4203848838806152
-0.0987692847847938,0.3038067519664764,0.0533792898058891,-0.5285522937774658,-0.0827285274863243,0.1020747050642967,0.0,0.0,0.6685997247695923,0.0897595882415771
-0.0980217903852462,0.292032778263092,0.0691666454076767,-0.5229890942573547,-0.0772015675902366,0.1105391830205917,0.0,0.0,-0.0105174779891967,0.2132328748703003
-0.0972384437918663,0.2797876000404358,0.0727643072605133,-0.5439521074295044,-0.0716872364282608,0.1102867349982261,0.0,0.0,0.777763843536377,0.2057492733001709
-0.0962385162711143,0.2676901221275329,0.0937315449118614,-0.5373784303665161,-0.0654943510890007,0.1238576918840408,0.0,0.0,0.3492048978805542,0.336406946182251
-0.0951659232378006,0.2560403347015381,0.1010380834341049,-0.5175096392631531,-0.0593411885201931,0.1230634301900863,0.0,0.0,0.7782607078552246,0.2511899471282959
-0.0939739197492599,0.2451390326023101,0.1128416433930397,-0.4842640161514282,-0.0530554614961147,0.1257146447896957,0.0,0.0,-0.1303967237472534,0.0480134487152099
-0.0927436798810958,0.2337666898965835,0.1166886240243911,-0.5052277445793152,-0.0467947125434875,0.1252151429653167,0.0,0.0,0.6644988059997559,-0.5285782814025879
-0.0913928002119064,0.2224059253931045,0.1274210959672927,-0.5047028660774231,-0.0392180159687995,0.1515337973833084,0.0,0.0,0.8255841732025146,0.0007680654525756
-0.0900386795401573,0.2114210873842239,0.128050297498703,-0.4880390167236328,-0.0319425836205482,0.1455087065696716,0.0,0.0,0.6332736015319824,-0.4253374338150024
-0.0885339751839637,0.201240137219429,0.1427466571331024,-0.4523405432701111,-0.0243170168250799,0.1525114029645919,0.0,0.0,0.3801815509796142,-0.7782690525054932
-0.087061122059822,0.1913043111562729,0.1380664408206939,-0.4414704144001007,-0.0152151472866535,0.1820370703935623,0.0,0.0,0.2551238536834717,-0.6866224408149719
-0.085698701441288,0.1818143725395202,0.1258440762758255,-0.4216991364955902,-0.004948740825057,0.2053281813859939,0.0,0.0,-0.2818530797958374,0.0567494630813598
-0.0842955559492111,0.1718542128801345,0.1299680173397064,-0.4426683187484741,0.0052666761912405,0.2043084800243377,0.0,0.0,0.112204909324646,0.6391122341156006
-0.0828438773751258,0.1621861755847931,0.1362097859382629,-0.4297521412372589,0.0141011727973818,0.1766902357339859,0.0,0.0,-0.0416057109832763,-0.3245549201965332
-0.0813509002327919,0.1520474255084991,0.1404047906398773,-0.4507189393043518,0.0228742025792598,0.1754606068134308,0.0,0.0,0.7932510375976562,0.4533438682556152
-0.0798557251691818,0.1422477066516876,0.1408247351646423,-0.4357004165649414,0.0314552746713161,0.1716218441724777,0.0,0.0,0.44050133228302,-0.3610009551048279
-0.0784369483590126,0.1327585577964782,0.1337438374757766,-0.4219296276569366,0.0394929908215999,0.1607542783021927,0.0,0.0,0.7360515594482422,0.825711727142334
-0.0771067589521408,0.1236150115728378,0.1269486248493194,-0.4065507054328918,0.0454884730279445,0.1199097260832786,0.0,0.0,0.7699999809265137,0.4148346185684204
-0.0756559371948242,0.1151617616415023,0.1385664045810699,-0.3759133219718933,0.0519238635897636,0.1287078857421875,0.0,0.0,0.364693284034729,0.7739691734313965
-0.074060246348381,0.1066962108016014,0.1546242386102676,-0.3764253854751587,0.0568064413964748,0.0976516380906105,0.0,0.0,0.646531343460083,-0.5660208463668823
-0.0723549872636795,0.0989118665456771,0.1641477644443512,-0.3462247848510742,0.063114009797573,0.1261512339115142,0.0,0.0,0.1751821041107177,-0.9125177264213562
-0.0707331672310829,0.0914819315075874,0.1540805250406265,-0.3305854499340057,0.0711252987384796,0.1602259576320648,0.0,0.0,0.3117318153381347,0.2515301704406738
-0.0690037757158279,0.084608256816864,0.1644301861524582,-0.3059236705303192,0.0795491337776184,0.1684765368700027,0.0,0.0,0.2548339366912842,-0.2433984279632568
-0.0672085732221603,0.0779290497303009,0.1708550900220871,-0.2973407804965973,0.0881224870681762,0.1714670360088348,0.0,0.0,0.3438206911087036,-0.6214967966079712
-0.0654847174882888,0.0717702731490135,0.1626313775777816,-0.27432781457901,0.0977942869067192,0.1934361308813095,0.0,0.0,0.0729843378067016,0.8084812164306641
-0.0636589080095291,0.0659274905920028,0.1745738983154297,-0.2602238059043884,0.1057387962937355,0.1588901728391647,0.0,0.0,0.1086053848266601,-0.9953430891036988
-0.0618361458182334,0.0600656121969223,0.1724357903003692,-0.2612520158290863,0.1155145987868309,0.19551582634449,0.0,0.0,0.3049229383468628,0.0334731340408325
-0.0601224899291992,0.0544441305100917,0.1621371656656265,-0.2505856454372406,0.1246959269046783,0.1836266368627548,0.0,0.0,0.387885570526123,0.6428799629211426
-0.0584864616394043,0.0489810071885585,0.1560475677251815,-0.2434567064046859,0.132214143872261,0.1503642797470092,0.0,0.0,0.3604764938354492,-0.0314733386039733
-0.0568859092891216,0.0437333919107914,0.1527513414621353,-0.2338912487030029,0.1394878178834915,0.1454734951257705,0.0,0.0,0.6522529125213623,0.3676183223724365
-0.0552906021475791,0.0388124324381351,0.1522939801216125,-0.2194041311740875,0.1467115581035614,0.1444748938083648,0.0,0.0,0.432781457901001,0.2627596855163574
-0.0535854324698448,0.0339078530669212,0.1629309952259063,-0.2187476158142089,0.1542815417051315,0.1513999849557876,0.0,0.0,0.5386430025100708,-0.6653128266334534
-0.0518888458609581,0.0294896457344293,0.1607180535793304,-0.1973115801811218,0.1632003188133239,0.1783756762742996,0.0,0.0,0.4144271612167358,-0.7504938840866089
-0.050297163426876,0.0256213285028934,0.1489231288433075,-0.1730849593877792,0.1734615862369537,0.2052256166934967,0.0,0.0,-0.1862500309944152,-0.6508356928825378
-0.0487067215144634,0.0212634187191724,0.1478496789932251,-0.1950332820415496,0.1846935003995895,0.2246378660202026,0.0,0.0,0.5762069225311279,-0.2996541261672973
