x_pos,y_pos,x_vel,y_vel,angle,ang_vel,leg_1,leg_2,main_booster,lat_booster
-0.0015710830921307,1.4034008979797363,-0.1590641885995865,-0.3341909646987915,0.0017499801469966,0.0345191732048988,0.0,0.0,0.9858688281465644,-0.7392251800116716
-0.0031794547103345,1.3965091705322266,-0.1641589254140854,-0.3063006997108459,0.0050344625487923,0.0656966120004654,0.0,0.0,-0.9603767691033048,-0.6629557620562152
-0.0048716543242335,1.3893883228302002,-0.1735065579414367,-0.3165034055709839,0.0092772943899035,0.084864392876625,0.0,0.0,0.4997005026711614,0.6939616165243842
-0.0066730501130223,1.3827210664749146,-0.182729572057724,-0.2963404655456543,0.0118341948837041,0.0511427335441112,0.0,0.0,0.1676548471061951,-0.8334319496684331
-0.0084783555939793,1.376524806022644,-0.1848063170909881,-0.2754305303096771,0.0160569120198488,0.084462359547615,0.0,0.0,0.2937072058073164,-0.6565779997466021
-0.0102583887055516,1.370743751525879,-0.1837341338396072,-0.2570129930973053,0.0217239949852228,0.113352321088314,0.0,0.0,0.5131266482617851,-0.8842454731018676
-0.0121753690764307,1.3655295372009275,-0.1990862786769867,-0.2318665981292724,0.0290322415530681,0.1461782306432724,0.0,0.0,0.0700904978501821,-0.61966595582961
-0.0140741346403956,1.3607252836227417,-0.1985847651958465,-0.2137209475040435,0.037645187228918,0.1722749173641204,0.0,0.0,-0.4209875094549962,-0.9972081949401056
-0.0160799026489257,1.3557045459747314,-0.2112293988466262,-0.2234396785497665,0.0481885597109794,0.21088707447052,0.0,0.0,0.4224829130270435,-0.9982219210488784
-0.0182188041508197,1.3513996601104736,-0.2264496833086013,-0.1917825490236282,0.0606218725442886,0.2486891001462936,0.0,0.0,0.2571680227618327,0.9603055106690538
-0.0202536582946777,1.3475642204284668,-0.2140561044216156,-0.1709200739860534,0.0710987374186515,0.2095565795898437,0.0,0.0,0.6500796477240438,0.6936807785294945
-0.0222111698240041,1.344308376312256,-0.205020934343338,-0.1451687961816787,0.0802804455161094,0.1836510002613067,0.0,0.0,-0.5109637518273993,-0.948624486424515
-0.024240780621767,1.3408278226852417,-0.2136001884937286,-0.1552985161542892,0.0908419415354728,0.2112492024898529,0.0,0.0,0.2438666727898191,-0.8718262639546631
-0.0263127330690622,1.337515354156494,-0.2195172756910324,-0.1480150818824768,0.1030857414007186,0.2448984086513519,0.0,0.0,-0.2170527624589788,-0.994064797707451
-0.0284512527287006,1.3339821100234983,-0.2275850027799606,-0.1580338031053543,0.1167374178767204,0.2730583548545837,0.0,0.0,-0.1573104835393635,-0.6575916558608181
-0.0306339263916015,1.3302127122879028,-0.2329474985599517,-0.1687434464693069,0.131357729434967,0.2924328148365021,0.0,0.0,0.4357265594987578,0.8036891909948001
-0.0327178947627544,1.327375411987305,-0.2215152531862259,-0.1273069679737091,0.1444586366415023,0.2620419859886169,0.0,0.0,0.8588735687977516,-0.8498652738064213
-0.0347487442195415,0.0,-0.2181375473737716,-0.108929194509983,0.1594991832971573,0.3008384108543396,0.0,0.0,-0.5165736381593227,-0.8814087796885078
-0.0368297584354877,1.32231605052948,-0.2244538515806198,-0.1193015873432159,0.1758968532085418,0.3279828429222107,0.0,0.0,0.1898753004427402,-0.8280976868975227
-0.039099883288145,1.3200199604034424,-0.2448114454746246,-0.1042579188942909,0.1937854588031768,0.3578046858310699,0.0,0.0,-0.8225191195048918,0.6522324464118269
-0.0412936210632324,1.31752610206604,-0.2354188859462738,-0.1130186170339584,0.2099647969007492,0.3236160576343536,0.0,0.0,0.1524511720078039,-0.8193152848192145
-0.0435854904353618,1.315242886543274,-0.2466792166233062,-0.1040580496191978,0.227678507566452,0.3543062806129455,0.0,0.0,-0.2461124612622807,-0.8061919832604902
-0.045902632176876,1.3127217292785645,-0.250266820192337,-0.1150251999497413,0.2465406507253646,0.3772772848606109,0.0,0.0,-0.1706109352873177,0.7779441774713808
-0.0481252670288085,1.3099972009658811,-0.2388966381549835,-0.1239692866802215,0.2635293006896972,0.3398031592369079,0.0,0.0,-0.1593317699487642,-0.8913390488595063
-0.0504018776118755,1.3070210218429563,-0.2462658882141113,-0.1357323378324508,0.2826166450977325,0.3817810416221618,0.0,0.0,0.1199809035122148,-0.7265823291098299
-0.0529378876090049,1.3044252395629885,-0.2733210623264313,-0.1193204149603843,0.3029435575008392,0.4065383076667785,0.0,0.0,-0.1526748709813761,-0.9004112050810587
-0.0555052757263183,1.3015847206115725,-0.277944415807724,-0.1308185160160064,0.3249548971652984,0.440226137638092,0.0,0.0,-0.808130110475634,0.8989964731588405
-0.0579817779362201,1.2985610961914062,-0.2672106921672821,-0.1389101892709732,0.3453861474990845,0.4086248278617859,0.0,0.0,0.0441229603456665,0.7622921030384915
-0.0606154426932334,1.2959967851638794,-0.2811207175254822,-0.118341140449047,0.3640720248222351,0.3737166821956634,0.0,0.0,-0.2813905005088917,0.9306678627868932
-0.063135527074337,1.2932466268539429,-0.267778992652893,-0.1263300776481628,0.3807820379734039,0.3342002928256988,0.0,0.0,0.8286865921668978,0.8233857430237708
-0.0658752471208572,1.2916375398635864,-0.2879606783390045,-0.0753234326839447,0.3956916928291321,0.2981929779052734,0.0,0.0,0.6959502343666442,0.8126256725892078
-0.0687567740678787,1.2904106378555298,-0.3002308309078216,-0.0579447895288467,0.408640593290329,0.2589782476425171,0.0,0.0,0.3731627762229641,-0.8865298835701346
-0.071985438466072,1.2897984981536863,-0.3363784849643707,-0.0311783980578184,0.4232141971588135,0.2914721071720123,0.0,0.0,-0.7451594185962791,-0.8105986744713443
-0.0752182975411415,1.288914918899536,-0.3383077085018158,-0.0438674204051494,0.4395245611667633,0.3262077867984772,0.0,0.0,0.6430896913561559,0.7091185611138219
-0.0785906761884689,1.288704752922058,-0.3507079184055328,-0.0136369056999683,0.4542548656463623,0.2946058511734009,0.0,0.0,-0.2349868085477335,-0.8140910040139477
-0.0819581970572471,1.288237690925598,-0.3514821529388428,-0.025639358907938,0.4704915583133697,0.3247339427471161,0.0,0.0,0.07247223560752,0.7582159781261851
-0.0853587165474891,1.2879679203033447,-0.3531129360198974,-0.016495132818818,0.4850003719329834,0.2901764214038849,0.0,0.0,-0.3201780790241364,0.9303088264264746
-0.0886266678571701,1.2875359058380127,-0.3377673327922821,-0.0231052543967962,0.4972849190235138,0.245691493153572,0.0,0.0,0.378147101891958,-0.638515816714585
-0.0922391861677169,1.2877527475357056,-0.373166561126709,0.0052642528899014,0.5107084512710571,0.2684707343578338,0.0,0.0,0.9872364519055132,-0.6069136998660374
-0.0961489677429199,1.288696527481079,-0.4038973748683929,0.0370540395379066,0.525379478931427,0.2934210002422333,0.0,0.0,-0.977435492203506,0.9698065790451992
-0.0999361053109169,1.2894721031188965,-0.3899158537387848,0.0300733651965856,0.5382152199745178,0.2567148804664612,0.0,0.0,-0.987159013748169,0.9957622289657592
-0.1035684570670127,1.2900944948196411,-0.3720555901527405,0.0241207517683506,0.5483739376068115,0.2031746655702591,0.0,0.0,-0.9936678409576416,0.9736943244934082
-0.1070467010140419,1.290553092956543,-0.3544110357761383,0.0176803339272737,0.5560125708580017,0.1527721583843231,0.0,0.0,-0.9697345495224,0.89453125
-0.1103787422180175,1.2908505201339722,-0.3377413153648376,0.0113212279975414,0.5613037347793579,0.1058235019445419,0.0,0.0,-0.9977434277534484,0.8885633945465088
-0.1135741248726844,1.2909663915634155,-0.3224704265594482,0.003913945518434,0.5647169947624207,0.0682655647397041,0.0,0.0,-0.9978327751159668,0.8991184234619141
-0.1166233047842979,1.2909104824066162,-0.3059801757335663,-0.0029301296453922,0.5659529566764832,0.0247189383953809,0.0,0.0,-0.9977580308914183,0.938809871673584
-0.1195224747061729,1.290690541267395,-0.2889792621135711,-0.0093796048313379,0.5648645162582397,-0.0217689238488674,0.0,0.0,-0.8761390447616577,0.7087993621826172
-0.1223051995038986,1.2902885675430298,-0.2761723697185516,-0.0169799383729696,0.5624116063117981,-0.0490579828619957,0.0,0.0,-0.9163208603858948,0.5764544010162354
-0.1249780654907226,1.2896945476531982,-0.2642473578453064,-0.025132680311799,0.558872640132904,-0.0707797259092331,0.0,0.0,-0.9735006093978882,0.9341070652008056
-0.1275074034929275,1.2889297008514404,-0.2481451481580734,-0.0319995060563087,0.5532976388931274,-0.1115004047751426,0.0,0.0,-0.6872900128364563,0.7183640003204346
-0.1298942565917968,1.2879958152770996,-0.2321271896362304,-0.0388429313898086,0.5457119941711426,-0.1517125070095062,0.0,0.0,-0.9991387128829956,0.6102361679077148
-0.1321614235639572,1.2868750095367432,-0.2190196961164474,-0.046726394444704,0.5368331670761108,-0.1775761842727661,0.0,0.0,-0.7935788035392761,0.5934972763061523
-0.1342957466840744,1.2855697870254517,-0.2042921781539917,-0.0544144697487354,0.5263597369194031,-0.2094686776399612,0.0,0.0,-0.9986114501953124,0.2727158069610595
-0.1363448202610016,1.2840415239334106,-0.1956091225147247,-0.064356729388237,0.5157793760299683,-0.211606428027153,0.0,0.0,-0.9985885620117188,0.4983856678009033
-0.1383078545331955,1.2822904586791992,-0.1868709176778793,-0.0742993801832199,0.5050942301750183,-0.2137033492326736,0.0,0.0,-0.9941174387931824,0.7629200220108032
-0.1401396691799163,1.280349850654602,-0.1723863780498504,-0.0823154300451278,0.4929560124874115,-0.2427644431591034,0.0,0.0,-0.9985826015472412,0.7169656753540039
-0.1418300569057464,1.2782387733459473,-0.156493991613388,-0.0894018337130546,0.4789611399173736,-0.2798975110054016,0.0,0.0,-0.992061734199524,-0.125586450099945
-0.1434332877397537,1.275905966758728,-0.1476108729839325,-0.0993513762950897,0.4648678004741668,-0.2818675637245178,0.0,0.0,-0.9717584848403932,-0.2334737777709961
-0.1449492424726486,1.2733510732650757,-0.1386884599924087,-0.1093014106154441,0.4506780207157135,-0.2837956547737121,0.0,0.0,-0.9994649291038512,-0.4351886510848999
-0.1463771760463714,1.2705745697021484,-0.1297299861907959,-0.119251936674118,0.4363939464092254,-0.2856813073158264,0.0,0.0,-0.9972689151763916,0.6697654724121094
-0.1476637870073318,1.267607569694519,-0.1140280738472938,-0.1274016499519348,0.4205124080181122,-0.3176312446594238,0.0,0.0,-0.9975609183311462,0.5182778835296631
-0.1488318443298339,1.2644431591033936,-0.1011566370725631,-0.1360785663127899,0.4036403298377991,-0.3374418616294861,0.0,0.0,-0.9996517300605774,-0.2062280178070068
-0.1499114036560058,1.2610578536987305,-0.0921036228537559,-0.1460363715887069,0.3866804242134094,-0.3391983211040497,0.0,0.0,-0.9997566938400269,-0.2965348958969116
-0.1509020775556564,1.2574520111083984,-0.0830256342887878,-0.1559947282075882,0.3696347773075104,-0.3409129679203033,0.0,0.0,-0.9987900257110596,-0.3161450624465942
-0.1518037766218185,1.2536261081695557,-0.0739249363541603,-0.1659536510705948,0.352505475282669,-0.3425858616828918,0.0,0.0,-0.9995859265327454,-0.0541110038757324
-0.1526159346103668,1.249579668045044,-0.064803659915924,-0.1759131252765655,0.335294634103775,-0.3442173600196838,0.0,0.0,-0.9871891736984252,0.2447905540466308
-0.1533384323120117,1.2453131675720217,-0.0556637868285179,-0.1858731359243393,0.3180042505264282,-0.3458077311515808,0.0,0.0,-0.99859619140625,0.7803870439529419
-0.1539028137922287,1.2408506870269775,-0.0379447378218174,-0.1943907588720321,0.2988374233245849,-0.3833371996879577,0.0,0.0,-0.9998630881309508,-0.2377596497535705
-0.1543773710727691,1.2361688613891602,-0.0287706442177295,-0.2043570727109909,0.2795951664447784,-0.3848450779914856,0.0,0.0,-0.9994779825210572,-0.1325968503952026
-0.1547615975141525,1.2312681674957275,-0.0195834077894687,-0.2143239378929138,0.2602794170379638,-0.3863142132759094,0.0,0.0,-0.9985616207122804,-0.5386943221092224
-0.155103400349617,1.2261313199996948,-0.0163824632763862,-0.2252528667449951,0.242146298289299,-0.3626624643802643,0.0,0.0,-0.9837530255317688,0.4702546596527099
-0.1553544998168945,1.2207748889923096,-0.0071750022470951,-0.2352170050144195,0.2239434123039245,-0.3640578389167785,0.0,0.0,-0.9929602742195128,0.4905627965927124
-0.1555149108171463,1.215198993682861,0.0020413002930581,-0.2451815754175186,0.2056725770235061,-0.3654166162014007,0.0,0.0,-0.998814821243286,-0.0936900377273559
-0.1555845290422439,1.20940363407135,0.0112650841474533,-0.2551466226577759,0.1873355954885482,-0.366739809513092,0.0,0.0,-0.964057683944702,0.0994267463684082
-0.1555630713701248,1.2033886909484863,0.0204950608313083,-0.2651121020317077,0.168934166431427,-0.3680286407470703,0.0,0.0,-0.877579391002655,-0.0029150247573852
-0.1554504334926605,1.197154521942139,0.0297299828380346,-0.2750779688358307,0.1504699736833572,-0.3692843019962311,0.0,0.0,-0.8300122022628784,-0.766665518283844
-0.1553088128566742,1.190678954124451,0.0311217494308948,-0.2861812710762024,0.1335627734661102,-0.3381442129611969,0.0,0.0,-0.9703139662742616,-0.6058056950569153
-0.1551243811845779,1.1839786767959597,0.0342684164643287,-0.2964434623718261,0.1178203076124191,-0.3148495554924011,0.0,0.0,-0.994012176990509,-0.6211122870445251
-0.1548911035060882,1.1770565509796145,0.0381503589451313,-0.3065477311611175,0.103091686964035,-0.294572651386261,0.0,0.0,-0.993051826953888,-0.8668857216835022
-0.1546478271484375,1.1699093580245972,0.0371740460395813,-0.3168196380138397,0.0903535559773445,-0.2547623813152313,0.0,0.0,-0.9939535856246948,-0.8784425258636475
-0.1543963402509689,1.162519931793213,0.0359141454100608,-0.3278104066848755,0.0796893239021301,-0.2132844924926757,0.0,0.0,-0.9993759393692015,-0.777719259262085
-0.1541106253862381,1.1549079418182373,0.0379331521689891,-0.3378332853317261,0.0704137980937957,-0.1855103075504303,0.0,0.0,-0.9986475110054016,-0.3158905506134033
-0.1537332534790039,1.1470736265182495,0.0471682474017143,-0.3477789759635925,0.0610847920179367,-0.186580017209053,0.0,0.0,-0.9991072416305542,-0.942170798778534
-0.1533454954624176,1.1390130519866943,0.0461955703794956,-0.3579645454883575,0.0537485480308532,-0.1467248350381851,0.0,0.0,-0.9451138377189636,-0.5981660485267639
-0.1529143303632736,1.1307284832000732,0.0493621826171875,-0.367989182472229,0.0475741773843765,-0.1234872341156005,0.0,0.0,-0.8968092799186707,-0.8605406880378723
-0.1524496972560882,1.1222167015075684,0.0512825027108192,-0.3781558275222778,0.0428133867681026,-0.0952162072062492,0.0,0.0,-0.9355594515800476,-0.3265117406845093
-0.1518935263156891,1.113481521606445,0.0604951195418834,-0.3880963921546936,0.0380025878548622,-0.0962161123752594,0.0,0.0,-0.994251310825348,-0.8403702974319458
-0.1513018608093261,1.1045136451721191,0.0626605525612831,-0.3984892964363098,0.0345574654638767,-0.0689025372266769,0.0,0.0,-0.9974148869514464,-0.7182957530021667
-0.1506615579128265,1.0953198671340942,0.0664683058857917,-0.4085617959499359,0.0321431756019592,-0.0482857078313827,0.0,0.0,-0.9849759936332704,-0.362615704536438
-0.1499300003051757,1.085902214050293,0.0756506100296974,-0.4185010194778442,0.0296803843230009,-0.0492558777332305,0.0,0.0,-0.9866353273391724,0.1049656867980957
-0.1491071730852127,1.076261281967163,0.0848198309540748,-0.4284402132034302,0.0271693393588066,-0.050220787525177,0.0,0.0,-0.9858837723731996,-0.7055407166481018
-0.148246482014656,1.0663998126983645,0.0873215198516845,-0.438262015581131,0.025940803810954,-0.0245707165449857,0.0,0.0,-0.9121391177177428,0.7439510822296143
-0.1472237557172775,1.0563205480575562,0.1053670868277549,-0.4479226469993591,0.0228782035410404,-0.0612522177398204,0.0,0.0,-0.9811723232269288,-0.9605303406715392
-0.1461734771728515,1.0460052490234375,0.1065637320280075,-0.4584322869777679,0.0213586259633302,-0.0303913839161396,0.0,0.0,-0.9889744520187378,-0.7926813364028931
-0.1451009809970855,1.0354620218276978,0.1071103066205978,-0.4685938060283661,0.0215048603713512,0.0029243468306958,0.0,0.0,-0.9891769289970398,-0.9339081048965454
-0.144001767039299,1.024704098701477,0.108203075826168,-0.4781507551670074,0.0231976993381977,0.0338568314909935,0.0,0.0,-0.9772195219993592,-0.4220485091209411
-0.1428125351667404,1.0137226581573486,0.1172546297311782,-0.4880897402763366,0.0248413383960723,0.0328728295862674,0.0,0.0,-0.9642598628997804,0.0721960067749023
-0.1415336579084396,1.0025177001953125,0.1262786388397216,-0.4980287253856659,0.0264352187514305,0.0318773612380027,0.0,0.0,-0.9669302701950072,0.5285210609436035
-0.1401175558567047,0.9910936951637268,0.1412724405527115,-0.5077433586120605,0.0267751887440681,0.0067992666736245,0.0,0.0,-0.9510643482208252,-0.7888224720954895
-0.1386803686618805,0.9794490337371826,0.1416967511177063,-0.5175806283950806,0.0287716630846261,0.0399295203387737,0.0,0.0,-0.9383161067962646,-0.2723302841186523
-0.1371544897556305,0.9675806760787964,0.1506203711032867,-0.5275196433067322,0.0307159181684255,0.0388854555785656,0.0,0.0,-0.9236814975738524,-0.3653973937034607
-0.1355402916669845,0.9554886817932128,0.1595037430524826,-0.5374586582183838,0.0326069630682468,0.0378206446766853,0.0,0.0,-0.9198389053344728,-0.2412391304969787
-0.133838266134262,0.9431732892990112,0.1683429181575775,-0.5473977327346802,0.0344436094164848,0.0367328934371471,0.0,0.0,-0.865537703037262,-0.3231964111328125
-0.1320488899946212,0.9306341409683228,0.17713363468647,-0.557336688041687,0.0362246222794055,0.0356201827526092,0.0,0.0,-0.6435373425483704,-0.7032231688499451
-0.1302185952663421,0.9178730845451356,0.1801106184720993,-0.5672298669815063,0.0391008742153644,0.0575249269604682,0.0,0.0,-0.7046723961830139,-0.1909594535827636
-0.1283021867275238,0.9048885107040404,0.1887899786233902,-0.5771691203117371,0.0419186688959598,0.0563559718430042,0.0,0.0,-0.5604944825172424,-0.0015975832939147
-0.1263003349304199,0.8916804194450378,0.1974054872989654,-0.5871083736419678,0.0446764677762985,0.055156160145998,0.0,0.0,-0.7739312052726746,-0.7744218111038208
-0.1242773085832595,0.8782509565353394,0.1979582011699676,-0.5969991087913513,0.0489709004759788,0.0858884900808334,0.0,0.0,-0.5608399510383606,0.2670797109603882
-0.1221702545881271,0.8645981550216675,0.2064272463321685,-0.6069392561912537,0.0532019957900047,0.0846216529607772,0.0,0.0,-0.4324040412902832,-0.0729640126228332
-0.1199799552559852,0.8507217764854431,0.2148124426603317,-0.6168792843818665,0.0573679432272911,0.0833190977573394,0.0,0.0,-0.4403030276298523,-0.0794475078582763
-0.117707535624504,0.8366220593452454,0.2231059372425079,-0.6268191933631897,0.0614669322967529,0.0819794610142707,0.0,0.0,-0.0791494846343994,-0.4342063665390014
-0.1153537780046463,0.8222987651824951,0.2312990128993988,-0.6367590427398682,0.0654970183968544,0.0806015506386756,0.0,0.0,0.0442399978637695,0.2457823753356933
-0.1128881424665451,0.8081909418106079,0.2423303872346878,-0.6272094249725342,0.0696917697787284,0.0838948488235473,0.0,0.0,0.0928682088851928,-0.7785676717758179
-0.110526755452156,0.7944567203521729,0.230469062924385,-0.6106793284416199,0.0753041356801986,0.1122470870614051,0.0,0.0,-0.3223171234130859,-0.3464637994766235
-0.1080878227949142,0.7804993987083435,0.2383016645908355,-0.6206203103065491,0.0808415561914444,0.1107487827539444,0.0,0.0,-0.0920397043228149,0.1075198650360107
-0.105572797358036,0.7663185596466064,0.2459914237260818,-0.630561113357544,0.0863020345568656,0.109209343791008,0.0,0.0,-0.2434991598129272,0.3625195026397705
-0.1029831916093826,0.7519146203994751,0.2535255253314972,-0.640501856803894,0.091683454811573,0.107628583908081,0.0,0.0,-0.4790379405021667,-0.1809245944023132
-0.1003209128975868,0.7372872233390808,0.2608901858329773,-0.6504424810409546,0.096983790397644,0.1060065254569053,0.0,0.0,-0.1040800809860229,0.4627417325973511
-0.0975875854492187,0.7224364876747131,0.2680705785751343,-0.6603830456733704,0.102200947701931,0.1043434366583824,0.0,0.0,0.1416409015655517,0.7179068326950073
-0.094766616821289,0.7082126140594482,0.2783489525318146,-0.6324353814125061,0.1059192940592765,0.074366845190525,0.0,0.0,-0.5850379467010498,-0.2088678479194641
-0.0918789878487587,0.6937651634216309,0.2851126790046692,-0.6423746347427368,0.1095504611730575,0.0726234018802642,0.0,0.0,-0.5926802158355713,-0.4284725785255432
