x_pos,y_pos,x_vel,y_vel,angle,ang_vel,leg_1,leg_2,main_booster,lat_booster
-0.0014798163902014,1.4032539129257202,-0.149731308221817,-0.3407184481620788,0.0015655563911423,0.0308677908033132,0.0,0.0,-0.0262411832809448,0.880314826965332
-0.0028450011741369,1.3952363729476929,-0.1359749138355255,-0.3563393056392669,0.0010223768185824,-0.0108641684055328,0.0,0.0,-0.165395975112915,0.5756654739379883
-0.0041200639680027,1.3868435621261597,-0.1253571212291717,-0.373011976480484,-0.0010902525391429,-0.0422566309571266,0.0,0.0,0.5070524215698242,0.394288420677185
-0.005472850985825,1.3787641525268557,-0.1324382126331329,-0.3590924441814422,-0.003904306795448,-0.0562864020466804,0.0,0.0,-0.164093792438507,0.0860695838928222
-0.0068002701736986,1.370314121246338,-0.1297179758548736,-0.3755664527416229,-0.0068992595188319,-0.0599043183028698,0.0,0.0,0.1300991773605346,0.6234767436981201
-0.0079507827758789,1.362048625946045,-0.1107593178749084,-0.3673821091651916,-0.0111414957791566,-0.0848523527383804,0.0,0.0,-0.0186829566955566,-0.2932336330413818
-0.0090859411284327,1.3534128665924072,-0.1090549826622009,-0.383855938911438,-0.01556480769068,-0.0884743183851242,0.0,0.0,-0.6419376134872437,0.3993722200393677
-0.0102111818268895,1.3444067239761353,-0.1078718900680542,-0.4003240764141083,-0.0201695617288351,-0.0921033471822738,0.0,0.0,-0.2163406610488891,0.0302150249481201
-0.0113317491486668,1.3350305557250977,-0.1072142347693443,-0.4167940020561218,-0.0249552223831415,-0.0957215726375579,0.0,0.0,-0.1824536323547363,0.071321964263916
-0.0124526973813772,1.3252840042114258,-0.1070831567049026,-0.4332643449306488,-0.0299211218953132,-0.0993269309401512,0.0,0.0,-0.7019420862197876,0.7052619457244873
-0.0135160442441701,1.3151652812957764,-0.0995114222168922,-0.4498718678951263,-0.0366638749837875,-0.1348675042390823,0.0,0.0,0.1839078664779663,0.4907445907592773
-0.014525699429214,1.305241346359253,-0.0942096784710884,-0.4412429928779602,-0.0433440506458282,-0.133616030216217,0.0,0.0,-0.3918797373771667,-0.6300753355026245
-0.0155901908874511,1.294953227043152,-0.1005055755376815,-0.4574360251426697,-0.0492212511599063,-0.1175549775362014,0.0,0.0,-0.8618456721305847,-0.0673427581787109
-0.0166756622493267,1.2842952013015747,-0.1024355292320251,-0.473905861377716,-0.0552742406725883,-0.1210707798600196,0.0,0.0,0.0112653970718383,-0.0601801872253418
-0.0176730155944824,1.2740157842636108,-0.0938561409711837,-0.4570917785167694,-0.0610939972102642,-0.116406001150608,0.0,0.0,-0.7258868217468262,-0.2975282669067383
-0.0187010765075683,1.2633663415908811,-0.0967568829655647,-0.4735698401927948,-0.0670861005783081,-0.1198530197143554,0.0,0.0,-0.815740704536438,-0.9187549948692322
-0.0198197364807128,1.252363204956055,-0.1070735082030296,-0.4892514050006866,-0.071837417781353,-0.0950348675251007,0.0,0.0,-0.5025084614753723,-0.1732891201972961
-0.0209781639277935,1.2409899234771729,-0.1108839362859726,-0.5057231187820435,-0.0767574682831764,-0.0984099358320236,0.0,0.0,0.4164255857467651,-0.6192706227302551
-0.0220853798091411,1.2302768230438232,-0.107032798230648,-0.4763326942920685,-0.0804188698530197,-0.0732345283031463,0.0,0.0,-0.8276790976524353,-0.0749273300170898
-0.0232407562434673,1.2191932201385498,-0.1116804108023643,-0.4928122162818908,-0.0842447653412818,-0.0765246748924255,0.0,0.0,0.2099635601043701,0.2070997953414917
-0.0243084914982318,1.2085509300231934,-0.1032059043645858,-0.4731992483139038,-0.0877957120537757,-0.0710248276591301,0.0,0.0,-0.6386739015579224,0.1519219875335693
-0.0254319198429584,1.197538137435913,-0.1086070910096168,-0.4896769821643829,-0.0915057510137558,-0.0742073357105255,0.0,0.0,0.1539016962051391,-0.3253310918807983
-0.0264892578125,1.1867108345031738,-0.1022725701332092,-0.4814257621765136,-0.0949500650167465,-0.0688921362161636,0.0,0.0,-0.8697816133499146,-0.5598312616348267
-0.0276484489440917,0.0,-0.1132745593786239,-0.497866690158844,-0.0975640788674354,-0.0522848740220069,0.0,0.0,-0.2395793199539184,-0.4859081506729126
-0.0288728717714548,1.1639442443847656,-0.1196559071540832,-0.5143355131149292,-0.1003288403153419,-0.0553000755608081,0.0,0.0,-0.2447870373725891,0.4365653991699219
-0.0301669128239154,1.1519842147827148,-0.1264664083719253,-0.5317555069923401,-0.1032411083579063,-0.0582456812262535,0.0,0.0,0.2886912822723388,-0.5943734645843506
-0.0315166488289833,1.140509843826294,-0.1330940574407577,-0.5101015567779541,-0.1051058992743492,-0.0372956581413745,0.0,0.0,0.2714953422546386,0.1838705539703369
-0.0329730994999408,1.1296285390853882,-0.1431551426649093,-0.4837895333766937,-0.1075785979628562,-0.0494541302323341,0.0,0.0,-0.7298980355262756,0.788960337638855
-0.03445615619421,1.118375539779663,-0.1444334238767624,-0.5004090666770935,-0.1114214211702346,-0.0768564417958259,0.0,0.0,0.2199956178665161,-0.0799964666366577
-0.0359922423958778,1.1072919368743896,-0.1495407819747924,-0.4929143488407135,-0.1154730841517448,-0.0810329541563987,0.0,0.0,0.2164266109466552,0.9273418188095092
-0.0374466888606548,1.0967622995376587,-0.1393840312957763,-0.4684717059135437,-0.1214988827705383,-0.120515838265419,0.0,0.0,-0.5411078333854675,0.94826078414917
-0.0389183983206748,1.0858455896377563,-0.1393183767795562,-0.4858492910861969,-0.1293065696954727,-0.156154066324234,0.0,0.0,0.1693862676620483,0.8888816833496094
-0.0403970703482627,1.0754114389419556,-0.1381016969680786,-0.4646200537681579,-0.1390405595302581,-0.1946801841259002,0.0,0.0,-0.8126324415206909,0.3759294748306274
-0.0419606193900108,1.0646082162857056,-0.1464640200138092,-0.4810958206653595,-0.148899033665657,-0.1971695125102996,0.0,0.0,-0.7343744039535522,0.4955724477767944
-0.0436101928353309,1.053436279296875,-0.1549735963344574,-0.4975718855857849,-0.1588785052299499,-0.199589341878891,0.0,0.0,-0.5090005993843079,0.3400585651397705
-0.0453474037349224,1.0418951511383057,-0.1636191010475158,-0.514048159122467,-0.1689753085374832,-0.2019363343715667,0.0,0.0,0.0401282310485839,0.7230942249298096
-0.0470877662301063,1.0303958654403689,-0.1623913496732711,-0.5124430060386658,-0.1806498765945434,-0.2334913909435272,0.0,0.0,-0.3687335252761841,0.0098243951797485
-0.0489178672432899,1.0185283422470093,-0.171278566122055,-0.528922438621521,-0.1924339532852172,-0.2356816232204437,0.0,0.0,0.2872874736785888,0.6245770454406738
-0.0506969466805458,1.0072615146636963,-0.1648038029670715,-0.5025057196617126,-0.2056326121091842,-0.2639732956886291,0.0,0.0,-0.8299474120140076,-0.3812373876571655
-0.0525675788521766,0.9956265687942504,-0.1738965958356857,-0.5189882516860962,-0.2189321964979171,-0.2659914493560791,0.0,0.0,-0.4882251024246216,-0.2726192474365234
-0.0545306205749511,0.98362398147583,-0.1830798089504242,-0.5354710221290588,-0.2323281019926071,-0.2679179906845093,0.0,0.0,-0.5809605717658997,-0.8754989504814148
-0.0566407218575477,0.9712702631950378,-0.199104443192482,-0.550978422164917,-0.2444135993719101,-0.2417101860046386,0.0,0.0,-0.672714114189148,-0.4628463387489319
-0.0588446632027626,0.9585480093955994,-0.2084462344646453,-0.5674586892127991,-0.2565855979919433,-0.2434401214122772,0.0,0.0,-0.219351589679718,-0.6196737289428711
-0.0611827857792377,0.9454718232154846,-0.2228518426418304,-0.5831238031387329,-0.2677933275699615,-0.2241548299789428,0.0,0.0,0.8272464275360107,0.3365492820739746
-0.0635733604431152,0.9325159788131714,-0.2278399765491485,-0.5779066681861877,-0.2792846262454986,-0.2298263013362884,0.0,0.0,0.667945146560669,0.2679415941238403
-0.0659218803048133,0.9196588397026062,-0.22382453083992,-0.5735795497894287,-0.2906311750411987,-0.2269312441349029,0.0,0.0,0.7562960386276245,-0.7106600403785706
-0.0682173743844032,0.9071055054664612,-0.2200291901826858,-0.5598499774932861,-0.3004477322101593,-0.1963309794664383,0.0,0.0,-0.0645062327384948,-0.7606090307235718
-0.070675753057003,0.8942224383354187,-0.2380710840225219,-0.5742095708847046,-0.3084768652915954,-0.1605833768844604,0.0,0.0,0.530617356300354,-0.546727180480957
-0.0731755271553993,0.8820978999137878,-0.2429619133472442,-0.5403850674629211,-0.3157611191272735,-0.1456850618124008,0.0,0.0,-0.6155593395233154,0.3160127401351928
-0.0757728591561317,0.8696035146713257,-0.2526831030845642,-0.5568569302558899,-0.3230889141559601,-0.1465559899806976,0.0,0.0,-0.6954385042190552,-0.1374015808105468
-0.0784679427742958,0.8567394614219666,-0.2624415457248688,-0.5733287334442139,-0.3304528892040252,-0.1472794115543365,0.0,0.0,0.7139029502868652,0.0042841434478759
-0.081069566309452,0.8446192145347595,-0.2528192698955536,-0.540376603603363,-0.3381217420101166,-0.1533769816160202,0.0,0.0,-0.7386213541030884,0.5683622360229492
-0.0837203040719032,0.8321002125740051,-0.2564165890216827,-0.5584567785263062,-0.3471891283988952,-0.1813475042581558,0.0,0.0,-0.1055138707160949,-0.0348286032676696
-0.086469367146492,0.8192117214202881,-0.2662679553031921,-0.5749301314353943,-0.3562689423561096,-0.1815965175628662,0.0,0.0,0.0792974233627319,0.0934548377990722
-0.0891146659851074,0.8063507080078125,-0.2563384175300598,-0.5736597180366516,-0.3649024963378906,-0.1726707965135574,0.0,0.0,0.6720466613769531,-0.1330379843711853
-0.091778852045536,0.7938400506973267,-0.2578270733356476,-0.5582409501075745,-0.3739786148071289,-0.1815221011638641,0.0,0.0,0.464465856552124,-0.3445240259170532
-0.0942059531807899,0.7819007039070129,-0.2345392256975174,-0.5328066349029541,-0.3826554715633392,-0.1735369563102722,0.0,0.0,-0.4352138042449951,-0.4746835827827453
-0.0967319458723068,0.7695914506912231,-0.2444727420806884,-0.5492783784866333,-0.3913092613220215,-0.1730759888887405,0.0,0.0,0.717240571975708,-0.4717428684234619
-0.0989585891366005,0.758054792881012,-0.2149357497692108,-0.514893114566803,-0.3995712101459503,-0.1652393937110901,0.0,0.0,0.6973761320114136,-0.7548620104789734
-0.1011018753051757,0.7473541498184204,-0.2079733312129974,-0.4773871004581451,-0.4063856601715088,-0.1362891346216201,0.0,0.0,0.5277364253997803,-0.6600666642189026
-0.10321044921875,0.7367497682571411,-0.2059245109558105,-0.4727276861667633,-0.4116857349872589,-0.1060016602277755,0.0,0.0,0.9303103685379028,-0.8940654993057251
-0.1052710562944412,0.7270249724388123,-0.2027144879102707,-0.4331907927989959,-0.4152973294258117,-0.0722319856286048,0.0,0.0,0.7513637542724609,-0.3721005320549011
-0.1070898026227951,0.7176027894020081,-0.1791549623012542,-0.4195707440376282,-0.418230265378952,-0.0586587116122245,0.0,0.0,0.8960623741149902,-0.8498466610908508
-0.1087553054094314,0.7087973952293396,-0.1655939072370529,-0.3916302919387817,-0.4192581474781036,-0.020557377487421,0.0,0.0,0.957777738571167,-0.5076500177383423
-0.1103548035025596,0.700286865234375,-0.1600838154554367,-0.3782102763652801,-0.4191136956214905,0.0028889977838844,0.0,0.0,0.800493597984314,-0.6172022223472595
-0.1119673699140548,0.6924058794975281,-0.162346750497818,-0.3499411642551422,-0.417943000793457,0.0234138015657663,0.0,0.0,0.9908467531204224,-0.7816327810287476
-0.1132879257202148,0.6855961084365845,-0.134816974401474,-0.301841139793396,-0.4149597883224487,0.0596642196178436,0.0,0.0,0.9531831741333008,-0.8253429532051086
-0.1145326644182205,0.6788560748100281,-0.1291380375623703,-0.2981944680213928,-0.4099348485469818,0.1004985347390174,0.0,0.0,0.973785400390625,-0.7456551790237427
-0.1154884323477745,0.673170268535614,-0.1019003838300705,-0.2508852183818817,-0.4031347334384918,0.1360024809837341,0.0,0.0,0.9016417264938354,-0.8334625959396362
-0.116498664021492,0.667970597743988,-0.1088905557990074,-0.2288832068443298,-0.3946960866451263,0.1687721014022827,0.0,0.0,0.900933027267456,-0.8650609254837036
-0.1174756065011024,0.66358882188797,-0.1072355955839157,-0.1921347826719284,-0.3845204412937164,0.2035121917724609,0.0,0.0,0.694833517074585,-0.6570441126823425
-0.118326187133789,0.6597356200218201,-0.096152938902378,-0.1683016717433929,-0.3727392256259918,0.2356248199939727,0.0,0.0,-0.5853005647659302,-0.2348665595054626
-0.1192739456892013,0.6555128693580627,-0.1060824170708656,-0.1847734004259109,-0.36077481508255,0.2392884194850921,0.0,0.0,-0.855871319770813,0.3819707632064819
-0.1203183159232139,0.6509206295013428,-0.1159945875406265,-0.2012453526258468,-0.3486163318157196,0.2431695461273193,0.0,0.0,-0.03826504945755,-0.4289129972457886
-0.1214592009782791,0.6459587812423706,-0.1258870810270309,-0.2177176177501678,-0.3362531363964081,0.247264415025711,0.0,0.0,-0.970037043094635,0.7209696769714355
-0.1226384192705154,0.6405887603759766,-0.1283974647521972,-0.2362642586231231,-0.3253248631954193,0.2185653895139694,0.0,0.0,0.4671680927276611,-0.074984073638916
-0.1238438636064529,0.6352907419204712,-0.1311409026384353,-0.2331233471632003,-0.3143009543418884,0.2204784452915191,0.0,0.0,-0.9345935583114624,-0.08822762966156
-0.125144675374031,0.6296226382255554,-0.1409575492143631,-0.249593436717987,-0.3030416369438171,0.2251864224672317,0.0,0.0,-0.8244791626930237,-0.0017611384391784
-0.1265407502651214,0.6235848665237427,-0.1507440507411956,-0.2660639584064483,-0.2915372550487518,0.2300873696804046,0.0,0.0,-0.4219580888748169,-0.1967815160751342
-0.1280313432216644,0.6171773076057434,-0.1604975014925003,-0.2825349271297455,-0.2797784805297851,0.2351753264665603,0.0,0.0,-0.7156041264533997,-0.4382915496826172
-0.1296162605285644,0.6104001402854919,-0.1702147871255874,-0.2990064322948456,-0.2677562832832336,0.2404438257217407,0.0,0.0,-0.4020917415618896,-0.0216088891029357
-0.1312948167324066,0.6032534241676331,-0.1798926889896392,-0.3154785335063934,-0.2554619610309601,0.245886355638504,0.0,0.0,-0.5523585081100464,0.8804746866226196
-0.1330107748508453,0.5957149863243103,-0.1824900209903717,-0.3331800103187561,-0.2443681508302688,0.221876174211502,0.0,0.0,0.8182798624038696,0.1480529308319091
-0.1346975266933441,0.5889144539833069,-0.1796062886714935,-0.3004689514636993,-0.2332649081945419,0.2220651358366012,0.0,0.0,0.8141443729400635,0.8501021862030029
-0.1362471580505371,0.582850456237793,-0.1644909679889679,-0.2680321037769317,-0.223603144288063,0.1932354122400283,0.0,0.0,-0.972062885761261,0.518113374710083
-0.1378427445888519,0.5764005780220032,-0.1682266294956207,-0.2853675186634063,-0.2148327529430389,0.1754074096679687,0.0,0.0,-0.7495001554489136,0.4649910926818847
-0.1395294219255447,0.5695804953575134,-0.1776497513055801,-0.3018347322940826,-0.2057521343231201,0.1816125065088272,0.0,0.0,-0.7661182880401611,0.7493588924407959
-0.1412402093410492,0.5623636245727539,-0.1786759793758392,-0.3197113275527954,-0.1980974376201629,0.153093621134758,0.0,0.0,-0.6676815748214722,0.7797582149505615
-0.1429655104875564,0.5547532439231873,-0.1785223484039306,-0.3374508619308471,-0.192069262266159,0.1205634623765945,0.0,0.0,-0.9222440719604492,0.946871280670166
-0.1446903198957443,0.54673832654953,-0.1764649003744125,-0.3557058870792389,-0.1880585551261901,0.0802140161395073,0.0,0.0,-0.891437292098999,0.983149528503418
-0.1464266777038574,0.538337767124176,-0.1760149598121643,-0.3730613589286804,-0.1856637150049209,0.0478965006768703,0.0,0.0,-0.4628427028656006,0.9829378128051758
-0.1481689512729644,0.5295505523681641,-0.1748937368392944,-0.3904603719711303,-0.1849986612796783,0.0133009552955627,0.0,0.0,-0.9850939512252808,0.504331111907959
-0.1499500274658203,0.5203805565834045,-0.1778979897499084,-0.4075801074504852,-0.1852099299430847,-0.0042252978309988,0.0,0.0,-0.9107362031936646,0.9841814041137696
-0.1517285406589508,0.5108040571212769,-0.1756820231676101,-0.4258946180343628,-0.1873854547739029,-0.0435109250247478,0.0,0.0,-0.9706615805625916,0.9785656929016112
-0.1535222977399826,0.5008338093757629,-0.175774335861206,-0.4435799717903137,-0.1910035163164138,-0.072361059486866,0.0,0.0,-0.9913986921310424,0.8581172227859497
-0.1553218811750412,0.4904805421829223,-0.1747675687074661,-0.4608244001865387,-0.1962240487337112,-0.104410782456398,0.0,0.0,-0.9930438995361328,-0.91423362493515
-0.1572770178318023,0.4797776937484741,-0.1925748735666275,-0.4760753214359283,-0.1991787105798721,-0.0590936727821826,0.0,0.0,-0.0498290657997131,0.6796303987503052
-0.1592701971530914,0.4686969518661499,-0.1956745982170105,-0.4929724037647247,-0.2028506398200988,-0.0734385699033737,0.0,0.0,0.2554558515548706,0.9651243686676024
-0.1610850393772125,0.4579825401306152,-0.1763049662113189,-0.4769143462181091,-0.2080689221620559,-0.1043655276298523,0.0,0.0,-0.9493153691291808,0.9931116104125975
-0.1629068404436111,0.4468820095062256,-0.1755793094635009,-0.4943016469478607,-0.214734673500061,-0.1333153545856475,0.0,0.0,-0.4555118083953857,0.5531020164489746
-0.1647677421569824,0.4354024231433868,-0.1789156198501587,-0.5112659335136414,-0.2219885736703872,-0.1450781375169754,0.0,0.0,0.070446491241455,0.4584472179412842
-0.1666482985019683,0.4240292906761169,-0.1811801046133041,-0.5065227150917053,-0.2289460450410843,-0.1391495466232299,0.0,0.0,-0.292015790939331,0.5957810878753662
-0.1685649901628494,0.4122729301452636,-0.1842342019081115,-0.523682177066803,-0.2364987134933471,-0.1510537266731262,0.0,0.0,-0.6465439796447754,0.7680635452270508
-0.1705096215009689,0.4001280069351196,-0.1862387210130691,-0.5411146283149719,-0.2448412179946899,-0.1668499559164047,0.0,0.0,-0.4833294153213501,-0.7749300599098206
-0.1725719422101974,0.3876348733901977,-0.1996837258338928,-0.5563564300537109,-0.2515150606632232,-0.1334769427776336,0.0,0.0,-0.6601666212081909,0.9509577751159668
-0.1746237725019455,0.3747318685054779,-0.1969164609909057,-0.5749035477638245,-0.259937971830368,-0.1684580445289611,0.0,0.0,-0.2362504005432129,-0.0776235461235046
-0.1767414063215255,0.3614579439163208,-0.2038995772600174,-0.5913677215576172,-0.2679840922355652,-0.1609223335981369,0.0,0.0,0.1142908334732055,-0.4102534055709839
-0.1787993460893631,0.3485760986804962,-0.1982363760471344,-0.5739243030548096,-0.2757242918014526,-0.1548037528991699,0.0,0.0,0.422105073928833,-0.610048234462738
-0.1806345880031585,0.3363564014434814,-0.1778333336114883,-0.5441868901252747,-0.2815682888031006,-0.1168798953294754,0.0,0.0,0.6025514602661133,-0.8775392770767212
-0.1823601722717285,0.3245694637298584,-0.1690898835659027,-0.524535596370697,-0.2851371467113495,-0.071377120912075,0.0,0.0,0.8946027755737305,-0.4861947298049927
-0.1838877648115158,0.3137620389461517,-0.1496193557977676,-0.4809472858905792,-0.2883664965629577,-0.0645878463983535,0.0,0.0,0.9014163017272948,-0.2298166751861572
-0.1851456612348556,0.3038563728332519,-0.123334527015686,-0.4407360851764679,-0.290895402431488,-0.0505778715014457,0.0,0.0,0.9776432514190674,-0.653093159198761
-0.1862497329711914,0.294342041015625,-0.1098597198724746,-0.4229658842086792,-0.2914547920227051,-0.0111877955496311,0.0,0.0,0.8358019590377808,0.0617314577102661
-0.1873366385698318,0.2855015695095062,-0.1078976169228553,-0.393070787191391,-0.2922660708427429,-0.0162255875766277,0.0,0.0,0.8987646102905273,-0.4854064583778381
-0.188441663980484,0.2772026658058166,-0.1094277277588844,-0.3690598607063293,-0.2933835685253143,-0.0223500672727823,0.0,0.0,0.967206597328186,0.4059991836547851
-0.1894220411777496,0.2695066630840301,-0.0971976369619369,-0.342209905385971,-0.2942441999912262,-0.017213400453329,0.0,0.0,0.9360746145248412,-0.1207808852195739
-0.1902339905500412,0.2623229920864105,-0.0808590352535247,-0.31934455037117,-0.2945895791053772,-0.0069078719243407,0.0,0.0,0.7878509759902954,-0.3826947808265686
-0.1908369958400726,0.2552643418312073,-0.0609573908150196,-0.3135847449302673,-0.2939077615737915,0.0136365862563252,0.0,0.0,0.9200186729431152,-0.728418231010437
-0.1911830902099609,0.2489494234323501,-0.0373459607362747,-0.2801137268543243,-0.2910853624343872,0.0564478710293769,0.0,0.0,0.4545655250549316,-0.6016554236412048
-0.1913799345493316,0.2432987540960312,-0.0240370687097311,-0.2502793073654175,-0.2866124212741852,0.0894596204161644,0.0,0.0,-0.0068466067314147,-0.1574341058731079
