x_pos,y_pos,x_vel,y_vel,angle,ang_vel,leg_1,leg_2,main_booster,lat_booster
-0.0014513969654217,1.403181076049805,-0.1470690667629242,-0.3439494371414184,0.0017270299140363,0.0340646728873252,0.0,0.0,-0.4887465238571167,0.6147615909576416
-0.0027779578231275,1.395019292831421,-0.1330320090055465,-0.3627464473247528,0.0020935924258083,0.0073328069411218,0.0,0.0,-0.4551159143447876,0.6625734567642212
-0.0039686202071607,1.3864092826843262,-0.1178247481584549,-0.3826719224452972,0.0008639005827717,-0.024596145376563,0.0,0.0,-0.0646089315414428,0.0059903860092163
-0.0050871847197413,1.3773558139801023,-0.1106156259775161,-0.4023742973804474,-0.0003609637788031,-0.0244996305555105,0.0,0.0,0.1496930122375488,-0.5475812554359436
-0.0060778618790209,1.368541598320007,-0.0991244316101074,-0.3917458355426788,-0.0002997388364747,0.0012245049001649,0.0,0.0,-0.5530049204826355,-0.0719178915023803
-0.0069969175383448,1.3592839241027832,-0.0919761359691619,-0.411450445652008,-0.0002344773674849,0.0013054598821327,0.0,0.0,-0.8149662017822266,0.379241943359375
-0.00784473400563,1.3495830297470093,-0.0848598107695579,-0.4311474561691284,-0.0001639144029468,0.0014117212267592,0.0,0.0,-0.6423317193984985,0.1142095327377319
-0.0086217876523733,1.3394389152526855,-0.0777790918946266,-0.4508458077907562,-8.816995250526816e-05,0.0015146093210205,0.0,0.0,-0.604182779788971,0.1606991291046142
-0.0093283653259277,1.3288516998291016,-0.070737324655056,-0.4705449044704437,-7.176445251388941e-06,0.001620466238819,0.0,0.0,-0.4376450777053833,-0.5726968050003052
-0.0100100515410304,1.3178248405456543,-0.0694048181176185,-0.4900852739810943,0.0012152043636888,0.0244496874511241,0.0,0.0,-0.6882283091545105,-0.2064012289047241
-0.0106222154572606,1.3063546419143677,-0.0624558106064796,-0.5097846984863281,0.0024423296563327,0.0245447345077991,0.0,0.0,-0.8716846704483032,-0.5664349794387817
-0.0112046245485544,1.2944400310516355,-0.0605016872286796,-0.529543936252594,0.0046660089865326,0.0444779172539711,0.0,0.0,-0.6319840550422668,-0.9239091277122498
-0.0117758754640817,1.2820866107940674,-0.0608282499015331,-0.549056351184845,0.0083302678540349,0.0732919052243232,0.0,0.0,-0.8597363829612732,-0.7921270728111267
-0.0123346326872706,1.2692821025848389,-0.0609902553260326,-0.5691248774528503,0.0133901415392756,0.1012066155672073,0.0,0.0,-0.7725100517272949,-0.2094146609306335
-0.012826251797378,1.2560348510742188,-0.0542876534163951,-0.5888262391090393,0.0184543188661336,0.1012928932905197,0.0,0.0,-0.8991531133651733,-0.1164824962615966
-0.0132514955475926,1.242344617843628,-0.0476581379771232,-0.6085274815559387,0.0235233269631862,0.1013896241784095,0.0,0.0,-0.7380717992782593,0.5525239706039429
-0.0135579109191894,1.228219747543335,-0.0343982763588428,-0.627837598323822,0.027249027043581,0.0745206028223037,0.0,0.0,-0.7021167874336243,-0.3494793176651001
-0.0137995723634958,1.2136517763137815,-0.0279323458671569,-0.6475381255149841,0.0309799332171678,0.0746247693896293,0.0,0.0,-0.776566743850708,0.0673789978027343
-0.0139774326235055,1.1986407041549685,-0.0215623918920755,-0.6672388315200806,0.0347151085734367,0.0747101753950119,0.0,0.0,-0.5394822359085083,-0.2432680130004882
-0.0140926362946629,1.183186650276184,-0.0152965830639004,-0.6869394779205322,0.038454845547676,0.0748014897108078,0.0,0.0,-0.5201674699783325,0.1810915470123291
-0.0141463279724121,1.1672894954681396,-0.0091443369165062,-0.706640362739563,0.0421991758048534,0.0748930722475051,0.0,0.0,-0.7969103455543518,0.4444060325622558
-0.0141396522521972,1.1509493589401243,-0.0031157026533037,-0.7263412475585938,0.0459480993449687,0.074984923005104,0.0,0.0,-0.6786150336265564,0.6163018941879272
-0.0140146259218454,1.134169340133667,0.0102050844579935,-0.7458527684211731,0.0482121929526329,0.0452859923243522,0.0,0.0,-0.1169207692146301,-0.0526524782180786
-0.0138321872800588,1.1169461011886597,0.0159581303596496,-0.7655530571937561,0.0504818297922611,0.0453966483473777,0.0,0.0,-0.0911775231361389,-0.0120728611946105
-0.013593578711152,1.0992796421051023,0.0215527396649122,-0.7852532863616943,0.0527562052011489,0.0454918220639228,0.0,0.0,0.0265970230102539,0.5130236148834229
-0.0133829116821289,1.0818020105361938,0.0199728291481733,-0.7768266201019287,0.0538427419960498,0.0217308327555656,0.0,0.0,-0.4144109487533569,0.0442756414413452
-0.0131196975708007,1.0638811588287354,0.0252189226448535,-0.796524167060852,0.0549355745315551,0.0218565091490745,0.0,0.0,-0.1889382600784301,0.4485979080200195
-0.0128059387207031,1.0455169677734375,0.0302668008953332,-0.8162217736244202,0.0560353957116603,0.0219966974109411,0.0,0.0,0.2379331588745117,0.319430947303772
-0.0125738140195608,1.027570724487305,0.0225480236113071,-0.7976346611976624,0.0566906742751598,0.0131054669618606,0.0,0.0,0.4143397808074951,-0.6700822114944458
-0.012391853146255,1.0097978115081787,0.0162158571183681,-0.7899869084358215,0.0586519911885261,0.0392261855304241,0.0,0.0,-0.3285083770751953,0.5863759517669678
-0.0121186254546046,0.991592526435852,0.0265484638512134,-0.8091567158699036,0.0594180114567279,0.0153204519301652,0.0,0.0,0.570347785949707,0.8373329639434814
-0.0118450168520212,0.973561465740204,0.0283944960683584,-0.8013429641723633,0.0584021210670471,-0.0203179698437452,0.0,0.0,0.2156876325607299,0.0897088050842285
-0.0116279600188136,0.955965220928192,0.0230061579495668,-0.7820091843605042,0.0571165978908538,-0.0257108155637979,0.0,0.0,0.6760430335998535,0.2165024280548095
-0.0114607810974121,0.9384681582450868,0.0183104630559682,-0.7775883078575134,0.0555444099009037,-0.031443852931261,0.0,0.0,0.5603866577148438,0.276009202003479
-0.0112784383818507,0.9214163422584534,0.0197287406772375,-0.7577998638153076,0.0540568865835666,-0.0297503434121608,0.0,0.0,-0.1903101801872253,0.2335493564605713
-0.0110668186098337,0.9039214849472046,0.0226554609835147,-0.7774975299835205,0.052584171295166,-0.0294541418552398,0.0,0.0,0.1405882835388183,0.5210527181625366
-0.0108241084963083,0.8864533305168152,0.0268284175544977,-0.7762743830680847,0.0500524640083313,-0.0506343059241771,0.0,0.0,-0.1857247352600097,-0.2827686071395874
-0.0105587001889944,0.8685420751571655,0.0290850214660167,-0.795972466468811,0.0475380569696426,-0.0502881184220314,0.0,0.0,-0.0759853720664978,-0.1636598110198974
-0.0102740284055471,0.8501875996589661,0.0309903677552938,-0.8156705498695374,0.045042261481285,-0.049915824085474,0.0,0.0,0.6440998315811157,-0.3532725572586059
-0.0099728582426905,0.8322986364364624,0.0324917063117027,-0.7950013875961304,0.0426964722573757,-0.0469157062470912,0.0,0.0,0.2699744701385498,-0.2030414342880249
-0.0097672464326024,0.8148581385612488,0.0233013443648815,-0.7750571966171265,0.0399923101067543,-0.054083477705717,0.0,0.0,-0.1400506496429443,-0.1413094997406005
-0.0095532415434718,0.7969745993614197,0.024107601493597,-0.7947553396224976,0.0373107977211475,-0.0536301843822002,0.0,0.0,0.6569427251815796,0.3827735185623169
-0.009249210357666,0.7791247963905334,0.0326474234461784,-0.7932685017585754,0.0351040624082088,-0.0441350266337394,0.0,0.0,0.5007948875427246,0.1716796159744262
-0.0088709834963083,0.7615565657615662,0.0396098867058754,-0.7807715535163879,0.0333398655056953,-0.0352839305996894,0.0,0.0,-0.2046360373497009,0.491161584854126
-0.0084956167265772,0.7435451149940491,0.0392897874116897,-0.8004693388938904,0.0316023454070091,-0.0347503833472728,0.0,0.0,0.3944897651672363,0.2507654428482055
-0.0080971717834472,0.7255152463912964,0.0414016917347908,-0.801295816898346,0.0300721600651741,-0.0306038744747638,0.0,0.0,0.2003827095031738,0.6571776866912842
-0.0076169967651367,0.7075299620628357,0.0507810041308403,-0.7992880344390869,0.0273369718343019,-0.0547035746276378,0.0,0.0,-0.0902788043022155,-0.1260965466499328
-0.0071508409455418,0.6891018748283386,0.0493624433875083,-0.818986177444458,0.024632129818201,-0.0540966764092445,0.0,0.0,-0.1851509809494018,-0.7399810552597046
-0.0067735672928392,0.6702343821525574,0.0386187098920345,-0.8385412693023682,0.0237540304660797,-0.0175619684159755,0.0,0.0,0.0996755361557006,0.2214534282684326
-0.006439208984375,0.6514307856559753,0.0343627706170082,-0.8356963992118835,0.0228432286530733,-0.0182160623371601,0.0,0.0,0.0987591743469238,0.4336436986923218
-0.0060420990921556,0.6327568888664246,0.0401467867195606,-0.8299435377120972,0.022407105192542,-0.0087226293981075,0.0,0.0,0.5791187286376953,0.1567146778106689
-0.0057431221939623,0.6146939396858215,0.0305700208991765,-0.8027886152267456,0.0217506270855665,-0.0131294671446084,0.0,0.0,-0.063926100730896,0.1730997562408447
-0.0054742814972996,0.5961877703666687,0.0275092013180255,-0.8224861025810242,0.0211291573941707,-0.012429254129529,0.0,0.0,0.6630852222442627,0.4569978713989258
-0.0052522658370435,0.5784426927566528,0.0227715410292148,-0.7886594533920288,0.0205582119524478,-0.0114187179133296,0.0,0.0,0.0531527996063232,-0.1123830080032348
-0.0049776076339185,0.560723602771759,0.0275593604892492,-0.787517249584198,0.020462904125452,-0.001905970624648,0.0,0.0,0.1752921342849731,-0.1738669276237487
-0.0048163412138819,0.5430618524551392,0.0165109653025865,-0.7849611043930054,0.0200899243354797,-0.0074596367776393,0.0,0.0,0.3510242700576782,-0.0211544632911682
-0.0046321870759129,0.5259366631507874,0.0183984450995922,-0.7611203789710999,0.0201097261160612,0.0003961269685532,0.0,0.0,-0.0568657517433166,0.0853177309036254
-0.0044912337325513,0.5083683133125305,0.0140352565795183,-0.7808179259300232,0.0201670061796903,0.0011456098873168,0.0,0.0,0.5475019216537476,-0.0248587131500244
-0.0043412209488451,0.4915153980255127,0.0145720187574625,-0.7490234375,0.0205857157707214,0.0083740977570414,0.0,0.0,-0.1132283210754394,-0.2160269021987915
-0.0042387964203953,0.4742192924022674,0.009788941591978,-0.7687209248542786,0.0210423152893781,0.0091317594051361,0.0,0.0,0.4916845560073852,0.2454006671905517
-0.0041464804671704,0.4569829702377319,0.0085186269134283,-0.7660716772079468,0.0217506848275661,0.0141674559563398,0.0,0.0,0.9507005214691162,-0.0319068431854248
-0.0042415619827806,0.440541535615921,-0.0097110830247402,-0.7307335138320923,0.0219493675976991,0.0039737750776112,0.0,0.0,0.4885857105255127,0.6494873762130737
-0.004226398654282,0.4243597388267517,0.0023316335864365,-0.7191773056983948,0.021144300699234,-0.0161012969911098,0.0,0.0,0.7996294498443604,-0.4442542791366577
-0.0042539597488939,0.408736914396286,-0.0020969475153833,-0.6943391561508179,0.0204959120601415,-0.012967768125236,0.0,0.0,0.3689389228820801,0.2097413539886474
-0.0043375017121434,0.3931692242622375,-0.0077653853222727,-0.691890299320221,0.0199153218418359,-0.0116118267178535,0.0,0.0,0.9180355072021484,0.1472488641738891
-0.0046353340148925,0.3781830370426178,-0.0285620298236608,-0.6660357713699341,0.0187075659632682,-0.0241550989449024,0.0,0.0,0.5813093185424805,0.4525901079177856
-0.0049860952422022,0.3639827072620392,-0.0339911468327045,-0.6311107277870178,0.017632357776165,-0.0215040538460016,0.0,0.0,-0.168355107307434,0.6315972805023193
-0.0053393365815281,0.3493332862854004,-0.0328262001276016,-0.6510597467422485,0.0151676926761865,-0.0492932423949241,0.0,0.0,0.952296018600464,0.3687409162521362
-0.0057362555526196,0.3357544243335724,-0.0373806655406951,-0.6034826636314392,0.0128878755494952,-0.0455963164567947,0.0,0.0,0.7898890972137451,0.4467713832855224
-0.0063029290176928,0.3224996626377105,-0.0539235398173332,-0.5890786051750183,0.0101733319461345,-0.0542908199131488,0.0,0.0,0.940843105316162,0.6672598123550415
-0.0070030214264988,0.3099968433380127,-0.0656521543860435,-0.5556575059890747,0.0058717401698231,-0.0860317349433898,0.0,0.0,0.6385347843170166,0.1197950839996337
-0.0077391625382006,0.2979772090911865,-0.0694388002157211,-0.5341971516609192,0.0017477697692811,-0.0824792459607124,0.0,0.0,0.4245971441268921,0.582036018371582
-0.0086152078583836,0.2866132855415344,-0.0820166915655136,-0.5050656199455261,-0.0037636628840118,-0.1102287545800209,0.0,0.0,-0.1003161072731018,0.4876582622528076
-0.0095555307343602,0.2748065590858459,-0.0884927287697792,-0.5247656106948853,-0.0092390058562159,-0.1095068305730819,0.0,0.0,-0.4360021352767944,0.7137577533721924
-0.0105077745392918,0.262550950050354,-0.0883442461490631,-0.5447544455528259,-0.0160185880959033,-0.1355916857719421,0.0,0.0,-0.2710229158401489,-0.063496708869934
-0.0115254400297999,0.249852642416954,-0.0949399545788765,-0.5644556879997253,-0.0227624140679836,-0.1348765343427658,0.0,0.0,0.5630149841308594,-0.5625404119491577
-0.0126787181943655,0.2371902614831924,-0.1095906719565391,-0.5628713369369507,-0.0284319333732128,-0.1133904233574867,0.0,0.0,0.8930525779724121,0.3807986974716186
-0.0138823511078953,0.22544826567173,-0.1146138757467269,-0.521988034248352,-0.0341103710234165,-0.1135687679052352,0.0,0.0,0.1889842748641967,-0.3956096172332763
-0.0150753976777195,0.2141405642032623,-0.1138631701469421,-0.5026968121528625,-0.0394869782030582,-0.1075322031974792,0.0,0.0,-0.2161783576011657,-0.1880423426628112
-0.0163357742130756,0.2023900598287582,-0.1206440553069114,-0.5223965644836426,-0.0448282398283481,-0.1068251132965087,0.0,0.0,-0.163917601108551,0.6444650888442993
-0.017624283209443,0.1901874393224716,-0.1224621310830116,-0.5425416827201843,-0.0511419810354709,-0.1262747645378112,0.0,0.0,0.8683509826660156,0.2008038759231567
-0.0188897140324115,0.1788778156042099,-0.1203981861472129,-0.5028718113899231,-0.0572093091905117,-0.1213466897606849,0.0,0.0,0.4931042194366455,-0.3860372304916382
-0.0202851295471191,0.1679122298955917,-0.1330188065767288,-0.4876221716403961,-0.0636648386716842,-0.1291104406118393,0.0,0.0,-0.0411330461502075,0.6912121772766113
-0.0216995235532522,0.1565022617578506,-0.1336902976036071,-0.5074585676193237,-0.0713349133729934,-0.1534014791250229,0.0,0.0,0.8074254989624023,0.1437524557113647
-0.0231413841247558,0.1457958817481994,-0.1364149749279022,-0.4762315452098846,-0.0790298208594322,-0.1538983285427093,0.0,0.0,0.7410788536071777,0.1530803442001342
-0.0245123859494924,0.1355528384447097,-0.1297995746135711,-0.4556474983692169,-0.0862637758255004,-0.144678920507431,0.0,0.0,0.747992992401123,0.4302222728729248
-0.0258966442197561,0.1254052966833114,-0.1312758028507232,-0.4514319002628326,-0.0933455899357795,-0.1416361927986145,0.0,0.0,0.9616655111312866,0.2534816265106201
-0.02719621732831,0.1155136674642562,-0.1233627572655677,-0.4400524199008941,-0.0998814702033996,-0.1307178735733032,0.0,0.0,0.965867042541504,-0.5880947113037109
-0.0283584594726562,0.1061722859740257,-0.1113878265023231,-0.4155029058456421,-0.1046848446130752,-0.0960676670074462,0.0,0.0,0.9424493312835692,-0.2338224649429321
-0.0293792728334665,0.0970539897680282,-0.098033033311367,-0.4055465757846832,-0.1086929067969322,-0.08016137778759,0.0,0.0,0.9882431030273438,-0.5735647678375244
-0.0304238311946392,0.088853508234024,-0.1015950292348861,-0.3646802604198456,-0.1115384995937347,-0.0569117479026317,0.0,0.0,0.8543896675109863,-0.3579013347625732
-0.0314092636108398,0.0814731419086456,-0.0958778411149978,-0.3282157182693481,-0.1141852885484695,-0.0529359504580497,0.0,0.0,0.820117712020874,-0.4258962869644165
-0.0322448723018169,0.0747213438153266,-0.0815715864300727,-0.3002330064773559,-0.1161586642265319,-0.0394673906266689,0.0,0.0,0.282370924949646,-0.5799102187156677
-0.0330820083618164,0.0678907930850982,-0.0831011906266212,-0.3036279380321502,-0.1167696341872215,-0.0122194392606616,0.0,0.0,0.5810216665267944,0.2253267765045166
-0.0339826568961143,0.0613517872989177,-0.0892581492662429,-0.2906862199306488,-0.1175731047987937,-0.0160692799836397,0.0,0.0,0.8133330345153809,0.6557717323303223
-0.0346909537911415,0.0557612031698226,-0.068997323513031,-0.2486156076192855,-0.1193954497575759,-0.0364469513297081,0.0,0.0,0.0948539972305297,0.6395182609558105
-0.0353918075561523,0.050283059477806,-0.0669905394315719,-0.2437256872653961,-0.1224747598171234,-0.0615858733654022,0.0,0.0,0.225172758102417,0.0209066867828369
-0.0361825935542583,0.0452568866312503,-0.0755979195237159,-0.2236736267805099,-0.1259383112192154,-0.0692712813615799,0.0,0.0,0.1136974096298217,0.4959557056427002
-0.0369265563786029,0.0404766164720058,-0.0712269470095634,-0.2127273380756378,-0.1290869265794754,-0.0629722326993942,0.0,0.0,0.1460939645767212,0.6358144283294678
-0.0376647934317588,0.0360303744673728,-0.0693781897425651,-0.198003202676773,-0.1335177421569824,-0.0886161252856254,0.0,0.0,-0.097106397151947,0.7820826768875122
-0.0384200103580951,0.0311361644417047,-0.0697734504938125,-0.218049019575119,-0.139248177409172,-0.1146085113286972,0.0,0.0,0.5285377502441406,0.5407612323760986
-0.0391639694571495,0.0264779906719923,-0.0675493851304054,-0.2076842188835144,-0.1460754424333572,-0.1365456879138946,0.0,0.0,0.7225549221038818,0.2111043930053711
-0.0400072112679481,0.0223343707621097,-0.0769683048129081,-0.1849028915166854,-0.1534175425767898,-0.146842211484909,0.0,0.0,0.4658844470977783,0.0460693836212158
-0.0409814827144146,0.0184676274657249,-0.0895135402679443,-0.1726911962032318,-0.1613282114267349,-0.1582136750221252,0.0,0.0,0.6528661251068115,0.8767877817153931
-0.0416520126163959,0.0159912686794996,-0.0762589275836944,-0.1090834289789199,-0.1521425247192382,0.1836837083101272,1.0,0.0,0.1664751768112182,0.9250723123550416
-0.0420590415596962,0.0141227338463068,-0.0656131505966186,-0.0806917697191238,-0.1272961795330047,0.4969449639320373,1.0,0.0,0.0697402954101562,0.7111496925354004
-0.0421758666634559,0.012945638038218,-0.0460096038877964,-0.0497405678033828,-0.0931848287582397,0.6822482347488403,1.0,0.0,-0.0630998611450195,0.6179389953613281
-0.0422738082706928,0.0113003347069025,-0.0414390750229358,-0.0714521184563636,-0.0618481151759624,0.6267348527908325,1.0,0.0,0.2069802284240722,0.5007191896438599
-0.0421792976558208,0.0101506328210234,-0.0215085428208112,-0.0501006208360195,-0.0312615483999252,0.6117320656776428,0.0,0.0,-0.6949100494384766,0.9397127628326416
-0.0420708656311035,0.0085654826834797,-0.0180566199123859,-0.070094347000122,-0.0027306883130222,0.5706179141998291,0.0,0.0,0.1355485916137695,0.967394471168518
-0.0419600494205951,0.0073984004557132,-0.0159240216016769,-0.0520362965762615,0.0239317715167999,0.5332496762275696,0.0,0.0,-0.6684606671333313,0.9609241485595704
-0.0418354980647563,0.0058082793839275,-0.0124647738412022,-0.0712522789835929,0.0485436022281646,0.4922371506690979,0.0,0.0,-0.3426979780197143,0.9701390266418456
-0.0416937842965126,0.0037839270662516,-0.0085516991093754,-0.0908642187714576,0.0710230842232704,0.4495901465415954,0.0,1.0,-0.0167688131332397,0.9846963882446288
-0.0415373817086219,0.0018255210015922,0.0061392150819301,-0.0878662839531898,0.079025387763977,0.1582460403442382,0.0,1.0,0.5396643877029419,0.9958219528198242
-0.0415937416255474,0.000688049767632,0.0045266323722898,-0.0500613376498222,0.068915344774723,-0.2022607773542404,0.0,1.0,0.0558593273162841,0.135392427444458
-0.0417598709464073,4.5607088395627216e-05,0.004971585702151,-0.0277070701122283,0.0475345179438591,-0.4276579320430755,0.0,1.0,-0.101696491241455,-0.1508101820945739
-0.0419547073543071,-0.0008521461277268,0.0071859695017337,-0.039271954447031,0.0211501475423574,-0.5277291536331177,0.0,1.0,0.3476201295852661,0.2603005170822143
-0.0419165603816509,-0.000981714692898,0.0136370463296771,-0.0056708888150751,0.0114798480644822,-0.1933806240558624,1.0,1.0,-0.048923909664154,-0.4062978029251098
-0.0418559089303016,-0.0008731746929697,0.0070107467472553,0.0048284884542226,0.0105323130264878,-0.0189683064818382,1.0,1.0,-0.6253911852836609,0.0491619110107421
-0.0418249145150184,-0.0007273697992786,0.0042612603865563,0.0064918654970824,0.0093574281781911,-0.0235302429646253,1.0,1.0,-0.5932387709617615,0.0681867599487304
-0.0418002121150493,-0.0005193019169382,0.0041608135215938,0.0092539805918931,0.0076822624541819,-0.0335171446204185,1.0,1.0,-0.581873893737793,0.107506513595581
