x_pos,y_pos,x_vel,y_vel,angle,ang_vel,leg_1,leg_2,main_booster,lat_booster
-0.001540184020996,1.4034550189971924,-0.1560425013303756,-0.3317779302597046,0.0018145364010706,0.0357971265912056,0.0,0.0,-0.0174852013587951,0.8670518398284912
-0.0030241967178881,1.3958399295806885,-0.1483305394649505,-0.3384541273117065,0.0017486576689407,-0.0013171706814318,0.0,0.0,0.1368969678878784,0.5016517639160156
-0.0043871877714991,1.3884685039520264,-0.1354731023311615,-0.3276160657405853,0.000936156604439,-0.0162514634430408,0.0,0.0,-0.3021315932273865,0.5507566928863525
-0.005734825041145,1.3809257745742798,-0.1330783069133758,-0.3352276682853699,-0.0007314761751331,-0.0333558060228824,0.0,0.0,-0.30524343252182,0.4986367225646972
-0.0071027753874659,1.3732138872146606,-0.135126993060112,-0.3427533209323883,-0.0023826744873076,-0.0330270044505596,0.0,0.0,-0.1683617830276489,0.4125418663024902
-0.0084918979555368,1.365332841873169,-0.1372564136981964,-0.3502801060676574,-0.0040212399326264,-0.0327744856476783,0.0,0.0,-0.0088080167770385,0.033968448638916
-0.0099030490964651,1.3572821617126465,-0.1394618451595306,-0.3578077256679535,-0.0056501245126128,-0.0325808152556419,0.0,0.0,0.1366088390350341,0.7324495315551758
-0.0111595150083303,1.3497307300567627,-0.1226754784584045,-0.3356390595436096,-0.0085917292162776,-0.0588375627994537,0.0,0.0,-0.5368614196777344,0.3283816576004028
-0.0124393459409475,1.3420099020004272,-0.1250147968530655,-0.3431725203990936,-0.0115287220105528,-0.0587449446320533,0.0,0.0,-0.25457763671875,0.1322994232177734
-0.0137431146577,1.3341197967529297,-0.1274167746305465,-0.3506986200809479,-0.0144642023369669,-0.0587148442864418,0.0,0.0,-0.3697997331619262,0.5031754970550537
-0.0150262834504246,1.3260598182678225,-0.1241926550865173,-0.3582656681537628,-0.0185398031026124,-0.0815198272466659,0.0,0.0,-0.3392989635467529,-0.2385149002075195
-0.0163345336914062,1.3178308010101318,-0.1267033368349075,-0.3657943606376648,-0.0226173941045999,-0.0815593004226684,0.0,0.0,-0.6741521954536438,0.0087078809738159
-0.0176684372127056,1.3094325065612793,-0.1292645037174224,-0.3733232617378235,-0.0266995225101709,-0.0816499441862106,0.0,0.0,-0.3103383779525757,0.1049325466156005
-0.0190284736454486,1.3008650541305542,-0.1318721771240234,-0.3808522224426269,-0.0307875536382198,-0.0817677825689315,0.0,0.0,-0.6419939994812012,0.5796809196472168
-0.0203584674745798,1.2921321392059326,-0.1274336874485016,-0.3882603347301483,-0.0363012589514255,-0.1102840676903724,0.0,0.0,-0.5876303315162659,-0.0401272177696228
-0.0217154510319232,1.2832300662994385,-0.1301174908876419,-0.3957907557487488,-0.0418224669992923,-0.1104341894388198,0.0,0.0,-0.2864615321159363,-0.0323572754859924
-0.0230997093021869,1.274158954620361,-0.1328364759683609,-0.4033212065696716,-0.0473529063165187,-0.1106190234422683,0.0,0.0,0.0383423566818237,0.5684173107147217
-0.0243557933717966,1.2652567625045776,-0.1190143600106239,-0.3958738148212433,-0.0538697801530361,-0.1303492486476898,0.0,0.0,-0.7500402331352234,-0.5348801016807556
-0.0256747249513864,1.2561936378479004,-0.1262112706899643,-0.4030245840549469,-0.0595037303864955,-0.1126891821622848,0.0,0.0,-0.8376914858818054,0.1365034580230713
-0.0270218849182128,0.0,-0.1290141642093658,-0.4105542302131653,-0.0651481598615646,-0.1128985658288002,0.0,0.0,-0.6074609160423279,0.3470914363861084
-0.0283972732722759,1.2375603914260864,-0.1318376958370208,-0.4180846512317657,-0.070802204310894,-0.1130908504128456,0.0,0.0,-0.7538177967071533,0.547349214553833
-0.0297574046999216,1.2279826402664185,-0.1291735172271728,-0.4260142743587494,-0.0775765255093574,-0.1354986131191253,0.0,0.0,-0.7674395442008972,0.3226306438446045
-0.0311460494995117,1.218235969543457,-0.1320263743400573,-0.4335469603538513,-0.0843588635325431,-0.1356589496135711,0.0,0.0,-0.898101806640625,-0.036125898361206
-0.0325633063912391,1.2083207368850708,-0.1348911225795745,-0.4410797953605652,-0.0911489278078079,-0.1358133256435394,0.0,0.0,-0.8565000891685486,0.696204662322998
-0.0339673981070518,1.1982327699661257,-0.1324936151504516,-0.4488480687141418,-0.099004790186882,-0.1571310758590698,0.0,0.0,-0.7671343088150024,0.6237995624542236
-0.0353643409907817,1.187952756881714,-0.1308165490627288,-0.457494705915451,-0.1078071966767311,-0.1760481297969818,0.0,0.0,-0.4211236238479614,-0.4062502384185791
-0.0367901809513568,1.1775047779083252,-0.1337174475193023,-0.4650269448757171,-0.1166137680411338,-0.1761314570903778,0.0,0.0,-0.2377859950065612,-0.1449189782142639
-0.0382450111210346,1.1668883562088013,-0.1366180628538131,-0.4725591540336609,-0.1254227012395858,-0.1761786043643951,0.0,0.0,-0.3984261751174927,-0.5972237586975098
-0.0397851951420307,1.1561192274093628,-0.1466336399316787,-0.4792721569538116,-0.1327787935733795,-0.1471220552921295,0.0,0.0,0.3945896625518799,0.6257573366165161
-0.0412703529000282,1.1457850933074951,-0.1398255079984665,-0.4600898921489715,-0.1414224803447723,-0.1728739142417907,0.0,0.0,-0.1075130105018615,0.6388394832611084
-0.042731761932373,1.1352789402008057,-0.1361646801233291,-0.4679193794727325,-0.1513745188713073,-0.1990411877632141,0.0,0.0,0.2079993486404419,-0.17001473903656
-0.044229507446289,1.12509286403656,-0.1395632177591323,-0.4537907540798187,-0.1615820676088333,-0.2041511833667755,0.0,0.0,-0.7224209904670715,-0.7029527425765991
-0.0458172783255577,1.1147602796554563,-0.1501852571964264,-0.4601840078830719,-0.1701746582984924,-0.1718516200780868,0.0,0.0,-0.1413115262985229,0.3690767288208008
-0.0474331863224506,1.1042592525482178,-0.153025671839714,-0.4677156805992126,-0.1787529587745666,-0.1715662777423858,0.0,0.0,-0.3253964185714721,0.627531886100769
-0.0490266792476177,1.093577861785889,-0.1495323777198791,-0.4759487807750702,-0.1886047720909118,-0.1970369219779968,0.0,0.0,-0.6315720081329346,0.5154905319213867
-0.0506059639155864,1.0827205181121826,-0.1471030116081237,-0.4839726984500885,-0.1994979828596115,-0.217863842844963,0.0,0.0,-0.1817328929901123,-0.5335367918014526
-0.0522560104727745,1.0717054605484009,-0.1553348451852798,-0.4908962547779083,-0.2092482149600982,-0.1950048059225082,0.0,0.0,-0.2748284339904785,-0.5869210958480835
-0.0539750084280967,1.060539960861206,-0.1633625775575637,-0.4974765479564667,-0.2178586721420288,-0.1722095757722854,0.0,0.0,-0.8333466649055481,0.428356409072876
-0.0557206161320209,1.0492058992385864,-0.1660808473825454,-0.5050077438354492,-0.2264337539672851,-0.1715019792318344,0.0,0.0,-0.6628435254096985,0.0782759189605712
-0.0574925430119037,1.0377036333084106,-0.1687672436237335,-0.512538731098175,-0.2349684834480285,-0.1706947982311248,0.0,0.0,0.7365771532058716,-0.5150366425514221
-0.0592546463012695,1.0272865295410156,-0.1685567498207092,-0.4642252326011657,-0.242750272154808,-0.1556356549263,0.0,0.0,-0.4928607940673828,-0.4856199026107788
-0.0610424056649208,1.0167007446289062,-0.1711719334125518,-0.4717548787593841,-0.2504810392856598,-0.1546151936054229,0.0,0.0,-0.8099841475486755,-0.6100053787231445
-0.0628953948616981,1.005954384803772,-0.1787821650505066,-0.4787351489067077,-0.2571271359920501,-0.1329220086336136,0.0,0.0,0.4787715673446655,0.1417003870010376
-0.0645668059587478,0.9956917762756348,-0.1610908657312393,-0.4571929275989532,-0.2632995843887329,-0.1234490498900413,0.0,0.0,-0.7753146290779114,0.0457071065902709
-0.0662622451782226,0.9852599501609802,-0.1635818779468536,-0.4647202789783478,-0.269403338432312,-0.1220753341913223,0.0,0.0,-0.8201488852500916,0.2598499059677124
-0.0679813399910926,0.9746591448783876,-0.1660273224115371,-0.4722473919391632,-0.2754321098327636,-0.1205755919218063,0.0,0.0,-0.8006412386894226,-0.0108474493026733
-0.0697236061096191,0.963888943195343,-0.1684251129627227,-0.4797742068767547,-0.281379371881485,-0.1189461126923561,0.0,0.0,0.2415744066238403,-0.317958116531372
-0.0713953971862793,0.9538878202438354,-0.1611063033342361,-0.4456814229488373,-0.2876293063163757,-0.1249986067414283,0.0,0.0,-0.5712924599647522,-0.4132603406906128
-0.0730891227722168,0.9437174201011658,-0.1634029000997543,-0.4532080590724945,-0.2937842905521393,-0.1230994835495948,0.0,0.0,-0.5023321509361267,-0.0609631538391113
-0.0748042091727256,0.9333778619766236,-0.1656459867954254,-0.4607343971729278,-0.2998373508453369,-0.1210609674453735,0.0,0.0,-0.7098472714424133,-0.7538245916366577
-0.0765832886099815,0.9228886365890504,-0.1732883751392364,-0.467145711183548,-0.304613322019577,-0.095519483089447,0.0,0.0,-0.229028046131134,-0.1682460904121399
-0.0783824920654296,0.9122300148010254,-0.1754185259342193,-0.4746703803539276,-0.3092730343341827,-0.0931944996118545,0.0,0.0,0.262021541595459,-0.789363443851471
-0.0800676345825195,0.9018678069114684,-0.1657739430665969,-0.4611282050609588,-0.312111347913742,-0.056766390800476,0.0,0.0,0.1799848079681396,-0.9093567728996276
-0.0816604644060134,0.8921887278556824,-0.1584632247686386,-0.4303547739982605,-0.312955766916275,-0.0168882124125957,0.0,0.0,-0.632176399230957,-0.6521933674812317
-0.0833085998892784,0.8823553919792175,-0.1651017814874649,-0.4369801580905914,-0.3126637935638428,0.0058391694910824,0.0,0.0,0.591174840927124,-0.9045174717903136
-0.085001565515995,0.8730764985084534,-0.1713633984327316,-0.4119516611099243,-0.3105195164680481,0.0428851693868637,0.0,0.0,-0.0268141031265258,-0.6040698289871216
-0.0867483168840408,0.8636514544487,-0.1778950095176696,-0.4182069897651672,-0.3071769773960113,0.0668500512838363,0.0,0.0,-0.2696194648742676,-0.6906576156616211
-0.0885503739118576,0.8540782928466797,-0.1846372038125991,-0.4245444536209106,-0.3025859594345093,0.0918203815817833,0.0,0.0,-0.3874361515045166,-0.2828574180603027
-0.0903676003217697,0.8443353772163391,-0.1863280683755874,-0.4320676922798157,-0.2978259027004242,0.095201089978218,0.0,0.0,-0.8687276840209961,-0.0393077135086059
-0.0921992287039756,0.834422767162323,-0.1879518926143646,-0.4395909309387207,-0.2928891479969024,0.0987348705530166,0.0,0.0,-0.9891372919082642,-0.0994178056716919
-0.0940445885062217,0.8243404030799866,-0.1895079463720321,-0.4471141993999481,-0.2877681255340576,0.1024212464690208,0.0,0.0,-0.6865036487579346,0.6589891910552979
-0.0958607643842697,0.8140730261802673,-0.1856986880302429,-0.4555241167545318,-0.2835673391819,0.0840158611536026,0.0,0.0,-0.890871524810791,-0.5478698015213013
-0.0977223366498947,0.8036491870880127,-0.1912966072559356,-0.4622988104820251,-0.2782845199108124,0.1056561022996902,0.0,0.0,-0.7149292826652527,-0.6027753353118896
-0.0996389389038086,0.7930751442909241,-0.1981625407934188,-0.4687300324440002,-0.2716192603111267,0.133305087685585,0.0,0.0,-0.8858197927474976,-0.0380539298057556
-0.1015661209821701,0.7823318839073181,-0.1994437128305435,-0.4762545228004455,-0.2647396922111511,0.137590616941452,0.0,0.0,-0.2069016098976135,0.3473466634750366
-0.1035032272338867,0.7714189291000366,-0.2006556987762451,-0.4837792217731476,-0.2576386034488678,0.1420218050479889,0.0,0.0,-0.6036801934242249,0.2165429592132568
-0.1054492965340614,0.7603365778923035,-0.2017987072467804,-0.4913041293621063,-0.2503087520599365,0.1465963423252105,0.0,0.0,-0.9045924544334412,0.4288609027862549
-0.1074037551879882,0.7490848898887634,-0.2028729617595672,-0.4988293945789337,-0.2427431792020797,0.1513118296861648,0.0,0.0,-0.9561410546302797,0.4049853086471557
-0.1093656569719314,0.7376638650894165,-0.2038789689540863,-0.5063549280166626,-0.2349348813295364,0.1561656296253204,0.0,0.0,0.0903940200805664,-0.2680368423461914
-0.1113220229744911,0.7265509366989136,-0.2033014595508575,-0.4927069842815399,-0.227164477109909,0.1554082334041595,0.0,0.0,-0.9454277157783508,0.7269308567047119
-0.1132366210222244,0.7152550220489502,-0.198165014386177,-0.5010201930999756,-0.2203771770000457,0.1357459872961044,0.0,0.0,-0.7112632393836975,0.3010096549987793
-0.1151566505432128,0.7037897706031799,-0.1989699006080627,-0.508544921875,-0.2133273184299469,0.1409969329833984,0.0,0.0,-0.888367772102356,0.2775158882141113
-0.1170811653137207,0.6921550035476685,-0.1997098624706268,-0.5160700082778931,-0.2060086578130722,0.1463735550642013,0.0,0.0,0.4809480905532837,0.2844510078430176
-0.1188393607735633,0.6810908317565918,-0.18365079164505,-0.4906723201274872,-0.198110356926918,0.1579655706882476,0.0,0.0,-0.9751251935958862,0.7436490058898926
-0.1205471977591514,0.6698350310325623,-0.1775042414665222,-0.4993666112422943,-0.1913455873727798,0.135295420885086,0.0,0.0,-0.9286039471626282,0.6738787889480591
-0.1222002953290939,0.6583859324455261,-0.1708337217569351,-0.5081470012664795,-0.1858046650886535,0.1108187884092331,0.0,0.0,-0.6737898588180542,0.3770109415054321
-0.1238554939627647,0.6467671394348145,-0.171326532959938,-0.5156707763671875,-0.1799715161323547,0.1166628822684288,0.0,0.0,-0.7249575853347778,0.8722695112228394
-0.1254441291093826,0.6349682807922363,-0.1632632315158844,-0.523869514465332,-0.1755608022212982,0.088214635848999,0.0,0.0,-0.975707471370697,0.7353134155273438
-0.1269678175449371,0.6229894757270813,-0.155410885810852,-0.5320344567298889,-0.1725126951932907,0.0609617419540882,0.0,0.0,-0.897784411907196,-0.123329758644104
-0.1284916847944259,0.6108407378196716,-0.1557361036539077,-0.5395565032958984,-0.1691568940877914,0.0671159103512764,0.0,0.0,-0.8446928262710571,-0.3809394240379333
-0.1300150901079177,0.5985221266746521,-0.1560096889734268,-0.5470788478851318,-0.1654886156320572,0.0733659341931343,0.0,0.0,-0.7161967754364014,0.2625323534011841
-0.1315376311540603,0.5860337615013123,-0.1562338769435882,-0.5546013712882996,-0.1615031659603119,0.0797089338302612,0.0,0.0,-0.343595802783966,0.2191078662872314
-0.1330586373805999,0.5733756422996521,-0.1564110070466995,-0.5621241331100464,-0.1571961641311645,0.0861401408910751,0.0,0.0,-0.5204020142555237,-0.1713698506355285
-0.1345777511596679,0.5605476498603821,-0.1565435081720352,-0.5696471929550171,-0.1525633633136749,0.0926557555794715,0.0,0.0,0.0692214965820312,0.912183403968811
-0.1359628736972808,0.5482111573219299,-0.1416610777378082,-0.5479715466499329,-0.1494229137897491,0.0628094300627708,0.0,0.0,-0.3483328819274902,0.8789756298065186
-0.1372664421796798,0.5356870889663696,-0.131828099489212,-0.5564786791801453,-0.1479614526033401,0.0292292200028896,0.0,0.0,-0.8761845827102661,0.7719980478286743
-0.1385048925876617,0.5229714512825012,-0.1240344643592834,-0.5651180744171143,-0.1477714478969574,0.0038000247441232,0.0,0.0,-0.7755006551742554,0.7809774875640869
-0.1396698057651519,0.5100645422935486,-0.1152164712548255,-0.5737698078155518,-0.1490462124347686,-0.0254951324313879,0.0,0.0,-0.1196072101593017,0.26873779296875
-0.1408307999372482,0.4969875812530517,-0.1151647120714187,-0.5812914967536926,-0.1499768495559692,-0.0186127834022045,0.0,0.0,-0.141689658164978,0.4573640823364258
-0.1419874131679535,0.4837406277656555,-0.1150845885276794,-0.5888130068778992,-0.1505602449178695,-0.011667801067233,0.0,0.0,0.5281774997711182,0.7662820816040039
-0.1429806649684906,0.4713473916053772,-0.0975391790270805,-0.5509907007217407,-0.1523331999778747,-0.0354591123759746,0.0,0.0,0.4142565727233886,-0.7222050428390503
-0.1438972502946853,0.4597585201263428,-0.0917302370071411,-0.5150513052940369,-0.1522571295499801,0.0015213030856102,0.0,0.0,-0.8731632828712463,0.718440055847168
-0.1447406709194183,0.4479867219924927,-0.0830450132489204,-0.523324728012085,-0.153558611869812,-0.0260296650230884,0.0,0.0,-0.1719930171966552,-0.0781108140945434
-0.1455789506435394,0.4360448718070984,-0.0828818827867508,-0.5308460593223572,-0.1545019894838333,-0.0188677348196506,0.0,0.0,0.7136156558990479,-0.3800517320632934
-0.1463844329118728,0.4247284531593323,-0.0797088220715522,-0.5030413866043091,-0.1553370803594589,-0.0167017821222543,0.0,0.0,0.0041414499282836,0.4283018112182617
-0.1470524817705154,0.4140070676803589,-0.0665643960237503,-0.4765302836894989,-0.1555716693401336,-0.0046918033622205,0.0,0.0,-0.5375716686248779,0.9434876441955566
-0.14764404296875,0.4030986130237579,-0.05747701972723,-0.4849962592124939,-0.1572569012641906,-0.0337048135697841,0.0,0.0,0.5316330194473267,0.7573697566986084
-0.1481807678937912,0.3931355476379394,-0.0506239049136638,-0.4431299269199371,-0.16030815243721,-0.0610248148441314,0.0,0.0,-0.1177445650100708,-0.7355557680130005
-0.1487606018781662,0.3830179572105407,-0.0565585605800151,-0.4498238265514374,-0.1617294996976852,-0.0284269545227289,0.0,0.0,-0.2022483348846435,-0.2484743595123291
-0.1493349075317382,0.3727302849292755,-0.056367140263319,-0.4573448002338409,-0.1627811640501022,-0.0210331417620182,0.0,0.0,-0.3235253095626831,0.9619033336639404
-0.1498380601406097,0.3622633814811706,-0.0479765199124813,-0.4654530882835388,-0.1651192456483841,-0.0467619709670543,0.0,0.0,0.2570083141326904,0.6405606269836426
-0.1502444297075271,0.352177619934082,-0.0373600646853446,-0.4486235976219177,-0.1684037148952484,-0.0656890943646431,0.0,0.0,-0.330299973487854,-0.676201581954956
-0.1507082879543304,0.3419384658336639,-0.0450953468680381,-0.4552195966243744,-0.1696971803903579,-0.0258696880191564,0.0,0.0,0.7870681285858154,-0.4300198554992676
-0.1512317657470703,0.3324079513549804,-0.0506738647818565,-0.4237676560878753,-0.1713690608739853,-0.0334378778934478,0.0,0.0,-0.2839767932891845,0.8454909324645996
-0.1516722738742828,0.3226922750473022,-0.0407650992274284,-0.4321918189525604,-0.1746548265218734,-0.065715305507183,0.0,0.0,-0.3288060426712036,-0.0651698112487793
-0.1521079093217849,0.3128064572811126,-0.0406666286289691,-0.4397130012512207,-0.1775644719600677,-0.0581930354237556,0.0,0.0,-0.0973080396652221,0.1772620677947998
-0.1525391638278961,0.3027505278587341,-0.0405954979360103,-0.4472339451313019,-0.1800974458456039,-0.050659142434597,0.0,0.0,0.2351136207580566,-0.1435770392417907
-0.1528791487216949,0.2933851182460785,-0.0317652150988578,-0.4165093004703522,-0.1823324114084243,-0.0446993336081504,0.0,0.0,0.1769971847534179,0.1807143688201904
-0.153004840016365,0.2847199440002441,-0.011190453544259,-0.3852902054786682,-0.1837197840213775,-0.0277471151202917,0.0,0.0,-0.0891572833061218,-0.2797433137893677
-0.1531271040439605,0.2758845090866089,-0.0112216714769601,-0.3928103744983673,-0.1847295463085174,-0.0201953016221523,0.0,0.0,0.016112208366394,-0.4652455449104309
-0.1531583815813064,0.2676205337047577,-0.0024839383549988,-0.3673713803291321,-0.1853822469711303,-0.0130540998652577,0.0,0.0,-0.6575234532356262,-0.1289370656013488
-0.1531871855258941,0.2591861486434936,-0.0026001366786658,-0.3748913407325744,-0.1856574714183807,-0.0055049806833267,0.0,0.0,-0.4299596548080444,-0.6872875094413757
-0.1532605141401291,0.250591367483139,-0.0086165321990847,-0.3818335235118866,-0.1843633353710174,0.0258825719356536,0.0,0.0,-0.530333936214447,0.1014325618743896
-0.1533321440219879,0.2418262511491775,-0.0088307801634073,-0.3893536627292633,-0.1826924979686737,0.0334167554974556,0.0,0.0,-0.2750837206840515,0.4828842878341675
-0.1534027159214019,0.2328909933567047,-0.009098813869059,-0.3968739509582519,-0.1806455701589584,0.0409386195242404,0.0,0.0,0.3624615669250488,0.1219639778137207
-0.1534068137407302,0.2244762927293777,-0.0027351137250661,-0.3737037777900696,-0.1783054918050766,0.0468015111982822,0.0,0.0,-0.4476109743118286,0.2960338592529297
-0.1534109115600586,0.2158914357423782,-0.0031198805663734,-0.3812243640422821,-0.1755910664796829,0.0542883798480033,0.0,0.0,0.1668077707290649,0.5902843475341797
-0.1532253324985504,0.2074673026800155,0.0164876487106084,-0.374165415763855,-0.1735201030969619,0.0414192900061607,0.0,0.0,-0.3331565856933594,0.231493592262268
-0.153041273355484,0.1988729983568191,0.015974573791027,-0.3816861510276794,-0.1710772812366485,0.0488565452396869,0.0,0.0,-0.3895994424819946,-0.0853064060211181
-0.1528592109680175,0.1901086121797561,0.0153931574895977,-0.3892071545124054,-0.1682641208171844,0.0562629885971546,0.0,0.0,-0.1791909337043762,-0.5549882054328918
