x_pos,y_pos,x_vel,y_vel,angle,ang_vel,leg_1,leg_2,main_booster,lat_booster
-0.0014200210571289,1.4030940532684326,-0.1434572786092758,-0.3478300273418426,0.0013066242681816,0.0257401224225759,0.0,0.0,-0.2538611888885498,0.4967333078384399
-0.0027375221252441,1.3947603702545166,-0.1326389610767364,-0.3703819513320923,0.0021831355988979,0.0175328813493251,0.0,0.0,0.3040087223052978,0.6939910650253296
-0.0037829398643225,1.3863695859909058,-0.1038427725434303,-0.3729240298271179,0.0014935156796127,-0.0137938950210809,0.0,0.0,-0.025515854358673,0.2687746286392212
-0.004729556851089,1.3774480819702148,-0.0935567915439605,-0.3965111076831817,0.0004081543011125,-0.0217092223465442,0.0,0.0,-0.5634756088256836,-0.2159618735313415
-0.0055793761275708,1.367996096611023,-0.0834855586290359,-0.4200893044471741,-0.0010735496180132,-0.0296368487179279,0.0,0.0,-0.4350425601005554,-0.1047064661979675
-0.0063348771072924,1.35801362991333,-0.0736470371484756,-0.4436681866645813,-0.0029512497130781,-0.0375573262572288,0.0,0.0,-0.6249136328697205,-0.082341194152832
-0.0069984435103833,1.347500562667847,-0.0640609115362167,-0.4672480523586273,-0.0052245273254811,-0.045469544827938,0.0,0.0,-0.7589132189750671,-0.0810016393661499
-0.0075728418305516,1.3364572525024414,-0.0547476112842559,-0.4908280968666076,-0.0078927036374807,-0.0533690266311168,0.0,0.0,-0.291311502456665,-0.709621012210846
-0.0081180576235055,1.3248918056488037,-0.0528749413788318,-0.5140281915664673,-0.0095212487503886,-0.0325736515223979,0.0,0.0,-0.5123752355575562,-0.9178359508514404
-0.0086526870727539,1.3128026723861694,-0.0532551929354667,-0.5372963547706604,-0.0097227776423096,-0.0040307543240487,0.0,0.0,-0.5572779774665833,-0.9236747622489928
-0.0091700553894042,1.3001846075057983,-0.0527286157011985,-0.5607965588569641,-0.0087480954825878,0.0194954015314579,0.0,0.0,-0.6119658946990967,-0.812454104423523
-0.0096681592985987,1.2870349884033203,-0.0518383085727691,-0.584409773349762,-0.0067429603077471,0.0401062592864036,0.0,0.0,-0.6780742406845093,-0.8388522863388062
-0.0101462360471487,1.2733598947525024,-0.0507513657212257,-0.6077702641487122,-0.0038232868537306,0.0583987310528755,0.0,0.0,-0.2794948816299438,-0.7447227835655212
-0.0106084821745753,1.259147882461548,-0.0501056499779224,-0.631644070148468,1.662814429437276e-05,0.0768051296472549,0.0,0.0,-0.4931949973106384,-0.4445281028747558
-0.0110073089599609,1.2444053888320925,-0.0433761924505233,-0.6552248001098633,0.0034714248031377,0.0691022798418998,0.0,0.0,-0.0444850325584411,-0.5322720408439636
-0.011381721124053,1.229126214981079,-0.0414196848869323,-0.6790932416915894,0.0074085001833736,0.0787484869360923,0.0,0.0,-0.4154860973358154,0.0821045637130737
-0.0117021556943655,1.2133164405822754,-0.0356433689594268,-0.702674150466919,0.0109660355374217,0.0711570531129837,0.0,0.0,-0.4909878969192505,0.332390546798706
-0.011973762884736,1.1969763040542605,-0.0303771942853927,-0.7262547016143799,0.0141479112207889,0.0636432990431785,0.0,0.0,-0.3191767930984497,0.0811299085617065
-0.0122017860412597,1.180105686187744,-0.0256431903690099,-0.7498351335525513,0.0169575922191143,0.0561987459659576,0.0,0.0,-0.6075307726860046,0.429532527923584
-0.0123915672302246,1.162704586982727,-0.0214612912386655,-0.7734153270721436,0.0193989910185337,0.0488324910402298,0.0,0.0,-0.2356542944908142,-0.2674938440322876
-0.0125491144135594,1.1447726488113403,-0.0178495068103075,-0.7969953417778015,0.0214763134717941,0.0415500774979591,0.0,0.0,0.4747083187103271,0.2457295656204223
-0.0126779554411768,1.1269028186798096,-0.0146741764619946,-0.7942370176315308,0.0232426933944225,0.0353309214115142,0.0,0.0,0.4714956283569336,-0.5857232809066772
-0.0127181056886911,1.10923171043396,-0.0069132125936448,-0.7854365110397339,0.0261051394045352,0.0572540760040283,0.0,0.0,-0.3862271308898926,0.0441619157791137
-0.0127437589690089,1.0910297632217407,-0.0050990846939384,-0.8090198040008545,0.0286165792495012,0.0502336136996746,0.0,0.0,-0.6530076265335083,-0.3600685596466064
-0.0127607341855764,1.0722973346710205,-0.0038999561220407,-0.832598090171814,0.0307835135608911,0.0433424487709999,0.0,0.0,0.4558513164520263,0.4224406480789184
-0.0129224779084324,1.0539370775222778,-0.0174198783934116,-0.8160394430160522,0.0320169776678085,0.0246691741049289,0.0,0.0,0.211288571357727,0.5795605182647705
-0.0130561832338571,1.0358505249023438,-0.0131103890016675,-0.8038374781608582,0.0317691639065742,-0.0049565308727324,0.0,0.0,0.6141588687896729,-0.6440543532371521
-0.0134149547666311,1.018440008163452,-0.0362773835659027,-0.7738122940063477,0.0321608483791351,0.0078336149454116,0.0,0.0,0.2120988368988037,-0.2060125470161438
-0.0139036178588867,1.0013461112976074,-0.0484869740903377,-0.7597188353538513,0.0317872650921344,-0.0074716373346745,0.0,0.0,0.1620407104492187,-0.487574815750122
-0.0144397737458348,0.9842352271080016,-0.0528482869267463,-0.7604743838310242,0.0310286898165941,-0.0151714803650975,0.0,0.0,0.6039609909057617,-0.7788369059562683
-0.0150709152221679,0.9678328633308412,-0.0636268705129623,-0.7290103435516357,0.0315432585775852,0.0102913128212094,0.0,0.0,0.5485658645629883,0.3000620603561401
-0.015821075066924,0.9515120387077332,-0.0748967006802558,-0.7253628969192505,0.0314154401421546,-0.0025561614893376,0.0,0.0,0.0433534383773803,-0.735942006111145
-0.0167446136474609,0.9354210495948792,-0.0933582186698913,-0.7151784896850586,0.0324109159409999,0.0199097879230976,0.0,0.0,-0.5305938720703125,-0.5072486400604248
-0.0177565570920705,0.9187926650047302,-0.1030392423272132,-0.7390806674957275,0.0342293418943882,0.0363687425851821,0.0,0.0,-0.7387556433677673,0.5029796361923218
-0.0187769886106252,0.9016367793083192,-0.102556511759758,-0.7624943852424622,0.0347326509654521,0.0100660873576998,0.0,0.0,-0.2488420605659485,-0.234067678451538
-0.0198516845703125,0.883950412273407,-0.107693113386631,-0.7860715389251709,0.0349544212222099,0.004435340873897,0.0,0.0,0.4500143527984619,0.0661580562591552
-0.0210222247987985,0.8663310408592224,-0.1168912202119827,-0.7830756902694702,0.0347940288484096,-0.0032078805379569,0.0,0.0,0.321945309638977,0.6496456861495972
-0.0221921913325786,0.8491036891937256,-0.1153215020895004,-0.7656241655349731,0.0331302657723426,-0.0332751683890819,0.0,0.0,-0.0724174976348877,-0.1236479878425598
-0.0234297756105661,0.8313456177711487,-0.1218045130372047,-0.7892016172409058,0.0312028527259826,-0.0385483801364898,0.0,0.0,0.6820915937423706,0.0996432304382324
-0.0247293468564748,0.8139863610267639,-0.1278766095638275,-0.7714826464653015,0.0291509255766868,-0.0410384126007556,0.0,0.0,-0.143113911151886,-0.5684496164321899
-0.0261570923030376,0.7960989475250244,-0.1417903006076812,-0.7949765920639038,0.0281780138611793,-0.0194581113755702,0.0,0.0,0.7003846168518066,-0.0868971943855285
-0.0275516510009765,0.7784942388534546,-0.1388210207223892,-0.7824216485023499,0.0275473613291978,-0.012613053433597,0.0,0.0,0.0553876161575317,0.8419475555419922
-0.0288940425962209,0.7606557607650757,-0.1316858828067779,-0.7927748560905457,0.0250208489596843,-0.0505301728844642,0.0,0.0,0.4620171785354614,0.7007657289505005
-0.0301807411015033,0.742992639541626,-0.1246373429894447,-0.7849651575088501,0.0210445877164602,-0.0795250087976455,0.0,0.0,0.833404541015625,0.7648141384124756
-0.0315505973994731,0.72528076171875,-0.1310789883136749,-0.7871257066726685,0.0152156688272953,-0.116578459739685,0.0,0.0,-0.683504045009613,0.3594731092453003
-0.0330107696354389,0.7070387601852417,-0.1398984342813491,-0.8107061386108398,0.0091670220717787,-0.1209728717803955,0.0,0.0,-0.2678202986717224,0.2980071306228637
-0.0345638282597065,0.6882666945457458,-0.1489686816930771,-0.8342869877815247,0.0029053951147943,-0.1252326220273971,0.0,0.0,0.8981478214263916,-0.1561919450759887
-0.0363439545035362,0.6704012155532837,-0.1708549261093139,-0.7940300107002258,-0.0041596200317144,-0.1413002163171768,0.0,0.0,-0.3446522951126098,0.4991577863693237
-0.0382212623953819,0.6520058512687683,-0.1803738921880722,-0.8176122307777405,-0.0114236576482653,-0.1452808231115341,0.0,0.0,0.7878236770629883,0.3483166694641113
-0.0402143485844135,0.6339065432548523,-0.1916448771953582,-0.8044865727424622,-0.018985403701663,-0.1512347161769867,0.0,0.0,0.4511489868164062,0.8716437816619873
-0.0420872680842876,0.6160238981246948,-0.1778734624385833,-0.7949349880218506,-0.0282950792461633,-0.1861936151981353,0.0,0.0,-0.0007750988006591,-0.4402562379837036
-0.0440629012882709,0.5976119637489319,-0.1879484951496124,-0.8185205459594727,-0.0377814322710037,-0.1897271126508712,0.0,0.0,0.0453909635543823,0.3778152465820312
-0.0460625663399696,0.5790884494781494,-0.1905295997858047,-0.8235323429107666,-0.0471166186034679,-0.1867037117481231,0.0,0.0,0.961025595664978,0.3211560249328613
-0.0481193549931049,0.5614541172981262,-0.1960847079753875,-0.7840778231620789,-0.0565949417650699,-0.189566507935524,0.0,0.0,0.3508443832397461,0.021334171295166
-0.0501384735107421,0.543877124786377,-0.1927482485771179,-0.7815675139427185,-0.0656621381640434,-0.1813441812992096,0.0,0.0,0.4861656427383423,0.6126770973205566
-0.0522828102111816,0.5264073610305786,-0.2036823779344558,-0.7769430875778198,-0.0762977302074432,-0.212711900472641,0.0,0.0,-0.1042425036430358,0.2531579732894897
-0.0545358657836914,0.5084086656570435,-0.214434415102005,-0.800531268119812,-0.0870684906840324,-0.2154151201248169,0.0,0.0,0.7212555408477783,0.2176133394241333
-0.0566944107413291,0.4909122884273529,-0.2055268287658691,-0.7782478928565979,-0.0973003134131431,-0.2046364098787307,0.0,0.0,0.9276219606399536,0.2442337274551391
-0.058783434331417,0.4743083417415619,-0.1988754570484161,-0.738635241985321,-0.1072458773851394,-0.1989111006259918,0.0,0.0,-0.1574849486351013,-0.2787611484527588
-0.0609838478267192,0.4571753740310669,-0.2099184542894363,-0.7622223496437073,-0.1172990500926971,-0.2010636776685714,0.0,0.0,0.0331015586853027,-0.1777746081352234
-0.0632374733686447,0.4398528337478637,-0.2153023183345794,-0.7707164287567139,-0.1273021697998047,-0.2000625431537628,0.0,0.0,0.826531171798706,0.2595280408859253
-0.0656152740120887,0.4231760501861572,-0.2271354645490646,-0.7421297430992126,-0.137906327843666,-0.2120832949876785,0.0,0.0,-0.070970594882965,0.4011582136154175
-0.0681064575910568,0.4059705138206482,-0.2384043633937835,-0.7657179236412048,-0.1485887616872787,-0.2136485576629638,0.0,0.0,-0.1029803156852722,-0.0638673901557922
-0.0707115158438682,0.3882361650466919,-0.2497364282608032,-0.7893060445785522,-0.1593393385410308,-0.2150115668773651,0.0,0.0,0.9833052158355712,0.0534828901290893
-0.0733451843261718,0.3706833124160766,-0.2526058852672577,-0.7813153862953186,-0.170104369521141,-0.2153007984161377,0.0,0.0,0.9912474155426024,-0.2256073951721191
-0.0761198997497558,0.3536926209926605,-0.2660030126571655,-0.7564953565597534,-0.181607112288475,-0.2300549745559692,0.0,0.0,0.97175133228302,-0.1453768014907837
-0.0788000077009201,0.3376731872558594,-0.2566414475440979,-0.7134078145027161,-0.1930284202098846,-0.2284260243177414,0.0,0.0,0.8833291530609131,0.5217757225036621
-0.0813944786787033,0.321569412946701,-0.24732606112957,-0.7173507809638977,-0.2052381783723831,-0.2441951483488083,0.0,0.0,0.9813034534454346,0.0061970949172973
-0.0838642120361328,0.3064305782318115,-0.2350074350833892,-0.6745426654815674,-0.2173139452934265,-0.2415151894092559,0.0,0.0,0.6884088516235352,0.3090336322784424
-0.0864392295479774,0.2915029227733612,-0.2451364547014236,-0.665323793888092,-0.2298400551080703,-0.2505221962928772,0.0,0.0,0.8542459011077881,-0.083925724029541
-0.089057445526123,0.277192085981369,-0.2490269243717193,-0.638091504573822,-0.2428378015756607,-0.2599548101425171,0.0,0.0,0.7617976665496826,0.394026517868042
-0.0916004180908203,0.2633071839809418,-0.2417017519474029,-0.6192384958267212,-0.2556682229042053,-0.2566082775592804,0.0,0.0,0.7712337970733643,-0.0834377408027648
-0.0941642746329307,0.2502602636814117,-0.2432326078414917,-0.5822115540504456,-0.2691114842891693,-0.2688653767108917,0.0,0.0,0.6386003494262695,-0.097048819065094
-0.0966218933463096,0.2374840825796127,-0.2330245226621627,-0.5702263116836548,-0.2821813523769378,-0.26139697432518,0.0,0.0,0.8384988307952881,-0.6448372006416321
-0.0991633385419845,0.2248395085334777,-0.2426659613847732,-0.5642462968826294,-0.2940013706684112,-0.2363999336957931,0.0,0.0,0.8875420093536377,-0.7572290897369385
-0.101691722869873,0.2121804058551788,-0.243107408285141,-0.5646200180053711,-0.3040482103824615,-0.2009363621473312,0.0,0.0,0.9710571765899658,-0.8387253880500793
-0.1043196693062782,0.1996114403009414,-0.254707783460617,-0.5603336095809937,-0.3124148249626159,-0.1673317700624466,0.0,0.0,0.9668974876403807,-0.7883423566818237
-0.1068419441580772,0.1879006177186966,-0.2457680404186248,-0.5218856930732727,-0.3191147446632385,-0.1339991092681884,0.0,0.0,0.987274169921875,-0.2538121938705444
-0.1090816482901573,0.1770117133855819,-0.2180459201335907,-0.485270619392395,-0.3252837359905243,-0.1233796700835228,0.0,0.0,0.9829609394073486,0.1522285938262939
-0.1112523078918457,0.1670512706041336,-0.2106403112411499,-0.4441443681716919,-0.3319806754589081,-0.1339389383792877,0.0,0.0,0.947829008102417,-0.4648065567016601
-0.1135565787553787,0.1571888327598571,-0.2234436720609665,-0.4399517774581909,-0.3392791152000427,-0.1459686458110809,0.0,0.0,0.9394029378890992,-0.5517185926437378
-0.1156609505414962,0.1481097340583801,-0.2048026621341705,-0.4048548936843872,-0.345186322927475,-0.1181442290544509,0.0,0.0,0.89967942237854,-0.7193561792373657
-0.1178297027945518,0.1395265907049179,-0.2125018090009689,-0.3825325667858124,-0.3497892022132873,-0.0920578762888908,0.0,0.0,0.8234702348709106,-0.7940125465393066
-0.1199787110090255,0.1315359026193618,-0.2120678722858429,-0.3558312952518463,-0.3527620136737823,-0.059456031769514,0.0,0.0,0.6316804885864258,-0.5483376383781433
-0.122057057917118,0.1240177750587463,-0.2061821520328521,-0.3345446288585663,-0.3545010089874267,-0.0347803607583045,0.0,0.0,0.9565044641494752,-0.6386550664901733
-0.1239558234810829,0.1169064119458198,-0.1898790597915649,-0.3160595893859863,-0.3544957041740417,0.0001061420043697,0.0,0.0,0.9906721115112304,-0.4102369546890259
-0.125800609588623,0.1098290979862213,-0.1847537606954574,-0.3144765794277191,-0.3542048931121826,0.0058164410293102,0.0,0.0,0.9667789936065674,-0.4977631568908691
-0.1274912804365158,0.102837473154068,-0.1699845790863037,-0.3105125725269317,-0.3532425761222839,0.0192462690174579,0.0,0.0,0.8722572326660156,-0.6822696924209595
-0.1289552748203277,0.096159778535366,-0.1492082327604293,-0.2960991859436035,-0.3502839505672455,0.0591725409030914,0.0,0.0,0.9526382684707642,-0.6878241300582886
-0.1302599012851715,0.0895393714308738,-0.1352058947086334,-0.293096512556076,-0.3453111946582794,0.0994550660252571,0.0,0.0,0.9810452461242676,-0.6410262584686279
-0.1314276754856109,0.083693154156208,-0.1229342445731163,-0.2583693265914917,-0.3388580679893493,0.1290622353553772,0.0,0.0,0.8847528696060181,-0.5047386288642883
-0.1324235945940017,0.0785451754927635,-0.1070380806922912,-0.2270669192075729,-0.3310705423355102,0.1557507961988449,0.0,0.0,0.7965340614318848,-0.9165726900100708
-0.1332228630781173,0.0738609656691551,-0.0896206721663475,-0.205999955534935,-0.3209740221500397,0.2019306868314743,0.0,0.0,0.7204720973968506,-0.952828288078308
-0.1339901983737945,0.069101296365261,-0.0886660665273666,-0.2089465707540512,-0.3085854351520538,0.2477716654539108,0.0,0.0,0.8986080884933472,-0.9162902235984802
-0.134825512766838,0.0647096931934356,-0.0974051132798194,-0.1923025101423263,-0.2942461371421814,0.286786139011383,0.0,0.0,0.931023120880127,-0.115283727645874
-0.1353861838579177,0.061194073408842,-0.07064139097929,-0.1533765643835067,-0.2792408764362335,0.3001051843166351,0.0,0.0,0.8354501724243164,-0.2524703741073608
-0.1359094679355621,0.0580724813044071,-0.0670515745878219,-0.1359948366880417,-0.2641423940658569,0.3019691109657287,0.0,0.0,0.8325018882751465,-0.4519944190979004
-0.1364470422267913,0.0557541213929653,-0.0681301951408386,-0.1005136594176292,-0.2494649589061737,0.2935484647750854,0.0,0.0,0.3849601745605469,0.644838809967041
-0.1368234604597091,0.0537119954824447,-0.0511550679802894,-0.0885235518217086,-0.2357171326875686,0.2749561965465545,0.0,0.0,-0.1157572865486145,0.8108842372894287
-0.1372526139020919,0.0511262752115726,-0.055238276720047,-0.1130011901259422,-0.2232297956943512,0.2497471570968628,0.0,0.0,0.1941627264022827,0.6208968162536621
-0.1376882493495941,0.0488129965960979,-0.0548081807792186,-0.1011520102620124,-0.2118659615516662,0.2272768765687942,0.0,0.0,-0.082963228225708,0.9624385833740234
-0.1381625235080719,0.0459438897669315,-0.0570762529969215,-0.1261605620384216,-0.2021292746067047,0.1947337388992309,0.0,0.0,0.379070520401001,0.8023204803466797
-0.1386899054050445,0.0432970859110355,-0.0608971007168293,-0.1165396645665168,-0.1939083039760589,0.1644194722175598,0.0,0.0,0.2858272790908813,0.9717445373535156
-0.1393053084611892,0.0407349690794944,-0.0679554715752601,-0.1130451336503028,-0.1874576658010482,0.1290127784013748,0.0,0.0,0.3719347715377807,0.9129471778869628
-0.1397461891174316,0.0384786240756511,-0.0490097366273403,-0.0996678248047828,-0.1825122684240341,0.0989075750112533,0.0,0.0,-0.022788643836975,0.906330704689026
-0.1402166336774826,0.0356621593236923,-0.0502213835716247,-0.1247903928160667,-0.1793347299098968,0.0635507702827453,0.0,0.0,0.3505403995513916,0.9723856449127196
-0.1404699385166168,0.0331852994859218,-0.0268715620040893,-0.109894298017025,-0.1777816116809845,0.0310622844845056,0.0,0.0,0.3863451480865478,0.8381600379943848
-0.1406677216291427,0.0311338044703006,-0.0198706611990928,-0.091164655983448,-0.1776864826679229,0.0019022779306396,0.0,0.0,0.1598720550537109,0.6947910785675049
-0.1406963318586349,0.0294003821909427,-0.0019471747800707,-0.0771535858511924,-0.1786020994186401,-0.0183127559721469,0.0,0.0,-0.0840448141098022,0.3313117027282715
-0.1408270895481109,0.0271358117461204,-0.0124109061434865,-0.1007279008626937,-0.1792732030153274,-0.0134218763560056,0.0,0.0,0.3906768560409546,0.3258424997329712
-0.1409423798322677,0.0253561828285455,-0.0110679389908909,-0.0791503712534904,-0.1797274798154831,-0.0090854484587907,0.0,0.0,0.1437557935714721,0.4233558177947998
-0.1410184800624847,0.0238388404250144,-0.0075997477397322,-0.0674389079213142,-0.1797425597906112,-0.0003018515417352,0.0,0.0,-0.050674021244049,0.1294029951095581
-0.141193002462387,0.0217904187738895,-0.0176843218505382,-0.0910131260752677,-0.1795129477977752,0.0045922310091555,0.0,0.0,0.270806074142456,0.6572009325027466
-0.1414313316345214,0.0199281070381402,-0.0228254292160272,-0.0828931704163551,-0.1805238425731659,-0.0202174764126539,0.0,0.0,0.3643395900726318,0.7234389781951904
-0.141691967844963,0.0187484361231327,-0.0366779379546642,-0.0511895008385181,-0.1698364615440368,0.2138060629367828,1.0,0.0,0.5087859630584717,0.9069188833236694
-0.1418166160583496,0.0177875608205795,-0.0212700981646776,-0.0417399853467941,-0.160991758108139,0.1769395470619201,1.0,0.0,0.3636931180953979,0.9631360769271852
-0.1417687386274337,0.0169457774609327,-0.0026598924305289,-0.0366332456469535,-0.1535188406705856,0.1494970768690109,1.0,0.0,-0.012200653553009,0.8512866497039795
-0.1416173875331878,0.0157601684331893,0.0047042961232364,-0.0516591407358646,-0.1430736184120178,0.2089369744062423,1.0,0.0,0.3901195526123047,0.962052583694458
-0.1412145644426345,0.014867172576487,0.031672365963459,-0.0388921983540058,-0.1344809830188751,0.1718697100877761,1.0,0.0,0.1667371988296508,0.6976232528686523
-0.1406600922346115,0.0142825935035943,0.0481929145753383,-0.0253435168415308,-0.1272545903921127,0.1445276737213134,1.0,0.0,-0.014323353767395,0.2007069587707519
