x_pos,y_pos,x_vel,y_vel,angle,ang_vel,leg_1,leg_2,main_booster,lat_booster
-0.0016575813060626,1.4032504558563232,-0.1679021567106247,-0.340869277715683,0.001923184026964,0.0379486456513404,0.0,0.0,-0.1730235815048217,0.5457932949066162
-0.0034033774863928,1.3952276706695557,-0.1753504574298858,-0.3565711081027984,0.0026852646842598,0.0152438450604677,0.0,0.0,0.4241132736206054,0.9232968091964722
-0.005080890841782,1.3873469829559326,-0.1668842285871505,-0.350255936384201,0.0018271362641826,-0.0171642452478408,0.0,0.0,0.2139796018600464,0.5910131931304932
-0.0069437981583178,1.379640817642212,-0.1840992867946624,-0.3424973785877228,-0.0003347127640154,-0.0432411357760429,0.0,0.0,-0.2015801072120666,0.7318964004516602
-0.0088709834963083,1.371562957763672,-0.1888164430856704,-0.3590189218521118,-0.0042013758793473,-0.0773406997323036,0.0,0.0,-0.2711378931999206,0.6597908735275269
-0.0108686443418264,1.3631101846694946,-0.1942871510982513,-0.3757009506225586,-0.0096202557906508,-0.1083874851465225,0.0,0.0,-0.6390223503112793,0.4719057083129883
-0.0130002023652195,1.3542839288711548,-0.2077299803495407,-0.3923216462135315,-0.0149909248575568,-0.107423186302185,0.0,0.0,-0.7587276101112366,0.8398491144180298
-0.0151831628754735,1.3450849056243896,-0.2108076363801956,-0.4089372456073761,-0.0223909299820661,-0.1480138748884201,0.0,0.0,-0.6317154765129089,0.7378123998641968
-0.0174426082521677,1.3355189561843872,-0.2170545309782028,-0.4253103137016296,-0.0311779547482728,-0.175756961107254,0.0,0.0,-0.1156981587409973,0.8396263122558594
-0.0197691917419433,1.325582504272461,-0.2221372127532959,-0.4418743848800659,-0.0415841229259967,-0.2081426680088043,0.0,0.0,-0.6242906451225281,0.7811288833618164
-0.0221585277467966,1.3152697086334229,-0.2266660034656524,-0.458721250295639,-0.0537197664380073,-0.2427351474761963,0.0,0.0,-0.3895629048347473,0.7049527168273926
-0.0246185306459665,1.3045791387557983,-0.2322101145982742,-0.4756947159767151,-0.0673793852329254,-0.2732173800468445,0.0,0.0,-0.2133536338806152,0.3132811784744262
-0.0272109024226665,1.2935168743133545,-0.2454927861690521,-0.4923281669616699,-0.0810022950172424,-0.2724832892417907,0.0,0.0,-0.3715448379516601,0.8738477230072021
-0.0298592559993267,1.2820661067962646,-0.2491838634014129,-0.5098427534103394,-0.0965280756354332,-0.3105443120002746,0.0,0.0,-0.6362565159797668,0.1536247730255127
-0.0326391234993934,1.270244836807251,-0.2623948752880096,-0.526481568813324,-0.1120200902223587,-0.3098684549331665,0.0,0.0,-0.2306832075119018,0.4741039276123047
-0.035550020635128,1.2580524682998655,-0.2755680680274963,-0.5431211590766907,-0.1274813115596771,-0.3092528879642486,0.0,0.0,-0.7908716797828674,-0.1155989170074462
-0.0385917648673057,1.245489239692688,-0.2886991500854492,-0.5597604513168335,-0.1429131478071212,-0.3086648285388946,0.0,0.0,-0.3729107975959778,-0.3885871171951294
-0.0417636856436729,1.2325550317764282,-0.3017840981483459,-0.5764003992080688,-0.1583172380924224,-0.3081099390983581,0.0,0.0,-0.2552235126495361,-0.3828428983688354
-0.0450653061270713,1.219249963760376,-0.3148183524608612,-0.5930408835411072,-0.1736952066421508,-0.3075873851776123,0.0,0.0,0.1027711629867553,-0.0256129503250122
-0.0484837517142295,1.206146001815796,-0.3263196945190429,-0.5842861533164978,-0.1893002539873123,-0.3121293783187866,0.0,0.0,0.0071871280670166,-0.8944772481918335
-0.0519219413399696,1.1933462619781494,-0.3301183581352234,-0.5706892013549805,-0.2031011432409286,-0.2760421633720398,0.0,0.0,-0.3798543214797973,-0.6113106608390808
-0.0555348396301269,1.1801855564117432,-0.348844438791275,-0.586682140827179,-0.2156804203987121,-0.2516079545021057,0.0,0.0,0.1430301666259765,0.1043859720230102
-0.0591066367924213,1.1671758890151978,-0.3452038168907165,-0.5800064206123352,-0.2278224527835846,-0.2428623735904693,0.0,0.0,-0.7458083033561707,-0.517924964427948
-0.0628411322832107,1.153800368309021,-0.3624223470687866,-0.5962110757827759,-0.2390284985303878,-0.2241409122943878,0.0,0.0,0.0950812101364135,0.322441816329956
-0.0666918754577636,1.1407076120376587,-0.3736561834812164,-0.583795964717865,-0.2506543397903442,-0.2325374633073806,0.0,0.0,0.1541117429733276,0.1110402345657348
-0.0706475228071212,1.127974271774292,-0.3837311267852783,-0.5679881572723389,-0.2627362310886383,-0.2416372001171112,0.0,0.0,-0.4783728718757629,0.1203835010528564
-0.0747271552681922,1.1148691177368164,-0.3961759805679321,-0.5846167206764221,-0.2748063504695892,-0.2414024323225021,0.0,0.0,-0.7261415123939514,-0.5113067626953125
-0.0789758712053299,1.1014165878295898,-0.4143588542938232,-0.59989994764328,-0.2856004238128662,-0.215882271528244,0.0,0.0,-0.5183082222938538,0.2906928062438965
-0.0833461731672287,1.087591528892517,-0.4265595376491546,-0.6165262460708618,-0.296387255191803,-0.215735912322998,0.0,0.0,0.0755367279052734,0.3461896181106567
-0.0877570137381553,1.0738556385040283,-0.430596262216568,-0.6126607060432434,-0.3072321712970733,-0.2168982326984405,0.0,0.0,-0.774664580821991,-0.4936671257019043
-0.0922865867614746,1.0597472190856934,-0.4425066411495209,-0.62928706407547,-0.3180741965770721,-0.2168398648500442,0.0,0.0,-0.2618030309677124,-0.1884417533874511
-0.0969332680106163,1.0452663898468018,-0.454251766204834,-0.6459134817123413,-0.3289154767990112,-0.2168257683515548,0.0,0.0,-0.6375254392623901,0.2329791784286499
-0.1016951575875282,1.0304131507873535,-0.4658166766166687,-0.6625398993492126,-0.3397582471370697,-0.2168556004762649,0.0,0.0,0.0389803647994995,0.4918693304061889
-0.1065325736999511,1.015528440475464,-0.4732283651828766,-0.6640608906745911,-0.35079026222229,-0.2206404507160186,0.0,0.0,-0.8379696011543274,0.6394293308258057
-0.1114323586225509,1.000246286392212,-0.4782247543334961,-0.6821272373199463,-0.3631735742092132,-0.2476660907268524,0.0,0.0,-0.168500006198883,0.2725722789764404
-0.1164408698678016,0.9845920205116272,-0.489149659872055,-0.6987565755844116,-0.3755654394626617,-0.2478364706039428,0.0,0.0,0.3954273462295532,0.4804153442382812
-0.1214352622628212,0.9691147208213806,-0.4876816868782043,-0.6910192966461182,-0.3880708515644073,-0.2501079440116882,0.0,0.0,0.1319736242294311,0.1998083591461181
-0.1263116896152496,0.9539749026298524,-0.4760448932647705,-0.6760925054550171,-0.4004693031311035,-0.2479685544967651,0.0,0.0,-0.229509174823761,0.3038197755813598
-0.1312887221574783,0.938463032245636,-0.4861515462398529,-0.6927220821380615,-0.4128840565681457,-0.2482949942350387,0.0,0.0,0.5311845541000366,-0.2477368116378784
-0.136113166809082,0.9233376383781432,-0.4710469841957092,-0.675618052482605,-0.4251967966556549,-0.2462547719478607,0.0,0.0,-0.1665310263633728,0.3990836143493652
-0.1410315483808517,0.9078401923179626,-0.48049396276474,-0.6922474503517151,-0.4375315308570862,-0.2466945946216583,0.0,0.0,0.8732204437255859,0.4104397296905517
-0.1456621140241623,0.8926883935928345,-0.4523414969444275,-0.6768024563789368,-0.44924396276474,-0.2342488765716552,0.0,0.0,0.98781418800354,0.3721636533737182
-0.150110051035881,0.8775980472564697,-0.4346031248569488,-0.6739975810050964,-0.4604438245296478,-0.223996564745903,0.0,0.0,0.9119287729263306,-0.2922735214233398
-0.1542656868696212,0.8628808259963989,-0.4058737158775329,-0.6573341488838196,-0.4711434841156006,-0.2139934748411178,0.0,0.0,0.4366847276687622,-0.4384121298789978
-0.1584144532680511,0.8481577038764954,-0.4050699770450592,-0.65772944688797,-0.4820412397384643,-0.2179553508758545,0.0,0.0,0.8444280624389648,-0.7046812772750854
-0.1624656617641449,0.8335514664649963,-0.3967456221580505,-0.6521152257919312,-0.4913824498653412,-0.1868250966072082,0.0,0.0,0.9981904029846193,-0.1308643221855163
-0.1662652045488357,0.8192353248596191,-0.3718852400779724,-0.6391834616661072,-0.5004239082336426,-0.1808299869298935,0.0,0.0,0.9542584419250488,-0.2548679113388061
-0.1697712838649749,0.8059398531913757,-0.3419986069202423,-0.5940684080123901,-0.5101255178451538,-0.194031611084938,0.0,0.0,0.9125505685806274,-0.6832682490348816
-0.173078253865242,0.793631911277771,-0.3230303227901459,-0.5499154329299927,-0.5188144445419312,-0.1737787425518036,0.0,0.0,0.3453207015991211,-0.6571556329727173
-0.1762935668230056,0.7815410494804382,-0.3150483667850494,-0.5398562550544739,-0.5261979103088379,-0.1476702988147735,0.0,0.0,0.8444321155548096,-0.1957100629806518
-0.1790963113307953,0.7697835564613342,-0.2744230329990387,-0.5248395800590515,-0.5328971743583679,-0.1339847594499588,0.0,0.0,0.8297677040100098,-0.94695782661438
-0.1816471070051193,0.7588228583335876,-0.2508586049079895,-0.4888162314891815,-0.5377377867698669,-0.0968122407793998,0.0,0.0,0.6286889314651489,-0.9180485606193542
-0.183966726064682,0.74801105260849,-0.2295228689908981,-0.4814952313899994,-0.5405545234680176,-0.0563340485095977,0.0,0.0,0.5791430473327637,-0.8438573479652405
-0.1859723031520843,0.7378613948822021,-0.199621170759201,-0.4514724314212799,-0.5416268706321716,-0.0214466340839862,0.0,0.0,0.7934938669204712,-0.982554852962494
-0.1876379996538162,0.7279349565505981,-0.1675855815410614,-0.4407700598239898,-0.5404554009437561,0.0234296210110187,0.0,0.0,0.2666579484939575,-0.957519829273224
-0.1892705857753753,0.7182193398475647,-0.1659595072269439,-0.4307219684123993,-0.5373451113700867,0.0622058697044849,0.0,0.0,0.4144918918609619,-0.9602190852165222
-0.1905433684587478,0.7090041041374207,-0.1317600309848785,-0.4077948033809662,-0.5322057008743286,0.1027879491448402,0.0,0.0,0.7750241756439209,-0.9145014882087708
-0.19136743247509,0.7002847194671631,-0.0887526348233223,-0.3850588202476501,-0.5249617099761963,0.144881397485733,0.0,0.0,0.6943613290786743,-0.9371873140335084
-0.1917482316493988,0.6922877430915833,-0.046212900429964,-0.3523131608963012,-0.5156955122947693,0.185324415564537,0.0,0.0,0.0397357940673828,-0.9822050333023072
-0.1919861733913421,0.6846703886985779,-0.0337878987193107,-0.3348088562488556,-0.5043882727622986,0.2261440753936767,0.0,0.0,-0.0588485598564147,-0.9212680459022522
-0.1922649443149566,0.6767224669456482,-0.0394290760159492,-0.3490500748157501,-0.4914098978042602,0.2595682740211487,0.0,0.0,0.0105975866317749,-0.9216625094413756
-0.1924419403076172,0.66907799243927,-0.0310203470289707,-0.3350746929645538,-0.4765444695949554,0.2973076701164245,0.0,0.0,0.0368030071258544,-0.8669751882553101
-0.1924174278974533,0.6614776849746704,-0.0125085012987256,-0.332736611366272,-0.4599814713001251,0.3312597274780273,0.0,0.0,-0.6304776072502136,-0.407629132270813
-0.1923543959856033,0.65350741147995,-0.0086905090138316,-0.3493782579898834,-0.4435268044471741,0.3290933966636657,0.0,0.0,-0.5184314846992493,-0.5848325490951538
-0.192289263010025,0.6451924443244934,-0.0095923291519284,-0.3645520508289337,-0.4259865581989288,0.3508049547672272,0.0,0.0,-0.5131171941757202,0.0832365751266479
-0.1921740472316742,0.6365079283714294,-0.0046251425519585,-0.3811964988708496,-0.4085622429847717,0.3484871387481689,0.0,0.0,-0.3339003920555115,-0.1158571243286132
-0.1920037269592285,0.6274539828300476,0.000883147935383,-0.3978408277034759,-0.3912574052810669,0.3460975289344787,0.0,0.0,-0.3003751039505005,0.2712354660034179
-0.1917732208967209,0.6180304884910583,0.0069079040549695,-0.4144849181175232,-0.3740754723548889,0.3436385691165924,0.0,0.0,0.276574969291687,0.3689001798629761
-0.1912170350551605,0.609146773815155,0.0393823720514774,-0.3906803727149963,-0.3569232523441314,0.3430445492267608,0.0,0.0,-0.920905590057373,0.3340637683868408
-0.1905913352966308,0.5998935103416443,0.0463635958731174,-0.4073242545127868,-0.3399005234241485,0.3404552936553955,0.0,0.0,-0.9627215266227722,0.6792078018188477
-0.1898485124111175,0.5902503132820129,0.0592403598129749,-0.4251203238964081,-0.3241854310035705,0.314301997423172,0.0,0.0,-0.8663243055343628,0.5595027208328247
-0.1889837235212326,0.5802155137062073,0.0726385712623596,-0.4429571330547333,-0.3098053634166717,0.2876021265983581,0.0,0.0,-0.7703344225883484,-0.097079336643219
-0.1880373954772949,0.5698099732398987,0.0808657109737396,-0.4595942199230194,-0.295563131570816,0.284844696521759,0.0,0.0,-0.8309770822525024,0.1417447328567505
-0.1870059072971344,0.5590336918830872,0.0894572809338569,-0.4762309193611145,-0.281461238861084,0.2820372283458709,0.0,0.0,-0.8069700002670288,-0.5199892520904541
-0.1859282553195953,0.547900915145874,0.0930743813514709,-0.4920306801795959,-0.2663918137550354,0.3013884425163269,0.0,0.0,-0.8572399020195007,0.3124688863754272
-0.1847589462995529,0.5363977551460266,0.1023235470056533,-0.5086692571640015,-0.2514673173427582,0.2984894514083862,0.0,0.0,-0.7722323536872864,0.6967364549636841
-0.1834458410739898,0.5244974493980408,0.1181062832474708,-0.5266945958137512,-0.2380302250385284,0.2687417864799499,0.0,0.0,-0.8681672215461731,0.2552556991577148
-0.1820355355739593,0.5122261047363281,0.127928227186203,-0.5433292388916016,-0.2247418910264969,0.26576629281044,0.0,0.0,-0.9655839204788208,0.8455030918121338
-0.1804506331682205,0.4995662271976471,0.1474061012268066,-0.5610111951828003,-0.2135273367166519,0.2242913693189621,0.0,0.0,-0.7873106598854065,0.1933004856109619
-0.1787637770175933,0.4865345656871795,0.1577218919992447,-0.5776413083076477,-0.202464684844017,0.2212526053190231,0.0,0.0,-0.6379046440124512,-0.1081306934356689
-0.1769727766513824,0.4731309413909912,0.1682570576667785,-0.5942710041999817,-0.191555380821228,0.2181861847639084,0.0,0.0,-0.7022029757499695,-0.5290582180023193
-0.1751133948564529,0.4593713581562042,0.1742419302463531,-0.6100720763206482,-0.179806500673294,0.2349780052900314,0.0,0.0,-0.6489067673683167,-0.5105447769165039
-0.173192411661148,0.4452527165412903,0.1793383955955505,-0.6259984970092773,-0.1670172661542892,0.2557849287986755,0.0,0.0,0.0631858110427856,0.1588051319122314
-0.1711238920688629,0.4314166009426117,0.1943732798099517,-0.6135839819908142,-0.1545479595661163,0.2493859976530075,0.0,0.0,-0.3098320364952087,-0.4921114444732666
-0.1689442694187164,0.4172089099884033,0.2056309878826141,-0.6302160024642944,-0.1422362774610519,0.2462337017059326,0.0,0.0,-0.2675408124923706,-0.4913363456726074
-0.1666519194841385,0.402629554271698,0.2170361280441284,-0.6468475461006165,-0.1300829499959945,0.2430665791034698,0.0,0.0,0.2327739000320434,-0.8011739253997803
-0.1642559021711349,0.3880593776702881,0.2259163111448288,-0.6464275121688843,-0.1164732351899147,0.272194504737854,0.0,0.0,0.423256516456604,-0.3982236385345459
-0.1616249978542328,0.373620867729187,0.2491791248321533,-0.6406841278076172,-0.1026534438133239,0.2763957679271698,0.0,0.0,0.203183889389038,-0.647661030292511
-0.1587669402360916,0.3594213128089905,0.2705455720424652,-0.6301132440567017,-0.0875221937894821,0.3026253581047058,0.0,0.0,0.0563126802444458,-0.5342814326286316
-0.1557132750749588,0.3452166318893432,0.2890134453773498,-0.6304433345794678,-0.0713221058249473,0.3240014910697937,0.0,0.0,0.4763329029083252,-0.3040161728858948
-0.1524983346462249,0.3316465020179748,0.305300623178482,-0.6024193167686462,-0.05530596524477,0.3203228116035461,0.0,0.0,0.5025041103363037,-0.758705198764801
-0.1491545736789703,0.318747729063034,0.3167516589164734,-0.572719156742096,-0.0378867089748382,0.3483852744102478,0.0,0.0,-0.1729456186294555,-0.2291939258575439
-0.1456907242536544,0.3054791688919067,0.3289052844047546,-0.5893620848655701,-0.0206278804689645,0.345176637172699,0.0,0.0,0.3752157688140869,-0.4403313398361206
-0.1420166939496994,0.2922455668449402,0.3496952354907989,-0.5880034565925598,-0.0031409543007612,0.3497384190559387,0.0,0.0,0.4892607927322387,-0.7072876691818237
-0.1383279860019683,0.2793296277523041,0.3499875068664551,-0.5741084218025208,0.0154962325468659,0.3727440237998962,0.0,0.0,0.6820976734161377,-0.1173945069313049
-0.1344447135925293,0.2673639059066772,0.3692018091678619,-0.532114565372467,0.0343725979328155,0.3775275349617004,0.0,0.0,0.59578537940979,-0.418601393699646
-0.130480483174324,0.2558518648147583,0.3775865733623504,-0.5121835470199585,0.0529861822724342,0.3722719252109527,0.0,0.0,0.3782033920288086,-0.4051107764244079
-0.1265320777893066,0.2449560016393661,0.3766634166240692,-0.4849997460842132,0.0709619298577308,0.359514832496643,0.0,0.0,0.4593685865402221,-0.3539608716964721
-0.1224273666739463,0.234621062874794,0.3921210467815399,-0.460304856300354,0.0891365781426429,0.3634929656982422,0.0,0.0,0.1761603355407714,-0.4208931922912597
-0.1182843223214149,0.2247091829776764,0.3963088393211365,-0.4416972398757934,0.1069794669747352,0.3568578958511352,0.0,0.0,0.2417066097259521,-0.2225857377052307
-0.1141391769051551,0.2152567207813263,0.397006094455719,-0.421457290649414,0.1243807524442672,0.3480256199836731,0.0,0.0,0.2210224866867065,-0.3042062520980835
-0.1099334731698036,0.2059783488512039,0.4033336639404297,-0.4138969779014587,0.1415445506572723,0.3432761132717132,0.0,0.0,-0.0412527918815612,-0.5597610473632812
-0.1056554764509201,0.1963193267583847,0.4094199240207672,-0.4311361908912658,0.1598931401968002,0.3669714629650116,0.0,0.0,0.4626529216766357,-0.2263627648353576
-0.1014579758048057,0.1869453340768814,0.4021914601325989,-0.4186089336872101,0.1774767786264419,0.3516729474067688,0.0,0.0,0.302789568901062,-0.3182126879692077
-0.0971530899405479,0.17805977165699,0.4127361178398132,-0.3971279859542846,0.1953001469373703,0.3564673960208893,0.0,0.0,-0.0993174314498901,-0.3100842833518982
-0.0927230864763259,0.1688042283058166,0.4254668354988098,-0.4137688875198364,0.2129793167114257,0.3535834848880768,0.0,0.0,0.684924840927124,-0.1971137523651123
-0.088187500834465,0.1603661328554153,0.4355517327785492,-0.3777230381965637,0.2312010526657104,0.3644345998764038,0.0,0.0,0.4610376358032226,-0.378409743309021
-0.0837034210562706,0.1525531113147735,0.4307125508785248,-0.3501253128051758,0.2491904199123382,0.3597872257232666,0.0,0.0,0.5617396831512451,-0.2361246347427368
-0.0791621208190918,0.1455941051244735,0.4360248148441314,-0.3124651610851288,0.2676678597927093,0.3695488572120666,0.0,0.0,0.2912415266036987,-0.1720246076583862
-0.0745576843619346,0.1389441639184951,0.442305713891983,-0.2989800274372101,0.2862886488437652,0.3724159598350525,0.0,0.0,0.5179145336151123,-0.263033926486969
-0.0700457543134689,0.1330008804798126,0.4333032965660095,-0.2677663266658783,0.3047499358654022,0.3692255020141601,0.0,0.0,0.4689879417419433,-0.3884466886520386
-0.0655668228864669,0.1277139335870742,0.4299844801425934,-0.2388455122709274,0.3233355581760406,0.3717126250267029,0.0,0.0,0.0598350763320922,-0.5004382133483887
-0.0610384941101074,0.1224814057350158,0.4340660572052002,-0.2368692606687545,0.3429269194602966,0.3918271064758301,0.0,0.0,0.5655333995819092,-0.002582311630249
-0.0566908828914165,0.1176483482122421,0.4167471528053283,-0.2192038744688034,0.3618654608726501,0.3787701427936554,0.0,0.0,0.3173506259918213,-0.2275706529617309
-0.0524588599801063,0.1129666417837143,0.405870258808136,-0.2125566750764846,0.3802182674407959,0.3670566976070404,0.0,0.0,0.1676573753356933,-0.4383209943771362
-0.0482634529471397,0.108461245894432,0.4025046825408935,-0.2048911899328231,0.3983930945396423,0.3634964227676391,0.0,0.0,-0.1889158487319946,-0.5234425067901611
-0.0439786911010742,0.1035618185997009,0.4106951653957367,-0.2228577733039856,0.4175020754337311,0.3821794092655182,0.0,0.0,-0.0208440423011779,-0.3534469604492187
-0.0395689010620117,0.0982924550771713,0.4234364926815033,-0.2394996732473373,0.4365132451057434,0.3802235722541809,0.0,0.0,0.2435470819473266,-0.2639428377151489
-0.0351853370666503,0.0933992490172386,0.4207392334938049,-0.223075658082962,0.4557710886001587,0.3851566910743713,0.0,0.0,-0.2841717600822449,-0.2490620613098144
-0.0306772235780954,0.0881359651684761,0.4334429800510406,-0.2397175878286361,0.474941611289978,0.3834106922149658,0.0,0.0,0.0636460781097412,-0.386618971824646
