x_pos,y_pos,x_vel,y_vel,angle,ang_vel,leg_1,leg_2,main_booster,lat_booster
-0.0015275001060217,1.403458595275879,-0.154641106724739,-0.3316224217414856,0.0016806049970909,0.0331457741558551,0.0,0.0,-0.7107522487640381,0.9547288417816162
-0.002978706266731,1.3958500623703003,-0.1445987224578857,-0.3381619155406952,0.0011719289468601,-0.0101737715303897,0.0,0.0,-0.39358651638031,0.1015709638595581
-0.004435253329575,1.3880751132965088,-0.1450447589159011,-0.3455570936203003,0.0005646320641972,-0.0121473269537091,0.0,0.0,-0.1177765130996704,0.3835399150848388
-0.0058979988098144,1.3801339864730835,-0.145555704832077,-0.3529331386089325,-0.0001441883505322,-0.0141778914257884,0.0,0.0,-0.4350899457931518,0.6061381101608276
-0.0073096277192234,1.3720290660858154,-0.138866975903511,-0.3602213859558105,-0.0024115950800478,-0.0453523620963096,0.0,0.0,-0.2489436268806457,0.4435040950775146
-0.0087285041809082,1.363758206367493,-0.1394846141338348,-0.3675938546657562,-0.0047831269912421,-0.0474350079894065,0.0,0.0,0.1695187091827392,0.650714635848999
-0.0101197240874171,1.355934739112854,-0.1352906227111816,-0.3477285504341125,-0.0085777267813682,-0.0758990049362182,0.0,0.0,-0.6689987182617188,0.0723594427108764
-0.0115191461518406,1.3479454517364502,-0.1359924525022506,-0.3551064729690552,-0.0124794943258166,-0.0780423879623413,0.0,0.0,-0.5539973974227905,0.0497885942459106
-0.0129269603639841,1.3397905826568604,-0.1367298662662506,-0.3624777495861053,-0.0164907518774271,-0.0802325755357742,0.0,0.0,-0.45672607421875,0.2009123563766479
-0.0143435476347804,1.3314701318740845,-0.13749660551548,-0.3698502480983734,-0.0206124950200319,-0.0824425294995307,0.0,0.0,-0.3915019035339355,0.2632801532745361
-0.0157691948115825,1.3229840993881226,-0.1382870078086853,-0.3772235810756683,-0.0248459223657846,-0.0846762433648109,0.0,0.0,-0.2855501174926758,0.323320984840393
-0.0172040946781635,1.3143324851989746,-0.1390952169895172,-0.3845971226692199,-0.0291921123862266,-0.0869316905736923,0.0,0.0,-0.2397137284278869,0.1337720155715942
-0.0186482425779104,1.3055152893066406,-0.1399155259132385,-0.3919708430767059,-0.0336520932614803,-0.0892074853181839,0.0,0.0,-0.390562891960144,0.8459146022796631
-0.020027732476592,1.2965210676193235,-0.131437212228775,-0.3999041318893432,-0.0400978066027164,-0.1289260536432266,0.0,0.0,0.1569517850875854,-0.206399917602539
-0.0212947838008403,1.288220763206482,-0.1205417662858963,-0.3690753579139709,-0.0461926348507404,-0.1219078302383422,0.0,0.0,-0.6101763844490051,0.0486323833465576
-0.0225711818784475,1.2797551155090332,-0.1213611587882042,-0.3764578998088836,-0.0524044409394264,-0.1242475137114524,0.0,0.0,-0.6353068947792053,-0.1647723913192749
-0.0238568298518657,1.2711243629455566,-0.1221692338585853,-0.3838312923908233,-0.058733083307743,-0.1265842765569687,0.0,0.0,-0.9077792167663574,0.3417837619781494
-0.0251514427363872,1.2623281478881836,-0.1229618340730667,-0.3912068903446197,-0.0651794746518135,-0.1289394795894622,0.0,0.0,-0.7059085965156555,0.1179749965667724
-0.0264550205320119,1.2533668279647827,-0.1237332373857498,-0.3985834717750549,-0.0717443451285362,-0.1313091665506363,0.0,0.0,-0.7531628608703613,0.6379249095916748
-0.0277236942201852,1.244235277175903,-0.119016945362091,-0.4062359035015106,-0.0795272588729858,-0.1556726843118667,0.0,0.0,-0.9328539967536926,-0.379506766796112
-0.0290006641298532,1.2349388599395752,-0.119727075099945,-0.4136148989200592,-0.0874294191598892,-0.1580571830272674,0.0,0.0,-0.8608762621879578,-0.7267335057258606
-0.0303418152034282,1.2254806756973269,-0.1274651885032653,-0.4207649230957031,-0.0940347611904144,-0.1321189999580383,0.0,0.0,-0.892958402633667,-0.087895393371582
-0.0316905975341796,1.2158573865890503,-0.1281015276908874,-0.4281430840492248,-0.1007619500160217,-0.1345555186271667,0.0,0.0,-0.6411020159721375,-0.0778443217277526
-0.0330463424324989,1.2060686349868774,-0.1286908388137817,-0.435521125793457,-0.1076107248663902,-0.1369877755641937,0.0,0.0,-0.6568922996520996,0.6223299503326416
-0.0343711860477924,1.1961108446121216,-0.1245226711034774,-0.44316166639328,-0.115529827773571,-0.1583961099386215,0.0,0.0,-0.6064432263374329,0.4819556474685669
-0.0357038490474224,1.185966968536377,-0.1251660883426666,-0.451489508152008,-0.1235724464058876,-0.1608526557683944,0.0,0.0,-0.8828383684158325,-0.5752068161964417
-0.0370864868164062,1.1756700277328491,-0.1312099993228912,-0.4582416415214538,-0.1305973380804062,-0.1404977589845657,0.0,0.0,-0.6494767069816589,-0.3148666620254516
-0.0384740829467773,1.1652082204818726,-0.1315859258174896,-0.4656172692775726,-0.1377478986978531,-0.1430112570524215,0.0,0.0,-0.6547831296920776,0.7047708034515381
-0.0398221984505653,1.154578447341919,-0.1264093071222305,-0.4732386767864227,-0.1461252868175506,-0.1675480306148529,0.0,0.0,-0.3000379204750061,-0.2293178439140319
-0.0411740317940712,1.1437839269638062,-0.1266434043645858,-0.4806162416934967,-0.1546297967433929,-0.170090451836586,0.0,0.0,-0.3266226053237915,0.2825443744659424
-0.0425284393131732,1.1328247785568235,-0.1268004328012466,-0.4879941046237945,-0.1632621586322784,-0.1726472377777099,0.0,0.0,0.1854698657989502,-0.7212020754814148
-0.0439526550471782,1.1221916675567627,-0.1350397914648056,-0.4734193980693817,-0.1706531047821045,-0.1478185802698135,0.0,0.0,-0.349120020866394,0.01899254322052
-0.0453780181705951,1.1113934516906738,-0.1350310146808624,-0.4807959496974945,-0.1781733334064483,-0.1504046469926834,0.0,0.0,-0.7384042739868164,-0.2130900621414184
-0.0468035712838172,1.1004304885864258,-0.1349342763423919,-0.488172709941864,-0.1858236193656921,-0.1530056148767471,0.0,0.0,-0.723226010799408,-0.6679465174674988
-0.04827880859375,1.0893185138702393,-0.141072615981102,-0.4946939349174499,-0.1922997832298278,-0.1295233517885208,0.0,0.0,-0.8448282480239868,-0.0763102173805236
-0.0497524254024028,1.0780413150787354,-0.1407899558544159,-0.5020697116851807,-0.1989074647426605,-0.1321538835763931,0.0,0.0,-0.6828936338424683,-0.7845691442489624
-0.0512872710824012,1.0666145086288452,-0.1484341323375702,-0.5085495710372925,-0.2040053308010101,-0.1019572615623474,0.0,0.0,-0.5066499710083008,0.4056479930877685
-0.0528186783194541,1.0550224781036377,-0.1479540169239044,-0.5159241557121277,-0.2092361897230148,-0.1046172380447387,0.0,0.0,0.310522198677063,-0.747887134552002
-0.0542975440621376,1.044283390045166,-0.1440232843160629,-0.4778435826301574,-0.213136687874794,-0.0780098363757133,0.0,0.0,-0.7803642153739929,-0.2424692511558532
-0.0557708740234375,1.0333791971206665,-0.1433361917734146,-0.485217422246933,-0.2171716392040252,-0.0806989818811416,0.0,0.0,-0.182938277721405,-0.7253679037094116
-0.0573024749755859,1.0223371982574463,-0.1507381498813629,-0.4911076128482818,-0.2196181416511535,-0.0489301159977912,0.0,0.0,0.2430503368377685,0.1414049863815307
-0.0586499199271202,1.0116761922836304,-0.1326157748699188,-0.4741387963294983,-0.2217710018157959,-0.0430572852492332,0.0,0.0,-0.8133113384246826,0.2024194002151489
-0.0599885955452919,1.000849962234497,-0.1316042691469192,-0.4815118908882141,-0.2240604758262634,-0.0457894951105117,0.0,0.0,0.5497357845306396,-0.0441555976867675
-0.0611164085566997,0.9905523657798768,-0.1108078211545944,-0.4579691886901855,-0.2260564714670181,-0.0399199724197387,0.0,0.0,-0.6283974051475525,-0.778224766254425
-0.0622984878718853,0.9801026582717896,-0.1177523508667945,-0.4645091593265533,-0.2265238761901855,-0.0093481577932834,0.0,0.0,-0.8270118832588196,-0.6095630526542664
-0.0635128021240234,0.969496250152588,-0.1219478696584701,-0.471313863992691,-0.2260003238916397,0.0104711763560771,0.0,0.0,-0.732892632484436,-0.722070038318634
-0.0647644028067588,0.9587379693984984,-0.1268283724784851,-0.477895051240921,-0.2243117392063141,0.0337717160582542,0.0,0.0,-0.7748996019363403,-0.5181177854537964
-0.0660481452941894,0.9478357434272766,-0.1311271488666534,-0.4841213822364807,-0.221520259976387,0.055829644203186,0.0,0.0,-0.952966570854187,-0.198090374469757
-0.0673163384199142,0.9367684721946716,-0.1294412314891815,-0.4914947748184204,-0.2188694328069687,0.053016435354948,0.0,0.0,-0.9455196857452391,0.0741539001464843
-0.0685679465532302,0.9255356192588806,-0.1276423931121826,-0.4988680779933929,-0.2163598984479904,0.0501906797289848,0.0,0.0,-0.9841727614402772,0.0850419998168945
-0.0698018074035644,0.914137601852417,-0.1257311850786209,-0.5062413215637207,-0.2139922678470611,0.0473529957234859,0.0,0.0,-0.9737231135368348,-0.5561143755912781
-0.0710632354021072,0.9025930762290956,-0.1295696198940277,-0.5125966668128967,-0.2105382978916168,0.069079540669918,0.0,0.0,-0.8991212844848633,0.1396548748016357
-0.0723048225045204,0.8908833861351013,-0.1274363398551941,-0.5199702382087708,-0.2072273343801498,0.0662192851305008,0.0,0.0,-0.9928656220436096,-0.2090107798576355
-0.0735254287719726,0.879008412361145,-0.1251936852931976,-0.5273438096046448,-0.2040598839521408,0.0633487105369567,0.0,0.0,-0.938743770122528,0.2525112628936767
-0.0747238174080848,0.8669679164886475,-0.1228431090712547,-0.534717321395874,-0.2010364681482315,0.0604683347046375,0.0,0.0,-0.9972798824310304,-0.0664557814598083
-0.07589902728796,0.8547622561454773,-0.1203863248229026,-0.542090654373169,-0.1981575340032577,0.0575790777802467,0.0,0.0,-0.9975968599319458,0.0938336849212646
-0.0770502090454101,0.842391312122345,-0.1178252100944519,-0.5494639277458191,-0.1954234391450882,0.054681621491909,0.0,0.0,-0.9790220856666564,-0.3860906958580017
-0.0781761184334755,0.8298549056053162,-0.1151618584990501,-0.5568370223045349,-0.1928346008062362,0.0517768673598766,0.0,0.0,-0.996163845062256,-0.3345882892608642
-0.0792758017778396,0.8171529173851013,-0.1123985797166824,-0.5642101168632507,-0.1903913170099258,0.048865795135498,0.0,0.0,-0.9985306262969972,-0.0038444399833679
-0.0803482979536056,0.8042857646942139,-0.1095378622412681,-0.5715831518173218,-0.1880938559770584,0.0459493324160575,0.0,0.0,-0.9176968932151794,-0.4859102964401245
-0.081392765045166,0.7912532687187195,-0.1065823659300804,-0.5789560675621033,-0.1859424263238906,0.0430285930633544,0.0,0.0,-0.9968734979629515,-0.6471681594848633
-0.0824663192033767,0.778075098991394,-0.1108620762825012,-0.5852580666542053,-0.1824202537536621,0.0704434737563133,0.0,0.0,-0.9829540848731996,-0.0093558430671691
-0.0835099220275878,0.7647317051887512,-0.1077258959412574,-0.592631459236145,-0.1790443658828735,0.0675176158547401,0.0,0.0,-0.9915031790733336,-0.3245371580123901
-0.0845227241516113,0.7512227892875671,-0.1045038849115371,-0.6000047922134399,-0.1758148074150085,0.0645911321043968,0.0,0.0,-0.9353970289230348,0.3198071718215942
-0.0855040550231933,0.7375487089157104,-0.1011993661522865,-0.6073779463768005,-0.1727315187454223,0.0616654381155967,0.0,0.0,-0.9102551937103271,-0.7409834861755371
-0.0865223854780197,0.7237279415130615,-0.1065505370497703,-0.613716185092926,-0.168003961443901,0.0945511162281036,0.0,0.0,-0.978424608707428,0.0579406023025512
-0.0875075310468673,0.70974200963974,-0.1030917018651962,-0.6210901141166687,-0.163422405719757,0.0916314870119094,0.0,0.0,-0.9898139834403992,-0.7784128785133362
-0.0885122269392013,0.6955946683883667,-0.1062489300966262,-0.6281477212905884,-0.1576457023620605,0.1155340895056724,0.0,0.0,-0.9600754380226136,0.2624080181121826
-0.0894824042916297,0.6812822222709656,-0.1026503890752792,-0.6355225443840027,-0.1520143300294876,0.1126271113753318,0.0,0.0,-0.934338927268982,0.3305033445358276
-0.0904173851013183,0.6668046116828918,-0.0989876538515091,-0.6428971886634827,-0.1465278565883636,0.1097293645143508,0.0,0.0,-0.9409236311912536,-0.1168035268783569
-0.0913164168596267,0.6521618962287903,-0.0952647253870964,-0.6502715349197388,-0.1411857008934021,0.1068429797887802,0.0,0.0,-0.9618974328041076,0.1659647226333618
-0.0921791046857833,0.6373538374900818,-0.0914856940507888,-0.6576458215713501,-0.1359871923923492,0.1039701849222183,0.0,0.0,-0.8469241261482239,0.0951294898986816
-0.093004897236824,0.6223806738853455,-0.0876547619700431,-0.6650198101997375,-0.1309315413236618,0.1011133641004562,0.0,0.0,-0.8338038325309753,0.5934224128723145
-0.0937410369515419,0.6072317957878113,-0.0772205144166946,-0.6729691624641418,-0.1273478120565414,0.0716742798686027,0.0,0.0,-0.5746576189994812,0.0921624898910522
-0.0944395065307617,0.5919175744056702,-0.0732985287904739,-0.680341899394989,-0.1239049509167671,0.0688571631908416,0.0,0.0,-0.2591360807418823,0.0114420652389526
-0.0950996428728103,0.5764378905296326,-0.0693377777934074,-0.6877145171165466,-0.1206017509102821,0.0660640299320221,0.0,0.0,0.5011441707611084,0.1904883384704589
-0.0957125648856163,0.5612571239471436,-0.0643480941653251,-0.6744563579559326,-0.117569662630558,0.0606415793299675,0.0,0.0,-0.0024746656417846,0.0634654760360717
-0.0962866768240928,0.5459108948707581,-0.0603234246373176,-0.6818285584449768,-0.1146743968129158,0.057905413210392,0.0,0.0,0.6017379760742188,0.5305533409118652
-0.0966063514351844,0.5315613150596619,-0.0339038893580436,-0.6376068592071533,-0.112752579152584,0.0384363904595375,0.0,0.0,-0.7688646912574768,0.0819370746612548
-0.0968866348266601,0.5170462727546692,-0.0298340171575546,-0.6449786424636841,-0.1109640747308731,0.035770408809185,0.0,0.0,-0.4936472177505493,-0.3883208036422729
-0.0971274375915527,0.5023655891418457,-0.025748798623681,-0.6523503065109253,-0.1093068346381187,0.0331448353826999,0.0,0.0,0.0901597738265991,-0.2099127769470214
-0.0972452163696289,0.4882927238941192,-0.0134391840547323,-0.6253401637077332,-0.1076555401086807,0.0330259352922439,0.0,0.0,-0.2082116603851318,-0.5914580821990967
-0.0973775833845138,0.4740630686283111,-0.0161601603031158,-0.6322224140167236,-0.1047527268528938,0.058056004345417,0.0,0.0,-0.1139744520187377,-0.5536836385726929
-0.0975174903869628,0.4596776962280273,-0.0180083606392145,-0.639073371887207,-0.1007684394717216,0.0796857774257659,0.0,0.0,0.5567448139190674,0.1022582054138183
-0.0975626930594444,0.4461118876934051,-0.0083502857014536,-0.6026705503463745,-0.0969575271010398,0.0762180611491203,0.0,0.0,0.4843952655792236,0.7515561580657959
-0.0973716750741005,0.4331398606300354,0.0167351327836513,-0.5763851404190063,-0.0946176126599311,0.0467980280518531,0.0,0.0,-0.4797663688659668,-0.4400573968887329
-0.0971411690115928,0.4200021922588348,0.020806036889553,-0.5837566256523132,-0.0923927128314971,0.0444983690977096,0.0,0.0,-0.1733201742172241,-0.1736789941787719
-0.0968712791800499,0.4066988527774811,0.0248560179024934,-0.5911281108856201,-0.0902792960405349,0.0422681644558906,0.0,0.0,0.5122475624084473,-0.4679034948348999
-0.0963809937238693,0.39399254322052,0.0463774278759956,-0.5645666122436523,-0.0876507386565208,0.0525709688663482,0.0,0.0,-0.0763245820999145,-0.6984695196151733
-0.0958944335579872,0.3811209499835968,0.0450280532240867,-0.5718643665313721,-0.0840582326054573,0.0718501731753349,0.0,0.0,0.2973172664642334,0.5648093223571777
-0.0952798873186111,0.3689645528793335,0.0590727813541889,-0.5401524305343628,-0.0816994756460189,0.0471752360463142,0.0,0.0,-0.1814790964126587,-0.4138521552085876
-0.0946271866559982,0.356642484664917,0.0629824474453926,-0.5475236773490906,-0.0794360637664794,0.045268066227436,0.0,0.0,-0.3121215105056762,-0.8600485324859619
-0.0939904227852821,0.344164490699768,0.0601069554686546,-0.5543935894966125,-0.0759037733078002,0.0706461295485496,0.0,0.0,0.6382746696472168,-0.3660216331481933
-0.0931921973824501,0.3319936990737915,0.075871393084526,-0.5407295823097229,-0.0719948038458824,0.0781793296337127,0.0,0.0,0.1990472078323364,-0.4016677141189575
-0.092368796467781,0.3202143609523773,0.0786475017666816,-0.523352324962616,-0.0683431923389434,0.0730322748422622,0.0,0.0,-0.1835619211196899,-0.4448684453964233
-0.0915094390511512,0.3082695007324219,0.0823209285736084,-0.5307241082191467,-0.0647673085331916,0.0715177878737449,0.0,0.0,0.0989234447479248,-0.526837170124054
-0.0906490311026573,0.2967312335968017,0.0814725756645202,-0.5126211643218994,-0.0602441690862178,0.0904626995325088,0.0,0.0,-0.2504817247390747,0.1057987213134765
-0.08975400775671,0.285027414560318,0.0849895924329757,-0.5199934244155884,-0.0557858161628246,0.0891673117876052,0.0,0.0,0.34131920337677,-0.38560950756073
-0.0887231826782226,0.2740007638931274,0.0983043164014816,-0.4899038970470428,-0.0510596297681331,0.0945236459374427,0.0,0.0,-0.3392146825790405,-0.2664039731025696
-0.0876594558358192,0.2628085613250732,0.1016381829977035,-0.4972761869430542,-0.0463866554200649,0.0934595838189125,0.0,0.0,0.1745312213897705,-0.1803809404373169
-0.086598016321659,0.2522526085376739,0.1017405167222023,-0.4690246284008026,-0.0420329943299293,0.0870732367038726,0.0,0.0,-0.5047935247421265,-0.2927722930908203
-0.0855056792497634,0.2415311485528946,0.1048635393381118,-0.4763965606689453,-0.0377205163240432,0.0862498059868812,0.0,0.0,-0.0085251331329345,0.1347467899322509
-0.0843836814165115,0.230644017457962,0.1078704968094825,-0.4837684333324432,-0.033443059772253,0.0855491757392883,0.0,0.0,-0.085250437259674,-0.1162890195846557
-0.0832331627607345,0.2195913940668106,0.1107541695237159,-0.4911402463912964,-0.029194425791502,0.0849724188446998,0.0,0.0,0.6493287086486816,-0.2360635995864868
-0.0819286331534385,0.2094441205263137,0.1256785243749618,-0.4509021937847137,-0.0244792848825454,0.0943027213215828,0.0,0.0,-0.2750096917152405,-0.7731691002845764
-0.0806530937552452,0.1991267055273056,0.1213897839188575,-0.4584619402885437,-0.0184000879526138,0.1215840205550193,0.0,0.0,0.2405519485473632,-0.5680397152900696
-0.0792676955461502,0.1895056515932083,0.1310196220874786,-0.4275296628475189,-0.0109693948179483,0.1486137211322784,0.0,0.0,-0.4793528914451599,-0.7153261303901672
-0.0779177695512771,0.1797266155481338,0.1259689480066299,-0.4345861673355102,-0.0020659561268985,0.1780689060688018,0.0,0.0,0.1749994754791259,-0.0734731554985046
-0.076443575322628,0.1706940680742263,0.1379257142543792,-0.401461511850357,0.0073091038502752,0.1875013411045074,0.0,0.0,-0.6780239939689636,-0.8933137655258179
-0.075011059641838,0.1614964604377746,0.1321689784526825,-0.4088732898235321,0.0182437449693679,0.2186930626630783,0.0,0.0,-0.2538824081420898,0.2115001678466797
-0.0735603347420692,0.1521345525979995,0.1339832842350006,-0.4162535369396209,0.0291926860809326,0.2189789116382599,0.0,0.0,-0.0332750082015991,0.2744626998901367
-0.0720932036638259,0.1426084190607071,0.1356154978275299,-0.4236338436603546,0.0401618778705596,0.2193836271762848,0.0,0.0,0.4440813064575195,0.8537652492523193
-0.0704803466796875,0.133523091673851,0.1517737805843353,-0.4040714502334595,0.0495577566325664,0.1879179328680038,0.0,0.0,0.2192199230194091,0.203985333442688
-0.0689675360918045,0.124950036406517,0.1421683728694915,-0.3813512623310089,0.0585679560899734,0.1802040040493011,0.0,0.0,-0.0260676145553588,0.0476788282394409
-0.0674439445137977,0.1162122562527656,0.1432115137577057,-0.3887284696102142,0.0676156356930732,0.1809536069631576,0.0,0.0,0.3631501197814941,-0.1335550546646118
-0.0659606903791427,0.108004055917263,0.1392140537500381,-0.3652447760105133,0.0766240730881691,0.1801688373088836,0.0,0.0,0.4864585399627685,0.8769547939300537
-0.0644121170043945,0.1003581881523132,0.1474444717168808,-0.3402134478092193,0.083967424929142,0.1468673944473266,0.0,0.0,0.0112166404724121,0.2437416315078735
-0.0627978295087814,0.0928864106535911,0.1535859853029251,-0.3325410485267639,0.0917341187596321,0.1553339511156082,0.0,0.0,0.5589781999588013,0.2755422592163086
-0.0611488334834575,0.0862260907888412,0.1565738469362259,-0.2965474426746368,0.0999849066138267,0.1650157272815704,0.0,0.0,-0.2587301731109619,0.2896703481674194
-0.0595000274479389,0.0794009044766426,0.1565077602863311,-0.3039239048957824,0.1082993149757385,0.1662878990173339,0.0,0.0,0.1065982580184936,0.6326776742935181
