x_pos,y_pos,x_vel,y_vel,angle,ang_vel,leg_1,leg_2,main_booster,lat_booster
-0.0015110969543457,1.4035221338272097,-0.1523376554250717,-0.3288033902645111,0.0011060980614274,0.0217697247862815,0.0,0.0,-0.0245585292351664,0.8587819596521484
-0.0029356002341955,1.396040678024292,-0.1410100162029266,-0.3325075507164001,-0.0003214526805095,-0.028553057461977,0.0,0.0,0.5828066950210369,0.8546272679784042
-0.00413599004969,1.3890308141708374,-0.1164596676826477,-0.3115618526935577,-0.0038616494275629,-0.0708105787634849,0.0,0.0,-0.0621772949370651,-0.7423742044765593
-0.0053915977478027,1.3819162845611572,-0.1230857595801353,-0.3162089884281158,-0.0063112708739936,-0.0489966347813606,0.0,0.0,0.056831663703194,-0.879343010796591
-0.0066014290787279,1.3753275871276855,-0.1195967048406601,-0.2928336858749389,-0.0076701706275343,-0.0271808858960866,0.0,0.0,-0.2125369054886152,-0.8743421252053049
-0.0078486446291208,1.368635892868042,-0.1240189522504806,-0.2974142730236053,-0.0083680301904678,-0.0139585752040147,0.0,0.0,0.8251639068812184,0.7022765670569088
-0.009046172723174,1.3627984523773191,-0.1168895363807678,-0.2594597637653351,-0.0112023130059242,-0.0566908121109008,0.0,0.0,-0.8706228534327245,-0.8629962603094141
-0.0102783199399709,1.3568620681762695,-0.1209533438086509,-0.2638619840145111,-0.013431436382234,-0.0445865876972675,0.0,0.0,0.5019166406738973,0.9043520460092824
-0.0114242555573582,1.351973056793213,-0.1098245754837989,-0.2173330336809158,-0.0181533563882112,-0.0944472402334213,0.0,0.0,-0.0081500209487301,0.9555961014647976
-0.0124775888398289,1.346986174583435,-0.0979548469185829,-0.2217469960451126,-0.025451585650444,-0.1459778249263763,0.0,0.0,0.499496400375969,-0.8409451527030267
-0.0134779931977391,1.3427066802978516,-0.0937799364328384,-0.1903213709592819,-0.0316388867795467,-0.123757503926754,0.0,0.0,-0.0460271883072016,-0.6531698309922411
-0.0145057681947946,1.3383262157440186,-0.09697987139225,-0.1948250234127044,-0.0373759977519512,-0.1147527918219566,0.0,0.0,-0.9879394548274492,0.8832592781447988
-0.0154306413605809,1.3338439464569092,-0.0838238820433616,-0.1994434744119644,-0.0459362268447876,-0.1712203919887542,0.0,0.0,-0.4350239745098612,0.7222245265311094
-0.0162734985351562,1.3292498588562012,-0.073327787220478,-0.2045473307371139,-0.0567883774638175,-0.2170629501342773,0.0,0.0,-0.4099831744575741,-0.7731350838573376
-0.0171438213437795,1.3245673179626465,-0.0765625610947609,-0.2085362076759338,-0.0671591535210609,-0.2074342966079712,0.0,0.0,0.6296882736580542,-0.6730960028245099
-0.017911147326231,1.3202087879180908,-0.0671898573637008,-0.1941654086112976,-0.0766278952360153,-0.18939208984375,0.0,0.0,0.5649192391721358,-0.7216087439069643
-0.01851062849164,1.3169597387313845,-0.0514279119670391,-0.1448540389537811,-0.0850748270750045,-0.1689540445804596,0.0,0.0,-0.719175768939168,-0.7348110946883488
-0.0191353801637887,1.31360924243927,-0.0543814525008201,-0.1493880599737167,-0.0931086391210556,-0.1606907546520233,0.0,0.0,0.0296690868492848,0.6398125213600345
-0.0195752140134573,1.3108948469161987,-0.0339904241263866,-0.1212856844067573,-0.1030368953943252,-0.1985830068588256,0.0,0.0,-0.6852839446432455,0.7397213687695118
-0.0199452396482229,1.3080724477767944,-0.0250384397804737,-0.1263112276792526,-0.1149425506591796,-0.2381342202425003,0.0,0.0,-0.7526756224030349,0.982915260207564
-0.0202017780393362,1.3051420450210571,-0.0106076654046773,-0.1314674317836761,-0.1299211233854293,-0.2995986640453338,0.0,0.0,0.0555514760204416,0.6606788041849673
-0.0203419681638479,1.302518606185913,0.003004599828273,-0.1181652620434761,-0.1469119638204574,-0.3398476541042328,0.0,0.0,0.9850331097622052,-0.7088340684795684
-0.0202558524906635,1.3007426261901855,0.0244663655757904,-0.0805704891681671,-0.1627683639526367,-0.3171569108963012,0.0,0.0,0.1997971220703733,-0.6342781220033982
-0.0201076511293649,1.299195647239685,0.0299803223460912,-0.0704811513423919,-0.1779744178056717,-0.3041483759880066,0.0,0.0,0.171660947789445,-0.7483531424004295
-0.0200299266725778,1.298272728919983,0.0222246162593364,-0.0428123921155929,-0.1924942284822464,-0.2904224693775177,0.0,0.0,-0.7610293301506266,0.6482604878507768
-0.0198968891054391,1.297223448753357,0.0293941143900156,-0.0488091446459293,-0.20870141685009,-0.3241437077522278,0.0,0.0,0.3597197809116605,0.9931745510459716
-0.019539738073945,1.2969355583190918,0.0544240549206733,-0.0155438156798481,-0.2276030778884887,-0.3780331313610077,0.0,0.0,0.2566827965576623,-0.6191275500549112
-0.0191753394901752,1.2975295782089231,0.054693479090929,0.0234624240547418,-0.2461434602737426,-0.3708078265190124,0.0,0.0,0.4938243363932593,0.7268244992924526
-0.018691062927246,1.299079656600952,0.0689406767487526,0.0653197839856147,-0.2670760452747345,-0.4186521470546722,0.0,0.0,0.1062606803695129,-0.941059356781753
-0.0181899070739746,1.3010400533676147,0.0693470761179924,0.0834970325231552,-0.2868050336837768,-0.3945799469947815,0.0,0.0,0.5242666089653065,-0.8500591512171781
-0.0174927711486816,1.30405855178833,0.0878040269017219,0.1304859668016433,-0.3054713606834411,-0.3733271956443786,0.0,0.0,-0.5360134760609827,0.8164701827147803
-0.016724681481719,1.3069524765014648,0.0968648493289947,0.1242708787322044,-0.3262880742549896,-0.4163342416286468,0.0,0.0,-0.0679790606242394,-0.7164762667215578
-0.015997314825654,1.3097896575927734,0.0917212665081024,0.1216797456145286,-0.3461290895938873,-0.3968208134174347,0.0,0.0,0.1300524133386296,0.904325211208801
-0.0151509288698434,1.3128632307052612,0.1059027090668678,0.1313274949789047,-0.3685321509838104,-0.4480620324611664,0.0,0.0,-0.4501981951327207,-0.7961895579513676
-0.0143427848815917,1.31587815284729,0.1010634154081344,0.1286338120698928,-0.3900313973426819,-0.4299856722354889,0.0,0.0,0.2149154929340606,0.9849399875431434
-0.0132169723510742,1.3195258378982544,0.1351681649684906,0.1557427495718002,-0.41424360871315,-0.4842448234558105,0.0,0.0,-0.2748190312761587,0.9609847553131756
-0.0120079992339015,1.3230350017547607,0.1456137001514434,0.1484712213277816,-0.4410547316074371,-0.5362231731414795,0.0,0.0,-0.4789176193030422,0.6056530302934333
-0.0107335094362497,1.32642662525177,0.1536944955587387,0.1422064006328582,-0.4698846340179443,-0.5765982866287231,0.0,0.0,0.8381800744911814,-0.7638530819183207
-0.0091091152280569,1.3310638666152954,0.1875682920217514,0.1973299831151962,-0.4978780746459961,-0.5598688721656799,0.0,0.0,-0.939126127526658,-0.8064737384899415
-0.0075187683105468,1.3356558084487915,0.1829394698143005,0.1951671987771988,-0.5249252915382385,-0.5409457683563232,0.0,0.0,0.4949038221943138,-0.9734058893043044
-0.0057158470153808,1.341219186782837,0.2026925981044769,0.2383786290884018,-0.5506486296653748,-0.5144668221473694,0.0,0.0,-0.9055324196815492,-0.8225491046905518
-0.0039396286010742,1.3467305898666382,0.1990368962287902,0.2359490543603897,-0.5756487250328064,-0.5000028014183044,0.0,0.0,-0.9125555753707886,-0.8381779193878174
-0.0021963119506835,1.3521878719329834,0.194733589887619,0.2335151582956314,-0.5998207330703735,-0.483440637588501,0.0,0.0,-0.8172457218170166,-0.9465413093566896
-0.00048828125,1.3576045036315918,0.1900106221437454,0.2317807823419571,-0.6229508519172668,-0.4626025557518005,0.0,0.0,-0.8919680118560791,-0.8029360771179199
0.0011775016319006,1.3629796504974363,0.1844997107982635,0.2301341891288757,-0.6448934674263,-0.4388522505760193,0.0,0.0,-0.9287297129631042,-0.8746474385261536
0.0028043747879564,1.3683120012283323,0.1794455796480178,0.2284227758646011,-0.6657399535179138,-0.416929543018341,0.0,0.0,-0.9106845855712892,-0.7380303144454956
0.0044033052399754,1.373595952987671,0.1757564842700958,0.226386547088623,-0.6857839822769165,-0.4008800387382507,0.0,0.0,-0.874247670173645,-0.6418582797050476
0.0059733390808105,1.3788479566574097,0.171785682439804,0.2252144664525985,-0.7047763466835022,-0.3798478245735168,0.0,0.0,-0.9633789658546448,-0.8140419125556946
0.0075009344145655,1.3840863704681396,0.1661064028739929,0.2251220047473907,-0.7221899628639221,-0.3482721447944641,0.0,0.0,-0.9759538769721984,-0.3576563596725464
0.0090407375246286,1.389230728149414,0.1675917208194732,0.2205171585083007,-0.7402247190475464,-0.3606952726840973,0.0,0.0,-0.9034604430198668,-0.6641570925712585
0.0105634685605764,1.394320726394653,0.1652799844741821,0.2181708216667175,-0.7577453851699829,-0.350413054227829,0.0,0.0,-0.9611144065856934,-0.3331401944160461
0.0120973587036132,1.399316906929016,0.1666306555271148,0.2135659903287887,-0.7758697867393494,-0.3624879717826843,0.0,0.0,-0.9446395635604858,-0.5084928870201111
0.013617992401123,1.4042508602142334,0.1648198664188385,0.2108056396245956,-0.7936582565307617,-0.3557698428630829,0.0,0.0,-0.9640253186225892,0.0254967212677001
0.0151490215212106,1.4090911149978638,0.1660324037075042,0.2062007784843444,-0.8120301961898804,-0.3674389719963074,0.0,0.0,-0.8897385001182556,-0.6279004216194153
0.016663646325469,1.4138753414154053,0.1638199239969253,0.2038004100322723,-0.8299079537391663,-0.3575546443462372,0.0,0.0,-0.7581942677497864,-0.6054283976554871
0.0181499477475881,1.418622970581055,0.1600423753261566,0.2025539427995681,-0.8467545509338379,-0.3369320929050445,0.0,0.0,-0.910373330116272,-0.1623653173446655
0.0196447372436523,1.42327618598938,0.1610489934682846,0.1979524940252304,-0.864147961139679,-0.3478685021400451,0.0,0.0,-0.9288461208343506,-0.2550165057182312
0.0211478229612112,1.4278351068496704,0.1619840413331985,0.1933507025241851,-0.8820740580558777,-0.3585215210914612,0.0,0.0,-0.8836087584495544,-0.264971911907196
0.0226587299257516,1.432300090789795,0.1628475338220596,0.1887486726045608,-0.9005175828933716,-0.3688701689243316,0.0,0.0,-0.6653874516487122,0.1954540014266967
0.0241772644221782,1.436670422554016,0.1636396646499633,0.1841466128826141,-0.9194622039794922,-0.3788922429084778,0.0,0.0,-0.8301334977149963,-0.1347014904022216
0.025702953338623,1.4409464597702026,0.1643608063459396,0.1795446723699569,-0.9388904571533204,-0.3885644674301147,0.0,0.0,-0.8757538795471191,-0.4817823767662048
0.0272356029599905,1.4451282024383545,0.1650114953517913,0.1749430447816848,-0.9587835669517516,-0.3978626132011413,0.0,0.0,-0.8504688143730164,0.0840156078338623
0.0287748333066701,1.4492154121398926,0.1655923575162887,0.1703419536352157,-0.9791216850280762,-0.4067613184452057,0.0,0.0,-0.9163483381271362,-0.0979450941085815
0.0303201675415039,1.453208088874817,0.1661043018102646,0.1657415926456451,-0.9998834133148192,-0.4152346551418304,0.0,0.0,-0.888752818107605,0.1541187763214111
0.0318715088069438,1.4571059942245483,0.1665483713150024,0.1611421853303909,-1.021046161651611,-0.4232560098171234,0.0,0.0,-0.8144176006317139,0.3991528749465942
0.0334284789860248,1.4609090089797974,0.1669257432222366,0.156544029712677,-1.042586088180542,-0.4307981431484222,0.0,0.0,-0.801541805267334,0.2617460489273071
0.0349908843636512,1.464616775512695,0.1672378033399582,0.1519473195075988,-1.064477801322937,-0.4378337860107422,0.0,0.0,-0.7550688982009888,0.3301171064376831
0.0365584380924701,1.468229055404663,0.1674860715866089,0.1473523825407028,-1.086694598197937,-0.4443356394767761,0.0,0.0,-0.7887500524520874,0.3068544864654541
0.038131047040224,1.4717453718185425,0.1676723062992096,0.1427593827247619,-1.1092084646224976,-0.4502769112586975,0.0,0.0,-0.5921363830566406,0.0701997280120849
0.0397083275020122,1.4751657247543335,0.1677983552217483,0.1381686478853225,-1.1319900751113892,-0.4556314051151275,0.0,0.0,-0.6698259115219116,0.3925740718841553
0.0412900932133197,1.4784893989562988,0.1678662449121475,0.1335804462432861,-1.1550087928771973,-0.4603742063045501,0.0,0.0,-0.8081226944923401,0.544593095779419
0.0428943634033203,1.4816577434539795,0.1702493131160736,0.1255275309085846,-1.179621934890747,-0.4922624230384826,0.0,0.0,-0.7224940061569214,0.2230643033981323
0.0445032119750976,1.4847286939620972,0.1701999008655548,0.1209429204463958,-1.2044074535369873,-0.4957101345062256,0.0,0.0,-0.7068891525268555,0.6982812881469727
0.0461379997432231,1.4876198768615725,0.1729026287794113,0.1114910170435905,-1.23124897480011,-0.536830484867096,0.0,0.0,-0.7021237015724182,0.1906416416168213
0.0477776527404785,1.4904131889343262,0.172741487622261,0.1069105863571167,-1.2581942081451416,-0.5389046669006348,0.0,0.0,-0.6914670467376709,0.526705265045166
0.0494321808218956,1.4930435419082642,0.1739820688962936,0.0985428318381309,-1.286658763885498,-0.5692906379699707,0.0,0.0,-0.7363684177398682,0.3286042213439941
0.0510919578373432,1.495575189590454,0.1737220585346222,0.0939688757061958,-1.3151557445526123,-0.5699387788772583,0.0,0.0,-0.8089185953140259,0.537487268447876
0.0527702346444129,1.4979506731033323,0.175074353814125,0.0860385447740554,-1.3449596166610718,-0.5960808992385864,0.0,0.0,-0.4298285245895386,0.5238730907440186
0.0544676780700683,1.5001623630523682,0.1763958185911178,0.0776714012026786,-1.376196265220642,-0.6247336268424988,0.0,0.0,-0.715654194355011,0.5328079462051392
0.0561810508370399,1.5022265911102295,0.1771927177906036,0.0703215226531028,-1.408434271812439,-0.6447628736495972,0.0,0.0,-0.6653078198432922,0.6859982013702393
0.0579029098153114,1.5041286945343018,0.1771674454212188,0.0621710568666458,-1.4419108629226685,-0.669532299041748,0.0,0.0,-0.7432485818862915,0.5995321273803711
0.0596416480839252,1.505858063697815,0.1778755038976669,0.0534216314554214,-1.4768396615982056,-0.6985772848129272,0.0,0.0,-0.5648610591888428,0.5035240650177002
0.0613910667598247,1.5074373483657837,0.1777612715959549,0.0460952669382095,-1.5126360654830933,-0.7159296870231628,0.0,0.0,-0.4683355093002319,0.7032707929611206
0.063153363764286,1.5088413953781128,0.1777967810630798,0.0373084656894207,-1.5498204231262207,-0.7436882257461548,0.0,0.0,-0.8377023339271545,0.7987759113311768
0.064928725361824,1.5100526809692385,0.1776699721813202,0.0275606028735637,-1.588721752166748,-0.7780277132987976,0.0,0.0,-0.7547473311424255,0.7307705879211426
0.0667129531502723,1.5110636949539185,0.1769362092018127,0.0174579415470361,-1.6294429302215576,-0.8144227266311646,0.0,0.0,-0.8001795411109924,0.850123405456543
0.068498894572258,1.5118688344955444,0.1752402931451797,0.0070815738290548,-1.672067165374756,-0.8524872660636902,0.0,0.0,-0.836844265460968,0.8194820880889893
0.070286177098751,1.5124597549438477,0.1732400357723236,-0.0036720698699355,-1.7167168855667114,-0.8929945230484009,0.0,0.0,-0.7871707081794739,0.827855110168457
0.0720755606889724,1.5128252506256104,0.1710580289363861,-0.0149621283635497,-1.763570785522461,-0.9370808601379396,0.0,0.0,-0.9306254982948304,0.8422516584396362
0.0738610252737999,1.512964129447937,0.1679567247629165,-0.0261774603277444,-1.8126062154769895,-0.9807120561599731,0.0,0.0,-0.946292281150818,0.911630392074585
0.0756508857011795,1.5128872394561768,0.1655140519142151,-0.036563467234373,-1.863462328910828,-1.017123818397522,0.0,0.0,-0.9186290502548218,0.9450857639312744
0.0774412155151367,1.5125828981399536,0.1623857617378235,-0.0474516935646534,-1.9163272380828855,-1.057301640510559,0.0,0.0,-0.9440111517906188,0.960419535636902
0.0792232528328895,1.512032985687256,0.1579606831073761,-0.0592098981142044,-1.9715639352798464,-1.104737401008606,0.0,0.0,-0.969714879989624,0.9379647970199584
0.0809872597455978,1.5112481117248535,0.152351513504982,-0.0701712667942047,-2.028954267501831,-1.1478090286254885,0.0,0.0,-0.9769309759140016,0.9665539264678956
0.0827411636710167,1.5102461576461792,0.1475527584552765,-0.0797812789678573,-2.0879476070404053,-1.1798696517944336,0.0,0.0,-0.9819743037223816,0.9831066131591796
0.0844818130135536,1.508995532989502,0.1419743299484253,-0.0909024998545646,-2.149094820022583,-1.2229440212249756,0.0,0.0,-0.9910293817520142,0.9837818145751952
0.0862053856253624,1.5075181722640991,0.1360839903354644,-0.1005114465951919,-2.211911916732788,-1.2563461065292358,0.0,0.0,-0.9911178350448608,0.9812290668487548
0.087920568883419,1.5058237314224243,0.1312287598848343,-0.1092231795191764,-2.275979995727539,-1.2813605070114136,0.0,0.0,-0.995454728603363,0.9922091960906982
0.089604377746582,1.5038819313049316,0.1234909668564796,-0.1194152981042862,-2.3420698642730717,-1.3218019008636477,0.0,0.0,-0.9967119097709656,0.9935586452484132
0.0912652015686035,1.5017110109329224,0.1169269308447837,-0.1282201260328292,-2.409610748291016,-1.350821614265442,0.0,0.0,-0.9974390268325806,0.991896152496338
0.0929013267159462,1.4993146657943726,0.1103332638740539,-0.1364950090646743,-2.4784460067749023,-1.3767106533050537,0.0,0.0,-0.9985523223876952,0.9966425895690918
0.0944977775216102,1.4966942071914673,0.1021889671683311,-0.1444968730211258,-2.548732280731201,-1.4057283401489258,0.0,0.0,-0.9981834888458252,0.9972295761108398
0.0960613265633583,1.4938578605651855,0.0951423496007919,-0.1517001539468765,-2.620105028152466,-1.4274601936340332,0.0,0.0,-0.9987990260124208,0.9979008436203004
0.0975902527570724,1.490813374519348,0.0882401466369628,-0.1582473069429397,-2.692403554916382,-1.4459731578826904,0.0,0.0,-0.9990946650505066,0.9986586570739746
0.0990527123212814,1.4875332117080688,0.0776046365499496,-0.1660031527280807,-2.7664949893951416,-1.4818329811096191,0.0,0.0,-0.9992825388908386,0.998804211616516
0.1004451736807823,1.484038472175598,0.0670129582285881,-0.1724213808774948,-2.8421642780303955,-1.5133899450302124,0.0,0.0,-0.9994804263114928,0.998988151550293
0.1017559021711349,1.4803133010864258,0.0552904792129993,-0.1792531758546829,-2.9196760654449463,-1.5502417087554932,0.0,0.0,-0.9996687173843384,0.9990484714508056
0.1030007377266883,1.4763715267181396,0.0460987761616706,-0.1850639730691909,-2.998433351516724,-1.5751513242721558,0.0,0.0,-0.9997162818908693,0.9992389678955078
0.1041536331176757,1.472209930419922,0.0341751687228679,-0.1907704472541809,-3.078963041305542,-1.6105964183807373,0.0,0.0,-0.999764919281006,0.9991647005081176
0.1052171736955642,1.4678491353988647,0.0232597701251506,-0.1952437609434127,-3.161020278930664,-1.6411491632461548,0.0,0.0,-0.9997866749763488,0.999065637588501
0.1061977371573448,1.463287591934204,0.0138229858130216,-0.1995446681976318,-3.2443184852600098,-1.6659748554229736,0.0,0.0,-0.99986469745636,0.9993070363998412
0.1070818901062011,1.4585360288619995,0.0034163321834057,-0.2031579762697219,-3.3290789127349854,-1.6952183246612549,0.0,0.0,-0.9998916983604432,0.9993336200714112
0.1078647598624229,1.4536182880401611,-0.0069083594717085,-0.2055018544197082,-3.41538143157959,-1.7260611057281494,0.0,0.0,-0.9999272227287292,0.9993140697479248
0.1085676178336143,1.448528528213501,-0.0137251745909452,-0.2081011235713958,-3.502554655075073,-1.7434751987457275,0.0,0.0,-0.9999322891235352,0.9994292259216307
0.1091891303658485,1.443279504776001,-0.0199825558811426,-0.2101107984781265,-3.5905990600585938,-1.760899782180786,0.0,0.0,-0.9999610781669616,0.9996610879898072
0.1097132712602615,1.4378881454467771,-0.0274417549371719,-0.2112855315208435,-3.6799044609069824,-1.786118745803833,0.0,0.0,-0.9999679923057556,0.99962055683136
0.1101333647966384,1.4323716163635254,-0.0349541641771793,-0.211653470993042,-3.770673036575317,-1.8153817653656008,0.0,0.0,-0.9999730587005616,0.9996596574783324
0.1104397773742675,1.4267587661743164,-0.042878683656454,-0.2105752378702163,-3.863335132598877,-1.8532512187957764,0.0,0.0,-0.9999825954437256,0.9996895790100098
0.1106301322579383,1.421048641204834,-0.0500596947968006,-0.2096472531557083,-3.957796812057495,-1.889246940612793,0.0,0.0,-0.99998676776886,0.9996464252471924
0.1107078567147255,1.4152424335479736,-0.0557431504130363,-0.2089465409517288,-4.053828716278076,-1.9206430912017824,0.0,0.0,-0.999990701675415,0.9997323751449584
0.1106810569763183,1.4093726873397827,-0.0598263554275035,-0.2069155722856521,-4.151662349700928,-1.956690788269043,0.0,0.0,-0.9999918937683104,0.99975848197937
