x_pos,y_pos,x_vel,y_vel,angle,ang_vel,leg_1,leg_2,main_booster,lat_booster
-0.0014731406699866,1.402982234954834,-0.1499867737293243,-0.3527924716472626,0.0023867888376116,0.0471281297504901,0.0,0.0,-0.6739132317167769,-0.6828044646467182
-0.0029449462890625,1.3944220542907717,-0.1514346897602081,-0.3804646134376526,0.0065944008529186,0.084161028265953,0.0,0.0,-0.151037527363683,-0.534406032842427
-0.0043990137055516,1.3852155208587646,-0.1511416733264923,-0.4092219173908233,0.0122685795649886,0.1134942397475242,0.0,0.0,-0.8914499341137354,0.8592807580597275
-0.005748557858169,1.375365138053894,-0.1399577260017395,-0.4378387629985809,0.017222311347723,0.0990834534168243,0.0,0.0,-0.1807104089054563,-0.8721868499704595
-0.0071018217131495,1.3648747205734253,-0.1423631757497787,-0.4663395583629608,0.024177236482501,0.1391114443540573,0.0,0.0,0.3913780293771982,-0.6500018388779316
-0.0083402637392282,1.3544310331344604,-0.1330842673778534,-0.4643466770648956,0.0333200469613075,0.1828731298446655,0.0,0.0,0.5029724766426082,0.8825862298393066
-0.0095003126189112,1.344135880470276,-0.1240874752402305,-0.4577551186084747,0.0413222946226596,0.1600595265626907,0.0,0.0,-0.5897722294328032,0.9558304470211424
-0.0105170253664255,1.3332083225250244,-0.1080270633101463,-0.4858593940734863,0.0476022288203239,0.125610277056694,0.0,0.0,0.4495057582857202,0.5124662013515426
-0.0114907268434762,1.3227473497390747,-0.1033042222261428,-0.4651400446891784,0.0534733794629573,0.1174341216683387,0.0,0.0,-0.5697818463609035,0.7809758040450434
-0.0123542789369821,1.3116544485092163,-0.0913623496890068,-0.493205189704895,0.0584324225783348,0.0991899147629737,0.0,0.0,0.4063434307221851,-0.7900829133006373
-0.0131786344572901,1.3006805181503296,-0.089787408709526,-0.4880335032939911,0.065715380012989,0.1456725895404815,0.0,0.0,0.7863352840196847,-0.7484226006040864
-0.0139677999541163,1.289921522140503,-0.0885784476995468,-0.478629469871521,0.0752996876835823,0.1917039304971695,0.0,0.0,0.6816374204404179,0.9265305698649188
-0.0145418168976902,1.279616355895996,-0.066080130636692,-0.4584539532661438,0.0838975682854652,0.171973317861557,0.0,0.0,0.8719286117920497,-0.9827439401399062
-0.0150918960571289,1.269264817237854,-0.0664139613509178,-0.4607498943805694,0.095219075679779,0.2264508754014969,0.0,0.0,-0.0189229175748548,-0.9080831180655492
-0.0156501773744821,1.258275270462036,-0.0692290812730789,-0.4893290400505066,0.1085365638136863,0.2663741111755371,0.0,0.0,0.977881599365098,-0.7293413012427917
-0.0161160472780466,1.247183322906494,-0.0624118521809577,-0.4942065477371216,0.1242746114730835,0.3147895634174347,0.0,0.0,-0.7529960017133064,0.599853445244992
-0.0164790153503417,1.2354706525802612,-0.0512159466743469,-0.521868884563446,0.1391473859548568,0.2974826991558075,0.0,0.0,0.1250067847107228,-0.5296167183716864
-0.0167670249938964,1.2235084772109983,-0.0455600395798683,-0.533305287361145,0.1558870077133178,0.3348228633403778,0.0,0.0,0.6045403114399295,-0.9195823422171832
-0.0170994754880666,1.2120810747146606,-0.0525054857134819,-0.5100193023681641,0.1751990169286728,0.3862752318382263,0.0,0.0,0.8016677489706034,-0.9638218101524116
-0.0176671035587787,1.2008837461471558,-0.0783110186457634,-0.5003477334976196,0.1968759447336197,0.4335774779319763,0.0,0.0,-0.7335913610337037,-0.5672116913315385
-0.0182270053774118,1.189046025276184,-0.0789053291082382,-0.5293431878089905,0.2200284153223037,0.463090717792511,0.0,0.0,-0.4272723888720755,-0.7865211605306579
-0.0188036914914846,1.1765508651733398,-0.082560621201992,-0.5592495203018188,0.245309516787529,0.5056673288345337,0.0,0.0,0.6945391917088692,-0.5758219764878846
-0.0193805694580078,1.164271593093872,-0.0844651386141777,-0.5504541397094727,0.2726868093013763,0.547595202922821,0.0,0.0,0.0353584529760373,0.5363675879436965
-0.0198817253112792,1.151674509048462,-0.0762654989957809,-0.5649670958518982,0.299615740776062,0.5386263132095337,0.0,0.0,0.6000981996187991,0.5943934901399615
-0.0206257812678813,1.1392958164215088,-0.0993615165352821,-0.5555130839347839,0.3255292773246765,0.5183173418045044,0.0,0.0,-0.9155472887703232,0.6335173864754733
-0.0212920196354389,1.126286268234253,-0.0909762904047966,-0.583885133266449,0.3509990274906158,0.5093950033187866,0.0,0.0,0.2985277765303082,-0.9338077645744254
-0.0221842769533395,1.1134198904037476,-0.1156644970178604,-0.5785524845123291,0.3789101839065552,0.5582238435745239,0.0,0.0,-0.4469360954961963,-0.6928375677860342
-0.0231043808162212,1.0998939275741575,-0.1202414408326149,-0.6089391708374023,0.4090703725814819,0.6032036542892456,0.0,0.0,-0.7937923447367203,-0.7588413683646296
-0.024058723822236,1.0857030153274536,-0.1255261600017547,-0.6397445797920227,0.4416437447071075,0.6514676809310913,0.0,0.0,-0.6869317229640008,0.6300807637382756
-0.0249372478574514,1.070913791656494,-0.116780899465084,-0.6667563915252686,0.4734485745429992,0.6360970735549927,0.0,0.0,-0.1303839041343564,-0.6452322198236762
-0.025831127539277,1.0554711818695068,-0.1194253340363502,-0.6969926357269287,0.5070372223854065,0.6717730760574341,0.0,0.0,0.1203484535217285,0.999906063079834
-0.0268250461667776,1.0397974252700806,-0.1274857223033905,-0.7073673009872437,0.5390198230743408,0.6396520137786865,0.0,0.0,-0.3924269676208496,0.9994733333587646
-0.0277368538081645,1.0235553979873655,-0.1175564154982566,-0.7327069640159607,0.5696068406105042,0.6117403507232666,0.0,0.0,-0.7696650624275208,0.9998598098754884
-0.0285602565854787,1.0067331790924072,-0.1069818139076232,-0.7584764361381531,0.5987326502799988,0.5825163125991821,0.0,0.0,-0.262084424495697,0.999927282333374
-0.0292935371398925,0.9893497824668884,-0.0959932059049606,-0.7831798195838928,0.6260630488395691,0.5466083288192749,0.0,0.0,-0.6359833478927612,0.9999858140945436
-0.0299408920109272,0.9714111685752868,-0.0854932442307472,-0.8075153231620789,0.6515501737594604,0.5097426176071167,0.0,0.0,-0.5851852893829346,0.9999675750732422
-0.0305047035217285,0.9529033303260804,-0.0753833651542663,-0.8324515223503113,0.6753450632095337,0.4758974015712738,0.0,0.0,-0.4741907715797424,0.9996066093444824
-0.0309863090515136,0.9338447451591492,-0.0652649253606796,-0.8563706874847412,0.6971602439880371,0.4363032281398773,0.0,0.0,-0.0040302872657775,0.9997801780700684
-0.0313973426818847,0.9142293334007264,-0.0565867200493812,-0.8805981278419495,0.7172397375106812,0.4015896320343017,0.0,0.0,0.2659151554107666,0.9998857975006104
-0.032019518315792,0.8946067094802856,-0.0759924054145813,-0.880264937877655,0.7354204654693604,0.3636147379875183,0.0,0.0,0.176365852355957,0.9975030422210692
-0.0330098159611225,0.8749573230743408,-0.1111915707588195,-0.880741536617279,0.7517080307006836,0.3257518410682678,0.0,0.0,-0.0479655265808105,0.9927303791046144
-0.0339164733886718,0.854763388633728,-0.1008793488144874,-0.9039626717567444,0.7656031250953674,0.2779024541378021,0.0,0.0,0.1599643230438232,0.9995315074920654
-0.0348428711295127,0.8343250751495361,-0.1012779846787452,-0.91395503282547,0.7774825096130371,0.237587571144104,0.0,0.0,0.0387544631958007,0.998952865600586
-0.0358809456229209,0.8137614727020264,-0.1108496561646461,-0.918586015701294,0.7872629165649414,0.1956085264682769,0.0,0.0,0.1464813947677612,0.9996950626373292
-0.0370171554386615,0.7928127646446228,-0.1191498637199401,-0.9347838759422302,0.7950310111045837,0.1553615480661392,0.0,0.0,0.0474684238433837,0.9994279146194458
-0.038212776184082,0.7715592384338379,-0.1235647946596145,-0.9473432898521424,0.8006929159164429,0.1132383495569229,0.0,0.0,0.076778769493103,0.9987787008285522
-0.0395215973258018,0.7500991225242615,-0.1333517134189605,-0.9554859399795532,0.8042019009590149,0.0701800212264061,0.0,0.0,-0.0670503973960876,0.9999067783355712
-0.0407876968383789,0.7280727028846741,-0.1278384923934936,-0.9798097014427184,0.8059608936309814,0.0351802073419094,0.0,0.0,-0.2693259119987488,0.9997358322143556
-0.0420138351619243,0.7054755091667175,-0.1226617321372032,-1.0043461322784424,0.8060182929039001,0.0011478289961814,0.0,0.0,-0.276121973991394,0.9998772144317628
-0.0431866645812988,0.6823148131370544,-0.1158281564712524,-1.0283540487289429,0.8039446473121643,-0.0414727553725242,0.0,0.0,-0.1193709969520568,0.9933865070343018
-0.044295310974121,0.6586140990257263,-0.1074516028165817,-1.0510197877883911,0.7991044521331787,-0.0968044996261596,0.0,0.0,-0.0270033478736877,0.99961519241333
-0.0453623756766319,0.6343502998352051,-0.1018040180206298,-1.0750486850738523,0.7921921610832214,-0.1382462382316589,0.0,0.0,0.0929594039916992,0.9988888502120972
-0.0465271957218647,0.6099246144294739,-0.1098671406507492,-1.081140398979187,0.7829121947288513,-0.1855995059013366,0.0,0.0,0.3187606334686279,0.99985671043396
-0.0480970367789268,0.5856249332427979,-0.1485948860645294,-1.0744744539260864,0.7712819576263428,-0.2326042354106903,0.0,0.0,0.7379391193389893,0.9934818744659424
-0.049852181226015,0.5614960789680481,-0.1654268354177475,-1.065938115119934,0.7574860453605652,-0.2759179472923279,0.0,0.0,0.3119362592697143,0.9830317497253418
-0.0518836006522178,0.5371180772781372,-0.1911811530590057,-1.0760376453399658,0.741348385810852,-0.3227536082267761,0.0,0.0,0.3388898372650146,0.9533674716949464
-0.0542510971426963,0.5129833817481995,-0.2228632420301437,-1.064324140548706,0.7229098677635193,-0.3687704205513,0.0,0.0,0.5606505870819092,0.901254177093506
-0.0568965896964073,0.4891418814659118,-0.2488542050123214,-1.050554275512695,0.7023966312408447,-0.4102649092674255,0.0,0.0,0.8134127855300903,0.8206958770751953
-0.0600318908691406,0.4658503532409668,-0.2960341274738312,-1.025509238243103,0.6799660325050354,-0.4486115872859955,0.0,0.0,0.6017246246337891,0.8826720714569092
-0.0636816993355751,0.4428011775016784,-0.3453061580657959,-1.0140395164489746,0.6552115082740784,-0.4950905740261078,0.0,0.0,-0.1408960819244384,0.9001990556716919
-0.0672916397452354,0.4191776514053345,-0.3389566540718078,-1.0389307737350464,0.6280325651168823,-0.5435788035392761,0.0,0.0,0.348211407661438,0.8918801546096802
-0.0712847709655761,0.3955952227115631,-0.3748876452445984,-1.036615014076233,0.5985198020935059,-0.5902550220489502,0.0,0.0,0.5965889692306519,0.8853507041931152
-0.0754189491271972,0.3721666038036346,-0.3867023587226867,-1.0294911861419678,0.5669007301330566,-0.6323820948600769,0.0,0.0,0.7172386646270752,0.7864158153533936
-0.0798507705330848,0.3489831686019897,-0.4141491949558258,-1.0184632539749146,0.5332546234130859,-0.6729224324226379,0.0,0.0,0.887310266494751,0.7448742389678955
-0.0844861045479774,0.3258070051670074,-0.4321688711643219,-1.0181564092636108,0.4976402223110199,-0.7122884392738342,0.0,0.0,0.992322564125061,0.4677269458770752
-0.0896251648664474,0.3028337061405182,-0.4809179902076721,-1.0095471143722534,0.4608953297138214,-0.7348985075950623,0.0,0.0,0.9817423820495604,0.1325225830078125
-0.0952314361929893,0.2806282341480255,-0.5266975164413452,-0.9761465787887572,0.4238053560256958,-0.7418003082275391,0.0,0.0,0.9438331127166748,0.085784912109375
-0.1009255424141883,0.2583246231079101,-0.534878134727478,-0.9813410639762878,0.3866748213768005,-0.7426111698150635,0.0,0.0,0.9806880950927734,-0.1439133286476135
-0.1070109382271766,0.236833706498146,-0.5731257796287537,-0.9460016489028932,0.349184900522232,-0.7497990131378174,0.0,0.0,0.9943287372589112,0.337088942527771
-0.1134345084428787,0.2154632955789566,-0.6054510474205017,-0.9413112998008728,0.3106397688388824,-0.7709029912948608,0.0,0.0,0.9884474277496338,-0.4918681979179382
-0.1202494651079177,0.1945811063051223,-0.6430729627609253,-0.9203713536262512,0.2710342705249786,-0.7921110987663269,0.0,0.0,0.9867273569107056,-0.4235419034957886
-0.1272664964199066,0.1741716414690017,-0.6624705791473389,-0.900323748588562,0.2310320883989334,-0.8000442385673523,0.0,0.0,0.9917654991149902,-0.7776494026184082
-0.134779542684555,0.1545549035072326,-0.7122853994369507,-0.8662240505218506,0.1916228383779525,-0.788185715675354,0.0,0.0,0.9993724822998048,-0.4645620584487915
-0.14237642288208,0.1353693157434463,-0.7201806902885437,-0.8480690121650696,0.1520228683948516,-0.791999876499176,0.0,0.0,0.998440146446228,-0.6396615505218506
-0.150175854563713,0.1162356436252594,-0.7407419681549072,-0.8468461632728577,0.1129712462425232,-0.7810330986976624,0.0,0.0,0.9999014139175416,-0.8752026557922363
-0.1580366194248199,0.0970592126250267,-0.7480119466781616,-0.849840521812439,0.0752211511135101,-0.7550023794174194,0.0,0.0,0.9989662170410156,-0.972996175289154
-0.1660853326320648,0.0778493732213974,-0.7679230570793152,-0.8523165583610535,0.0386905148625373,-0.730613112449646,0.0,0.0,0.9977271556854248,-0.9740052223205566
-0.1742982864379882,0.0594554990530014,-0.7855706810951233,-0.8169603943824768,0.0034173566382378,-0.705463707447052,0.0,0.0,0.9986319541931152,-0.9863221645355223
-0.1825243979692459,0.0419255122542381,-0.7883773446083069,-0.7793753147125244,-0.0303789302706718,-0.675926148891449,0.0,0.0,0.9998733997344972,-0.9882081151008606
-0.1909877806901931,0.0252721402794122,-0.8131804466247559,-0.7411472797393799,-0.0631529986858367,-0.6554813981056213,0.0,1.0,0.7477536201477051,0.7628147602081299
-0.1992242783308029,0.0095443464815616,-0.7702362537384033,-0.7020793557167053,-0.1152300462126731,-1.040482759475708,1.0,1.0,0.9991605281829834,0.0379663705825805
-0.2073289453983307,-0.0044475221075117,-0.7675397396087646,-0.6258569359779358,-0.1575497239828109,-0.8457952737808228,1.0,1.0,0.9993941783905028,0.7088890075683594
-0.2150020152330398,-0.0168195869773626,-0.7273949384689331,-0.5553194880485535,-0.2003544121980667,-0.8593419194221497,1.0,1.0,0.9974327087402344,0.5977637767791748
-0.2218652665615081,-0.0240943804383277,-0.5011126399040222,0.0468797571957111,-0.2394996732473373,-0.3132975399494171,1.0,1.0,0.9974327087402344,0.5977637767791748
