x_pos,y_pos,x_vel,y_vel,angle,ang_vel,leg_1,leg_2,main_booster,lat_booster
-0.0015303611289709,1.4030619859695437,-0.1550897061824798,-0.3492507934570312,0.001830153283663,0.0361068621277809,0.0,0.0,0.5730072802177135,-0.6764747075548744
-0.0030676841270178,1.3953200578689575,-0.15706767141819,-0.3440926373004913,0.0051269521936774,0.0659428387880325,0.0,0.0,0.7718605796512921,0.8147452891117608
-0.0043926239013671,1.3876606225967407,-0.1345788538455963,-0.3404208421707153,0.0071940724737942,0.0413461215794086,0.0,0.0,-0.0367171841163018,-0.7328738699169948
-0.0057930946350097,1.3794357776641846,-0.143949955701828,-0.3655753433704376,0.0110480757430195,0.077087178826332,0.0,0.0,-0.0764329622090929,-0.8717177179218529
-0.0072543146088719,1.3706505298614502,-0.151431530714035,-0.3905028998851776,0.016306659206748,0.1051810756325721,0.0,0.0,0.8529989438416192,-0.8960488277947103
-0.0086325649172067,1.362218141555786,-0.1453181952238083,-0.3748739361763,0.0237192101776599,0.1482645720243454,0.0,0.0,0.6849444242062757,0.928400023327022
-0.009984016418457,1.354108452796936,-0.140792429447174,-0.3605290353298187,0.0292980689555406,0.1115874797105789,0.0,0.0,-0.4288299260436332,0.6230614004971008
-0.0112808225676417,1.3454411029815674,-0.13381427526474,-0.3853048980236053,0.0333844311535358,0.0817346796393394,0.0,0.0,0.8406524027444342,-0.9032011140981888
-0.0127013204619288,1.337614893913269,-0.1479997336864471,-0.3479787707328796,0.0392754934728145,0.1178321838378906,0.0,0.0,0.3209245962351543,0.6785038190456234
-0.0140982624143362,1.3301039934158323,-0.1443301439285278,-0.3339437842369079,0.0438619069755077,0.0917365029454231,0.0,0.0,-0.7655869966621269,-0.8212456433782498
-0.0155568122863769,1.3220279216766355,-0.1519379317760467,-0.3591251969337463,0.0498864129185676,0.1205008178949356,0.0,0.0,0.550689653204818,-0.7309180891031014
-0.0170305259525775,1.3141326904296875,-0.1551102399826049,-0.3511813580989837,0.0575440861284732,0.1531675904989242,0.0,0.0,0.1352877195574611,0.985273429784211
-0.0183544158935546,1.3064159154891968,-0.1381852328777313,-0.3431970477104187,0.0632839724421501,0.1148078590631485,0.0,0.0,-0.3008238573400836,-0.7872167830179626
-0.0197386741638183,1.2981247901916504,-0.1456526219844818,-0.3688201606273651,0.0704468041658401,0.1432694494724273,0.0,0.0,-0.1427476049409646,-0.8723939174116722
-0.021181583404541,1.2892754077911377,-0.1528965085744857,-0.3937324285507202,0.0789679437875747,0.170438677072525,0.0,0.0,0.6467651361093796,0.620332982280898
-0.0224865917116403,1.2803198099136353,-0.1381736993789672,-0.3984422385692596,0.0865799635648727,0.1522543877363205,0.0,0.0,-0.8408646381380203,0.6925096337397605
-0.0237306598573923,1.270819067955017,-0.1303932219743728,-0.4226093888282776,0.0925281792879104,0.1189748272299766,0.0,0.0,0.0196343302010468,0.6000325668104612
-0.0248550418764352,1.2611169815063477,-0.1173855885863304,-0.4315194189548492,0.0974429696798324,0.098304882645607,0.0,0.0,0.1398697189526772,-0.9765326908061138
-0.02603654935956,1.2516889572143557,-0.1250761449337005,-0.4194828569889068,0.1043241247534751,0.1376354545354843,0.0,0.0,-0.0219891216782948,-0.9923100398102102
-0.0273112300783395,1.241684913635254,-0.1366680115461349,-0.4452895820140838,0.1134679540991783,0.1828930675983429,0.0,0.0,-0.9397786615820294,-0.6744850522604385
-0.028632927685976,1.2311174869537354,-0.1424298733472824,-0.4704761505126953,0.1236887648701667,0.2044345587491989,0.0,0.0,0.247677047451239,-0.7474468619600902
-0.0300487522035837,1.2204731702804563,-0.1533585339784622,-0.4740964472293854,0.1354315429925918,0.2348768711090088,0.0,0.0,0.922026204019928,0.7067411372279659
-0.0313375480473041,1.21025288105011,-0.1396374851465225,-0.4552541971206665,0.1461749076843261,0.2148868143558502,0.0,0.0,0.7138454388889999,0.7575113079989507
-0.0325389876961708,1.199973702430725,-0.1295496672391891,-0.4577997028827667,0.1555806398391723,0.1881313621997833,0.0,0.0,0.0561111074019755,-0.7071335572934976
-0.0339661613106727,1.1897077560424805,-0.1534464061260223,-0.4574189186096191,0.1663214862346649,0.2148358523845672,0.0,0.0,-0.9489431102970448,0.9756448873033928
-0.0353375449776649,1.1788790225982666,-0.1463789194822311,-0.4823362231254577,0.1755835562944412,0.1852411776781082,0.0,0.0,-0.7282838822822351,-0.763350286678871
-0.0367715843021869,1.167478322982788,-0.1541486233472824,-0.5080109238624573,0.1863664239645004,0.2156574428081512,0.0,0.0,-0.9367743810393356,0.7766407929633705
-0.0381623283028602,1.155537724494934,-0.1485785841941833,-0.531920850276947,0.1959238350391388,0.1911480277776718,0.0,0.0,-0.6546255449022431,0.9379124295703212
-0.0394997596740722,1.1430600881576538,-0.1417565643787384,-0.5556422472000122,0.2039972096681594,0.1614675670862198,0.0,0.0,-0.231552853388079,0.6260644567733232
-0.0407922752201557,1.130033016204834,-0.1360522806644439,-0.5799383521080017,0.2108515053987503,0.1370860189199447,0.0,0.0,-0.7541910065163879,0.9338406405143088
-0.0420139320194721,1.1164779663085938,-0.1270187497138977,-0.6031484603881836,0.2157517373561859,0.0980049669742584,0.0,0.0,0.9800178101782426,-0.6757587355676302
-0.0434989929199218,1.1030772924423218,-0.1544292867183685,-0.5964679718017578,0.2217470109462738,0.1199056133627891,0.0,0.0,0.9224095132967696,0.749939144911369
-0.0452353470027446,1.0904711484909058,-0.1778133511543274,-0.5609021782875061,0.2259735316038131,0.0845303609967231,0.0,0.0,-0.5381915692033876,0.6889835618042301
-0.0469243042171001,1.0773131847381592,-0.1718313694000244,-0.5852592587471008,0.2289452403783798,0.0594343841075897,0.0,0.0,0.6781269109559125,0.9980147603718148
-0.0486639961600303,1.064558506011963,-0.1749120056629181,-0.5670246481895447,0.2299043238162994,0.0191819686442613,0.0,0.0,-0.1458029869339423,-0.7421164413238355
-0.050460148602724,1.0512272119522097,-0.1819655299186706,-0.5928683876991272,0.2322856038808822,0.04762564599514,0.0,0.0,0.1709481369183707,-0.7558889632770021
-0.0524086952209472,1.0377730131149292,-0.1986604332923889,-0.598573625087738,0.2361477315425872,0.0772424042224884,0.0,0.0,0.9201370402493716,0.6436690554930057
-0.0544692054390907,1.025085687637329,-0.2086671292781829,-0.564298689365387,0.2388003468513488,0.0530524440109729,0.0,0.0,-0.8438091537752763,-0.847041742212461
-0.0565999969840049,1.0118199586868286,-0.2174359560012817,-0.5903043746948242,0.2432341873645782,0.088676743209362,0.0,0.0,0.6668263275803488,0.8593546721124804
-0.0587812438607215,0.9989214539527892,-0.220791295170784,-0.5737036466598511,0.2459481507539749,0.0542793497443199,0.0,0.0,-0.6280306766337811,0.7172562526595718
-0.0609171874821186,0.9854835271835328,-0.2150544822216034,-0.5974901914596558,0.2474286556243896,0.0296100340783596,0.0,0.0,-0.9927763938903807,0.9966498613357544
-0.0629596710205078,0.971515417098999,-0.2032734602689743,-0.6206376552581787,0.2464465647935867,-0.0196419842541217,0.0,0.0,-0.9909287095069884,0.9989070892333984
-0.0649098381400108,0.9570077657699584,-0.1917126923799514,-0.6442376971244812,0.2430902421474456,-0.0671263262629509,0.0,0.0,-0.9932252168655396,0.994192361831665
-0.0667690262198448,0.94196879863739,-0.1802794635295868,-0.6674783229827881,0.2373550087213516,-0.1147047653794288,0.0,0.0,-0.9811077117919922,0.9978610277175904
-0.0685529708862304,0.9263822436332704,-0.1708490252494812,-0.6915413737297058,0.229708045721054,-0.1529392302036285,0.0,0.0,-0.9863505363464355,0.9984712600708008
-0.0702504143118858,0.9102532267570496,-0.1600127071142196,-0.7153645157814026,0.2198572754859924,-0.1970153152942657,0.0,0.0,-0.9892361164093018,0.9626667499542236
-0.0718628913164138,0.8935853242874146,-0.1493451595306396,-0.739067792892456,0.2078286260366439,-0.2405729740858078,0.0,0.0,-0.9259647727012634,0.9264345169067384
-0.0734161362051963,0.876384973526001,-0.141818568110466,-0.7626151442527771,0.1942288130521774,-0.2719961702823639,0.0,0.0,-0.8700483441352844,0.9818181991577148
-0.0749083533883094,0.8586509227752686,-0.1341066509485244,-0.786271870136261,0.1790359914302826,-0.3038567900657654,0.0,0.0,-0.9141086339950562,0.7858467102050781
-0.0763385742902755,0.840371310710907,-0.1262852847576141,-0.810494065284729,0.1622732430696487,-0.3352550566196441,0.0,0.0,-0.8865144848823547,0.1689441204071045
-0.0777656584978103,0.8215330243110657,-0.1258800327777862,-0.8355152010917664,0.1454585641622543,-0.3362935185432434,0.0,0.0,-0.2152851223945617,-0.468469500541687
-0.0791894942522049,0.8021355867385864,-0.1254560798406601,-0.8605367541313171,0.1285909563302993,-0.3373525440692901,0.0,0.0,0.6108050346374512,-0.238662838935852
-0.0805596336722374,0.7828445434570312,-0.1204961985349655,-0.8560318350791931,0.1121624484658241,-0.3285706639289856,0.0,0.0,0.6602108478546143,-0.1807297468185424
-0.08201265335083,0.7641899585723877,-0.1287033706903457,-0.8279262185096741,0.0956939607858657,-0.3293702602386474,0.0,0.0,0.0205870866775512,0.169876217842102
-0.0833989158272743,0.7454392313957214,-0.1223735064268112,-0.8324007391929626,0.0795956030488014,-0.3219673037528991,0.0,0.0,-0.3341445922851562,0.2525582313537597
-0.0847809761762619,0.7261293530464172,-0.1218853443861007,-0.8574208617210388,0.0634408742189407,-0.3230946362018585,0.0,0.0,0.754216194152832,-0.7382088303565979
-0.0861622840166091,0.7075385451316833,-0.1234514340758323,-0.8256970047950745,0.0489292815327644,-0.2902317643165588,0.0,0.0,-0.4080625772476196,-0.780903160572052
-0.0875868797302246,0.6883875727653503,-0.1289168894290924,-0.8507673144340515,0.035557072609663,-0.2674441933631897,0.0,0.0,0.9453470706939696,-0.0004305243492126
-0.0889533013105392,0.6701345443725586,-0.1234529986977577,-0.8109926581382751,0.0225333739072084,-0.2604742050170898,0.0,0.0,-0.628302812576294,-0.5254524946212769
-0.0903617888689041,0.6513240337371826,-0.1287975311279297,-0.8358901143074036,0.0106275212019681,-0.2381168901920318,0.0,0.0,0.7646663188934326,-0.8270233273506165
-0.0917748436331749,0.6325387358665466,-0.1309646666049957,-0.8348685503005981,0.0004202240961603,-0.2041462212800979,0.0,0.0,0.9650909900665284,-0.118828535079956
-0.0933025330305099,0.6144436001777649,-0.1418063938617706,-0.8042594194412231,-0.0103987231850624,-0.2163788080215454,0.0,0.0,0.7834863662719727,0.1852420568466186
-0.0946859344840049,0.5966229438781738,-0.1279482990503311,-0.7921388149261475,-0.0206612683832645,-0.205250859260559,0.0,0.0,0.2954822778701782,-0.5252543687820435
-0.0960756316781044,0.5789631009101868,-0.1296251565217971,-0.7850322127342224,-0.0298953056335449,-0.184680700302124,0.0,0.0,0.6558717489242554,-0.1297984719276428
-0.0974402427673339,0.5613440871238708,-0.1270910948514938,-0.7832812070846558,-0.0391541272401809,-0.1851764619350433,0.0,0.0,0.7543618679046631,0.0971386432647705
-0.098906323313713,0.5441122055053711,-0.1365595310926437,-0.7661531567573547,-0.04908237606287,-0.1985649317502975,0.0,0.0,0.3564767837524414,-0.0603788495063781
-0.1003149002790451,0.5273706316947937,-0.1308323889970779,-0.7444283366203308,-0.0589907392859458,-0.1981673389673233,0.0,0.0,0.2539498805999756,-0.5026882886886597
-0.1016773208975792,0.5103917717933655,-0.1273164004087448,-0.7549943327903748,-0.0678099542856216,-0.1763842105865478,0.0,0.0,0.9539792537689208,0.6995474100112915
-0.1028756126761436,0.4943615198135376,-0.1095417141914367,-0.7129514217376709,-0.0779968500137329,-0.2037381827831268,0.0,0.0,-0.602562427520752,0.1049443483352661
-0.1040683761239051,0.4777703285217285,-0.1089246869087219,-0.7379592061042786,-0.0882460474967956,-0.2049841433763504,0.0,0.0,0.8115363121032715,-0.0967786908149719
-0.1052902191877365,0.4617407917976379,-0.1113165244460105,-0.7130994200706482,-0.0990235283970832,-0.2155494689941406,0.0,0.0,-0.4412702918052673,-0.3762836456298828
-0.10650634765625,0.4451504349708557,-0.1106902807950973,-0.7381084561347961,-0.1098636388778686,-0.2168025076389312,0.0,0.0,0.699952244758606,-0.9624966382980348
-0.1078441590070724,0.4293423593044281,-0.124541163444519,-0.7032880187034607,-0.1190447658300399,-0.183622658252716,0.0,0.0,0.2285318374633789,-0.4639446139335632
-0.1090708747506141,0.4136027097702026,-0.1136346086859703,-0.7002821564674377,-0.1280362010002136,-0.1798283159732818,0.0,0.0,0.5279309749603271,-0.9536092877388
-0.1103561371564865,0.3978536427021026,-0.1213064044713974,-0.7005974054336548,-0.1352273374795913,-0.1438226699829101,0.0,0.0,0.8700722455978394,-0.772373616695404
-0.1115641593933105,0.3820768892765045,-0.1152489557862281,-0.7017031311988831,-0.1407606750726699,-0.1106667667627334,0.0,0.0,0.9338741302490234,-0.7336220741271973
-0.112808421254158,0.3663415610790252,-0.1201800554990768,-0.699755072593689,-0.1449888050556183,-0.0845627039670944,0.0,0.0,0.991446852684021,-0.275612473487854
-0.113918587565422,0.3514653742313385,-0.1066678985953331,-0.6615927815437317,-0.1493271291255951,-0.0867664143443107,0.0,0.0,0.9726698398590088,-0.8064195513725281
-0.1148371696472168,0.3374707698822021,-0.0893047004938125,-0.6222416758537292,-0.1518842130899429,-0.0511417500674724,0.0,0.0,0.9498484134674072,-0.7243609428405762
-0.1158013343811035,0.3243968188762665,-0.0948972925543785,-0.5812207460403442,-0.1533944606781005,-0.0302050448954105,0.0,0.0,0.7836829423904419,-0.201410174369812
-0.1168429404497146,0.3113226592540741,-0.1019385829567909,-0.5813044309616089,-0.1556145697832107,-0.0444017350673675,0.0,0.0,-0.2348432540893554,-0.5090644359588623
-0.1179152503609657,0.2976993918418884,-0.1058990135788917,-0.6056176424026489,-0.1569454371929168,-0.026617094874382,0.0,0.0,0.8173927068710327,-0.2126529812812805
-0.1189927086234092,0.2844778299331665,-0.1058418527245521,-0.5878244042396545,-0.1588556915521621,-0.0382051952183246,0.0,0.0,0.1253416538238525,0.2517347335815429
-0.1200281158089637,0.2713867723941803,-0.101397231221199,-0.5820572972297668,-0.1610025018453598,-0.0429360531270504,0.0,0.0,0.980283260345459,0.4519318342208862
-0.1209374442696571,0.2589778006076813,-0.0886530056595802,-0.5517569780349731,-0.163279503583908,-0.0455404296517372,0.0,0.0,0.5582587718963623,-0.4019776582717895
-0.1216704398393631,0.2467987090349197,-0.0713425129652023,-0.5415104627609253,-0.1652400344610214,-0.0392106473445892,0.0,0.0,0.7996573448181152,-0.1879910826683044
-0.1223108321428299,0.2346026003360748,-0.0621271729469299,-0.5422611236572266,-0.1671449691057205,-0.0380987301468849,0.0,0.0,0.8057632446289062,0.1002845764160156
-0.1227720230817794,0.2224698662757873,-0.0446218624711036,-0.539402961730957,-0.1686447709798813,-0.0299960020929574,0.0,0.0,0.973923921585083,-0.4598745107650757
-0.1229395866394043,0.2107393890619278,-0.0159991420805454,-0.5214384198188782,-0.1693954169750213,-0.0150128230452537,0.0,0.0,0.982874870300293,-0.5484826564788818
-0.1228898018598556,0.1991084665060043,0.0041784420609474,-0.5168399214744568,-0.1685941070318222,0.0160262286663055,0.0,0.0,0.9950836896896362,-0.581451952457428
-0.122733786702156,0.1882742792367935,0.013710930943489,-0.481306254863739,-0.166710078716278,0.0376809351146221,0.0,0.0,0.9013404846191406,-0.3376001119613647
-0.1223919838666915,0.1781602054834365,0.0321940034627914,-0.4492909014225006,-0.1647251695394516,0.0396983176469802,0.0,0.0,0.6814824342727661,-0.7218992114067078
-0.1218523010611534,0.1684712022542953,0.0503120645880699,-0.4302228689193725,-0.1610694676637649,0.073114201426506,0.0,0.0,0.625070333480835,-0.8457708954811096
-0.1212133392691612,0.158676341176033,0.0584414899349212,-0.4347485601902008,-0.1556140631437301,0.109108105301857,0.0,0.0,0.5788894891738892,0.3738170862197876
-0.1205427199602127,0.1490522921085357,0.0618969202041626,-0.4272041618824005,-0.1504546254873275,0.1031883507966995,0.0,0.0,0.8452377319335938,-0.2413117289543151
-0.1196284294128418,0.1402741074562072,0.0858888030052185,-0.3895906507968902,-0.1449216306209564,0.110659934580326,0.0,0.0,0.5758256912231445,-0.3194925785064697
-0.1186519637703895,0.1317445337772369,0.0922662764787674,-0.3785783052444458,-0.1395550966262817,0.1073306649923324,0.0,0.0,0.4221612215042114,-0.7799200415611267
-0.1177535057067871,0.1237152218818664,0.0831247121095657,-0.3562455773353576,-0.1328630745410919,0.1338400691747665,0.0,0.0,0.0602295398712158,-0.6275966763496399
-0.1167765632271766,0.1157904714345932,0.0897052958607673,-0.3515164256095886,-0.124902069568634,0.1592200100421905,0.0,0.0,0.3696526288986206,-0.2359513044357299
-0.115760326385498,0.1082383021712303,0.0938805192708969,-0.3350270092487335,-0.1172097101807594,0.1538471728563308,0.0,0.0,-0.1293238401412964,-0.3375387191772461
-0.1147385612130165,0.1001245081424713,0.0944981426000595,-0.3600312769412994,-0.1095805540680885,0.1525833308696746,0.0,0.0,0.7302751541137695,0.0622856616973876
-0.1136800795793533,0.0922309458255767,0.0983482599258422,-0.3502947390079498,-0.1021349653601646,0.1489117443561554,0.0,0.0,0.6726137399673462,-0.4651333093643188
-0.1126714721322059,0.0847021639347076,0.0939672365784645,-0.3341546952724457,-0.0952986702322959,0.1367259621620178,0.0,0.0,0.4681599140167236,0.3991298675537109
-0.1117462143301963,0.077325664460659,0.0863126814365387,-0.3274616003036499,-0.0891437157988548,0.1230992898344993,0.0,0.0,0.6610817909240723,0.7232251167297363
-0.1105778664350509,0.0704476907849311,0.1118921414017677,-0.3054026365280151,-0.0842521861195564,0.0978307202458381,0.0,0.0,0.3629456758499145,-0.160677433013916
-0.1093282699584961,0.0634562075138092,0.1198528856039047,-0.310453861951828,-0.0791889950633049,0.1012640222907066,0.0,0.0,0.8151487112045288,0.5665072202682495
-0.1077925711870193,0.0571348518133163,0.1491955816745758,-0.2807247936725616,-0.074849896132946,0.0867819339036941,0.0,0.0,0.4797836542129516,-0.393834114074707
-0.1062200516462326,0.0512932874262332,0.1530265063047409,-0.2594200670719147,-0.0706676542758941,0.0836451202630996,0.0,0.0,0.430776834487915,-0.9202821254730223
-0.1045217514038086,0.0460003241896629,0.1636690199375152,-0.2349622845649719,-0.0645747482776641,0.1218580603599548,0.0,0.0,0.4747825860977173,-0.9264346957206726
-0.1027809157967567,0.0409198626875877,0.1660346984863281,-0.2254736870527267,-0.0566177852451801,0.1591391563415527,0.0,0.0,0.5374102592468262,-0.8655331134796143
-0.1010677367448806,0.0364308468997478,0.1616035997867584,-0.1991705894470214,-0.0470082312822341,0.1921909302473068,0.0,0.0,0.5520974397659302,-0.679754376411438
-0.0993059128522872,0.0324947945773601,0.1650127470493316,-0.1746207773685455,-0.0359789095818996,0.2205866873264312,0.0,0.0,0.3224869966506958,-0.4917570352554321
-0.0974617004394531,0.0285445787012577,0.1730171740055084,-0.175326406955719,-0.0247119441628456,0.2253390848636627,0.0,0.0,0.6468825340270996,-0.8902559876441956
-0.0958040207624435,0.0249673705548048,0.1528258174657821,-0.1588247716426849,-0.0119390059262514,0.2554587721824646,0.0,0.0,0.4307340383529663,-0.1620361804962158
-0.0942475348711013,0.021500239148736,0.1432866156101226,-0.1540364772081375,0.0002597600978333,0.243975281715393,0.0,0.0,0.665123701095581,-0.0104344487190246
-0.0927084907889366,0.0183248613029718,0.1417174190282821,-0.1411709487438202,0.0122985523194074,0.2407760173082351,0.0,0.0,0.2937591075897217,0.2331365346908569
-0.0911497101187706,0.015216002240777,0.1436459571123123,-0.1383190751075744,0.0243723075836896,0.2414748966693878,0.0,0.0,0.2313710451126098,0.7134363651275635
-0.0894270911812782,0.0119476411491632,0.1613899320363998,-0.1454661786556244,0.0351115688681602,0.2147853672504425,0.0,0.0,0.1481648683547973,-0.3448907136917114
-0.0876492485404014,0.0088343480601906,0.1666579842567443,-0.1386631578207016,0.0461061224341392,0.2198907434940338,0.0,0.0,0.0711454153060913,-0.1854339838027954
-0.0858752280473709,0.0059449290856719,0.1662679612636566,-0.128796249628067,0.057118359953165,0.2202446460723877,0.0,0.0,0.1832059621810913,-0.0196780562400817
-0.0842859297990799,0.0033989406656473,0.1672272086143493,-0.1128579154610633,0.0489328540861606,-0.1636962890625,0.0,1.0,-0.1875425577163696,-0.1650419235229492
