x_pos,y_pos,x_vel,y_vel,angle,ang_vel,leg_1,leg_2,main_booster,lat_booster
-0.0016413688426837,1.4033441543579102,-0.1660483181476593,-0.3367027342319488,0.0017067498993128,0.0336634293198585,0.0,0.0,-0.8429886081795559,0.956000474862625
-0.0033196448348462,1.3955069780349731,-0.1672961860895156,-0.3483228087425232,0.001174023724161,-0.0106548620387911,0.0,0.0,0.6117379140633559,0.6386660605624628
-0.0049249650910496,1.3879759311676023,-0.1589222848415374,-0.3347142934799194,-0.0004180681135039,-0.0318447723984718,0.0,0.0,0.7444180857585194,0.857668064576321
-0.0067195892333984,1.380953311920166,-0.1757258474826812,-0.3121277391910553,-0.0041184611618518,-0.0740147531032562,0.0,0.0,-0.2698376777614175,-0.8835178279355993
-0.0086866375058889,1.3736534118652344,-0.1942003071308136,-0.3244433999061584,-0.0065851109102368,-0.0493373796343803,0.0,0.0,0.4354037147294241,-0.8833940178562063
-0.0107024190947413,1.3667794466018677,-0.200880080461502,-0.3055128753185272,-0.0072736525908112,-0.0137721048668026,0.0,0.0,0.8686001649370347,-0.8066664773367767
-0.0129220960661768,1.3606058359146118,-0.2226787805557251,-0.2743771970272064,-0.0065693985670804,0.014086184091866,0.0,0.0,0.5175589605843234,0.7897337917801309
-0.0150400158017873,1.3550435304641724,-0.211050197482109,-0.2472150772809982,-0.0073023755103349,-0.01466098241508,0.0,0.0,0.5553282048454498,0.9201946085693584
-0.0172090530395507,1.3503921031951904,-0.214165523648262,-0.2067463994026184,-0.0100136203691363,-0.0542298555374145,0.0,0.0,0.0679999879373585,-0.7041965904603626
-0.0195456501096487,1.3461700677871704,-0.2321925461292266,-0.1876604408025741,-0.0114669278264045,-0.0290686693042516,0.0,0.0,-0.2650045509473604,0.6697851265332156
-0.0219378471374511,1.3416672945022583,-0.2360783815383911,-0.2001505941152572,-0.0145740257576107,-0.0621480047702789,0.0,0.0,0.1072998708834451,-0.8999093905188222
-0.0244555473327636,1.3374139070510864,-0.2503113150596618,-0.189050406217575,-0.0160153172910213,-0.0288281701505184,0.0,0.0,-0.8067498910572237,0.8998918796463834
-0.0270019527524709,1.33288311958313,-0.2508522868156433,-0.2014183402061462,-0.0197593662887811,-0.074888065457344,0.0,0.0,0.9153586594841938,-0.956242141630992
-0.0296415332704782,1.328680396080017,-0.2621143460273742,-0.1868125349283218,-0.0215755943208932,-0.0363278724253177,0.0,0.0,-0.6729341350053215,-0.8808276170034037
-0.0324481017887592,1.3242082595825195,-0.280043214559555,-0.1987693607807159,-0.0221819281578063,-0.0121281202882528,0.0,0.0,-0.6835126611555804,0.8147905677442636
-0.0352922454476356,1.319443941116333,-0.2817363739013672,-0.2117859721183776,-0.0248253177851438,-0.0528727546334266,0.0,0.0,0.8200599130103978,0.7280201592628972
-0.0380029678344726,1.315813064575195,-0.267208456993103,-0.1614412367343902,-0.0286518689244985,-0.0765381008386612,0.0,0.0,-0.6706901419364195,0.7029594370575138
-0.0407570824027061,1.3118932247161863,-0.2696807086467743,-0.1743364483118057,-0.0343241915106773,-0.1134566217660904,0.0,0.0,0.3973133946941602,-0.9755685695779596
-0.043581198900938,1.3087197542190552,-0.2785930633544922,-0.1411357969045639,-0.0381012037396431,-0.0755472406744957,0.0,0.0,-0.872040479412977,-0.690317978441221
-0.0465773567557334,1.3052693605422974,-0.2972519993782043,-0.1534159779548645,-0.0404378660023212,-0.046737216413021,0.0,0.0,0.4202804893660097,-0.8635269884180793
-0.049600601196289,1.3025104999542236,-0.301737368106842,-0.1226291507482528,-0.0410193763673305,-0.0116313397884368,0.0,0.0,-0.2790748777753902,0.875199588033789
-0.0526618957519531,1.2994621992111206,-0.303629994392395,-0.135551631450653,-0.0434823036193847,-0.0492631681263446,0.0,0.0,0.8116927293313447,0.8362733808921838
-0.0555815696716308,1.2970130443572998,-0.2880117297172546,-0.1089719906449318,-0.0474057458341121,-0.0784760862588882,0.0,0.0,0.5148217811250477,-0.9603476456978062
-0.0585969910025596,1.294702172279358,-0.2994833588600158,-0.1027744635939598,-0.0494432970881462,-0.040754709392786,0.0,0.0,-0.0450090254525372,0.9131916005208812
-0.0616616234183311,1.2921096086502075,-0.3029071986675262,-0.1153439208865165,-0.0529639981687068,-0.070420041680336,0.0,0.0,0.7040260534720719,-0.80018172510397
-0.065019890666008,1.2903258800506592,-0.3334850370883941,-0.0793614313006401,-0.0552906356751918,-0.0465326979756355,0.0,0.0,0.172132111895211,0.6732820645247377
-0.0683948546648025,1.2890337705612185,-0.3336963057518005,-0.0575766675174236,-0.0590384975075721,-0.0749573484063148,0.0,0.0,0.6406644060077593,0.8403404329759556
-0.0718980804085731,1.2887043952941897,-0.3445278704166412,-0.0148698547855019,-0.0647766143083572,-0.1147623658180236,0.0,0.0,0.0190474719087316,0.9820217303292792
-0.0754873305559158,1.2888212203979492,-0.3511221408843994,0.0048225480131804,-0.0724943801760673,-0.1543553471565246,0.0,0.0,0.0430074303593108,-0.6608187726713448
-0.0792171508073806,1.28912353515625,-0.3664209246635437,0.0131121128797531,-0.0789857283234596,-0.1298271715641021,0.0,0.0,0.0007855512468326,0.8103651635361847
-0.0829219818115234,1.289913535118103,-0.3622365593910217,0.0346527621150016,-0.0871550887823104,-0.1633871793746948,0.0,0.0,0.4100288855657545,-0.7447511838068607
-0.0868176445364952,1.2909960746765137,-0.3826447129249573,0.0476953163743019,-0.0940212160348892,-0.1373225003480911,0.0,0.0,0.3812528663901922,0.9237963334497196
-0.0907438248395919,1.2928097248077393,-0.3837184011936188,0.0800225958228111,-0.1028514504432678,-0.1766048371791839,0.0,0.0,-0.5650951890251852,0.7553481006816131
-0.0947025269269943,1.2943295240402222,-0.3855602145195007,0.0668027251958847,-0.113084577023983,-0.2046626806259155,0.0,0.0,0.458945001745723,0.8949883062641868
-0.09859399497509,1.2963833808898926,-0.3770224452018738,0.0903251618146896,-0.1251326352357864,-0.2409611046314239,0.0,0.0,-0.5191410334447164,0.9932741492349048
-0.1024829894304275,1.2981518507003784,-0.3747043311595917,0.0773450136184692,-0.1392631232738495,-0.2826101183891296,0.0,0.0,0.3662665857086293,-0.6121016975268976
-0.1064661964774131,1.3002139329910278,-0.3853049874305725,0.0903763994574546,-0.1522556692361831,-0.2598510086536407,0.0,0.0,-0.0730219509839764,-0.619995780082065
-0.1105652824044227,1.302012920379639,-0.3980438411235809,0.0787044242024421,-0.164114624261856,-0.2371793091297149,0.0,0.0,0.930577838513894,0.9417754992614956
-0.1145458221435546,1.3049957752227783,-0.3842164278030395,0.1309842467308044,-0.1779679805040359,-0.2770671844482422,0.0,0.0,0.8043764356638479,-0.7054530545747678
-0.1184927970170974,1.3086875677108765,-0.3823693394660949,0.1625574678182602,-0.190348744392395,-0.2476154267787933,0.0,0.0,0.0467932355336115,0.8616515034149708
-0.1224144920706749,1.312838792800903,-0.3781406283378601,0.1826312690973281,-0.2044731527566909,-0.2824877202510834,0.0,0.0,0.0570433139801025,0.7874177694320679
-0.126170352101326,1.317155838012695,-0.3600589334964752,0.1896560937166214,-0.2201469242572784,-0.3134752810001373,0.0,0.0,-0.0200878381729125,0.4569336175918579
-0.1299735009670257,1.3211963176727295,-0.3648421168327331,0.177185520529747,-0.2358200997114181,-0.3134634792804718,0.0,0.0,0.1730040311813354,0.6438978910446167
-0.133604809641838,1.32546067237854,-0.346562922000885,0.1867796629667282,-0.2526741325855255,-0.3370810151100158,0.0,0.0,0.1899260282516479,0.5984185934066772
-0.1372061669826507,1.329744577407837,-0.3424037992954254,0.1872332096099853,-0.2707838416099548,-0.3621933162212372,0.0,0.0,0.0342565774917602,0.822486400604248
-0.1406881362199783,1.3340072631835938,-0.3289583027362823,0.1857775747776031,-0.2905409932136535,-0.3951432108879089,0.0,0.0,0.0834801197052002,-0.2969182729721069
-0.1440716683864593,1.338398814201355,-0.3194341659545898,0.1912872046232223,-0.3100850284099579,-0.3908804655075073,0.0,0.0,-0.1837260127067566,-0.4340184330940246
-0.1474729478359222,1.342514991760254,-0.3213522434234619,0.1788070350885391,-0.3295938968658447,-0.3901774287223816,0.0,0.0,-0.1494736075401306,-0.3953068256378174
-0.1508854925632476,1.346355438232422,-0.3226518034934997,0.16632741689682,-0.3490604162216186,-0.3893304467201233,0.0,0.0,-0.0416851043701171,-0.6982130408287048
-0.1543568670749664,1.3499473333358765,-0.3301199972629547,0.1554017215967178,-0.3669979572296142,-0.3587510287761688,0.0,0.0,-0.6128597855567932,-0.5836789608001709
-0.1578598022460937,1.3532812595367432,-0.3342898190021515,0.1439781337976455,-0.383964478969574,-0.3393296003341675,0.0,0.0,-0.5498451590538025,-0.9058836102485656
-0.1614258736371994,1.3563871383666992,-0.3426958918571472,0.1342197954654693,-0.3988120555877685,-0.2969518303871155,0.0,0.0,-0.6330613493919373,-0.5600080490112305
-0.1650121659040451,1.3592331409454346,-0.3457556366920471,0.1228060498833656,-0.4126439094543457,-0.2766377329826355,0.0,0.0,-0.6128225326538086,-0.511824905872345
-0.1686138212680816,1.3618290424346924,-0.3484272360801697,0.1118889153003692,-0.425334483385086,-0.2538110017776489,0.0,0.0,-0.8253113031387329,-0.5640773773193359
-0.1722206175327301,1.3641645908355713,-0.3498817086219787,0.1005037650465965,-0.4370584189891815,-0.2344787865877151,0.0,0.0,-0.7049471735954285,-0.7144849300384521
-0.1758552491664886,1.3662593364715576,-0.3543853759765625,0.0902402028441429,-0.4469674229621887,-0.1981799751520156,0.0,0.0,-0.4339613914489746,-0.6434752941131592
-0.1794890463352203,0.0,-0.3554638624191284,0.0795790702104568,-0.4556320011615753,-0.173291802406311,0.0,0.0,-0.4287527799606323,-0.4877873659133911
-0.1830796301364898,1.3696753978729248,-0.351286381483078,0.0671270117163658,-0.4641858637332916,-0.1710772663354873,0.0,0.0,-0.672920823097229,-0.6473981738090515
-0.1866592466831207,1.370999097824097,-0.3514177501201629,0.0566236227750778,-0.4714241325855255,-0.1447652876377105,0.0,0.0,-0.225600004196167,-0.72622150182724
-0.1902402937412262,1.3720914125442505,-0.3532493710517883,0.0468880571424961,-0.4768113195896148,-0.1077439785003662,0.0,0.0,-0.5821927189826965,0.1481537818908691
-0.193762868642807,0.0,-0.3475376069545746,0.0344405770301818,-0.4820645451545715,-0.1050647646188736,0.0,0.0,-0.4552195072174072,-0.3476063013076782
-0.197222426533699,1.373434066772461,-0.3413651585578918,0.0219935569912195,-0.487176239490509,-0.1022334694862365,0.0,0.0,0.6161015033721924,-0.7161514759063721
-0.2003107070922851,1.3742996454238892,-0.3059565126895904,0.0374504961073398,-0.4903851151466369,-0.064177468419075,0.0,0.0,-0.2106096744537353,0.149131178855896
-0.20332732796669,1.3748841285705566,-0.2989400029182434,0.0250054392963647,-0.4934375882148742,-0.0610494017601013,0.0,0.0,-0.507354199886322,0.2863280773162842
-0.2062685042619705,1.375187635421753,-0.2915408611297607,0.0125607782974839,-0.4963264465332031,-0.0577773079276084,0.0,0.0,-0.4251995682716369,-0.8007082939147949
-0.2091967165470123,1.3752641677856443,-0.2922112941741943,0.0031816840637475,-0.4970093071460724,-0.0136573240160942,0.0,0.0,-0.5945846438407898,-0.1894218325614929
-0.2120424211025238,1.3750593662261963,-0.284122109413147,-0.0092617291957139,-0.4975147247314453,-0.0101084969937801,0.0,0.0,-0.5286234617233276,-0.6092653274536133
-0.2148410379886627,1.374596357345581,-0.2805531919002533,-0.0203246176242828,-0.4967376887798309,0.0155404862016439,0.0,0.0,-0.2380733489990234,-0.5944591164588928
-0.2175878584384918,1.3738898038864136,-0.2766158580780029,-0.0307045336812734,-0.494562953710556,0.0434947274625301,0.0,0.0,-0.3374063968658447,-0.5124623775482178
-0.2202848494052887,1.3729331493377686,-0.2729251980781555,-0.0413706228137016,-0.4909465312957763,0.0723282247781753,0.0,0.0,-0.3126736879348755,-0.1657314300537109
-0.2228880375623703,1.371695041656494,-0.2637346982955932,-0.0538140647113323,-0.4871277213096618,0.0763760060071945,0.0,0.0,-0.1698858737945556,-0.1200390458106994
-0.2253951579332351,1.370175838470459,-0.254319965839386,-0.0662574470043182,-0.4831009209156036,0.0805359706282615,0.0,0.0,-0.2819308042526245,0.1385587453842163
-0.227804034948349,1.3683750629425049,-0.2446991503238678,-0.0787008106708526,-0.4788607656955719,0.0848032012581825,0.0,0.0,-0.4629079699516296,-0.6161558628082275
-0.2301503121852874,1.3663225173950195,-0.239663079380989,-0.089491881430149,-0.4732659757137298,0.1118957549333572,0.0,0.0,0.1173690557479858,-0.2668574452400207
-0.2322943210601806,1.364357590675354,-0.2195579558610916,-0.0855807140469551,-0.4675533473491668,0.114252284169197,0.0,0.0,-0.1406399011611938,-0.5339692831039429
-0.2343695163726806,1.3621317148208618,-0.2137887924909591,-0.0968343317508697,-0.4606285095214844,0.1384965181350708,0.0,0.0,-0.3744389414787292,0.0786865949630737
-0.2363394796848297,1.3596248626708984,-0.2035017758607864,-0.1092797443270683,-0.4534714519977569,0.1431412100791931,0.0,0.0,0.270897626876831,0.1255474090576172
-0.2379413098096847,1.3576642274856567,-0.1669008284807205,-0.084980621933937,-0.4461078643798828,0.1472715735435485,0.0,0.0,-0.2752264738082886,-0.072586178779602
-0.2394352853298187,1.3554226160049438,-0.1563588082790374,-0.097426488995552,-0.4385040998458862,0.1520751267671585,0.0,0.0,-0.0023640394210815,-0.2480203509330749
-0.2408202588558197,1.3529003858566284,-0.1457054913043975,-0.1098726615309715,-0.4306564927101135,0.156951293349266,0.0,0.0,-0.2139424681663513,-0.3658424615859985
-0.2420950829982757,1.3500972986221311,-0.134950503706932,-0.1223191544413566,-0.4225617051124573,0.161895602941513,0.0,0.0,0.0666894912719726,0.1863942146301269
-0.2430258244276046,1.3476957082748413,-0.1009063869714737,-0.1044127643108367,-0.4140960872173309,0.1693129688501358,0.0,0.0,-0.2547193765640259,0.2252161502838134
-0.2438445091247558,1.3450134992599487,-0.0899739116430282,-0.1168601661920547,-0.4053770303726196,0.1743808686733245,0.0,0.0,-0.2920864224433899,0.4084032773971557
-0.2445504665374755,1.3420509099960327,-0.0789640992879867,-0.1293080151081085,-0.3964017927646637,0.1795045286417007,0.0,0.0,-0.2575926780700683,0.1488794088363647
-0.2451428472995758,1.3388079404830933,-0.0678837373852729,-0.1417563408613205,-0.387167751789093,0.1846801936626434,0.0,0.0,-0.6361652612686157,0.2183358669281005
-0.2456209659576416,1.3352844715118408,-0.0567390210926532,-0.1542051583528518,-0.3776725530624389,0.1899042278528213,0.0,0.0,-0.0103256106376647,0.5043878555297852
-0.2459472715854644,1.3314533233642578,-0.0408139787614345,-0.1681409478187561,-0.3690000772476196,0.1734495460987091,0.0,0.0,-0.743881106376648,-0.0093313455581665
-0.2461582124233245,1.3273416757583618,-0.0295562297105789,-0.1805892586708068,-0.3600620329380035,0.1787611544132232,0.0,0.0,-0.2911915779113769,-0.0573078989982605
-0.2462532967329025,1.3229496479034424,-0.0182498041540384,-0.1930381208658218,-0.3508564233779907,0.1841118931770324,0.0,0.0,-0.8080059885978699,-0.0086176991462707
-0.2462319880723953,1.318277359008789,-0.0068990848958492,-0.2054874897003173,-0.3413814902305603,0.1894987970590591,0.0,0.0,-0.8249825239181519,-0.1186153292655944
-0.2460938990116119,1.313324809074402,0.0044918986968696,-0.2179374396800995,-0.3316355347633362,0.1949190646409988,0.0,0.0,-0.9547562599182128,-0.2753822207450866
-0.2458385527133941,1.3080923557281494,0.0159194450825452,-0.2303880006074905,-0.321617066860199,0.200370043516159,0.0,0.0,-0.9035632610321044,-0.3210617303848266
-0.2454657107591629,1.3025795221328735,0.0273801479488611,-0.2428391724824905,-0.3113245964050293,0.2058492451906204,0.0,0.0,-0.9045626521110536,-0.610058605670929
-0.24501433968544,1.2967995405197144,0.0339369848370552,-0.2545322179794311,-0.299728661775589,0.2319189012050628,0.0,0.0,-0.9659005403518676,-0.286475658416748
-0.2444446980953216,1.2907400131225586,0.0454539321362972,-0.2669865787029266,-0.2878563404083252,0.2374465018510818,0.0,0.0,-0.8870664834976196,-0.5046175718307495
-0.2437880486249923,1.284421443939209,0.0529775321483612,-0.2783690690994262,-0.2748198807239532,0.2607294917106628,0.0,0.0,-0.9705939888954164,0.1324542760848999
-0.2430126219987869,1.2778241634368896,0.0645400434732437,-0.2908268868923187,-0.2615050673484802,0.2662962079048157,0.0,0.0,-0.9257456660270692,-0.0660632252693176
-0.242118164896965,1.2709479331970217,0.0761222019791603,-0.3032856583595276,-0.2479110807180404,0.2718797922134399,0.0,0.0,-0.9848222732543944,-0.089584469795227
-0.2411045134067535,1.2637933492660522,0.0877218097448349,-0.3157453536987304,-0.2340371310710907,0.2774785757064819,0.0,0.0,-0.9812763333320618,-0.1040107607841491
-0.2399714887142181,1.2563601732254028,0.0993368476629257,-0.3282060623168945,-0.2198825925588607,0.2830908894538879,0.0,0.0,-0.9853873252868652,-0.2039881348609924
-0.2387189418077469,1.2486488819122314,0.1109653934836387,-0.3406677544116974,-0.2054468095302581,0.2887154221534729,0.0,0.0,-0.9643253087997437,0.3057986497879028
-0.2373466938734054,1.2406591176986694,0.1226056590676307,-0.3531304895877838,-0.1907292753458023,0.2943506836891174,0.0,0.0,-0.9672118425369264,0.1586241722106933
-0.2358547151088714,1.232391595840454,0.134255900979042,-0.3655942976474762,-0.1757294982671737,0.2999954521656036,0.0,0.0,-0.970978617668152,0.4258286952972412
-0.2342429608106613,1.223846197128296,0.1459144651889801,-0.3780592083930969,-0.1604470759630203,0.3056484758853912,0.0,0.0,-0.9663411378860474,0.2655196189880371
-0.232511281967163,1.215023398399353,0.1575797945261001,-0.3905251920223236,-0.1448816508054733,0.311308741569519,0.0,0.0,-0.9719857573509216,0.2922232151031494
-0.2306598126888275,1.205923080444336,0.169250339269638,-0.4029923379421234,-0.1290328949689865,0.3169750869274139,0.0,0.0,-0.956947386264801,0.6866757869720459
-0.2286210507154464,1.1965374946594238,0.1893618404865265,-0.4159513115882873,-0.1145999878644943,0.2886582016944885,0.0,0.0,-0.9573703408241272,0.0705472230911254
-0.2264624536037445,1.1868739128112793,0.2010391652584076,-0.4284164011478424,-0.0998832061886787,0.2943359613418579,0.0,0.0,-0.97145414352417,-0.343399167060852
-0.2241839468479156,1.1769328117370603,0.2127172499895095,-0.4408825933933258,-0.084882341325283,0.3000172972679138,0.0,0.0,-0.980804204940796,0.111012578010559
-0.2217855900526046,1.1667143106460571,0.224394604563713,-0.4533498883247375,-0.0695972666144371,0.3057014346122741,0.0,0.0,-0.9642984867095948,0.2586718797683716
-0.2192675173282623,1.1562185287475586,0.2360698729753494,-0.4658182561397552,-0.054027896374464,0.3113874197006225,0.0,0.0,-0.9428530335426332,0.264304518699646
-0.2166296541690826,1.1454455852508545,0.247741550207138,-0.4782877266407013,-0.0381741747260093,0.3170744776725769,0.0,0.0,-0.963031530380249,0.4693487882614136
-0.2138721942901611,1.134395718574524,0.2594082355499267,-0.4907583594322204,-0.0220360849052667,0.3227618038654327,0.0,0.0,-0.946911871433258,0.717713475227356
-0.2109498977661132,1.1230688095092771,0.2767482697963714,-0.5032589435577393,-0.0067510907538235,0.3057000041007995,0.0,0.0,-0.9504624605178832,0.6532814502716064
-0.2078675329685211,1.1114624738693235,0.2935039401054382,-0.5158281922340393,0.0077959639020264,0.2909412086009979,0.0,0.0,-0.9272445440292358,-0.2020502686500549
-0.2046658098697662,1.0995789766311646,0.3051464259624481,-0.5282966494560242,0.022627305239439,0.2966268062591553,0.0,0.0,-0.9371486902236938,-0.3682954311370849
-0.2013449668884277,1.0874183177947998,0.3167775273323059,-0.5407660603523254,0.0377427786588668,0.3023094832897186,0.0,0.0,-0.8772379755973816,-0.1624412536621093
-0.1979051530361175,1.074980854988098,0.3283954560756683,-0.5532366037368774,0.053142212331295,0.3079884648323059,0.0,0.0,-0.8654295802116394,0.2462857961654663
-0.1943467110395431,1.0622665882110596,0.3399985134601593,-0.5657081604003906,0.0688253492116928,0.3136627078056335,0.0,0.0,-0.7181155681610107,0.3685696125030517
-0.1906695365905761,1.0492758750915527,0.3515847027301788,-0.5781808495521545,0.0847919359803199,0.319331407546997,0.0,0.0,-0.8267021775245667,0.7726454734802246
